Data from foam1_polythene_foam_FLMS001491_00099.txt Node
Date: Wed Feb 08 10:55:40 GMT 2017
User: dcchb
Spectrometer: FLMS00149
Trigger mode: 0
Integration Time (sec): 2.000000E-2
Scans to average: 10
Electric dark correction enabled: true
Nonlinearity correction enabled: false
Boxcar width: 0
XAxis mode: Wavelengths
Number of Pixels in Spectrum: 2048
>>>>>Begin Spectral Data<<<<<
341.393	4.24
341.776	4.24
342.16	4.24
342.543	-61.07
342.927	-76.89
343.31	-86.16
343.693	-67.4
344.077	-60.62
344.46	-45.25
344.843	-53.16
345.226	-55.87
345.61	-28.3
345.993	-12.94
346.376	-15.88
346.759	18.02
347.142	44.69
347.525	21.41
347.908	58.47
348.291	80.62
348.674	101.86
349.057	100.51
349.44	121.75
349.823	136.66
350.206	141.86
350.588	170.33
350.971	181.86
351.354	206.49
351.737	232.48
352.119	221.41
352.502	240.39
352.884	241.52
353.267	268.19
353.65	258.24
354.032	297.11
354.414	307.73
354.797	299.37
355.179	302.08
355.562	316.55
355.944	322.87
356.326	316.55
356.709	296.66
357.091	312.7
357.473	327.62
357.855	336.21
358.238	326.26
358.62	326.49
359.002	324.23
359.384	330.78
359.766	303.66
360.148	322.42
360.53	312.03
360.912	295.08
361.294	317.22
361.676	306.15
362.057	314.74
362.439	304.12
362.821	305.25
363.203	328.07
363.584	303.66
363.966	312.93
364.348	295.08
364.729	297.34
365.111	309.99
365.493	315.19
365.874	297.11
366.256	302.99
366.637	298.69
367.019	302.99
367.4	285.36
367.781	296.88
368.163	294.85
368.544	305.02
368.925	298.01
369.306	291.46
369.688	294.85
370.069	293.27
370.45	290.33
370.831	303.21
371.212	308.64
371.593	303.89
371.974	307.73
372.355	294.17
372.736	305.02
373.117	293.27
373.498	290.33
373.879	312.03
374.26	293.95
374.641	280.84
375.021	307.51
375.402	321.29
375.783	299.6
376.163	293.72
376.544	308.64
376.925	300.73
377.305	316.09
377.686	308.41
378.066	300.27
378.447	316.55
378.827	318.81
379.208	321.52
379.588	320.84
379.968	311.35
380.349	312.25
380.729	335.3
381.109	322.42
381.489	303.21
381.87	353.61
382.25	337.79
382.63	327.39
383.01	328.52
383.39	319.48
383.77	335.53
384.15	343.66
384.53	331.91
384.91	341.18
385.29	345.47
385.67	327.39
386.049	333.27
386.429	347.96
386.809	337.56
387.189	325.81
387.568	339.82
387.948	321.52
388.328	342.76
388.707	334.62
389.087	361.97
389.466	350.89
389.846	336.21
390.225	345.92
390.605	352.93
390.984	349.99
391.363	341.86
391.743	326.94
392.122	367.39
392.501	339.14
392.881	372.59
393.26	360.84
393.639	368.75
394.018	357.45
394.397	379.37
394.776	354.51
395.155	369.88
395.534	378.01
395.913	368.75
396.292	370.33
396.671	382.53
397.05	376.2
397.429	360.84
397.808	370.56
398.186	383.44
398.565	386.6
398.944	377.56
399.323	376.66
399.701	380.95
400.08	372.14
400.458	389.31
400.837	410.78
401.215	387.28
401.594	404.68
401.972	397
402.351	399.71
402.729	408.07
403.107	412.36
403.486	390.67
403.864	392.7
404.242	396.54
404.62	390.89
404.999	414.4
405.377	402.87
405.755	410.78
406.133	416.43
406.511	415.3
406.889	432.93
407.267	438.12
407.645	435.64
408.023	434.06
408.401	429.76
408.779	440.16
409.156	441.51
409.534	428.18
409.912	459.59
410.29	452.14
410.667	451.68
411.045	467.05
411.422	466.37
411.8	447.84
412.178	455.52
412.555	471.34
412.933	465.69
413.31	443.77
413.687	481.29
414.065	496.2
414.442	461.63
414.819	485.13
415.197	477.22
415.574	491.68
415.951	484
416.328	485.58
416.705	502.3
417.082	468.18
417.46	511.79
417.837	506.37
418.214	513.83
418.591	504.56
418.967	518.35
419.344	538.91
419.721	511.79
420.098	518.12
420.475	530.33
420.852	526.48
421.228	526.26
421.605	529.65
421.982	552.7
422.358	529.42
422.735	561.96
423.111	549.31
423.488	568.52
423.864	560.15
424.241	558.8
424.617	559.7
424.994	568.29
425.37	569.42
425.746	565.8
426.123	578.01
426.499	591.11
426.875	600.15
427.251	585.46
427.627	613.49
428.003	610.55
428.379	597.22
428.756	603.32
429.132	608.97
429.507	620.49
429.883	618.01
430.259	625.92
430.635	650.77
431.011	626.59
431.387	660.49
431.763	662.3
432.138	643.09
432.514	646.25
432.89	666.37
433.265	690.55
433.641	707.5
434.016	680.38
434.392	698.91
434.767	704.56
435.143	700.04
435.518	705.69
435.894	699.36
436.269	724.9
436.644	739.81
437.02	742.3
437.395	749.53
437.77	752.69
438.145	770.77
438.52	764.9
438.895	782.75
439.271	782.75
439.646	777.55
440.021	792.47
440.395	800.6
440.77	792.47
441.145	816.19
441.52	809.41
441.895	848.06
442.27	828.85
442.645	853.48
443.019	832.24
443.394	842.63
443.769	846.93
444.143	857.1
444.518	860.03
444.892	892.35
445.267	891.67
445.641	876.53
446.016	906.36
446.39	917.89
446.764	913.37
447.139	910.43
447.513	903.2
447.887	900.26
448.262	914.5
448.636	924.89
449.01	962.18
449.384	965.57
449.758	965.57
450.132	967.6
450.506	977.09
450.88	985
451.254	966.25
451.628	999.47
452.002	1018.9
452.376	1024.1
452.75	1009.41
453.123	1029.29
453.497	1040.14
453.871	1004.89
454.244	1081.95
454.618	1058.45
454.992	1052.35
455.365	1062.06
455.739	1085.34
456.112	1090.54
456.486	1073.81
456.859	1088.28
457.232	1115.85
457.606	1110.42
457.979	1122.17
458.352	1126.24
458.725	1145
459.099	1167.37
459.472	1180.93
459.845	1171.66
460.218	1178.67
460.591	1191.32
460.964	1138.9
461.337	1211.21
461.71	1223.64
462.083	1228.84
462.456	1219.12
462.829	1227.26
463.201	1277.2
463.574	1271.32
463.947	1272.45
464.32	1283.75
464.692	1307.93
465.065	1313.13
465.438	1320.13
465.81	1345.9
466.183	1346.35
466.555	1379.34
466.928	1375.5
467.3	1373.92
467.672	1414.14
468.045	1419.57
468.417	1429.06
468.789	1441.26
469.161	1430.64
469.534	1466.57
469.906	1484.88
470.278	1520.36
470.65	1511.54
471.022	1499.57
471.394	1543.41
471.766	1568.04
472.138	1573.69
472.51	1605.1
472.882	1622.5
473.253	1617.53
473.625	1638.54
473.997	1646
474.369	1684.64
474.74	1691.65
475.112	1733.91
475.484	1756.28
475.855	1787.02
476.227	1804.42
476.598	1858.43
476.97	1853.91
477.341	1869.95
477.713	1909.05
478.084	1905.2
478.455	1957.63
478.827	1957.63
479.198	2016.39
479.569	1997.18
479.94	2074.47
480.311	2088.48
480.682	2128.02
481.053	2160.56
481.424	2192.88
481.795	2197.85
482.166	2249.38
482.537	2288.02
482.908	2309.71
483.279	2318.75
483.65	2366.66
484.021	2434.68
484.391	2458.64
484.762	2487.11
485.133	2473.1
485.503	2514.68
485.874	2526.88
486.244	2579.08
486.615	2637.61
486.985	2668.57
487.356	2697.27
487.726	2727.78
488.097	2777.5
488.467	2758.52
488.837	2819.08
489.207	2861.56
489.578	2879.87
489.948	2930.26
490.318	2930.71
490.688	3021.11
491.058	3039.64
491.428	3098.39
491.798	3053.42
492.168	3140.43
492.538	3170.71
492.908	3172.52
493.278	3207.09
493.648	3233.76
494.017	3325.51
494.387	3335.22
494.757	3328.67
495.126	3384.94
495.496	3385.84
495.866	3432.85
496.235	3422.23
496.605	3486.63
496.974	3527.99
497.344	3525.73
497.713	3518.72
498.082	3557.82
498.452	3616.12
498.821	3615.89
499.19	3687.53
499.559	3701.54
499.928	3686.85
500.298	3724.59
500.667	3800.07
501.036	3761.43
501.405	3803.91
501.774	3796.68
502.143	3841.88
502.512	3919.16
502.88	3873.29
503.249	3898.82
503.618	3989.9
503.987	4008.2
504.356	3981.53
504.724	4030.57
505.093	4044.36
505.462	4054.98
505.83	4109.21
506.199	4151.7
506.567	4188.76
506.936	4205.48
507.304	4224.92
507.672	4260.17
508.041	4324.8
508.409	4337.91
508.777	4357.34
509.145	4400.73
509.514	4418.58
509.882	4431.24
510.25	4457.23
510.618	4480.73
510.986	4516.21
511.354	4542.2
511.722	4559.15
512.09	4630.56
512.458	4658.8
512.826	4692.25
513.193	4707.62
513.561	4699.25
513.929	4808.4
514.297	4810.89
514.664	4779.48
515.032	4910.1
515.4	4892.02
515.767	4905.13
516.135	4967.5
516.502	4913.71
516.869	5041.62
517.237	5052.92
517.604	5046.36
517.972	5120.49
518.339	5136.08
518.706	5145.8
519.073	5148.73
519.44	5205.68
519.808	5283.19
520.175	5262.18
520.542	5381.5
520.909	5412.91
521.276	5384.89
521.643	5421.5
522.009	5477.77
522.376	5527.71
522.743	5605.9
523.11	5640.47
523.477	5707.14
523.843	5710.98
524.21	5733.58
524.577	5824.42
524.943	5873.69
525.31	5869.62
525.676	5942.16
526.043	5940.8
526.409	6012.44
526.776	6051.31
527.142	6052.44
527.508	6106.9
527.874	6211.31
528.241	6251.53
528.607	6277.74
528.973	6258.31
529.339	6268.48
529.705	6323.17
530.071	6395.48
530.437	6421.02
530.803	6424.63
531.169	6531.75
531.535	6509.15
531.901	6522.03
532.267	6587.79
532.632	6608.36
532.998	6674.57
533.364	6731.97
533.73	6694.23
534.095	6836.15
534.461	6763.61
534.826	6820.33
535.192	6853.55
535.557	6906.88
535.923	6920.44
536.288	6910.72
536.653	6974.68
537.019	6938.52
537.384	7007.89
537.749	7024.62
538.114	7025.97
538.479	7122.24
538.845	7138.96
539.21	7192.3
539.575	7208.34
539.94	7209.92
540.305	7235.46
540.67	7261.45
541.034	7280.88
541.399	7324.95
541.764	7332.18
542.129	7399.75
542.494	7378.28
542.858	7377.83
543.223	7381.22
543.587	7432.97
543.952	7471.61
544.316	7515
544.681	7532.85
545.045	7555.45
545.41	7559.07
545.774	7636.13
546.138	7640.65
546.503	7673.87
546.867	7693.75
547.231	7695.11
547.595	7803.35
547.959	7758.84
548.324	7841.32
548.688	7845.39
549.052	7898.49
549.416	7915.67
549.779	7927.19
550.143	7897.14
550.507	7958.6
550.871	7995.21
551.235	8051.26
551.599	8098.71
551.962	8098.49
552.326	8097.81
552.689	8134.87
553.053	8103.46
553.417	8146.85
553.78	8308.2
554.143	8240.86
554.507	8308.88
554.87	8369.67
555.234	8402.21
555.597	8365.15
555.96	8382.55
556.323	8406.28
556.686	8466.16
557.05	8543
557.413	8578.93
557.776	8570.11
558.139	8686.27
558.502	8679.94
558.865	8679.72
559.228	8705.25
559.59	8733.27
559.953	8824.8
560.316	8944.79
560.679	8891.46
561.041	8957.9
561.404	9034.06
561.767	9031.34
562.129	8993.61
562.492	9073.38
562.854	9107.05
563.217	9126.94
563.579	9183.66
563.941	9236.08
564.304	9288.74
564.666	9265.01
565.028	9330.77
565.39	9333.48
565.753	9366.93
566.115	9434.27
566.477	9496.42
566.839	9552.01
567.201	9661.61
567.563	9608.28
567.925	9707.26
568.287	9671.1
568.648	9713.13
569.01	9722.85
569.372	9871.1
569.734	9808.27
570.095	9893.02
570.457	9909.74
570.819	9937.54
571.18	9935.95
571.542	9992.45
571.903	10030.19
572.265	9942.28
572.626	10029.96
572.987	10114.71
573.349	10077.42
573.71	10234.02
574.071	10217.08
574.432	10179.34
574.794	10301.37
575.155	10255.49
575.516	10239
575.877	10337.52
576.238	10316.06
576.599	10373.91
576.96	10429.73
577.32	10373.68
577.681	10408.94
578.042	10403.06
578.403	10379.56
578.763	10389.27
579.124	10464.75
579.485	10530.74
579.845	10594.02
580.206	10580
580.566	10550.63
580.927	10573.68
581.287	10631.08
581.648	10545.43
582.008	10540.01
582.368	10548.59
582.728	10590.85
583.089	10607.12
583.449	10657.74
583.809	10596.73
584.169	10672.21
584.529	10645.77
584.889	10754.91
585.249	10600.57
585.609	10601.47
585.969	10625.65
586.329	10547.91
586.688	10632.66
587.048	10695.93
587.408	10656.16
587.768	10707.46
588.127	10576.84
588.487	10585.43
588.846	10685.76
589.206	10596.73
589.565	10623.17
589.925	10673.34
590.284	10644.86
590.643	10737.06
591.003	10755.59
591.362	10718.53
591.721	10709.27
592.08	10684.41
592.44	10702.71
592.799	10664.07
593.158	10711.75
593.517	10713.79
593.876	10688.93
594.235	10747.46
594.593	10710.17
594.952	10727.12
595.311	10758.76
595.67	10711.3
596.029	10708.14
596.387	10830.17
596.746	10788.81
597.104	10784.29
597.463	10811.18
597.822	10817.51
598.18	10769.6
598.538	10761.69
598.897	10863.84
599.255	10748.14
599.613	10894.35
599.972	10828.36
600.33	10796.04
600.688	10836.72
601.046	10885.76
601.404	10862.71
601.762	10904.52
602.12	10950.16
602.478	10971.86
602.836	10928.24
603.194	10829.04
603.552	10911.97
603.91	10826.78
604.268	10897.74
604.625	10845.53
604.983	10891.63
605.341	10922.59
605.698	10950.84
606.056	10945.87
606.413	10925.98
606.771	10949.94
607.128	10941.8
607.485	10860.45
607.843	10934.12
608.2	11019.31
608.557	11134.79
608.914	10949.26
609.272	11062.48
609.629	11125.53
609.986	11092.76
610.343	11057.05
610.7	11144.28
611.057	11141.8
611.414	11099.99
611.771	11121.23
612.127	11168.92
612.484	11209.14
612.841	11223.83
613.198	11219.08
613.554	11178.41
613.911	11213.66
614.267	11188.58
614.624	11201
614.98	11134.11
615.337	11243.94
615.693	11195.13
616.05	11179.54
616.406	11317.16
616.762	11258.63
617.118	11220.67
617.475	11256.82
617.831	11278.97
618.187	11276.94
618.543	11325.97
618.899	11316.48
619.255	11331.62
619.611	11218.63
619.967	11436.48
620.323	11398.29
620.678	11307.22
621.034	11421.11
621.39	11361
621.746	11271.74
622.101	11481
622.457	11296.82
622.812	11375.46
623.168	11331.85
623.523	11365.97
623.879	11375.69
624.234	11291.85
624.589	11303.83
624.945	11428.8
625.3	11357.61
625.655	11338.85
626.01	11359.87
626.365	11415.24
626.72	11302.25
627.075	11259.31
627.43	11246.43
627.785	11285.3
628.14	11350.38
628.495	11328.91
628.85	11284.62
629.205	11216.6
629.559	11311.96
629.914	11284.84
630.269	11257.5
630.623	11191.74
630.978	11139.09
631.332	11239.87
631.687	11238.74
632.041	11126.66
632.396	11118.07
632.75	11150.61
633.104	11222.02
633.459	11124.4
633.813	11148.35
634.167	11153.77
634.521	11070.84
634.875	11111.74
635.229	11041.69
635.583	11074.23
635.937	10988.36
636.291	11023.61
636.645	11003.72
636.999	11059.99
637.352	11072.42
637.706	10951.75
638.06	11001.01
638.413	10971.41
638.767	10923.72
639.121	10973.67
639.474	10889.15
639.828	10808.02
640.181	10837.4
640.534	10861.13
640.888	10825.42
641.241	10841.24
641.594	10882.82
641.947	10826.33
642.301	10834.69
642.654	10848.47
643.007	10801.92
643.36	10797.63
643.713	10740.9
644.066	10753.11
644.419	10702.49
644.771	10670.17
645.124	10608.48
645.477	10572.77
645.83	10458.2
646.182	10453.23
646.535	10371.2
646.888	10366
647.24	10329.62
647.593	10379.33
647.945	10268.83
648.298	10278.54
648.65	10296.4
649.002	10239.9
649.355	10290.75
649.707	10288.94
650.059	10336.17
650.411	10418.2
650.763	10445.32
651.115	10546.11
651.467	10491.87
651.819	10485.09
652.171	10511.08
652.523	10387.24
652.875	10435.38
653.227	10387.47
653.578	10463.85
653.93	10427.47
654.282	10415.94
654.633	10468.82
654.985	10381.82
655.337	10368.48
655.688	10316.06
656.039	10344.53
656.391	10241.71
656.742	10347.24
657.094	10341.37
657.445	10351.54
657.796	10337.3
658.147	10308.37
658.498	10307.47
658.849	10317.64
659.2	10256.85
659.551	10294.81
659.902	10331.2
660.253	10242.61
660.604	10279.9
660.955	10215.49
661.306	10309.95
661.656	10255.72
662.007	10235.15
662.358	10203.52
662.708	10219.79
663.059	10203.07
663.409	10102.28
663.76	10224.99
664.11	10209.62
664.461	10231.99
664.811	10175.5
665.161	10141.15
665.511	10094.14
665.862	10123.07
666.212	10173.01
666.562	10180.69
666.912	10188.15
667.262	10093.24
667.612	10189.51
667.962	10151.32
668.312	10069.74
668.662	10124.88
669.011	10172.78
669.361	10121.49
669.711	10121.49
670.06	10005.33
670.41	10044.65
670.76	9991.09
671.109	10092.33
671.459	10070.87
671.808	10011.66
672.157	10070.19
672.507	10055.5
672.856	10045.56
673.205	10027.25
673.554	9959.46
673.904	9968.27
674.253	9991.32
674.602	9944.99
674.951	9890.53
675.3	9820.93
675.649	9924.88
675.998	9975.27
676.346	9965.78
676.695	9985.44
677.044	9907.25
677.393	9949.74
677.741	9947.48
678.09	9917.42
678.438	9900.02
678.787	9834.94
679.135	9910.19
679.484	9831.32
679.832	9897.54
680.181	9789.06
680.529	9803.08
680.877	9798.1
681.225	9762.62
681.573	9816.63
681.922	9759.01
682.27	9735.73
682.618	9804.88
682.966	9746.58
683.314	9768.5
683.661	9664.55
684.009	9633.81
684.357	9579.8
684.705	9661.38
685.053	9626.13
685.4	9682.85
685.748	9581.39
686.095	9609.63
686.443	9567.15
686.79	9573.93
687.138	9553.59
687.485	9546.13
687.832	9543.65
688.18	9481.05
688.527	9441.05
688.874	9428.62
689.221	9389.53
689.568	9357.66
689.915	9301.17
690.262	9337.1
690.609	9303.43
690.956	9333.71
691.303	9281.73
691.65	9255.52
691.997	9248.29
692.344	9208.74
692.69	9167.16
693.037	9155.41
693.383	9135.97
693.73	9122.19
694.077	9046.94
694.423	9059.37
694.769	9021.18
695.116	9003.32
695.462	9024.79
695.808	8932.36
696.155	9024.56
696.501	8948.63
696.847	8949.99
697.193	8886.72
697.539	8940.27
697.885	8843.55
698.231	8805.14
698.577	8756.32
698.923	8715.42
699.269	8695.31
699.614	8699.83
699.96	8662.09
700.306	8723.56
700.651	8631.35
700.997	8593.62
701.342	8665.7
701.688	8585.93
702.033	8589.32
702.379	8640.39
702.724	8508.87
703.069	8562.2
703.415	8405.82
703.76	8419.16
704.105	8413.06
704.45	8411.02
704.795	8314.75
705.14	8326.28
705.485	8324.92
705.83	8350.68
706.175	8366.73
706.52	8311.82
706.865	8263.23
707.209	8300.29
707.554	8246.51
707.899	8191.14
708.243	8176.68
708.588	8182.1
708.932	8096.45
709.277	8086.28
709.621	8099.39
709.966	8052.16
710.31	8104.36
710.654	8012.39
710.998	8054.87
711.342	8008.55
711.687	8027.3
712.031	8015.33
712.375	7955.44
712.719	7982.56
713.063	7914.54
713.407	7997.25
713.75	7844.93
714.094	7887.65
714.438	7861.21
714.782	7856.91
715.125	7732.85
715.469	7768.55
715.812	7836.35
716.156	7767.2
716.499	7779.85
716.843	7829.34
717.186	7730.36
717.53	7817.14
717.873	7746.63
718.216	7740.08
718.559	7630.93
718.902	7645.84
719.246	7645.39
719.589	7614.43
719.932	7546.64
720.275	7633.64
720.617	7611.95
720.96	7621.66
721.303	7593.19
721.646	7560.65
721.989	7577.15
722.331	7627.09
722.674	7541.21
723.016	7596.13
723.359	7566.52
723.701	7523.81
724.044	7477.71
724.386	7410.6
724.729	7408.34
725.071	7502.35
725.413	7509.35
725.755	7406.53
726.097	7342.58
726.439	7414.44
726.782	7346.87
727.124	7377.6
727.465	7368.11
727.807	7327.66
728.149	7370.82
728.491	7281.56
728.833	7349.13
729.175	7250.15
729.516	7217.61
729.858	7193.43
730.199	7269.81
730.541	7229.13
730.882	7260.32
731.224	7228.91
731.565	7152.3
731.906	7211.51
732.248	7198.17
732.589	7169.25
732.93	7170.6
733.271	7117.95
733.612	7169.7
733.953	7186.65
734.294	7145.52
734.635	7162.47
734.976	7144.39
735.317	7080.66
735.658	7139.64
735.999	7123.15
736.339	7024.17
736.68	7051.06
737.021	7006.09
737.361	7015.58
737.702	7016.48
738.042	7064.84
738.383	7001.79
738.723	6974.45
739.063	6925.86
739.404	6981.45
739.744	7011.74
740.084	6965.86
740.424	6941.91
740.764	6953.66
741.104	6934.9
741.444	6866.43
741.784	6874.34
742.124	6899.65
742.464	6862.81
742.804	6815.36
743.143	6865.53
743.483	6838.63
743.823	6754.12
744.162	6730.16
744.502	6784.85
744.841	6796.6
745.181	6776.49
745.52	6763.16
745.86	6790.05
746.199	6803.83
746.538	6757.05
746.877	6771.74
747.216	6774.68
747.556	6758.86
747.895	6722.25
748.234	6678.41
748.573	6646.32
748.911	6690.39
749.25	6687
749.589	6626.66
749.928	6623.05
750.267	6592.09
750.605	6573.1
750.944	6531.07
751.283	6585.76
751.621	6551.41
751.96	6549.38
752.298	6583.27
752.636	6546.89
752.975	6517.74
753.313	6492.2
753.651	6537.4
753.989	6515.7
754.327	6481.36
754.666	6437.06
755.004	6430.51
755.342	6430.73
755.679	6373.56
756.017	6349.61
756.355	6407.68
756.693	6360.91
757.031	6362.49
757.368	6268.71
757.706	6349.61
758.044	6277.07
758.381	6314.58
758.719	6289.5
759.056	6270.97
759.394	6255.82
759.731	6183.51
760.068	6181.02
760.405	6162.95
760.743	6152.78
761.08	6111.42
761.417	6094.02
761.754	6055.83
762.091	6062.61
762.428	6070.07
762.765	6038.2
763.102	6118.43
763.438	6016.06
763.775	6094.7
764.112	6108.26
764.449	6027.13
764.785	6033.91
765.122	5946.45
765.458	5949.62
765.795	5891.09
766.131	5903.52
766.467	5869.39
766.804	5877.76
767.14	5824.2
767.476	5823.07
767.812	5737.42
768.148	5812.22
768.485	5775.61
768.821	5728.38
769.157	5722.05
769.492	5776.97
769.828	5696.97
770.164	5727.25
770.5	5707.14
770.836	5736.52
771.171	5649.96
771.507	5613.13
771.842	5553.92
772.178	5608.16
772.513	5548.72
772.849	5529.97
773.184	5516.63
773.519	5525.67
773.855	5478.9
774.19	5468.5
774.525	5449.97
774.86	5443.19
775.195	5420.14
775.53	5394.38
775.865	5394.15
776.2	5364.77
776.535	5335.17
776.87	5335.4
777.205	5329.75
777.539	5273.25
777.874	5302.63
778.209	5250.65
778.543	5240.03
778.878	5221.95
779.212	5196.64
779.547	5164.78
779.881	5181.95
780.215	5121.62
780.55	5108.74
780.884	5059.7
781.218	5081.39
781.552	5073.93
781.886	5054.05
782.22	5063.77
782.554	5026.7
782.888	4999.13
783.222	5010.66
783.556	5014.27
783.889	4952.13
784.223	4918.68
784.557	4918.46
784.89	4878.46
785.224	4878.69
785.557	4878.01
785.891	4852.02
786.224	4837.1
786.558	4821.29
786.891	4747.62
787.224	4734.06
787.557	4748.75
787.891	4725.69
788.224	4783.77
788.557	4760.95
788.89	4765.47
789.223	4752.59
789.556	4707.62
789.888	4729.99
790.221	4668.07
790.554	4659.93
790.887	4660.84
791.219	4635.75
791.552	4619.26
791.884	4545.81
792.217	4559.37
792.549	4544.23
792.882	4538.81
793.214	4469.2
793.546	4501.07
793.879	4485.02
794.211	4438.7
794.543	4445.02
794.875	4457.91
795.207	4448.41
795.539	4442.76
795.871	4459.04
796.203	4409.32
796.535	4415.19
796.867	4355.99
797.198	4351.24
797.53	4392.14
797.862	4394.63
798.193	4354.18
798.525	4301.98
798.856	4323.45
799.188	4286.16
799.519	4238.93
799.85	4229.89
800.182	4207.52
800.513	4247.74
800.844	4188.08
801.175	4247.06
801.506	4251.81
801.837	4176.56
802.168	4194.18
802.499	4214.75
802.83	4207.74
803.161	4136.56
803.491	4107.18
803.822	4168.42
804.153	4133.62
804.483	4089.55
804.814	4069.44
805.145	4065.6
805.475	4043.45
805.805	4040.74
806.136	4019.05
806.466	3996.9
806.796	3990.57
807.126	3994.41
807.457	4018.37
807.787	3969.33
808.117	3967.52
808.447	3954.87
808.777	4018.82
809.107	3922.78
809.436	3921.2
809.766	3956.9
810.096	3988.09
810.426	3923.68
810.755	3941.08
811.085	3926.62
811.414	3881.65
811.744	3872.84
812.073	3822.22
812.403	3854.08
812.732	3791.93
813.061	3818.37
813.39	3805.04
813.719	3754.42
814.049	3836.23
814.378	3817.02
814.707	3806.17
815.036	3796.91
815.365	3789.9
815.693	3764.14
816.022	3787.19
816.351	3781.54
816.68	3754.2
817.008	3762.1
817.337	3753.29
817.665	3698.6
817.994	3706.06
818.322	3697.02
818.651	3681.65
818.979	3666.74
819.307	3709.22
819.636	3664.93
819.964	3584.03
820.292	3596.01
820.62	3596.91
820.948	3603.01
821.276	3607.31
821.604	3612.73
821.932	3649.79
822.259	3672.62
822.587	3613.86
822.915	3650.47
823.243	3646.18
823.57	3646.63
823.898	3673.07
824.225	3645.27
824.553	3643.46
824.88	3638.27
825.207	3636.91
825.535	3626.29
825.862	3642.56
826.189	3582.22
826.516	3609.79
826.843	3622.9
827.17	3612.05
827.497	3629
827.824	3643.01
828.151	3615.67
828.478	3577.25
828.805	3594.43
829.131	3638.94
829.458	3628.55
829.785	3589.68
830.111	3587.87
830.438	3654.31
830.764	3656.57
831.09	3662.67
831.417	3611.15
831.743	3631.94
832.069	3650.92
832.395	3584.71
832.722	3607.53
833.048	3549.45
833.374	3612.96
833.7	3539.96
834.026	3552.17
834.351	3568.66
834.677	3580.19
835.003	3535.44
835.329	3559.62
835.654	3525.05
835.98	3553.07
836.306	3550.36
836.631	3560.3
836.956	3565.73
837.282	3544.71
837.607	3549.68
837.932	3588.55
838.258	3539.51
838.583	3553.97
838.908	3508.33
839.233	3563.24
839.558	3497.93
839.883	3499.96
840.208	3487.08
840.533	3469
840.858	3441.43
841.182	3443.47
841.507	3449.8
841.832	3435.33
842.156	3438.95
842.481	3427.2
842.805	3418.61
843.13	3389.68
843.454	3416.58
843.778	3406.41
844.103	3376.13
844.427	3376.8
844.751	3431.94
845.075	3416.58
845.399	3397.59
845.723	3413.41
846.047	3409.8
846.371	3357.82
846.695	3363.92
847.019	3351.04
847.343	3342.45
847.666	3307.88
847.99	3275.56
848.313	3302.68
848.637	3242.12
848.96	3242.12
849.284	3230.14
849.607	3239.18
849.931	3199.86
850.254	3212.97
850.577	3152.63
850.9	3198.05
851.223	3190.37
851.546	3198.5
851.869	3191.95
852.192	3157.15
852.515	3142.91
852.838	3132.52
853.161	3127.54
853.483	3130.71
853.806	3092.52
854.129	3089.58
854.451	3072.41
854.774	3052.97
855.096	3043.03
855.419	3052.07
855.741	3017.94
856.063	3024.5
856.385	3007.55
856.708	2990.37
857.03	2985.4
857.352	2994.22
857.674	2969.13
857.996	2973.88
858.318	2934.56
858.64	2909.02
858.961	2935.69
859.283	2938.4
859.605	2932.75
859.926	2986.76
860.248	2959.64
860.57	2922.8
860.891	2908.12
861.212	2938.62
861.534	2930.04
861.855	2908.12
862.176	2902.92
862.498	2918.28
862.819	2872.41
863.14	2841.9
863.461	2826.76
863.782	2873.09
864.103	2823.6
864.424	2819.98
864.745	2854.56
865.065	2808.68
865.386	2781.79
865.707	2834.22
866.027	2796.93
866.348	2821.34
866.668	2810.49
866.989	2798.97
867.309	2823.37
867.63	2844.61
867.95	2825.63
868.27	2808.23
868.59	2793.54
868.91	2811.17
869.23	2782.24
869.55	2800.32
869.87	2782.24
870.19	2762.81
870.51	2794.22
870.83	2775.69
871.15	2720.55
871.469	2726.2
871.789	2748.8
872.109	2718.06
872.428	2707.89
872.748	2712.64
873.067	2710.38
873.386	2716.48
873.706	2764.39
874.025	2699.76
874.344	2697.95
874.663	2734.56
874.982	2711.74
875.301	2719.19
875.62	2666.09
875.939	2716.71
876.258	2705.18
876.577	2720.32
876.896	2701.79
877.214	2670.61
877.533	2673.09
877.852	2644.17
878.17	2670.83
878.489	2706.99
878.807	2661.79
879.125	2674.9
879.444	2628.35
879.762	2652.08
880.08	2661.12
880.398	2639.42
880.716	2626.09
881.034	2590.38
881.352	2638.97
881.67	2582.02
881.988	2621.12
882.306	2620.89
882.624	2620.21
882.941	2629.48
883.259	2589.25
883.577	2601.46
883.894	2585.64
884.212	2602.59
884.529	2634.22
884.846	2567.79
885.164	2572.76
885.481	2580.67
885.798	2576.6
886.115	2577.95
886.432	2546.77
886.75	2553.32
887.067	2546.09
887.383	2537.05
887.7	2504.06
888.017	2487.34
888.334	2501.57
888.651	2511.29
888.967	2481.69
889.284	2494.79
889.6	2477.84
889.917	2482.36
890.233	2468.58
890.55	2476.04
890.866	2474.45
891.182	2479.65
891.498	2476.04
891.815	2459.31
892.131	2436.04
892.447	2481.46
892.763	2448.01
893.079	2449.37
893.395	2448.24
893.71	2456.15
894.026	2432.2
894.342	2378.86
894.657	2399.88
894.973	2414.8
895.289	2349.94
895.604	2347
895.92	2374.34
896.235	2343.84
896.55	2345.19
896.865	2358.53
897.181	2351.07
897.496	2323.05
897.811	2326.44
898.126	2297.96
898.441	2303.16
898.756	2297.51
899.071	2292.99
899.386	2296.38
899.7	2283.73
900.015	2281.69
900.33	2321.46
900.644	2284.18
900.959	2265.19
901.273	2264.52
901.588	2252.31
901.902	2277.17
902.216	2263.84
902.531	2225.42
902.845	2218.87
903.159	2219.32
903.473	2227.23
903.787	2209.6
904.101	2217.29
904.415	2189.72
904.729	2175.71
905.042	2136.16
905.356	2131.41
905.67	2134.12
905.984	2140.9
906.297	2139.55
906.611	2126.22
906.924	2102.94
907.237	2109.04
907.551	2093.9
907.864	2104.07
908.177	2123.28
908.491	2113.56
908.804	2095.93
909.117	2069.27
909.43	2058.87
909.743	2045.99
910.056	2067.46
910.368	2066.78
910.681	2068.36
910.994	2059.32
911.307	2056.39
911.619	2027.91
911.932	2038.08
912.244	2041.92
912.557	1995.82
912.869	1974.35
913.181	1985.43
913.494	1975.71
913.806	1968.25
914.118	1955.82
914.43	1968.03
914.742	1948.14
915.054	1911.53
915.366	1921.02
915.678	1951.08
915.99	1923.73
916.302	1907.24
916.613	1930.06
916.925	1914.02
917.236	1911.08
917.548	1890.29
917.859	1904.98
918.171	1887.8
918.482	1913.79
918.794	1894.13
919.105	1884.64
919.416	1899.1
919.727	1822.72
920.038	1848.48
920.349	1846
920.66	1858.65
920.971	1814.81
921.282	1828.14
921.593	1809.39
921.903	1801.93
922.214	1798.31
922.525	1785.89
922.835	1788.37
923.146	1769.61
923.456	1749.73
923.767	1761.48
924.077	1733.01
924.387	1723.29
924.697	1727.36
925.008	1718.99
925.318	1726
925.628	1726.45
925.938	1695.72
926.248	1701.82
926.558	1702.5
926.867	1697.98
927.177	1699.56
927.487	1698.66
927.796	1704.98
928.106	1717.64
928.416	1693.91
928.725	1678.77
929.034	1681.26
929.344	1673.57
929.653	1649.17
929.962	1631.77
930.271	1622.05
930.581	1650.75
930.89	1595.38
931.199	1579.79
931.508	1639
931.817	1605.78
932.125	1583.63
932.434	1586.79
932.743	1586.57
933.051	1582.95
933.36	1587.25
933.669	1567.36
933.977	1571.43
934.286	1563.97
934.594	1607.36
934.902	1552.9
935.21	1555.83
935.519	1578.66
935.827	1547.25
936.135	1542.05
936.443	1529.17
936.751	1540.92
937.059	1542.5
937.367	1524.2
937.674	1527.36
937.982	1518.32
938.29	1503.18
938.597	1489.17
938.905	1495.27
939.213	1516.06
939.52	1485.78
939.827	1458.21
940.135	1461.6
940.442	1459.11
940.749	1446.46
941.056	1446.91
941.363	1445.1
941.67	1432.67
941.977	1401.94
942.284	1390.87
942.591	1399.91
942.898	1402.17
943.205	1432.45
943.511	1400.13
943.818	1413.69
944.125	1398.78
944.431	1395.61
944.738	1387.7
945.044	1413.92
945.35	1421.6
945.657	1369.4
945.963	1389.51
946.269	1385.44
946.575	1384.31
946.881	1378.21
947.187	1363.52
947.493	1371.66
947.799	1354.71
948.105	1317.87
948.41	1328.95
948.716	1349.29
949.022	1321.49
949.327	1329.85
949.633	1326.24
949.938	1304.77
950.244	1317.65
950.549	1309.51
950.854	1293.69
951.16	1285.79
951.465	1293.69
951.77	1282.85
952.075	1296.41
952.38	1288.72
952.685	1278.1
952.99	1260.02
953.294	1316.07
953.599	1256.86
953.904	1280.14
954.209	1262.74
954.513	1279.01
954.818	1261.83
955.122	1252.11
955.426	1227.03
955.731	1251.89
956.035	1241.04
956.339	1232.91
956.643	1230.65
956.948	1215.28
957.252	1209.4
957.556	1196.52
957.86	1206.01
958.163	1175.96
958.467	1179.12
958.771	1194.26
959.075	1174.15
959.378	1177.09
959.682	1193.36
959.985	1187.03
960.289	1174.15
960.592	1159.91
960.896	1159.24
961.199	1166.01
961.502	1148.16
961.805	1170.76
962.108	1166.01
962.411	1148.39
962.714	1143.64
963.017	1142.51
963.32	1140.7
963.623	1148.84
963.926	1150.65
964.228	1128.28
964.531	1148.16
964.833	1119.01
965.136	1148.61
965.438	1114.04
965.741	1135.73
966.043	1112.91
966.345	1086.47
966.648	1109.74
966.95	1083.98
967.252	1073.36
967.554	1088.05
967.856	1086.92
968.158	1067.03
968.46	1071.33
968.761	1083.76
969.063	1047.83
969.365	1083.76
969.666	1037.2
969.968	1049.41
970.269	1042.85
970.571	1032.23
970.872	1023.87
971.174	1040.14
971.475	1016.87
971.776	1050.31
972.077	1055.06
972.378	1027.71
972.679	1022.29
972.98	1029.52
973.281	1039.24
973.582	1022.29
973.883	1005.57
974.183	978
974.484	999.47
974.785	999.24
975.085	1042.18
975.386	990.65
975.686	1001.73
975.986	990.43
976.287	1027.26
976.587	965.57
976.887	994.95
977.187	989.3
977.487	988.17
977.787	968.05
978.087	959.92
978.387	935.29
978.687	965.79
978.987	942.74
979.286	948.62
979.586	971.44
979.885	957.43
980.185	948.62
980.484	945
980.784	938.9
981.083	945.68
981.382	920.15
981.682	905.23
981.981	919.92
982.28	927.6
982.579	903.65
982.878	898
983.177	932.35
983.475	924.66
983.774	890.77
984.073	910.65
984.372	905.91
984.67	926.47
984.969	896.64
985.267	900.26
985.566	896.64
985.864	887.38
986.162	871.56
986.461	884.67
986.759	878.56
987.057	869.75
987.355	882.63
987.653	880.6
987.951	872.24
988.249	862.97
988.547	874.95
988.844	859.81
989.142	859.81
989.44	845.8
989.737	836.76
990.035	851.22
990.332	832.92
990.63	839.7
990.927	839.02
991.224	836.98
991.521	850.09
991.819	839.02
992.116	829.75
992.413	838.57
992.71	803.76
993.006	850.32
993.303	848.96
993.6	830.66
993.897	835.4
994.193	814.16
994.49	803.31
994.787	821.84
995.083	829.98
995.379	790.21
995.676	787.27
995.972	808.28
996.268	782.3
996.565	794.5
996.861	789.3
997.157	798.79
997.453	771.9
997.749	742.52
998.044	761.96
998.34	786.36
998.636	772.35
998.932	775.29
999.227	749.3
999.523	757.66
999.818	770.09
1000.114	749.98
1000.409	756.08
1000.704	754.27
1001	740.94
1001.295	733.94
1001.59	740.26
1001.885	731.68
1002.18	745.46
1002.475	718.12
1002.77	759.47
1003.065	717.66
1003.359	726.7
1003.654	739.59
1003.949	738.91
1004.243	731.45
1004.538	738.68
1004.832	721.28
1005.127	738
1005.421	702.07
1005.715	717.21
1006.009	697.55
1006.304	716.53
1006.598	700.72
1006.892	700.26
1007.186	664.78
1007.48	692.35
1007.773	681.51
1008.067	717.21
1008.361	698.46
1008.655	682.64
1008.948	686.93
1009.242	688.06
1009.535	681.28
1009.829	664.78
1010.122	643.99
1010.415	670.66
1010.708	666.82
1011.001	655.29
1011.295	656.65
1011.588	669.53
1011.881	650.77
1012.173	650.32
1012.466	624.79
1012.759	652.13
1013.052	640.15
1013.344	634.96
1013.637	646.03
1013.93	623.43
1014.222	647.38
1014.514	633.15
1014.807	649.64
1015.099	648.29
1015.391	632.7
1015.683	645.8
1015.976	620.94
1016.268	644.9
1016.56	614.39
1016.851	586.37
1017.143	614.39
1017.435	620.49
1017.727	632.7
1018.018	581.62
1018.31	619.59
1018.602	625.01
1018.893	608.29
1019.185	593.83
1019.476	604.45
1019.767	576.43
1020.058	605.35
1020.35	569.87
1020.641	574.17
1020.932	579.59
1021.223	581.17
1021.514	583.43
1021.804	562.64
1022.095	583.66
1022.386	589.98
1022.677	573.94
1022.967	555.18
1023.258	586.37
1023.548	571
1023.839	558.8
1024.129	586.37
1024.419	580.95
1024.709	558.57
1025	549.99
1025.29	552.25
1025.58	557.22
1025.87	543.88
1026.16	533.94
1026.449	548.86
1026.739	534.84
1027.029	546.82
1027.319	554.96
1027.608	545.01
1027.898	534.84
1028.187	552.02
1028.477	541.17
1028.766	532.58
1029.055	551.34
1029.344	530.55
1029.634	523.77
1029.923	517.67
1030.212	540.04
1030.501	535.07
1030.79	521.51
1031.078	525.81
1031.367	506.37
1031.656	508.18
1031.945	525.13
1032.233	520.83
1032.522	502.3
1032.81	529.87
1033.099	495.75
1033.387	514.05
1033.675	503.66
1033.963	509.99
1034.251	510.44
1034.54	480.16
1034.828	488.74
1035.116	497.56
1035.403	483.77
1035.691	487.39
1035.979	501.4
1036.267	491.46
1036.554	498.91
1036.842	488.07
1037.129	514.96
1037.417	496.88
1037.704	467.95
1037.992	478.8
1038.279	481.96
1038.566	483.55
1038.853	483.55
1039.14	483.55
