Data from foam_black_FLMS001491_00055.txt Node
Date: Wed Feb 08 10:44:08 GMT 2017
User: dcchb
Spectrometer: FLMS00149
Trigger mode: 0
Integration Time (sec): 2.000000E-2
Scans to average: 10
Electric dark correction enabled: true
Nonlinearity correction enabled: false
Boxcar width: 0
XAxis mode: Wavelengths
Number of Pixels in Spectrum: 2048
>>>>>Begin Spectral Data<<<<<
341.393	17.78
341.776	17.78
342.16	17.78
342.543	-61.54
342.927	-70.58
343.31	-64.25
343.693	-59.05
344.077	-55.21
344.46	-73.52
344.843	-45.95
345.226	-57.92
345.61	-31.03
345.993	-12.05
346.376	-12.05
346.759	18.69
347.142	29.53
347.525	44.67
347.908	69.98
348.291	72.92
348.674	70.44
349.057	104.79
349.44	123.09
349.823	146.82
350.206	171
350.588	187.72
350.971	181.85
351.354	236.53
351.737	222.97
352.119	226.14
352.502	272.92
352.884	253.71
353.267	265.23
353.65	280.15
354.032	299.13
354.414	300.94
354.797	312.01
355.179	294.61
355.562	300.49
355.944	336.42
356.326	319.69
356.709	317.66
357.091	328.51
357.473	314.05
357.855	301.84
358.238	336.19
358.62	325.12
359.002	336.64
359.384	329.19
359.766	322.18
360.148	328.51
360.53	330.77
360.912	340.94
361.294	319.47
361.676	315.63
362.057	290.54
362.439	311.11
362.821	328.06
363.203	326.47
363.584	322.63
363.966	308.62
364.348	332.58
364.729	320.15
365.111	332.58
365.493	313.82
365.874	294.38
366.256	307.27
366.637	307.27
367.019	295.29
367.4	304.1
367.781	289.41
368.163	327.38
368.544	297.77
368.925	317.89
369.306	311.11
369.688	307.27
370.069	288.51
370.45	303.42
370.831	298.9
371.212	293.48
371.593	320.6
371.974	311.11
372.355	311.79
372.736	289.87
373.117	291.67
373.498	301.84
373.879	298.9
374.26	309.98
374.641	300.03
375.021	312.01
375.402	313.14
375.783	318.11
376.163	314.72
376.544	306.81
376.925	302.29
377.305	297.77
377.686	310.43
378.066	308.62
378.447	342.07
378.827	319.02
379.208	310.2
379.588	318.11
379.968	317.21
380.349	322.18
380.729	319.69
381.109	312.69
381.489	325.8
381.87	315.85
382.25	330.77
382.63	320.15
383.01	324.44
383.39	314.5
383.77	319.02
384.15	342.97
384.53	338.9
384.91	337.1
385.29	337.55
385.67	344.55
386.049	335.74
386.429	337.1
386.809	344.33
387.189	347.94
387.568	322.41
387.948	340.71
388.328	347.94
388.707	340.49
389.087	354.04
389.466	341.62
389.846	344.78
390.225	345.91
390.605	351.11
390.984	358.11
391.363	348.85
391.743	346.59
392.122	361.73
392.501	370.09
392.881	360.6
393.26	350.65
393.639	361.5
394.018	392.91
394.397	365.12
394.776	375.06
395.155	378.9
395.534	346.59
395.913	364.89
396.292	381.84
396.671	380.48
397.05	374.61
397.429	367.15
397.808	370.54
398.186	370.77
398.565	353.37
398.944	354.27
399.323	358.11
399.701	366.25
400.08	372.8
400.458	374.61
400.837	391.78
401.215	396.3
401.594	399.24
401.972	385
402.351	386.59
402.729	383.65
403.107	386.81
403.486	406.7
403.864	398.56
404.242	397.89
404.62	382.52
404.999	379.58
405.377	410.99
405.755	371.67
406.133	404.44
406.511	415.96
406.889	390.2
407.267	397.21
407.645	418.45
408.023	428.17
408.401	418.45
408.779	422.29
409.156	397.43
409.534	391.78
409.912	451.22
410.29	408.96
410.667	434.95
411.045	416.42
411.422	426.58
411.8	424.1
412.178	447.83
412.555	445.79
412.933	432.69
413.31	447.38
413.687	437.43
414.065	434.72
414.442	436.53
414.819	448.73
415.197	454.15
415.574	437.88
415.951	482.85
416.328	469.07
416.705	467.26
417.082	461.61
417.46	473.59
417.837	487.15
418.214	471.78
418.591	469.75
418.967	480.59
419.344	469.52
419.721	473.14
420.098	458.67
420.475	471.56
420.852	481.95
421.228	486.7
421.605	487.6
421.982	497.32
422.358	481.95
422.735	512.46
423.111	496.64
423.488	502.06
423.864	507.03
424.241	497.77
424.617	520.59
424.994	507.03
425.37	507.49
425.746	518.33
426.123	531.44
426.499	518.56
426.875	508.62
427.251	523.98
427.627	518.79
428.003	507.71
428.379	536.64
428.756	543.42
429.132	533.47
429.507	569.86
429.883	531.21
430.259	554.49
430.635	555.62
431.011	554.94
431.387	560.59
431.763	552.46
432.138	577.54
432.514	593.13
432.89	582.51
433.265	568.95
433.641	573.25
434.016	593.81
434.392	594.26
434.767	613.92
435.143	581.83
435.518	611.66
435.894	610.76
436.269	610.08
436.644	617.77
437.02	646.47
437.395	624.09
437.77	623.42
438.145	634.04
438.52	642.4
438.895	631.55
439.271	628.39
439.646	643.3
440.021	625.45
440.395	648.05
440.77	639.46
441.145	645.11
441.52	676.52
441.895	655.28
442.27	658.44
442.645	653.02
443.019	644.43
443.394	650.53
443.769	673.13
444.143	676.52
444.518	691.66
444.892	678.56
445.267	681.49
445.641	715.84
446.016	694.37
446.39	693.92
446.764	685.79
447.139	718.1
447.513	695.73
447.887	699.12
448.262	708.84
448.636	700.7
449.01	718.78
449.384	715.62
449.758	733.92
450.132	717.2
450.506	699.35
450.88	744.77
451.254	704.54
451.628	762.17
452.002	783.86
452.376	740.7
452.75	769.17
453.123	760.14
453.497	758.78
453.871	765.33
454.244	797.2
454.618	794.26
454.992	786.58
455.365	812.34
455.739	803.98
456.112	827.7
456.486	786.12
456.859	833.81
457.232	823.64
457.606	849.17
457.979	833.13
458.352	845.78
458.725	863.64
459.099	853.69
459.472	908.38
459.845	852.34
460.218	840.81
460.591	861.83
460.964	897.76
461.337	910.41
461.71	911.09
462.083	902.73
462.456	921.04
462.829	914.48
463.201	945.44
463.574	932.11
463.947	940.7
464.32	954.93
464.692	955.84
465.065	954.03
465.438	990.64
465.81	981.82
466.183	988.6
466.555	1023.63
466.928	1024.54
467.3	1026.57
467.672	1042.84
468.045	1046.68
468.417	1055.49
468.789	1061.14
469.161	1058.66
469.534	1068.83
469.906	1093.69
470.278	1084.19
470.65	1093.91
471.022	1122.39
471.394	1138.66
471.766	1136.85
472.138	1163.74
472.51	1170.52
472.882	1187.92
473.253	1201.93
473.625	1191.31
473.997	1199.22
474.369	1197.41
474.74	1248.26
475.112	1243.06
475.484	1277.18
475.855	1291.42
476.227	1290.29
476.598	1327.8
476.97	1318.09
477.341	1366.45
477.713	1385.43
478.084	1368.93
478.455	1403.96
478.827	1424.75
479.198	1428.82
479.569	1454.13
479.94	1482.83
480.311	1476.73
480.682	1527.8
481.053	1525.31
481.424	1554.92
481.795	1581.81
482.166	1591.75
482.537	1606.67
482.908	1636.5
483.279	1660
483.65	1655.71
484.021	1680.56
484.391	1685.53
484.762	1711.97
485.133	1722.37
485.503	1767.79
485.874	1800.33
486.244	1830.62
486.615	1846.66
486.985	1872.87
487.356	1873.1
487.726	1884.17
488.097	1931.4
488.467	1927.56
488.837	1957.39
489.207	1975.92
489.578	2005.3
489.948	2010.05
490.318	2012.98
490.688	2041.68
491.058	2072.64
491.428	2065.41
491.798	2103.15
492.168	2125.75
492.538	2139.76
492.908	2154.67
493.278	2161.45
493.648	2194.22
494.017	2200.78
494.387	2231.51
494.757	2295.69
495.126	2273.09
495.496	2300.43
495.866	2290.49
496.235	2303.82
496.605	2326.42
496.974	2323.48
497.344	2375.23
497.713	2362.81
498.082	2380.66
498.452	2431.05
498.821	2364.84
499.19	2402.8
499.559	2447.32
499.928	2484.38
500.298	2460.2
500.667	2520.32
501.036	2506.98
501.405	2513.31
501.774	2509.02
502.143	2533.2
502.512	2570.71
502.88	2578.17
503.249	2576.58
503.618	2623.36
503.987	2631.95
504.356	2654.77
504.724	2660.88
505.093	2633.98
505.462	2650.71
505.83	2637.83
506.199	2710.14
506.567	2728.22
506.936	2757.6
507.304	2739.29
507.672	2758.27
508.041	2790.14
508.409	2783.13
508.777	2796.92
509.145	2842.34
509.514	2848.44
509.882	2839.18
510.25	2876.69
510.618	2886.63
510.986	2886.63
511.354	2925.5
511.722	2998.04
512.09	2980.64
512.458	2985.61
512.826	3037.14
513.193	3044.14
513.561	3014.99
513.929	3037.59
514.297	3111.03
514.664	3083.01
515.032	3120.3
515.4	3151.26
515.767	3167.98
516.135	3180.41
516.502	3184.93
516.869	3212.27
517.237	3222.22
517.604	3238.04
517.972	3265.61
518.339	3279.39
518.706	3261.54
519.073	3323.68
519.44	3319.62
519.808	3334.3
520.175	3362.55
520.542	3412.27
520.909	3398.48
521.276	3390.35
521.643	3434.87
522.009	3474.64
522.376	3481.42
522.743	3473.96
523.11	3511.7
523.477	3574.98
523.843	3580.85
524.21	3600.74
524.577	3647.07
524.943	3632.83
525.31	3665.14
525.676	3712.6
526.043	3704.69
526.409	3773.62
526.776	3761.64
527.142	3812.03
527.508	3831.24
527.874	3838.92
528.241	3912.14
528.607	3876.44
528.973	3945.14
529.339	3951.69
529.705	3984.91
530.071	4000.95
530.437	3972.03
530.803	4052.48
531.169	4108.75
531.535	4078.01
531.901	4115.75
532.267	4091.57
532.632	4137.45
532.998	4181.97
533.364	4174.06
533.73	4196.88
534.095	4213.6
534.461	4225.36
534.826	4201.17
535.192	4221.51
535.557	4268.52
535.923	4247.5
536.288	4298.35
536.653	4260.16
537.019	4266.48
537.384	4278.46
537.749	4364.56
538.114	4313.71
538.479	4300.83
538.845	4361.17
539.21	4392.36
539.575	4397.33
539.94	4395.75
540.305	4476.2
540.67	4430.77
541.034	4478.68
541.399	4432.13
541.764	4502.18
542.129	4558.91
542.494	4500.83
542.858	4537.44
543.223	4561.84
543.587	4561.84
543.952	4605.23
544.316	4614.5
544.681	4659.47
545.045	4644.78
545.41	4689.07
545.774	4684.55
546.138	4742.63
546.503	4722.29
546.867	4721.84
547.231	4792.57
547.595	4813.14
547.959	4777.43
548.324	4802.74
548.688	4805.23
549.052	4883.19
549.416	4875.06
549.779	4879.35
550.143	4897.65
550.507	4919.12
550.871	4948.95
551.235	4902.63
551.599	4931.78
551.962	4916.86
552.326	4994.83
552.689	4974.71
553.053	5004.32
553.417	5025.79
553.78	5060.36
554.143	5045.45
554.507	5084.77
554.87	5060.81
555.234	5162.96
555.597	5148.27
555.96	5118.44
556.323	5202.28
556.686	5194.14
557.05	5221.94
557.413	5190.3
557.776	5242.28
558.139	5313.24
558.502	5245.22
558.865	5299.68
559.228	5330.86
559.59	5339.45
559.953	5377.42
560.316	5460.12
560.679	5423.06
561.041	5496.06
561.404	5495.15
561.767	5543.06
562.129	5472.78
562.492	5574.25
562.854	5567.24
563.217	5555.04
563.579	5641.59
563.941	5626.67
564.304	5670.29
564.666	5736.95
565.028	5731.76
565.39	5734.24
565.753	5858.08
566.115	5829.83
566.477	5834.13
566.839	5871.41
567.201	5961.35
567.563	5882.94
567.925	5905.31
568.287	6005.2
568.648	5965.87
569.01	6039.77
569.372	5995.48
569.734	6002.26
570.095	6064.63
570.457	6097.4
570.819	6094.01
571.18	6089.71
571.542	6088.36
571.903	6103.95
572.265	6189.15
572.626	6187.79
572.987	6131.97
573.349	6189.82
573.71	6216.72
574.071	6214
574.432	6269.14
574.794	6263.49
575.155	6280.89
575.516	6260.1
575.877	6342.81
576.238	6325.64
576.599	6383.26
576.96	6335.36
577.32	6355.24
577.681	6401.34
578.042	6398.86
578.403	6404.05
578.763	6430.04
579.124	6428.46
579.485	6407.44
579.845	6469.36
580.206	6425.98
580.566	6482.02
580.927	6536.25
581.287	6531.06
581.648	6471.62
582.008	6508.91
582.368	6527.89
582.728	6562.24
583.089	6547.55
583.449	6521.79
583.809	6534.67
584.169	6557.95
584.529	6560.43
584.889	6529.25
585.249	6486.31
585.609	6512.75
585.969	6575.8
586.329	6553.88
586.688	6521.11
587.048	6495.8
587.408	6472.75
587.768	6546.2
588.127	6524.73
588.487	6518.63
588.846	6584.62
589.206	6537.84
589.565	6518.18
589.925	6563.15
590.284	6543.49
590.643	6557.72
591.003	6546.88
591.362	6577.61
591.721	6577.38
592.08	6543.03
592.44	6587.1
592.799	6533.99
593.158	6551.85
593.517	6578.97
593.876	6602.69
594.235	6624.61
594.593	6525.63
594.952	6578.74
595.311	6611.05
595.67	6550.94
596.029	6606.31
596.387	6601.56
596.746	6602.69
597.104	6618.96
597.463	6609.47
597.822	6624.16
598.18	6622.35
598.538	6598.4
598.897	6642.47
599.255	6583.49
599.613	6699.64
599.972	6653.54
600.33	6679.08
600.688	6651.05
601.046	6756.14
601.404	6677.72
601.762	6685.4
602.12	6750.94
602.478	6721.11
602.836	6731.96
603.194	6677.27
603.552	6679.08
603.91	6672.75
604.268	6735.57
604.625	6692.41
604.983	6739.19
605.341	6733.99
605.698	6700.54
606.056	6747.55
606.413	6730.83
606.771	6785.51
607.128	6810.6
607.485	6805.17
607.843	6733.09
608.2	6818.96
608.557	6790.03
608.914	6806.08
609.272	6865.74
609.629	6845.85
609.986	6849.24
610.343	6833.65
610.7	6834.1
611.057	6769.47
611.414	6876.13
611.771	6812.86
612.127	6814.67
612.484	6825.74
612.841	6876.58
613.198	6864.16
613.554	6850.37
613.911	6825.74
614.267	6919.97
614.624	6921.78
614.98	6875.91
615.337	6884.04
615.693	6875.23
616.05	6888.11
616.406	6895.79
616.762	6872.29
617.118	6845.63
617.475	6939.63
617.831	6866.42
618.187	6938.96
618.543	6899.63
618.899	6979.41
619.255	6957.94
619.611	6928.56
619.967	6979.63
620.323	6985.28
620.678	6985.96
621.034	7001.1
621.39	6961.78
621.746	6957.71
622.101	7032.29
622.457	6981.89
622.812	7028.9
623.168	7015.56
623.523	7038.39
623.879	7011.27
624.234	7064.6
624.589	7015.11
624.945	7018.5
625.3	6998.16
625.655	7043.36
626.01	7012.85
626.365	7065.73
626.72	7043.81
627.075	7052.85
627.43	7089.91
627.785	7035.9
628.14	7106.86
628.495	7040.2
628.85	7056.69
629.205	6999.07
629.559	7068.44
629.914	7054.21
630.269	7035.45
630.623	6982.12
630.978	6928.11
631.332	6999.07
631.687	6965.62
632.041	6952.74
632.396	6986.64
632.75	6952.97
633.104	6994.55
633.459	6887.66
633.813	6895.79
634.167	6852.4
634.521	6901.44
634.875	6929.24
635.229	6921.56
635.583	6850.6
635.937	6852.86
636.291	6812.41
636.645	6861.67
636.999	6755.68
637.352	6768.79
637.706	6762.92
638.06	6783.25
638.413	6774.89
638.767	6675.01
639.121	6741.67
639.474	6700.54
639.828	6659.87
640.181	6742.58
640.534	6761.79
640.888	6684.73
641.241	6693.09
641.594	6691.5
641.947	6690.15
642.301	6652.18
642.654	6697.15
643.007	6689.47
643.36	6648.57
643.713	6647.44
644.066	6685.63
644.419	6618.74
644.771	6499.65
645.124	6483.15
645.477	6432.98
645.83	6439.99
646.182	6400.89
646.535	6404.51
646.888	6456.26
647.24	6427.11
647.593	6466.88
647.945	6513.66
648.298	6494
648.65	6432.3
649.002	6444.28
649.355	6398.63
649.707	6425.52
650.059	6414
650.411	6457.84
650.763	6546.88
651.115	6564.73
651.467	6612.64
651.819	6545.97
652.171	6501
652.523	6534.45
652.875	6565.18
653.227	6492.41
653.578	6527.67
653.93	6546.65
654.282	6498.29
654.633	6515.92
654.985	6552.07
655.337	6528.57
655.688	6498.74
656.039	6545.75
656.391	6459.65
656.742	6459.19
657.094	6465.3
657.445	6456.71
657.796	6468.91
658.147	6472.08
658.498	6449.25
658.849	6439.31
659.2	6414.45
659.551	6399.31
659.902	6416.94
660.253	6435.01
660.604	6375.13
660.955	6345.07
661.306	6385.3
661.656	6346.43
662.007	6338.29
662.358	6386.2
662.708	6410.16
663.059	6342.81
663.409	6261.91
663.76	6377.61
664.11	6366.09
664.461	6344.85
664.811	6392.98
665.161	6288.8
665.511	6294.23
665.862	6311.63
666.212	6335.36
666.562	6329.03
666.912	6312.76
667.262	6302.36
667.612	6301.91
667.962	6315.47
668.312	6278.41
668.662	6341.46
669.011	6298.07
669.361	6339.42
669.711	6316.15
670.06	6254.68
670.41	6287.22
670.76	6263.72
671.109	6279.09
671.459	6316.6
671.808	6279.76
672.157	6301.01
672.507	6216.72
672.856	6292.65
673.205	6257.39
673.554	6322.48
673.904	6248.8
674.253	6279.54
674.602	6285.64
674.951	6199.09
675.3	6203.16
675.649	6263.72
675.998	6251.97
676.346	6307.33
676.695	6305.07
677.044	6256.49
677.393	6250.61
677.741	6216.72
678.09	6237.73
678.438	6209.48
678.787	6237.96
679.135	6226.21
679.484	6172.65
679.832	6216.04
680.181	6215.81
680.529	6237.28
680.877	6170.84
681.225	6158.86
681.573	6187.34
681.922	6096.04
682.27	6108.47
682.618	6134.46
682.966	6080.22
683.314	6105.76
683.661	6070.28
684.009	6061.92
684.357	6061.01
684.705	6008.81
685.053	6076.38
685.4	6043.39
685.748	5980.11
686.095	5975.82
686.443	5944.18
686.79	5961.13
687.138	5952.99
687.485	5911.41
687.832	5893.11
688.18	5931.98
688.527	5919.77
688.874	5908.02
689.221	5855.37
689.568	5818.31
689.915	5786.22
690.262	5820.79
690.609	5843.39
690.956	5776.95
691.303	5781.47
691.65	5777.18
691.997	5781.47
692.344	5771.53
692.69	5746.67
693.037	5719.1
693.383	5646.56
693.73	5592.32
694.077	5691.76
694.423	5632.78
694.769	5645.2
695.116	5607.69
695.462	5604.98
695.808	5573.79
696.155	5614.47
696.501	5569.5
696.847	5548.48
697.193	5533.57
697.539	5504.64
697.885	5460.35
698.231	5499.22
698.577	5524.98
698.923	5534.7
699.269	5441.37
699.614	5437.98
699.96	5470.07
700.306	5451.31
700.651	5434.81
700.997	5417.41
701.342	5422.84
701.688	5375.38
702.033	5358.66
702.379	5391.43
702.724	5345.33
703.069	5354.14
703.415	5306.91
703.76	5350.3
704.105	5315.27
704.45	5340.35
704.795	5279.79
705.14	5241.15
705.485	5284.31
705.83	5259
706.175	5226.91
706.52	5205.44
706.865	5198.44
707.209	5253.35
707.554	5196.63
707.899	5233.24
708.243	5160.02
708.588	5130.87
708.932	5158.21
709.277	5107.82
709.621	5099.46
709.966	5087.93
710.31	5125.9
710.654	5046.58
710.998	5083.19
711.342	5040.25
711.687	5080.47
712.031	5000.02
712.375	5037.54
712.719	5057.88
713.063	4979.69
713.407	4963.87
713.75	4984.43
714.094	5007.93
714.438	4945.34
714.782	4980.36
715.125	4899.01
715.469	4986.92
715.812	4898.11
716.156	4895.85
716.499	4906.02
716.843	4908.95
717.186	4860.59
717.53	4841.61
717.873	4885.22
718.216	4857.2
718.559	4841.61
718.902	4851.1
719.246	4842.74
719.589	4822.4
719.932	4737.43
720.275	4843.64
720.617	4762.74
720.96	4804.32
721.303	4806.81
721.646	4789.63
721.989	4732.46
722.331	4771.33
722.674	4719.81
723.016	4740.6
723.359	4742.86
723.701	4726.58
724.044	4696.76
724.386	4685.91
724.729	4694.95
725.071	4638.23
725.413	4695.63
725.755	4652.24
726.097	4691.33
726.439	4609.75
726.782	4626.7
727.124	4667.15
727.465	4657.66
727.807	4650.65
728.149	4590.09
728.491	4601.84
728.833	4599.36
729.175	4558.68
729.516	4585.57
729.858	4548.74
730.199	4593.03
730.541	4560.26
730.882	4545.8
731.224	4552.13
731.565	4548.06
731.906	4546.7
732.248	4532.69
732.589	4535.18
732.93	4508.06
733.271	4523.43
733.612	4482.75
733.953	4526.36
734.294	4508.06
734.635	4482.75
734.976	4531.34
735.317	4452.69
735.658	4482.75
735.999	4488.17
736.339	4499.47
736.68	4485.01
737.021	4477.1
737.361	4467.16
737.702	4427.38
738.042	4371.79
738.383	4427.61
738.723	4469.64
739.063	4398.46
739.404	4447.27
739.744	4368.63
740.084	4368.85
740.424	4360.72
740.764	4364.79
741.104	4397.1
741.444	4341.74
741.784	4352.36
742.124	4382.19
742.464	4378.12
742.804	4324.56
743.143	4332.92
743.483	4327.27
743.823	4313.71
744.162	4279.59
744.502	4296.99
744.841	4277.56
745.181	4275.3
745.52	4185.58
745.86	4236.88
746.199	4241.85
746.538	4242.98
746.877	4259.48
747.216	4257.67
747.556	4196.66
747.895	4183.1
748.234	4221.06
748.573	4174.96
748.911	4182.42
749.25	4183.1
749.589	4166.6
749.928	4182.64
750.267	4180.84
750.605	4115.08
750.944	4157.33
751.283	4164.79
751.621	4148.97
751.96	4156.2
752.298	4095.64
752.636	4159.14
752.975	4086.83
753.313	4117.34
753.651	4091.12
753.989	4092.48
754.327	4063.1
754.666	4098.35
755.004	4080.05
755.342	4047.28
755.679	4046.83
756.017	4046.38
756.355	4024.46
756.693	4038.69
757.031	4001.86
757.368	4012.25
757.706	3991.69
758.044	3972.71
758.381	3963.22
758.719	3952.59
759.056	3954.18
759.394	3976.1
759.731	3935.65
760.068	3920.05
760.405	3911.92
760.743	3899.04
761.08	3964.34
761.417	3913.72
761.754	3911.24
762.091	3897.68
762.428	3870.34
762.765	3820.39
763.102	3855.65
763.438	3809.77
763.775	3811.13
764.112	3808.19
764.449	3795.31
764.785	3778.81
765.122	3783.33
765.458	3773.62
765.795	3730.23
766.131	3710.79
766.467	3762.99
766.804	3742.88
767.14	3734.75
767.476	3729.77
767.812	3665.82
768.148	3668.53
768.485	3656.33
768.821	3653.62
769.157	3604.81
769.492	3663.79
769.828	3636.44
770.164	3585.82
770.5	3603.9
770.836	3582.66
771.171	3536.79
771.507	3573.17
771.842	3519.38
772.178	3515.09
772.513	3562.32
772.849	3517.13
773.184	3484.81
773.519	3511.48
773.855	3456.34
774.19	3493.17
774.525	3443.91
774.86	3445.94
775.195	3445.49
775.53	3417.01
775.865	3408.43
776.2	3362.55
776.535	3410.91
776.87	3418.37
777.205	3358.94
777.539	3396.9
777.874	3347.86
778.209	3336.34
778.543	3372.27
778.878	3301.54
779.212	3299.73
779.547	3312.38
779.881	3301.54
780.215	3302.44
780.55	3292.95
780.884	3270.13
781.218	3239.84
781.552	3298.6
781.886	3290.46
782.22	3215.21
782.554	3181.54
782.888	3182.9
783.222	3182.22
783.556	3197.81
783.889	3185.61
784.223	3113.07
784.557	3130.24
784.89	3139.73
785.224	3139.28
785.557	3122.11
785.891	3102.9
786.224	3123.69
786.558	3090.02
786.891	3100.64
787.224	3099.06
787.557	3033.52
787.891	3025.84
788.224	3036.46
788.557	3034.2
788.89	3053.18
789.223	3007.31
789.556	3023.8
789.888	2997.82
790.221	2957.14
790.554	2988.78
790.887	2970.25
791.219	2912.4
791.552	2950.36
791.884	2922.56
792.217	2927.54
792.549	2905.62
792.882	2902.9
793.214	2896.35
793.546	2907.2
793.879	2885.28
794.211	2853.19
794.543	2892.73
794.875	2859.06
795.207	2889.57
795.539	2847.09
795.871	2833.98
796.203	2842.57
796.535	2776.58
796.867	2786.3
797.198	2793.3
797.53	2815.67
797.862	2753.08
798.193	2755.56
798.525	2780.42
798.856	2804.83
799.188	2763.92
799.519	2755.34
799.85	2748.33
800.182	2731.38
800.513	2735.22
800.844	2726.41
801.175	2714.89
801.506	2743.59
801.837	2743.81
802.168	2745.17
802.499	2735
802.83	2673.31
803.161	2682.57
803.491	2708.11
803.822	2695.45
804.153	2667.2
804.483	2633.53
804.814	2635.11
805.145	2657.26
805.475	2617.04
805.805	2601.89
806.136	2624.27
806.466	2631.05
806.796	2602.57
807.126	2582.46
807.457	2571.16
807.787	2549.69
808.117	2568.22
808.447	2547.88
808.777	2556.02
809.107	2546.08
809.436	2540.43
809.766	2562.12
810.096	2539.98
810.426	2544.72
810.755	2531.61
811.085	2515.12
811.414	2524.61
811.744	2518.28
812.073	2513.08
812.403	2496.59
812.732	2479.64
813.061	2484.61
813.39	2473.99
813.719	2477.15
814.049	2450.26
814.378	2449.36
814.707	2482.35
815.036	2465.4
815.365	2452.07
815.693	2452.97
816.022	2458.17
816.351	2416.14
816.68	2440.77
817.008	2430.83
817.337	2412.75
817.665	2443.48
817.994	2405.97
818.322	2406.19
818.651	2398.28
818.979	2384.27
819.307	2370.71
819.636	2373.65
819.964	2399.64
820.292	2394.44
820.62	2354.67
820.948	2353.09
821.276	2360.09
821.604	2358.96
821.932	2361.22
822.259	2365.74
822.587	2361.45
822.915	2351.05
823.243	2359.19
823.57	2347.21
823.898	2323.03
824.225	2365.29
824.553	2355.8
824.88	2356.93
825.207	2358.74
825.535	2353.09
825.862	2346.08
826.189	2345.18
826.516	2367.55
826.843	2404.16
827.17	2359.64
827.497	2369.81
827.824	2357.38
828.151	2320.32
828.478	2330.72
828.805	2339.98
829.131	2365.97
829.458	2356.25
829.785	2369.81
830.111	2344.05
830.438	2334.56
830.764	2356.7
831.09	2355.12
831.417	2337.72
831.743	2325.74
832.069	2338.4
832.395	2334.56
832.722	2364.61
833.048	2342.47
833.374	2328.91
833.7	2325.74
834.026	2353.09
834.351	2332.52
834.677	2318.96
835.003	2299.3
835.329	2297.27
835.654	2291.17
835.98	2321.45
836.306	2281.45
836.631	2291.62
836.956	2303.15
837.282	2347.21
837.607	2278.29
837.932	2264.28
838.258	2273.99
838.583	2258.85
838.908	2273.09
839.233	2265.63
839.558	2257.95
839.883	2296.37
840.208	2246.65
840.533	2255.01
840.858	2264.73
841.182	2254.56
841.507	2245.75
841.832	2231.74
842.156	2235.8
842.481	2198.29
842.805	2242.81
843.13	2236.71
843.454	2236.25
843.778	2214.56
844.103	2241
844.427	2189.93
844.751	2271.73
845.075	2233.54
845.399	2191.51
845.723	2165.3
846.047	2226.54
846.371	2145.64
846.695	2168.46
847.019	2169.14
847.343	2153.09
847.666	2129.82
847.99	2163.49
848.313	2135.24
848.637	2122.13
848.96	2120.55
849.284	2134.79
849.607	2119.65
849.931	2119.42
850.254	2096.15
850.577	2122.81
850.9	2068.35
851.223	2068.8
851.546	2073.32
851.869	2081.46
852.192	2057.95
852.515	2046.66
852.838	2056.6
853.161	2029.93
853.483	2039.42
853.806	2031.51
854.129	2024.28
854.451	2054.34
854.774	2012.76
855.096	2014.57
855.419	2016.37
855.741	2006.66
856.063	1998.52
856.385	1963.72
856.708	2005.53
857.03	1977.96
857.352	1962.59
857.674	1980.44
857.996	1958.75
858.318	1945.87
858.64	2005.53
858.961	1924.85
859.283	1950.61
859.605	1937.05
859.926	1962.82
860.248	1933.44
860.57	1924.85
860.891	1933.21
861.212	1947.22
861.534	1903.16
861.855	1901.12
862.176	1917.39
862.498	1892.31
862.819	1889.37
863.14	1905.19
863.461	1880.78
863.782	1925.08
864.103	1881.24
864.424	1880.33
864.745	1918.75
865.065	1884.4
865.386	1871.52
865.707	1851.41
866.027	1873.33
866.348	1846.89
866.668	1866.32
866.989	1870.16
867.309	1849.82
867.63	1871.97
867.95	1852.31
868.27	1839.2
868.59	1867.9
868.91	1816.83
869.23	1830.39
869.55	1803.27
869.87	1843.5
870.19	1835.81
870.51	1845.53
870.83	1825.42
871.15	1838.07
871.469	1811.41
871.789	1849.37
872.109	1805.53
872.428	1820.22
872.748	1819.54
873.067	1820.22
873.386	1823.38
873.706	1819.54
874.025	1815.93
874.344	1805.31
874.663	1788.13
874.982	1810.73
875.301	1797.62
875.62	1814.12
875.939	1781.35
876.258	1784.52
876.577	1793.78
876.896	1789.26
877.214	1763.95
877.533	1784.06
877.852	1769.83
878.17	1775.25
878.489	1750.17
878.807	1740
879.125	1773.89
879.444	1769.15
879.762	1735.03
880.08	1745.19
880.398	1779.77
880.716	1761.69
881.034	1734.8
881.352	1743.16
881.67	1732.09
881.988	1756.49
882.306	1749.04
882.624	1719.88
882.941	1727.34
883.259	1704.29
883.577	1707
883.894	1708.13
884.212	1724.4
884.529	1703.16
884.846	1711.07
885.164	1687.12
885.481	1725.53
885.798	1702.94
886.115	1694.8
886.432	1701.58
886.75	1691.64
887.067	1667.46
887.383	1665.2
887.7	1685.76
888.017	1662.26
888.334	1664.07
888.651	1640.79
888.967	1664.07
889.284	1683.05
889.6	1687.57
889.917	1685.99
890.233	1655.48
890.55	1684.63
890.866	1655.71
891.182	1628.59
891.498	1670.17
891.815	1643.05
892.131	1609.6
892.447	1601.47
892.763	1591.3
893.079	1612.54
893.395	1600.79
893.71	1605.76
894.026	1588.36
894.342	1592.88
894.657	1568.25
894.973	1585.65
895.289	1582.03
895.604	1603.28
895.92	1578.19
896.235	1573.67
896.55	1571.19
896.865	1527.35
897.181	1579.55
897.496	1572.09
897.811	1574.13
898.126	1548.59
898.441	1552.88
898.756	1557.85
899.071	1544.75
899.386	1565.99
899.7	1515.14
900.015	1521.92
900.33	1488.48
900.644	1523.96
900.959	1484.41
901.273	1500.23
901.588	1498.2
901.902	1490.51
902.216	1480.57
902.531	1487.12
902.845	1464.52
903.159	1490.29
903.473	1473.34
903.787	1446.9
904.101	1458.87
904.415	1443.06
904.729	1485.31
905.042	1459.1
905.356	1450.06
905.67	1462.04
905.984	1454.58
906.297	1440.34
906.611	1460.46
906.924	1451.87
907.237	1460.46
907.551	1438.76
907.864	1433.56
908.177	1467.91
908.491	1402.83
908.804	1415.26
909.117	1398.08
909.43	1410.29
909.743	1402.6
910.056	1389.95
910.368	1356.05
910.681	1387.01
910.994	1392.66
911.307	1380.23
911.619	1368.93
911.932	1391.31
912.244	1379.1
912.557	1392.21
912.869	1351.31
913.181	1347.46
913.494	1320.35
913.806	1332.78
914.118	1358.76
914.43	1312.44
914.742	1326.22
915.054	1343.4
915.366	1314.02
915.678	1319.89
915.99	1310.4
916.302	1307.24
916.613	1294.36
916.925	1307.47
917.236	1294.36
917.548	1300.46
917.859	1278.09
918.171	1305.88
918.482	1299.33
918.794	1281.25
919.105	1273.34
919.416	1273.34
919.727	1248.94
920.038	1253.68
920.349	1253.23
920.66	1236.51
920.971	1217.52
921.282	1251.2
921.593	1221.82
921.903	1189.95
922.214	1204.19
922.525	1190.41
922.835	1205.32
923.146	1187.69
923.456	1203.74
923.767	1190.63
924.077	1191.54
924.387	1200.12
924.697	1188.15
925.008	1211.87
925.318	1186.11
925.628	1153.35
925.938	1156.06
926.248	1156.28
926.558	1135.04
926.867	1164.87
927.177	1135.94
927.487	1112.44
927.796	1130.3
928.106	1118.32
928.416	1137.75
928.725	1117.19
929.034	1135.72
929.344	1137.75
929.653	1122.61
929.962	1097.53
930.271	1109.28
930.581	1098.43
930.89	1112.44
931.199	1092.33
931.508	1084.87
931.817	1069.28
932.125	1114.02
932.434	1085.55
932.743	1094.36
933.051	1078.32
933.36	1076.74
933.669	1058.66
933.977	1080.13
934.286	1052.56
934.594	1051.88
934.902	1070.18
935.21	1050.75
935.519	1047.13
935.827	1066.34
936.135	1027.7
936.443	1034.03
936.751	1041.94
937.059	1038.55
937.367	1019.79
937.674	1032.22
937.982	1008.04
938.29	988.83
938.597	1020.69
938.905	1012.33
939.213	1014.37
939.52	994.93
939.827	1002.39
940.135	1002.61
940.442	994.25
940.749	977.53
941.056	1009.39
941.363	999.23
941.67	995.16
941.977	1005.55
942.284	953.35
942.591	981.37
942.898	956.29
943.205	982.05
943.511	968.49
943.818	943.18
944.125	970.98
944.431	964.2
944.738	968.27
945.044	954.25
945.35	960.58
945.657	951.54
945.963	931.66
946.269	936.85
946.575	948.61
946.881	936.4
947.187	949.28
947.493	920.58
947.799	923.75
948.105	914.71
948.41	913.35
948.716	934.82
949.022	921.26
949.327	912.67
949.633	918.78
949.938	907.25
950.244	890.08
950.549	855.05
950.854	919.91
951.16	902.28
951.465	912.67
951.77	887.14
952.075	864.99
952.38	906.12
952.685	905.67
952.99	880.13
953.294	875.61
953.599	881.94
953.904	857.53
954.209	867.7
954.513	871.77
954.818	881.49
955.122	881.71
955.426	859.34
955.731	874.26
956.035	862.05
956.339	849.85
956.643	866.8
956.948	861.38
957.252	841.04
957.556	833.81
957.86	817.54
958.163	854.82
958.467	848.49
958.771	860.7
959.075	831.77
959.378	819.34
959.682	834.03
959.985	821.83
960.289	831.77
960.592	833.81
960.896	805.11
961.199	822.73
961.502	820.25
961.805	816.63
962.108	810.53
962.411	817.99
962.714	787.93
963.017	793.13
963.32	796.52
963.623	790.64
963.926	815.05
964.228	760.14
964.531	810.3
964.833	781.15
965.136	810.53
965.438	764.43
965.741	779.57
966.043	756.29
966.345	792.22
966.648	779.12
966.95	787.03
967.252	778.44
967.554	793.58
967.856	774.15
968.158	775.95
968.46	758.1
968.761	784.54
969.063	766.46
969.365	770.3
969.666	756.75
969.968	755.39
970.269	752.9
970.571	763.98
970.872	723.75
971.174	747.71
971.475	764.66
971.776	750.87
972.077	724.66
972.378	746.35
972.679	745.22
972.98	758.1
973.281	729.85
973.582	721.72
973.883	725.11
974.183	718.1
974.484	734.6
974.785	726.46
975.085	720.14
975.386	723.98
975.686	724.88
975.986	691.89
976.287	724.66
976.587	713.81
976.887	702.06
977.187	686.47
977.487	719.46
977.787	702.06
978.087	715.16
978.387	684.21
978.687	725.33
978.987	721.49
979.286	685.34
979.586	653.47
979.885	686.69
980.185	687.37
980.484	682.85
980.784	674.71
981.083	668.16
981.382	672
981.682	666.8
981.981	665.9
982.28	655.96
982.579	669.06
982.878	663.64
983.177	668.16
983.475	664.09
983.774	660.03
984.073	683.53
984.372	658.44
984.67	646.01
984.969	657.09
985.267	670.42
985.566	655.73
985.864	637.88
986.162	643.98
986.461	637.65
986.759	646.92
987.057	627.26
987.355	646.01
987.653	634.26
987.951	653.02
988.249	642.85
988.547	634.49
988.844	615.28
989.142	645.79
989.44	638.56
989.737	634.49
990.035	635.39
990.332	609.63
990.63	610.53
990.927	623.87
991.224	602.4
991.521	591.33
991.819	612.12
992.116	632
992.413	592.68
992.71	621.16
993.006	611.44
993.303	589.29
993.6	612.79
993.897	598.56
994.193	609.63
994.49	624.55
994.787	608.73
995.083	594.94
995.379	586.81
995.676	613.92
995.972	566.24
996.268	606.69
996.565	573.02
996.861	589.74
997.157	588.84
997.453	568.28
997.749	554.04
998.044	578.67
998.34	601.95
998.636	567.37
998.932	588.84
999.227	579.8
999.523	585
999.818	567.82
1000.114	559.24
1000.409	586.81
1000.704	553.14
1001	569.41
1001.295	577.77
1001.59	564.21
1001.885	561.5
1002.18	563.3
1002.475	540.71
1002.77	547.71
1003.065	556.07
1003.359	553.14
1003.654	548.84
1003.949	533.02
1004.243	531.44
1004.538	568.73
1004.832	555.62
1005.127	558.78
1005.421	537.54
1005.715	549.97
1006.009	550.88
1006.304	548.39
1006.598	535.73
1006.892	526.92
1007.186	532.12
1007.48	537.99
1007.773	525.11
1008.067	523.08
1008.361	517.2
1008.655	526.47
1008.948	521.5
1009.242	518.56
1009.535	528.73
1009.829	519.92
1010.122	499.13
1010.415	510.65
1010.708	518.79
1011.001	536.41
1011.295	512.91
1011.588	489.18
1011.881	511.1
1012.173	498.22
1012.466	495.96
1012.759	528.28
1013.052	500.03
1013.344	497.09
1013.637	496.19
1013.93	481.27
1014.222	509.29
1014.514	507.49
1014.807	505.23
1015.099	494.38
1015.391	495.96
1015.683	498.9
1015.976	502.97
1016.268	489.63
1016.56	498.9
1016.851	517.43
1017.143	479.69
1017.435	480.14
1017.727	483.98
1018.018	497.32
1018.31	477.66
1018.602	489.18
1018.893	492.57
1019.185	487.15
1019.476	467.26
1019.767	485.57
1020.058	482.18
1020.35	459.35
1020.641	486.7
1020.932	475.85
1021.223	471.33
1021.514	475.4
1021.804	468.39
1022.095	450.99
1022.386	445.12
1022.677	445.57
1022.967	470.43
1023.258	444.66
1023.548	455.96
1023.839	471.56
1024.129	446.47
1024.419	448.73
1024.709	463.87
1025	458
1025.29	446.25
1025.58	451.44
1025.87	437.21
1026.16	453.48
1026.449	458.67
1026.739	437.21
1027.029	445.34
1027.319	443.31
1027.608	432.69
1027.898	431.1
1028.187	449.41
1028.477	454.61
1028.766	456.41
1029.055	441.27
1029.344	422.07
1029.634	428.84
1029.923	432.46
1030.212	448.05
1030.501	451.89
1030.79	426.13
1031.078	431.1
1031.367	432.23
1031.656	411.44
1031.945	408.73
1032.233	439.24
1032.522	427.04
1032.81	450.99
1033.099	416.19
1033.387	403.99
1033.675	422.07
1033.963	404.89
1034.251	443.99
1034.54	427.71
1034.828	417.77
1035.116	415.29
1035.403	414.38
1035.691	431.56
1035.979	425.68
1036.267	412.8
1036.554	420.94
1036.842	421.61
1037.129	410.31
1037.417	405.12
1037.704	401.95
1037.992	425.91
1038.279	421.39
1038.566	408.28
1038.853	408.28
1039.14	408.28
