Data from foam1_polythene_foam_FLMS001491_00051.txt Node
Date: Wed Feb 08 10:55:02 GMT 2017
User: dcchb
Spectrometer: FLMS00149
Trigger mode: 0
Integration Time (sec): 2.000000E-2
Scans to average: 10
Electric dark correction enabled: true
Nonlinearity correction enabled: false
Boxcar width: 0
XAxis mode: Wavelengths
Number of Pixels in Spectrum: 2048
>>>>>Begin Spectral Data<<<<<
341.393	-16.89
341.776	-16.89
342.16	-16.89
342.543	-56.44
342.927	-70.68
343.31	-72.03
343.693	-69.09
344.077	-71.58
344.46	-46.04
344.843	-53.95
345.226	-53.95
345.61	-48.3
345.993	-18.25
346.376	-10.34
346.759	8.64
347.142	36.89
347.525	46.38
347.908	45.03
348.291	86.61
348.674	96.33
349.057	123.67
349.44	132.71
349.823	155.76
350.206	151.46
350.588	175.42
350.971	209.09
351.354	204.34
351.737	220.84
352.119	245.47
352.502	228.3
352.884	253.84
353.267	264.68
353.65	290.67
354.032	289.31
354.414	290.22
354.797	320.73
355.179	304.68
355.562	282.99
355.944	334.74
356.326	319.37
356.709	323.21
357.091	318.01
357.473	326.38
357.855	322.76
358.238	336.54
358.62	320.27
359.002	324.79
359.384	329.09
359.766	311.91
360.148	311.23
360.53	315.3
360.912	321.4
361.294	332.7
361.676	324.79
362.057	315.53
362.439	310.78
362.821	302.2
363.203	323.89
363.584	322.31
363.966	317.79
364.348	308.3
364.729	294.06
365.111	287.96
365.493	301.07
365.874	318.01
366.256	297
366.637	286.6
367.019	318.92
367.4	311.69
367.781	310.78
368.163	309.88
368.544	305.59
368.925	301.74
369.306	311.91
369.688	303.55
370.069	294.74
370.45	306.04
370.831	306.26
371.212	301.07
371.593	283.66
371.974	297.68
372.355	304
372.736	284.12
373.117	309.88
373.498	288.41
373.879	305.59
374.26	303.78
374.641	302.87
375.021	296.55
375.402	305.59
375.783	305.81
376.163	313.49
376.544	303.78
376.925	321.63
377.305	307.39
377.686	302.2
378.066	331.12
378.447	321.18
378.827	329.99
379.208	320.5
379.588	339.48
379.968	314.4
380.349	329.54
380.729	324.34
381.109	313.72
381.489	317.34
381.87	335.64
382.25	334.74
382.63	354.62
383.01	327.28
383.39	339.48
383.77	330.44
384.15	319.82
384.53	333.83
384.91	345.36
385.29	354.85
385.67	351.46
386.049	355.53
386.429	348.97
386.809	342.87
387.189	333.38
387.568	359.14
387.948	354.17
388.328	352.36
388.707	349.88
389.087	342.42
389.466	355.98
389.846	348.97
390.225	341.29
390.605	364.11
390.984	370.89
391.363	354.17
391.743	362.31
392.122	356.88
392.501	354.62
392.881	373.61
393.26	372.93
393.639	365.92
394.018	366.15
394.397	385.36
394.776	386.94
395.155	367.96
395.534	364.34
395.913	356.43
396.292	390.1
396.671	396.88
397.05	402.98
397.429	391.46
397.808	368.41
398.186	374.74
398.565	393.94
398.944	384.23
399.323	396.2
399.701	394.4
400.08	384.68
400.458	396.43
400.837	410.89
401.215	387.84
401.594	395.75
401.972	417.22
402.351	402.98
402.729	410.67
403.107	431.91
403.486	423.55
403.864	422.87
404.242	432.81
404.62	413.6
404.999	416.32
405.377	429.42
405.755	433.94
406.133	405.47
406.511	428.29
406.889	462.64
407.267	433.94
407.645	437.33
408.023	457.45
408.401	440.72
408.779	455.86
409.156	445.92
409.534	466.48
409.912	443.21
410.29	479.59
410.667	466.26
411.045	481.85
411.422	481.17
411.8	485.24
412.178	490.89
412.555	457.9
412.933	501.29
413.31	483.43
413.687	476.65
414.065	507.16
414.442	499.03
414.819	509.2
415.197	498.35
415.574	489.99
415.951	515.3
416.328	505.13
416.705	509.87
417.082	517.11
417.46	527.73
417.837	504.45
418.214	539.25
418.591	551.68
418.967	545.35
419.344	546.71
419.721	548.97
420.098	533.38
420.475	556.88
420.852	566.6
421.228	557.1
421.605	562.08
421.982	564.34
422.358	583.54
422.735	551.68
423.111	572.7
423.488	588.29
423.864	572.7
424.241	609.98
424.617	581.28
424.994	604.79
425.37	605.69
425.746	603.43
426.123	620.15
426.499	594.84
426.875	609.31
427.251	601.85
427.627	634.39
428.003	641.85
428.379	647.5
428.756	627.16
429.132	656.31
429.507	665.12
429.883	661.06
430.259	697.89
430.635	668.74
431.011	678
431.387	677.78
431.763	696.76
432.138	688.17
432.514	713.94
432.89	706.25
433.265	735.86
433.641	723.43
434.016	744.9
434.392	746.25
434.767	761.62
435.143	760.26
435.518	754.16
435.894	754.16
436.269	763.88
436.644	799.13
437.02	789.19
437.395	801.39
437.77	810.88
438.145	820.83
438.52	800.04
438.895	824.89
439.271	825.12
439.646	861.73
440.021	859.69
440.395	832.8
440.77	855.63
441.145	848.4
441.52	873.03
441.895	860.15
442.27	907.83
442.645	891.78
443.019	936.76
443.394	875.97
443.769	927.72
444.143	932.24
444.518	922.07
444.892	916.87
445.267	951.22
445.641	918
446.016	941.05
446.39	941.5
446.764	977.66
447.139	972.69
447.513	986.92
447.887	983.76
448.262	1007.94
448.636	1007.04
449.01	1032.12
449.384	1022.4
449.758	1033.25
450.132	1040.48
450.506	1053.36
450.88	1050.2
451.254	1042.97
451.628	1075.51
452.002	1099.91
452.376	1095.62
452.75	1101.95
453.123	1114.15
453.497	1151.66
453.871	1135.39
454.244	1136.07
454.618	1141.95
454.992	1153.47
455.365	1153.47
455.739	1167.71
456.112	1182.62
456.486	1221.72
456.859	1192.57
457.232	1239.8
457.606	1219.01
457.979	1232.57
458.352	1247.26
458.725	1260.81
459.099	1273.02
459.472	1275.28
459.845	1303.98
460.218	1296.75
460.591	1311.89
460.964	1329.97
461.337	1314.15
461.71	1333.81
462.083	1378.55
462.456	1362.05
462.829	1365.22
463.201	1372.68
463.574	1385.1
463.947	1376.74
464.32	1429.85
464.692	1440.02
465.065	1459.45
465.438	1449.28
465.81	1463.97
466.183	1488.15
466.555	1519.34
466.928	1521.6
467.3	1526.12
467.672	1541.71
468.045	1564.54
468.417	1598.88
468.789	1613.12
469.161	1600.69
469.534	1626.91
469.906	1655.38
470.278	1680.24
470.65	1695.38
471.022	1696.51
471.394	1766.79
471.766	1767.69
472.138	1760.24
472.51	1822.16
472.882	1812.21
473.253	1846.79
473.625	1890.18
473.997	1888.37
474.369	1886.33
474.74	1932.66
475.112	1950.06
475.484	1957.97
475.855	2000.68
476.227	2013.56
476.598	2031.19
476.97	2122.49
477.341	2108.93
477.713	2169.04
478.084	2167.91
478.455	2214.24
478.827	2256.49
479.198	2278.87
479.569	2263.73
479.94	2362.48
480.311	2358.41
480.682	2441.8
481.053	2489.71
481.424	2487.9
481.795	2530.84
482.166	2559.76
482.537	2556.6
482.908	2660.78
483.279	2654.68
483.65	2696.71
484.021	2768.12
484.391	2824.61
484.762	2857.38
485.133	2835.46
485.503	2840.66
485.874	2948.68
486.244	2943.48
486.615	3013.31
486.985	3063.7
487.356	3108.45
487.726	3126.53
488.097	3187.09
488.467	3213.98
488.837	3232.97
489.207	3282
489.578	3347.99
489.948	3369.46
490.318	3430.02
490.688	3397.48
491.058	3504.82
491.428	3527.65
491.798	3543.01
492.168	3619.62
492.538	3603.13
492.908	3663.46
493.278	3728.32
493.648	3717.7
494.017	3763.12
494.387	3819.17
494.757	3843.57
495.126	3887.64
495.496	3919.95
495.866	3953.62
496.235	3954.3
496.605	4008.76
496.974	4013.28
497.344	4061.87
497.713	4076.11
498.082	4173.05
498.452	4207.63
498.821	4221.19
499.19	4200.4
499.559	4273.84
499.928	4286.5
500.298	4321.3
500.667	4371.02
501.036	4383.44
501.405	4409.66
501.774	4425.02
502.143	4500.5
502.512	4508.86
502.88	4555.19
503.249	4501.41
503.618	4596.09
503.987	4567.85
504.356	4613.49
504.724	4627.96
505.093	4712.7
505.462	4733.94
505.83	4812.59
506.199	4834.05
506.567	4865.69
506.936	4844.22
507.304	4879.25
507.672	4950.66
508.041	4970.55
508.409	4958.8
508.777	5090.09
509.145	5115.63
509.514	5079.47
509.882	5137.77
510.25	5158.34
510.618	5196.08
510.986	5179.58
511.354	5220.71
511.722	5288.51
512.09	5387.94
512.458	5370.31
512.826	5451.44
513.193	5478.1
513.561	5514.71
513.929	5544.09
514.297	5557.2
514.664	5608.27
515.032	5628.38
515.4	5707.93
515.767	5711.54
516.135	5778.66
516.502	5782.05
516.869	5832.9
517.237	5898.66
517.604	5915.38
517.972	5985.66
518.339	6003.74
518.706	6021.14
519.073	5989.28
519.44	6164.41
519.808	6167.8
520.175	6212.77
520.542	6280.12
520.909	6308.37
521.276	6319.21
521.643	6331.87
522.009	6387.69
522.376	6475.82
522.743	6549.94
523.11	6574.12
523.477	6619.77
523.843	6670.84
524.21	6688.47
524.577	6822.93
524.943	6808.24
525.31	6807.79
525.676	6914.68
526.043	6944.51
526.409	6977.73
526.776	7104.95
527.142	7063.37
527.508	7164.84
527.874	7258.4
528.241	7243.48
528.607	7278.51
528.973	7389.24
529.339	7372.74
529.705	7460.43
530.071	7474.44
530.437	7547.2
530.803	7552.63
531.169	7584.72
531.535	7599.63
531.901	7697.71
532.267	7723.7
532.632	7764.15
532.998	7821.32
533.364	7830.81
533.73	7830.81
534.095	7938.6
534.461	7963.24
534.826	7915.33
535.192	8038.72
535.557	8102.44
535.923	8072.39
536.288	8132.5
536.653	8167.3
537.019	8177.69
537.384	8189.22
537.749	8290.69
538.114	8337.24
538.479	8291.82
538.845	8366.39
539.21	8394.41
539.575	8380.85
539.94	8419.72
540.305	8439.38
540.67	8474.41
541.034	8555.99
541.399	8539.49
541.764	8581.3
542.129	8632.82
542.494	8595.54
542.858	8600.51
543.223	8746.27
543.587	8737.45
543.952	8706.95
544.316	8712.82
544.681	8829.88
545.045	8874.85
545.41	8845.7
545.774	8955.3
546.138	8931.35
546.503	8969.31
546.867	8949.65
547.231	9056.32
547.595	9072.81
547.959	9030.33
548.324	9115.52
548.688	9089.08
549.052	9158.01
549.416	9098.35
549.779	9217.67
550.143	9302.86
550.507	9345.8
550.871	9293.15
551.235	9348.51
551.599	9413.59
551.962	9419.7
552.326	9538.34
552.689	9487.49
553.053	9473.93
553.417	9505.34
553.78	9646.13
554.143	9642.29
554.507	9683.64
554.87	9787.14
555.234	9765.9
555.597	9773.81
555.96	9845.45
556.323	9889.06
556.686	9897.65
557.05	9961.6
557.413	9999.79
557.776	10067.36
558.139	10010.41
558.502	10164.99
558.865	10204.08
559.228	10233.46
559.59	10192.33
559.953	10222.16
560.316	10373.12
560.679	10374.7
561.041	10416.05
561.404	10485.2
561.767	10587.8
562.129	10553.68
562.492	10625.54
562.854	10702.6
563.217	10619.21
563.579	10701.02
563.941	10753.67
564.304	10795.03
564.666	10859.88
565.028	10830.05
565.39	10941.69
565.753	10973.1
566.115	11116.6
566.477	11119.54
566.839	11145.75
567.201	11261.46
567.563	11255.58
567.925	11327.67
568.287	11220.1
568.648	11312.08
569.01	11350.72
569.372	11355.24
569.734	11467.1
570.095	11574.22
570.457	11582.8
570.819	11554.55
571.18	11612.86
571.542	11708.22
571.903	11705.96
572.265	11726.3
572.626	11742.8
572.987	11809.01
573.349	11835.9
573.71	11883.36
574.071	11887.2
574.432	11886.52
574.794	11994.77
575.155	12013.98
575.516	11961.32
575.877	12089.91
576.238	12099.85
576.599	12164.26
576.96	12174.2
577.32	12108.66
577.681	12233.41
578.042	12290.58
578.403	12212.39
578.763	12248.1
579.124	12213.29
579.485	12311.82
579.845	12293.07
580.206	12327.87
580.566	12338.04
580.927	12369.45
581.287	12454.64
581.648	12475.66
582.008	12404.7
582.368	12394.76
582.728	12430.69
583.089	12408.54
583.449	12386.85
583.809	12425.27
584.169	12423.23
584.529	12422.33
584.889	12550.91
585.249	12476.34
585.609	12392.95
585.969	12440.63
586.329	12556.34
586.688	12452.38
587.048	12478.37
587.408	12490.58
587.768	12506.62
588.127	12436.57
588.487	12425.04
588.846	12484.25
589.206	12481.76
589.565	12531.93
589.925	12528.99
590.284	12455.55
590.643	12536.9
591.003	12547.3
591.362	12645.83
591.721	12594.08
592.08	12540.97
592.44	12577.13
592.799	12588.2
593.158	12527.41
593.517	12666.84
593.876	12626.62
594.235	12558.82
594.593	12550.01
594.952	12654.41
595.311	12491.25
595.67	12615.32
596.029	12731.7
596.387	12797.91
596.746	12785.03
597.104	12661.42
597.463	12704.13
597.822	12750
598.18	12691.7
598.538	12627.52
598.897	12712.26
599.255	12526.28
599.613	12728.54
599.972	12723.79
600.33	12724.69
600.688	12707.97
601.046	12778.93
601.404	12869.1
601.762	12797.01
602.12	12873.16
602.478	12866.38
602.836	12875.88
603.194	12784.58
603.552	12782.32
603.91	12790.68
604.268	12763.79
604.625	12760.62
604.983	12836.56
605.341	12815.76
605.698	12965.37
606.056	13008.53
606.413	12970.79
606.771	12946.83
607.128	13057.79
607.485	12935.99
607.843	12876.78
608.2	13000.84
608.557	13018.25
608.914	12908.64
609.272	12945.93
609.629	13054.63
609.986	13058.47
610.343	12972.82
610.7	13093.27
611.057	13118.81
611.414	13073.61
611.771	13136.21
612.127	13154.06
612.484	13074.97
612.841	13186.83
613.198	13144.57
613.554	13202.87
613.911	13252.36
614.267	13243.1
614.624	13170.33
614.98	13271.12
615.337	13233.61
615.693	13220.95
616.05	13330.33
616.406	13313.15
616.762	13284.9
617.118	13280.84
617.475	13330.55
617.831	13344.11
618.187	13324.23
618.543	13458.91
618.899	13429.99
619.255	13378.24
619.611	13393.6
619.967	13435.64
620.323	13447.84
620.678	13351.12
621.034	13417.1
621.39	13368.74
621.746	13320.84
622.101	13517.89
622.457	13384.56
622.812	13547.04
623.168	13457.33
623.523	13512.92
623.879	13507.95
624.234	13410.78
624.589	13400.16
624.945	13429.53
625.3	13400.16
625.655	13385.02
626.01	13497.1
626.365	13370.55
626.72	13403.55
627.075	13414.17
627.43	13338.69
627.785	13403.77
628.14	13375.52
628.495	13402.64
628.85	13463.21
629.205	13359.71
629.559	13432.92
629.914	13324.45
630.269	13341.17
630.623	13276.32
630.978	13249.43
631.332	13246.71
631.687	13328.29
632.041	13341.63
632.396	13300.72
632.75	13233.38
633.104	13255.08
633.459	13151.12
633.813	13192.7
634.167	13134.85
634.521	13234.51
634.875	13314.28
635.229	13178.69
635.583	13159.71
635.937	13176.43
636.291	13167.85
636.645	13089.66
636.999	13012.14
637.352	13200.16
637.706	12998.13
638.06	13024.8
638.413	13053.5
638.767	12998.58
639.121	12990.9
639.474	12980.51
639.828	12947.51
640.181	12933.28
640.534	13008.98
640.888	12958.59
641.241	12841.3
641.594	12877.01
641.947	12944.35
642.301	12900.28
642.654	12907.74
643.007	12861.64
643.36	12815.76
643.713	12736.44
644.066	12790.68
644.419	12738.7
644.771	12733.06
645.124	12628.2
645.477	12634.98
645.83	12562.89
646.182	12460.52
646.535	12448.99
646.888	12394.76
647.24	12350.69
647.593	12399.73
647.945	12346.62
648.298	12258.72
648.65	12198.38
649.002	12243.58
649.355	12273.63
649.707	12258.49
650.059	12324.03
650.411	12382.1
650.763	12412.84
651.115	12501.42
651.467	12482.44
651.819	12492.38
652.171	12539.61
652.523	12382.78
652.875	12463.23
653.227	12430.69
653.578	12442.89
653.93	12462.1
654.282	12388.66
654.633	12367.64
654.985	12360.41
655.337	12359.96
655.688	12333.52
656.039	12398.6
656.391	12219.62
656.742	12321.54
657.094	12334.65
657.445	12274.99
657.796	12301.65
658.147	12264.59
658.498	12242.22
658.849	12248.55
659.2	12344.14
659.551	12227.08
659.902	12293.74
660.253	12283.35
660.604	12316.79
660.955	12207.19
661.306	12258.27
661.656	12262.56
662.007	12303.01
662.358	12202
662.708	12222.56
663.059	12208.32
663.409	12059.63
663.76	12183.46
664.11	12141.88
664.461	12195.22
664.811	12172.62
665.161	12234.54
665.511	12132.62
665.862	12195.89
666.212	12249
666.562	12159.51
666.912	12133.97
667.262	12135.1
667.612	12140.3
667.962	12207.42
668.312	12191.15
668.662	12249
669.011	12206.52
669.361	12073.41
669.711	12022.79
670.06	12053.3
670.41	12037.03
670.76	12065.5
671.109	12147.08
671.459	12095.78
671.808	11963.58
672.157	12067.99
672.507	12012.85
672.856	12016.92
673.205	12019.85
673.554	12018.05
673.904	12016.46
674.253	12073.64
674.602	12008.78
674.951	11843.81
675.3	11758.17
675.649	11982.34
675.998	11993.87
676.346	11951.61
676.695	12010.59
677.044	11835.9
677.393	11998.61
677.741	11867.77
678.09	11837.71
678.438	11774.89
678.787	11839.52
679.135	11863.7
679.484	11717.49
679.832	11813.08
680.181	11786.19
680.529	11862.34
680.877	11816.47
681.225	11782.12
681.573	11859.63
681.922	11809.46
682.27	11675.46
682.618	11749.8
682.966	11666.19
683.314	11725.17
683.661	11610.6
684.009	11548.68
684.357	11488.34
684.705	11571.05
685.053	11536.48
685.4	11408.57
685.748	11544.16
686.095	11460.55
686.443	11364.05
686.79	11378.97
687.138	11374.22
687.485	11450.83
687.832	11370.83
688.18	11416.93
688.527	11361.34
688.874	11350.72
689.221	11332.19
689.568	11265.52
689.915	11304.62
690.262	11201.12
690.609	11202.93
690.956	11143.27
691.303	11118.86
691.65	11032.53
691.997	11054.68
692.344	10992.08
692.69	10986.43
693.037	10963.61
693.383	10950.95
693.73	10975.59
694.077	10839.77
694.423	10961.8
694.769	10895.14
695.116	10893.78
695.462	10842.26
695.808	10852.43
696.155	10830.51
696.501	10738.98
696.847	10790.06
697.193	10665.09
697.539	10621.25
697.885	10560.23
698.231	10591.64
698.577	10466.22
698.923	10525.43
699.269	10499.22
699.614	10496.96
699.96	10451.08
700.306	10374.47
700.651	10300.58
700.997	10330.18
701.342	10375.83
701.688	10421.48
702.033	10306.68
702.379	10289.05
702.724	10266.23
703.069	10305.1
703.415	10089.96
703.76	10246.57
704.105	10202.95
704.45	10141.71
704.795	10112.33
705.14	10036.63
705.485	9994.14
705.83	9974.26
706.175	10005.22
706.52	9980.36
706.865	9922.28
707.209	9893.58
707.554	9923.19
707.899	9943.75
708.243	9947.14
708.588	9913.24
708.932	9807.71
709.277	9895.16
709.621	9831.21
709.966	9751.21
710.31	9781.27
710.654	9720.25
710.998	9654.27
711.342	9705.79
711.687	9609.75
712.031	9592.35
712.375	9530.2
712.719	9480.03
713.063	9470.77
713.407	9564.78
713.75	9506.47
714.094	9469.86
714.438	9456.53
714.782	9497.66
715.125	9474.38
715.469	9462.63
715.812	9401.17
716.156	9380.6
716.499	9355.29
716.843	9374.27
717.186	9398.45
717.53	9394.61
717.873	9319.59
718.216	9362.75
718.559	9311.22
718.902	9234.16
719.246	9217.67
719.589	9253.6
719.932	9172.92
720.275	9221.06
720.617	9123.88
720.96	9150.78
721.303	9134.05
721.646	9117.1
721.989	9128.18
722.331	9066.26
722.674	9187.61
723.016	9091.12
723.359	9038.24
723.701	9088.41
724.044	9082.98
724.386	8984
724.729	9058.12
725.071	9028.52
725.413	8967.05
725.755	8960.72
726.097	9065.35
726.439	8918.69
726.782	8911.91
727.124	8960.05
727.465	8834.85
727.807	8852.93
728.149	8774.97
728.491	8723.89
728.833	8864.23
729.175	8751.92
729.516	8755.08
729.858	8751.01
730.199	8771.8
730.541	8806.6
730.882	8751.92
731.224	8796.89
731.565	8688.64
731.906	8789.88
732.248	8755.08
732.589	8678.47
732.93	8701.52
733.271	8658.13
733.612	8700.62
733.953	8698.58
734.294	8641.64
734.635	8608.64
734.976	8567.74
735.317	8596.67
735.658	8558.7
735.999	8551.02
736.339	8586.95
736.68	8499.72
737.021	8506.5
737.361	8486.39
737.702	8515.54
738.042	8461.75
738.383	8495.2
738.723	8457.91
739.063	8442.32
739.404	8449.1
739.744	8506.73
740.084	8507.63
740.424	8498.14
740.764	8411.36
741.104	8394.41
741.444	8404.58
741.784	8359.84
742.124	8401.42
742.464	8354.87
742.804	8348.99
743.143	8312.83
743.483	8263.34
743.823	8230.57
744.162	8172.72
744.502	8252.72
744.841	8197.58
745.181	8210.91
745.52	8113.29
745.86	8264.47
746.199	8139.28
746.538	8231.25
746.877	8164.36
747.216	8197.81
747.556	8169.11
747.895	8157.36
748.234	8162.1
748.573	8127.53
748.911	8084.82
749.25	8139.5
749.589	8111.71
749.928	8103.35
750.267	8112.84
750.605	8048.21
750.944	8036.23
751.283	7975.89
751.621	8028.32
751.96	7959.4
752.298	7955.55
752.636	7893.41
752.975	7868.55
753.313	7839.4
753.651	7907.42
753.989	7794.2
754.327	7793.98
754.666	7831.04
755.004	7829.68
755.342	7850.92
755.679	7826.74
756.017	7736.35
756.355	7869.91
756.693	7766.63
757.031	7812.73
757.368	7717.37
757.706	7669.91
758.044	7710.36
758.381	7748.33
758.719	7677.14
759.056	7713.75
759.394	7585.39
759.731	7537.03
760.068	7511.05
760.405	7507.2
760.743	7492.29
761.08	7468.33
761.417	7400.77
761.754	7392.18
762.091	7434.44
762.428	7423.82
762.765	7340.88
763.102	7397.6
763.438	7360.99
763.775	7304.27
764.112	7300.2
764.449	7325.06
764.785	7276.02
765.122	7226.08
765.458	7198.29
765.795	7194.67
766.131	7134.33
766.467	7169.36
766.804	7113.32
767.14	7112.64
767.476	7166.65
767.812	7050.27
768.148	7081.9
768.485	6989.48
768.821	6977.73
769.157	7046.42
769.492	6961.68
769.828	6939.99
770.164	6875.13
770.5	6887.78
770.836	6843.27
771.171	6809.82
771.507	6793.78
771.842	6754
772.178	6800.1
772.513	6737.96
772.849	6739.09
773.184	6757.84
773.519	6733.44
773.855	6756.04
774.19	6664.74
774.525	6624.52
774.86	6615.93
775.195	6587.68
775.53	6622.71
775.865	6597.4
776.2	6564.63
776.535	6448.47
776.87	6450.28
777.205	6421.81
777.539	6430.62
777.874	6405.54
778.209	6309.95
778.543	6306.11
778.878	6364.18
779.212	6311.53
779.547	6255.94
779.881	6265.43
780.215	6281.47
780.55	6267.24
780.884	6185.66
781.218	6195.37
781.552	6230.85
781.886	6175.26
782.22	6111.99
782.554	6090.97
782.888	6045.55
783.222	6012.55
783.556	6043.29
783.889	6041.25
784.223	5926.45
784.557	6017.07
784.89	5946.34
785.224	5971.42
785.557	5953.57
785.891	5905.66
786.224	5907.47
786.558	5930.97
786.891	5830.86
787.224	5800.81
787.557	5790.41
787.891	5763.07
788.224	5701.38
788.557	5775.95
788.89	5720.36
789.223	5716.52
789.556	5686.91
789.888	5655.73
790.221	5637.87
790.554	5565.56
790.887	5555.39
791.219	5568.5
791.552	5576.63
791.884	5569.63
792.217	5504.54
792.549	5500.7
792.882	5500.7
793.214	5480.14
793.546	5498.89
793.879	5419.12
794.211	5430.2
794.543	5440.82
794.875	5385.23
795.207	5396.98
795.539	5392.91
795.871	5398.33
796.203	5349.29
796.535	5316.75
796.867	5310.65
797.198	5306.13
797.53	5313.82
797.862	5225
798.193	5241.5
798.525	5233.59
798.856	5222.29
799.188	5198.79
799.519	5162.18
799.85	5119.47
800.182	5082.63
800.513	5121.73
800.844	5125.8
801.175	5098.45
801.506	5108.85
801.837	5088.96
802.168	5076.99
802.499	5098
802.83	5043.99
803.161	5033.6
803.491	5026.14
803.822	5023.88
804.153	5018.68
804.483	4968.74
804.814	4993.15
805.145	4992.69
805.475	4926.03
805.805	4921.73
806.136	4961.28
806.466	4913.15
806.796	4896.2
807.126	4848.97
807.457	4819.82
807.787	4842.64
808.117	4772.36
808.447	4796.77
808.777	4812.81
809.107	4779.82
809.436	4756.32
809.766	4752.93
810.096	4750.44
810.426	4709.09
810.755	4690.55
811.085	4719.25
811.414	4690.55
811.744	4648.52
812.073	4684.68
812.403	4638.35
812.732	4637.9
813.061	4631.8
813.39	4624.79
813.719	4623.89
814.049	4665.02
814.378	4656.88
814.707	4614.4
815.036	4610.78
815.365	4572.82
815.693	4536.89
816.022	4572.59
816.351	4514.51
816.68	4499.6
817.008	4532.14
817.337	4462.76
817.665	4464.8
817.994	4508.86
818.322	4419.83
818.651	4449.21
818.979	4397.68
819.307	4426.83
819.636	4414.18
819.964	4391.58
820.292	4408.98
820.62	4413.05
820.948	4364.24
821.276	4365.82
821.604	4370.11
821.932	4364.69
822.259	4431.13
822.587	4429.77
822.915	4387.96
823.243	4398.36
823.57	4396.78
823.898	4381.64
824.225	4390.22
824.553	4369.89
824.88	4406.27
825.207	4416.44
825.535	4411.24
825.862	4398.36
826.189	4409.88
826.516	4391.13
826.843	4412.37
827.17	4393.84
827.497	4378.92
827.824	4374.4
828.151	4420.51
828.478	4385.7
828.805	4388.19
829.131	4356.55
829.458	4350
829.785	4345.7
830.111	4343.67
830.438	4370.34
830.764	4340.73
831.09	4362.43
831.417	4328.08
831.743	4368.53
832.069	4362.65
832.395	4314.97
832.722	4385.7
833.048	4359.94
833.374	4396.55
833.7	4358.13
834.026	4343.45
834.351	4365.82
834.677	4354.29
835.003	4375.53
835.329	4384.57
835.654	4340.28
835.98	4353.61
836.306	4347.74
836.631	4288.31
836.956	4296.89
837.282	4303.45
837.607	4275.65
837.932	4271.13
838.258	4291.24
838.583	4269.55
838.908	4228.42
839.233	4256.89
839.558	4224.13
839.883	4225.48
840.208	4200.17
840.533	4234.3
840.858	4198.82
841.182	4228.87
841.507	4155.88
841.832	4196.78
842.156	4155.88
842.481	4171.47
842.805	4115.65
843.13	4143.45
843.454	4173.28
843.778	4197.46
844.103	4165.14
844.427	4143.68
844.751	4137.8
845.075	4121.53
845.399	4163.11
845.723	4062.1
846.047	4110
846.371	4064.58
846.695	3999.73
847.019	4025.04
847.343	4055.77
847.666	3961.31
847.99	3958.82
848.313	3944.13
848.637	3925.15
848.96	3921.99
849.284	3904.81
849.607	3861.42
849.931	3914.76
850.254	3881.76
850.577	3785.72
850.9	3830.01
851.223	3823.23
851.546	3796.79
851.869	3805.61
852.192	3809.9
852.515	3794.76
852.838	3792.73
853.161	3761.54
853.483	3757.7
853.806	3753.18
854.129	3779.39
854.451	3747.08
854.774	3720.18
855.096	3757.47
855.419	3684.03
855.741	3741.88
856.063	3652.16
856.385	3634.76
856.708	3622.56
857.03	3630.24
857.352	3595.89
857.674	3624.59
857.996	3558.16
858.318	3556.8
858.64	3546.4
858.961	3548.89
859.283	3534.65
859.605	3500.76
859.926	3518.83
860.248	3527.65
860.57	3470.25
860.891	3515.67
861.212	3479.51
861.534	3489.46
861.855	3489.23
862.176	3510.25
862.498	3473.64
862.819	3497.37
863.14	3502.34
863.461	3464.82
863.782	3509.12
864.103	3484.48
864.424	3497.82
864.745	3489.46
865.065	3504.82
865.386	3424.83
865.707	3458.5
866.027	3467.31
866.348	3477.48
866.668	3419.63
866.989	3427.54
867.309	3408.1
867.63	3405.39
867.95	3371.27
868.27	3358.39
868.59	3402.23
868.91	3341.66
869.23	3329.69
869.55	3366.75
869.87	3330.14
870.19	3314.09
870.51	3327.65
870.83	3307.09
871.15	3358.84
871.469	3324.71
871.789	3292.4
872.109	3289.01
872.428	3301.89
872.748	3327.65
873.067	3300.31
873.386	3318.16
873.706	3339.18
874.025	3312.51
874.344	3313.19
874.663	3311.38
874.982	3306.86
875.301	3285.85
875.62	3303.47
875.939	3283.81
876.258	3292.4
876.577	3271.61
876.896	3291.5
877.214	3249.01
877.533	3291.5
877.852	3260.99
878.17	3272.29
878.489	3243.59
878.807	3261.21
879.125	3250.37
879.444	3208.33
879.762	3204.49
880.08	3194.55
880.398	3185.51
880.716	3165.85
881.034	3178.73
881.352	3164.72
881.67	3177.6
881.988	3180.31
882.306	3180.76
882.624	3168.56
882.941	3163.36
883.259	3154.55
883.577	3153.65
883.894	3128.56
884.212	3139.41
884.529	3122.69
884.846	3166.75
885.164	3157.71
885.481	3108.22
885.798	3109.35
886.115	3132.4
886.432	3080.65
886.75	3102.12
887.067	3116.13
887.383	3075.46
887.7	3092.63
888.017	3115.91
888.334	3058.96
888.651	3068
888.967	3073.2
889.284	3096.25
889.6	3094.21
889.917	3040.65
890.233	3015.57
890.55	3009.69
890.866	2990.26
891.182	2997.72
891.498	2954.78
891.815	2958.85
892.131	2978.28
892.447	2937.83
892.763	2908
893.079	2880.88
893.395	2958.17
893.71	2924.27
894.026	2883.14
894.342	2894.22
894.657	2859.64
894.973	2907.78
895.289	2862.13
895.604	2842.69
895.92	2853.99
896.235	2844.5
896.55	2846.08
896.865	2839.76
897.181	2832.3
897.496	2816.25
897.811	2819.64
898.126	2809.25
898.441	2838.17
898.756	2773.09
899.071	2770.15
899.386	2791.62
899.7	2776.25
900.015	2751.85
900.33	2745.75
900.644	2762.02
900.959	2753.43
901.273	2731.51
901.588	2731.74
901.902	2700.32
902.216	2726.31
902.531	2695.8
902.845	2679.31
903.159	2676.14
903.473	2635.24
903.787	2655.13
904.101	2629.59
904.415	2614.68
904.729	2619.87
905.042	2592.08
905.356	2563.38
905.67	2593.89
905.984	2587.79
906.297	2580.78
906.611	2554.57
906.924	2536.71
907.237	2553.44
907.551	2547.11
907.864	2515.92
908.177	2536.26
908.491	2524.28
908.804	2534.91
909.117	2503.72
909.43	2487
909.743	2494.68
910.056	2497.62
910.368	2494.45
910.681	2468.01
910.994	2455.59
911.307	2466.66
911.619	2509.82
911.932	2456.94
912.244	2454
912.557	2465.3
912.869	2433.21
913.181	2421.01
913.494	2402.25
913.806	2386.89
914.118	2400.22
914.43	2362.25
914.742	2371.07
915.054	2355.7
915.366	2327.45
915.678	2350.73
915.99	2296.04
916.302	2295.82
916.613	2275.25
916.925	2289.49
917.236	2300.33
917.548	2263.05
917.859	2257.62
918.171	2266.89
918.482	2268.7
918.794	2228.25
919.105	2247.68
919.416	2220.34
919.727	2185.99
920.038	2219.66
920.349	2187.34
920.66	2202.26
920.971	2208.36
921.282	2164.75
921.593	2164.52
921.903	2159.32
922.214	2148.7
922.525	2150.96
922.835	2138.31
923.146	2113.45
923.456	2134.24
923.767	2144.41
924.077	2161.81
924.387	2120.23
924.697	2095.59
925.008	2098.08
925.318	2108.25
925.628	2072.77
925.938	2057.18
926.248	2066.44
926.558	2054.47
926.867	2046.56
927.177	2062.38
927.487	2026.67
927.796	2034.35
928.106	2034.81
928.416	2021.47
928.725	2009.72
929.034	1971.3
929.344	2009.5
929.653	1955.94
929.962	1973.79
930.271	1947.58
930.581	1935.15
930.89	1977.41
931.199	1952.55
931.508	1943.06
931.817	1911.87
932.125	1921.14
932.434	1894.92
932.743	1879.1
933.051	1889.5
933.36	1912.1
933.669	1887.69
933.977	1866.22
934.286	1883.62
934.594	1873.91
934.902	1866.67
935.21	1861.02
935.519	1866
935.827	1863.28
936.135	1821.25
936.443	1821.48
936.751	1830.29
937.059	1844.08
937.367	1798.43
937.674	1812.89
937.982	1806.56
938.29	1828.48
938.597	1796.17
938.905	1798.65
939.213	1794.13
939.52	1754.81
939.827	1767.69
940.135	1764.53
940.442	1747.81
940.749	1743.06
941.056	1736.96
941.363	1726.34
941.67	1746
941.977	1723.85
942.284	1692.44
942.591	1696.96
942.898	1695.38
943.205	1695.15
943.511	1694.93
943.818	1690.63
944.125	1636.17
944.431	1668.04
944.738	1663.29
945.044	1694.7
945.35	1634.82
945.657	1635.04
945.963	1641.6
946.269	1630.07
946.575	1612.44
946.881	1596.17
947.187	1607.92
947.493	1606.12
947.799	1593.69
948.105	1571.31
948.41	1604.31
948.716	1614.48
949.022	1582.84
949.327	1596.17
949.633	1565.21
949.938	1556.63
950.244	1598.88
950.549	1568.6
950.854	1544.65
951.16	1562.73
951.465	1544.65
951.77	1556.85
952.075	1523.86
952.38	1551.43
952.685	1541.48
952.99	1506.23
953.294	1491.99
953.599	1488.6
953.904	1489.73
954.209	1476.63
954.513	1488.6
954.818	1455.84
955.122	1506.01
955.426	1461.26
955.731	1464.2
956.035	1470.3
956.339	1468.94
956.643	1469.4
956.948	1421.94
957.252	1427.14
957.556	1440.7
957.86	1422.39
958.163	1397.08
958.467	1405.67
958.771	1421.49
959.075	1399.79
959.378	1419.68
959.682	1412
959.985	1380.13
960.289	1365.44
960.592	1378.33
960.896	1367.7
961.199	1407.48
961.502	1373.13
961.805	1358.66
962.108	1377.42
962.411	1343.07
962.714	1361.83
963.017	1360.47
963.32	1330.42
963.623	1317.99
963.926	1318.21
964.228	1363.86
964.531	1317.99
964.833	1366.57
965.136	1324.54
965.438	1310.3
965.741	1307.14
966.043	1320.7
966.345	1276.41
966.648	1312.79
966.95	1284.99
967.252	1283.41
967.554	1282.51
967.856	1278.67
968.158	1279.8
968.46	1265.56
968.761	1271.66
969.063	1256.75
969.365	1216.75
969.666	1251.77
969.968	1243.87
970.269	1232.11
970.571	1245.9
970.872	1239.8
971.174	1232.11
971.475	1207.71
971.776	1216.3
972.077	1217.65
972.378	1207.48
972.679	1188.05
972.98	1190.53
973.281	1149.63
973.582	1191.44
973.883	1175.84
974.183	1159.8
974.484	1181.95
974.785	1148.05
975.085	1158.22
975.386	1172.68
975.686	1167.03
975.986	1150.76
976.287	1173.81
976.587	1156.41
976.887	1145.79
977.187	1129.52
977.487	1129.52
977.787	1134.04
978.087	1141.95
978.387	1144.43
978.687	1140.82
978.987	1083.19
979.286	1112.57
979.586	1099.24
979.885	1127.71
980.185	1106.69
980.484	1116.64
980.784	1107.15
981.083	1074.83
981.382	1077.32
981.682	1075.96
981.981	1085.9
982.28	1092.91
982.579	1062.4
982.878	1088.16
983.177	1065.11
983.475	1071.67
983.774	1068.95
984.073	1096.3
984.372	1045.45
984.67	1040.26
984.969	1045
985.267	1065.34
985.566	1042.29
985.864	1058.33
986.162	1038.67
986.461	1019.46
986.759	1024.66
987.057	1001.39
987.355	1024.89
987.653	967.49
987.951	1007.04
988.249	989.41
988.547	1023.98
988.844	986.47
989.142	991.22
989.44	997.54
989.737	986.02
990.035	976.08
990.332	972.01
990.63	997.54
990.927	968.62
991.224	986.92
991.521	976.98
991.819	964.1
992.116	953.48
992.413	1000.03
992.71	954.16
993.006	947.6
993.303	950.31
993.6	960.71
993.897	928.39
994.193	958.45
994.49	947.15
994.787	914.16
995.083	960.94
995.379	920.03
995.676	913.93
995.972	929.52
996.268	892.24
996.565	906.93
996.861	902.41
997.157	903.31
997.453	895.63
997.749	893.14
998.044	888.85
998.34	907.6
998.636	909.86
998.932	900.82
999.227	899.92
999.523	889.98
999.818	861.95
1000.114	879.36
1000.409	877.1
1000.704	844.78
1001	862.41
1001.295	868.51
1001.59	845.46
1001.885	844.33
1002.18	845.01
1002.475	849.53
1002.77	858.56
1003.065	845.46
1003.359	836.19
1003.654	816.53
1003.949	795.52
1004.243	825.12
1004.538	817.21
1004.832	842.75
1005.127	791.45
1005.421	778.57
1005.715	810.43
1006.009	822.63
1006.304	806.81
1006.598	790.32
1006.892	796.19
1007.186	828.06
1007.48	782.63
1007.773	785.57
1008.067	785.8
1008.361	783.76
1008.655	773.37
1008.948	759.36
1009.242	757.78
1009.535	775.63
1009.829	780.37
1010.122	751.68
1010.415	759.58
1010.708	754.16
1011.001	768.62
1011.295	756.87
1011.588	754.16
1011.881	755.97
1012.173	758.23
1012.466	720.94
1012.759	732.47
1013.052	755.06
1013.344	744.67
1013.637	742.64
1013.93	735.4
1014.222	714.84
1014.514	724.78
1014.807	730.66
1015.099	714.16
1015.391	720.26
1015.683	721.17
1015.976	706.48
1016.268	697.21
1016.56	719.81
1016.851	668.29
1017.143	706.48
1017.435	672.81
1017.727	692.02
1018.018	685.24
1018.31	679.36
1018.602	677.1
1018.893	680.04
1019.185	669.87
1019.476	653.15
1019.767	684.56
1020.058	654.28
1020.35	656.54
1020.641	666.25
1020.932	661.96
1021.223	657.89
1021.514	665.58
1021.804	649.53
1022.095	633.26
1022.386	640.49
1022.677	639.59
1022.967	643.66
1023.258	623.54
1023.548	669.19
1023.839	636.42
1024.129	641.62
1024.419	627.84
1024.709	614.05
1025	630.55
1025.29	619.48
1025.58	616.99
1025.87	602.53
1026.16	581.74
1026.449	589.19
1026.739	628.06
1027.029	601.85
1027.319	599.36
1027.608	612.92
1027.898	595.97
1028.187	589.65
1028.477	597.33
1028.766	595.97
1029.055	581.28
1029.344	598.91
1029.634	586.48
1029.923	586.03
1030.212	600.72
1030.501	598.46
1030.79	548.06
1031.078	551.68
1031.367	567.05
1031.656	567.05
1031.945	561.62
1032.233	590.32
1032.522	546.71
1032.81	558.91
1033.099	548.97
1033.387	570.66
1033.675	550.78
1033.963	565.24
1034.251	545.58
1034.54	553.04
1034.828	548.06
1035.116	551.45
1035.403	551.68
1035.691	538.57
1035.979	541.96
1036.267	548.97
1036.554	518.01
1036.842	535.41
1037.129	519.36
1037.417	529.08
1037.704	515.98
1037.992	501.74
1038.279	517.11
1038.566	511.91
1038.853	511.91
1039.14	511.91
