Data from foam_black_FLMS001491_00010.txt Node
Date: Wed Feb 08 10:43:26 GMT 2017
User: dcchb
Spectrometer: FLMS00149
Trigger mode: 0
Integration Time (sec): 2.000000E-2
Scans to average: 10
Electric dark correction enabled: true
Nonlinearity correction enabled: false
Boxcar width: 0
XAxis mode: Wavelengths
Number of Pixels in Spectrum: 2048
>>>>>Begin Spectral Data<<<<<
341.393	-4.48
341.776	-4.48
342.16	-4.48
342.543	-58.04
342.927	-58.49
343.31	-72.05
343.693	-65.27
344.077	-77.47
344.46	-59.17
344.843	-55.1
345.226	-49.22
345.61	-30.47
345.993	4.56
346.376	-28.66
346.759	2.53
347.142	30.55
347.525	44.11
347.908	71.68
348.291	68.97
348.674	116.88
349.057	98.12
349.44	163.43
349.823	136.76
350.206	153.48
350.588	191
350.971	212.69
351.354	231
351.737	239.36
352.119	269.87
352.502	260.83
352.884	281.84
353.267	293.59
353.65	317.1
354.032	296.76
354.414	322.29
354.797	322.97
355.179	317.77
355.562	306.25
355.944	313.25
356.326	334.95
356.709	339.02
357.091	347.6
357.473	344.67
357.855	334.95
358.238	353.03
358.62	332.46
359.002	339.02
359.384	351.67
359.766	346.93
360.148	357.1
360.53	354.61
360.912	343.08
361.294	336.76
361.676	315.74
362.057	340.6
362.439	331.33
362.821	340.6
363.203	329.07
363.584	324.33
363.966	346.47
364.348	345.57
364.729	342.63
365.111	349.19
365.493	327.27
365.874	341.95
366.256	331.79
366.637	369.3
367.019	334.04
367.4	330.88
367.781	354.84
368.163	331.33
368.544	352.12
368.925	322.07
369.306	315.74
369.688	335.85
370.069	316.42
370.45	320.71
370.831	326.36
371.212	334.5
371.593	327.94
371.974	332.46
372.355	332.24
372.736	357.32
373.117	341.95
373.498	348.06
373.879	352.8
374.26	322.97
374.641	330.66
375.021	341.28
375.402	337.89
375.783	334.95
376.163	371.56
376.544	358.45
376.925	357.1
377.305	349.19
377.686	365.46
378.066	347.6
378.447	363.2
378.827	366.13
379.208	355.74
379.588	358.9
379.968	378.79
380.349	365.46
380.729	371.11
381.109	371.11
381.489	372.01
381.87	375.63
382.25	390.09
382.63	367.49
383.01	395.29
383.39	383.99
383.77	395.51
384.15	393.93
384.53	388.28
384.91	404.33
385.29	394.61
385.67	399.35
386.049	410.2
386.429	409.98
386.809	417.21
387.189	409.3
387.568	423.08
387.948	418.34
388.328	418.56
388.707	422.86
389.087	418.11
389.466	427.15
389.846	435.96
390.225	434.83
390.605	448.84
390.984	447.04
391.363	439.58
391.743	426.47
392.122	439.8
392.501	457.88
392.881	443.65
393.26	467.6
393.639	450.43
394.018	474.83
394.397	478.67
394.776	463.31
395.155	481.16
395.534	488.17
395.913	453.82
396.292	469.86
396.671	491.1
397.05	484.78
397.429	489.75
397.808	495.85
398.186	526.58
398.565	493.59
398.944	495.4
399.323	499.24
399.701	502.4
400.08	497.43
400.458	501.72
400.837	506.02
401.215	518.9
401.594	526.36
401.972	517.77
402.351	503.98
402.729	520.93
403.107	496.53
403.486	519.8
403.864	533.81
404.242	548.28
404.62	555.06
404.999	545.34
405.377	545.34
405.755	563.64
406.133	573.81
406.511	558.9
406.889	576.98
407.267	603.87
407.645	616.3
408.023	588.28
408.401	581.04
408.779	612.68
409.156	626.47
409.534	611.33
409.912	628.05
410.29	637.77
410.667	613.81
411.045	629.63
411.422	607.48
411.8	630.53
412.178	666.92
412.555	645.22
412.933	656.3
413.31	689.06
413.687	689.97
414.065	674.83
414.442	670.31
414.819	702.85
415.197	693.13
415.574	701.27
415.951	686.13
416.328	704.66
416.705	733.81
417.082	706.46
417.46	734.26
417.837	733.58
418.214	735.84
418.591	745.33
418.967	741.04
419.344	764.54
419.721	772
420.098	770.19
420.475	758.21
420.852	768.16
421.228	802.28
421.605	787.82
421.982	806.35
422.358	808.16
422.735	821.04
423.111	815.16
423.488	811.55
423.864	803.86
424.241	847.03
424.617	839.12
424.994	859.68
425.37	826.69
425.746	879.79
426.123	870.75
426.499	866.91
426.875	891.09
427.251	894.26
427.627	909.17
428.003	916.18
428.379	930.87
428.756	918.89
429.132	929.96
429.507	967.25
429.883	964.31
430.259	981.94
430.635	990.3
431.011	967.47
431.387	1001.37
431.763	1016.74
432.138	1026.46
432.514	1045.66
432.89	1035.95
433.265	1062.84
433.641	1068.94
434.016	1069.39
434.392	1088.6
434.767	1092.44
435.143	1115.49
435.518	1094.7
435.894	1112.56
436.269	1145.55
436.644	1158.43
437.02	1185.77
437.395	1153.68
437.77	1160.46
438.145	1180.35
438.52	1188.71
438.895	1212.67
439.271	1202.27
439.646	1218.99
440.021	1221.93
440.395	1224.64
440.77	1234.81
441.145	1245.89
441.52	1276.62
441.895	1242.27
442.27	1266.45
442.645	1270.07
443.019	1305.32
443.394	1283.62
443.769	1318.2
444.143	1340.35
444.518	1296.51
444.892	1336.96
445.267	1336.96
445.641	1341.48
446.016	1351.19
446.39	1386.67
446.764	1367.92
447.139	1376.05
447.513	1400.91
447.887	1387.58
448.262	1418.08
448.636	1411.76
449.01	1463.51
449.384	1434.13
449.758	1423.73
450.132	1447.46
450.506	1482.72
450.88	1473.68
451.254	1479.1
451.628	1506.44
452.002	1470.06
452.376	1542.83
452.75	1530.62
453.123	1533.34
453.497	1583.96
453.871	1566.33
454.244	1585.31
454.618	1605.42
454.992	1632.77
455.365	1609.49
455.739	1668.02
456.112	1673.9
456.486	1708.92
456.859	1705.31
457.232	1752.76
457.606	1744.86
457.979	1778.3
458.352	1794.57
458.725	1817.62
459.099	1824.85
459.472	1887
459.845	1867.79
460.218	1893.78
460.591	1911.4
460.964	1920.67
461.337	1960.22
461.71	1952.08
462.083	1995.92
462.456	2005.87
462.829	2021.91
463.201	2051.51
463.574	2038.63
463.947	2070.72
464.32	2110.27
464.692	2110.27
465.065	2121.34
465.438	2187.33
465.81	2203.6
466.183	2215.35
466.555	2249.25
466.928	2269.81
467.3	2245.86
467.672	2269.14
468.045	2367.44
468.417	2375.35
468.789	2362.92
469.161	2431.16
469.534	2455.57
469.906	2466.42
470.278	2511.39
470.65	2553.2
471.022	2548.45
471.394	2616.47
471.766	2630.26
472.138	2693.76
472.51	2699.63
472.882	2777.6
473.253	2783.7
473.625	2806.97
473.997	2865.28
474.369	2870.48
474.74	2935.11
475.112	2983.24
475.484	3013.07
475.855	3065.72
476.227	3090.13
476.598	3156.34
476.97	3173.52
477.341	3265.95
477.713	3347.52
478.084	3308.88
478.455	3404.47
478.827	3449.44
479.198	3524.24
479.569	3546.39
479.94	3597.91
480.311	3636.78
480.682	3710.23
481.053	3776.67
481.424	3829.09
481.795	3906.15
482.166	3942.54
482.537	4000.84
482.908	4028.64
483.279	4126.04
483.65	4181.85
484.021	4280.61
484.391	4273.15
484.762	4279.7
485.133	4395.18
485.503	4430.21
485.874	4504.78
486.244	4563.31
486.615	4624.78
486.985	4689.86
487.356	4802.85
487.726	4810.76
488.097	4881.95
488.467	4914.26
488.837	5027.93
489.207	5112.9
489.578	5101.6
489.948	5177.08
490.318	5241.49
490.688	5275.84
491.058	5308.38
491.428	5404.65
491.798	5436.06
492.168	5584.75
492.538	5569.84
492.908	5590.18
493.278	5707.69
493.648	5704.98
494.017	5736.84
494.387	5786.56
494.757	5891.64
495.126	5923.28
495.496	5914.01
495.866	5995.14
496.235	6102.03
496.605	6173.67
496.974	6114.46
497.344	6187
497.713	6227
498.082	6243.49
498.452	6386.09
498.821	6363.49
499.19	6383.38
499.559	6468.12
499.928	6454.34
500.298	6555.12
500.667	6617.5
501.036	6646.2
501.405	6702.24
501.774	6695.01
502.143	6775.68
502.512	6791.95
502.88	6858.17
503.249	6838.05
503.618	6937.26
503.987	7001.44
504.356	6988.56
504.724	7049.57
505.093	7089.12
505.462	7100.87
505.83	7165.96
506.199	7192.85
506.567	7353.75
506.936	7328.66
507.304	7443.69
507.672	7457.25
508.041	7483.24
508.409	7524.82
508.777	7552.61
509.145	7627.64
509.514	7674.19
509.882	7753.74
510.25	7716.22
510.618	7849.55
510.986	7855.66
511.354	7950.57
511.722	8048.87
512.09	8042.77
512.458	8054.07
512.826	8184.46
513.193	8165.7
513.561	8217.91
513.929	8263.1
514.297	8370.67
514.664	8380.61
515.032	8478.92
515.4	8552.59
515.767	8546.71
516.135	8632.58
516.502	8644.11
516.869	8763.65
517.237	8721.39
517.604	8802.3
517.972	8891.56
518.339	8934.04
518.706	8980.15
519.073	9059.92
519.44	9102.85
519.808	9196.64
520.175	9155.96
520.542	9295.17
520.909	9310.08
521.276	9350.76
521.643	9510.98
522.009	9560.92
522.376	9607.7
522.743	9673.91
523.11	9790.29
523.477	9881.14
523.843	9918.65
524.21	10073.9
524.577	10136.05
524.943	10150.74
525.31	10183.5
525.676	10344.63
526.043	10389.83
526.409	10464.63
526.776	10497.62
527.142	10534.23
527.508	10616.49
527.874	10742.36
528.241	10771.51
528.607	10815.35
528.973	10913.2
529.339	10996.36
529.705	11048.11
530.071	11120.2
530.437	11160.2
530.803	11301.67
531.169	11392.96
531.535	11344.38
531.901	11356.35
532.267	11481.1
532.632	11548.67
532.998	11580.08
533.364	11687.64
533.73	11693.07
534.095	11838.38
534.461	11815.78
534.826	11888.77
535.192	11895.1
535.557	12028.65
535.923	12010.35
536.288	12061.19
536.653	12150.68
537.019	12158.82
537.384	12271.58
537.749	12280.85
538.114	12304.35
538.479	12355.65
538.845	12444.91
539.21	12436.1
539.575	12441.07
539.94	12533.95
540.305	12635.64
540.67	12611.24
541.034	12618.02
541.399	12749.99
541.764	12764.23
542.129	12770.55
542.494	12916.09
542.858	12961.96
543.223	12931
543.587	13048.74
543.952	12994.05
544.316	13099.58
544.681	13022.52
545.045	13161.96
545.41	13194.95
545.774	13267.04
546.138	13247.6
546.503	13355.17
546.867	13430.65
547.231	13532.12
547.595	13492.12
547.959	13568.5
548.324	13570.08
548.688	13542.96
549.052	13700.02
549.416	13746.57
549.779	13765.33
550.143	13787.48
550.507	13909.06
550.871	14024.31
551.235	13944.08
551.599	14105.21
551.962	14090.97
552.326	14181.82
552.689	14265.43
553.053	14192.44
553.417	14239.67
553.78	14402.38
554.143	14434.69
554.507	14487.12
554.87	14535.71
555.234	14663.39
555.597	14617.06
555.96	14692.54
556.323	14838.97
556.686	14771.86
557.05	14960.1
557.413	15026.31
557.776	14969.59
558.139	15161
558.502	15147.89
558.865	15172.52
559.228	15288.45
559.59	15376.36
559.953	15340.43
560.316	15538.16
560.679	15613.42
561.041	15735.45
561.404	15745.17
561.767	15855.9
562.129	15854.54
562.492	15981.77
562.854	16014.99
563.217	15973.86
563.579	16147.19
563.941	16145.15
564.304	16268.32
564.666	16411.14
565.028	16416.33
565.39	16515.99
565.753	16634.86
566.115	16705.82
566.477	16700.62
566.839	16804.57
567.201	16876.43
567.563	16931.35
567.925	17066.03
568.287	16942.65
568.648	17052.02
569.01	17140.83
569.372	17276.42
569.734	17269.42
570.095	17325.46
570.457	17338.57
570.819	17408.4
571.18	17508.28
571.542	17648.84
571.903	17672.8
572.265	17748.95
572.626	17805.68
572.987	17747.37
573.349	17770.87
573.71	17932.68
574.071	17858.33
574.432	17969.06
574.794	18082.96
575.155	18103.3
575.516	18067.14
575.877	18134.48
576.238	18150.3
576.599	18223.29
576.96	18311.65
577.32	18264.19
577.681	18350.29
578.042	18434.59
578.403	18387.13
578.763	18489.27
579.124	18470.29
579.485	18472.55
579.845	18616.05
580.206	18557.97
580.566	18538.31
580.927	18477.75
581.287	18657.4
581.648	18564.07
582.008	18641.13
582.368	18654.69
582.728	18629.38
583.089	18568.14
583.449	18653.11
583.809	18594.81
584.169	18701.47
584.529	18730.17
584.889	18884.52
585.249	18717.74
585.609	18718.65
585.969	18834.35
586.329	18774.24
586.688	18760.91
587.048	18806.33
587.408	18766.1
587.768	18745.99
588.127	18801.36
588.487	18782.6
588.846	18937.4
589.206	18743.05
589.565	18860.56
589.925	18865.76
590.284	18950.5
590.643	18911.86
591.003	18885.2
591.362	19067.34
591.721	19016.72
592.08	18919.32
592.44	18972.88
592.799	19072.99
593.158	19066.21
593.517	19027.56
593.876	19155.7
594.235	19112.31
594.593	19101.24
594.952	19228.46
595.311	19108.69
595.67	19143.49
596.029	19133.1
596.387	19282.47
596.746	19306.88
597.104	19152.08
597.463	19253.1
597.822	19378.29
598.18	19235.24
598.538	19319.99
598.897	19437.27
599.255	19217.39
599.613	19551.17
599.972	19445.18
600.33	19478.4
600.688	19331.29
601.046	19498.74
601.404	19581
601.762	19486.54
602.12	19621.67
602.478	19570.6
602.836	19604.5
603.194	19424.62
603.552	19489.02
603.91	19557.95
604.268	19613.76
604.625	19552.75
604.983	19646.53
605.341	19485.63
605.698	19629.81
606.056	19718.39
606.413	19657.38
606.771	19663.93
607.128	19778.73
607.485	19664.84
607.843	19730.82
608.2	19762.46
608.557	19832.97
608.914	19742.57
609.272	19876.13
609.629	19870.03
609.986	19876.13
610.343	19753.65
610.7	19911.84
611.057	19974.66
611.414	19880.88
611.771	19944.38
612.127	20015.56
612.484	19983.7
612.841	20054.66
613.198	19849.24
613.554	20071.15
613.911	20082.23
614.267	20038.39
614.624	20067.09
614.98	20011.49
615.337	20139.4
615.693	20106.18
616.05	20013.53
616.406	20165.39
616.762	20185.27
617.118	20079.74
617.475	20145.05
617.831	20219.85
618.187	20156.35
618.543	20178.27
618.899	20324.93
619.255	20251.49
619.611	20161.77
619.967	20307.08
620.323	20387.98
620.678	20167.2
621.034	20107.08
621.39	20181.43
621.746	20151.38
622.101	20381.65
622.457	20294.65
622.812	20249.23
623.168	20342.33
623.523	20219.4
623.879	20243.8
624.234	20121.32
624.589	20224.6
624.945	20265.5
625.3	20242.22
625.655	20209
626.01	20252.84
626.365	20329.68
626.72	20254.2
627.075	20262.79
627.43	20184.14
627.785	20170.59
628.14	20229.57
628.495	20147.76
628.85	20269.11
629.205	20093.98
629.559	20177.59
629.914	20134.43
630.269	20146.18
630.623	20065.28
630.978	20021.66
631.332	20077.03
631.687	20184.37
632.041	20093.53
632.396	20050.81
632.75	19939.41
633.104	19986.64
633.459	19907.99
633.813	19905.06
634.167	19904.38
634.521	19891.04
634.875	19806.53
635.229	19914.1
635.583	19770.82
635.937	19708.22
636.291	19778.28
636.645	19754.1
636.999	19740.09
637.352	19750.03
637.706	19499.19
638.06	19629.58
638.413	19682.91
638.767	19501.68
639.121	19691.73
639.474	19462.81
639.828	19612.18
640.181	19593.65
640.534	19636.14
640.888	19611.5
641.241	19486.54
641.594	19564.73
641.947	19542.13
642.301	19592.97
642.654	19519.53
643.007	19612.86
643.36	19472.07
643.713	19578.06
644.066	19630.94
644.419	19364.05
644.771	19265.75
645.124	19141.01
645.477	19103.27
645.83	19013.55
646.182	18842.26
646.535	18907.34
646.888	18907.34
647.24	18875.48
647.593	18977.4
647.945	19027.79
648.298	18872.99
648.65	18809.72
649.002	18759.78
649.355	18865.99
649.707	18778.98
650.059	18897.85
650.411	19050.84
650.763	19097.62
651.115	19368.8
651.467	19279.76
651.819	19145.3
652.171	19162.48
652.523	19180.55
652.875	19193.66
653.227	19055.81
653.578	19163.83
653.93	19216.71
654.282	19066.43
654.633	18952.76
654.985	19070.95
655.337	19022.82
655.688	19066.89
656.039	19048.36
656.391	18965.42
656.742	18964.97
657.094	18944.4
657.445	19031.86
657.796	18905.53
658.147	18952.76
658.498	18921.13
658.849	19021.92
659.2	18825.54
659.551	18861.69
659.902	18825.99
660.253	18745.09
660.604	18860.11
660.955	18687.91
661.306	18910.73
661.656	18869.6
662.007	18720.68
662.358	18886.78
662.708	18891.07
663.059	18718.42
663.409	18601.36
663.76	18805.42
664.11	18672.09
664.461	18693.56
664.811	18760.23
665.161	18677.97
665.511	18640.68
665.862	18656.05
666.212	18722.71
666.562	18719.78
666.912	18632.55
667.262	18619.44
667.612	18581.93
667.962	18642.72
668.312	18585.99
668.662	18625.32
669.011	18470.29
669.361	18489.95
669.711	18485.66
670.06	18375.15
670.41	18426.45
670.76	18302.84
671.109	18449.95
671.459	18395.26
671.808	18414.7
672.157	18379.22
672.507	18268.94
672.856	18310.97
673.205	18267.13
673.554	18237.53
673.904	18249.05
674.253	18384.19
674.602	18123.86
674.951	17877.76
675.3	17772.23
675.649	18089.74
675.998	17983.3
676.346	18070.98
676.695	18243.86
677.044	18020.13
677.393	17990.08
677.741	17969.06
678.09	18003.41
678.438	17926.12
678.787	17924.32
679.135	17968.38
679.484	17826.24
679.832	17945.11
680.181	17740.82
680.529	17787.82
680.877	17760.93
681.225	17750.31
681.573	17797.54
681.922	17628.05
682.27	17634.61
682.618	17711.89
682.966	17632.12
683.314	17582.63
683.661	17579.47
684.009	17489.75
684.357	17457.21
684.705	17405.01
685.053	17426.02
685.4	17332.02
685.748	17392.13
686.095	17358.46
686.443	17299.02
686.79	17207.5
687.138	17207.27
687.485	17268.74
687.832	17220.61
688.18	17324.78
688.527	17160.95
688.874	17212.7
689.221	17129.76
689.568	17026.49
689.915	17007.96
690.262	16956.21
690.609	17010.22
690.956	17004.34
691.303	16910.78
691.65	16794.18
691.997	16874.4
692.344	16762.09
692.69	16731.35
693.037	16746.27
693.383	16581.98
693.73	16596.89
694.077	16618.36
694.423	16524.13
694.769	16494.75
695.116	16450.68
695.462	16572.71
695.808	16391.93
696.155	16383.11
696.501	16347.41
696.847	16296.79
697.193	16182.44
697.539	16331.82
697.885	16184.93
698.231	16086.4
698.577	16129.79
698.923	16161.2
699.269	16117.58
699.614	15999.4
699.96	15940.41
700.306	15973.41
700.651	15878.27
700.997	15798.72
701.342	15859.29
701.688	15779.06
702.033	15779.51
702.379	15831.04
702.724	15725.28
703.069	15652.29
703.415	15526.64
703.76	15497.26
704.105	15552.4
704.45	15487.32
704.795	15387.21
705.14	15392.86
705.485	15428.56
705.83	15271.73
706.175	15363.25
706.52	15245.52
706.865	15223.14
707.209	15223.82
707.554	15226.53
707.899	15271.05
708.243	15114.67
708.588	15052.53
708.932	14958.07
709.277	14998.74
709.621	15025.86
709.966	14888.46
710.31	14899.09
710.654	14794.46
710.998	14828.35
711.342	14890.72
711.687	14912.64
712.031	14710.16
712.375	14652.54
712.719	14757.62
713.063	14681.69
713.407	14703.61
713.75	14570.28
714.094	14574.12
714.438	14509.72
714.782	14511.98
715.125	14488.25
715.469	14451.19
715.812	14425.2
716.156	14371.19
716.499	14369.16
716.843	14335.26
717.186	14239.67
717.53	14351.3
717.873	14271.98
718.216	14261.36
718.559	14201.7
718.902	14111.54
719.246	14144.08
719.589	14139.11
719.932	14020.01
720.275	14053.46
720.617	14017.3
720.96	13984.76
721.303	13975.49
721.646	14008.71
721.989	13902.95
722.331	13956.29
722.674	13838.77
723.016	13897.76
723.359	13894.82
723.701	13831.54
724.044	13715.61
724.386	13771.88
724.729	13694.6
725.071	13662.73
725.413	13624.99
725.755	13670.64
726.097	13544.54
726.439	13554.04
726.782	13603.98
727.124	13569.18
727.465	13517.65
727.807	13477.43
728.149	13447.6
728.491	13403.98
728.833	13382.06
729.175	13409.41
729.516	13427.03
729.858	13290.31
730.199	13395.85
730.541	13300.26
730.882	13345.23
731.224	13306.81
731.565	13227.72
731.906	13231.78
732.248	13127.83
732.589	13139.58
732.93	13104.33
733.271	13103.43
733.612	13116.31
733.953	13145.01
734.294	13024.56
734.635	13018.68
734.976	13108.62
735.317	12911.34
735.658	12924.45
735.999	12952.24
736.339	12885.13
736.68	12926.03
737.021	12858.46
737.361	12787.5
737.702	12907.27
738.042	12777.33
738.383	12738.92
738.723	12741.85
739.063	12714.51
739.404	12718.35
739.744	12694.85
740.084	12629.77
740.424	12692.14
740.764	12624.8
741.104	12755.64
741.444	12597.68
741.784	12561.75
742.124	12517.23
742.464	12527.85
742.804	12456.44
743.143	12478.58
743.483	12400.17
743.823	12430
744.162	12398.13
744.502	12391.35
744.841	12260.96
745.181	12326.27
745.52	12298.25
745.86	12314.97
746.199	12336.44
746.538	12286.72
746.877	12290.57
747.216	12306.16
747.556	12201.98
747.895	12182.32
748.234	12179.16
748.573	12110.68
748.911	12234.75
749.25	12046.05
749.589	12061.87
749.928	12052.83
750.267	12110.01
750.605	11993.63
750.944	12046.05
751.283	12021.65
751.621	11976.68
751.96	11859.84
752.298	11847.87
752.636	11893.51
752.975	11761.54
753.313	11744.14
753.651	11826.4
753.989	11642
754.327	11684.71
754.666	11608.78
755.004	11651.94
755.342	11691.71
755.679	11663.01
756.017	11569.46
756.355	11604.71
756.693	11485.16
757.031	11532.85
757.368	11470.25
757.706	11464.83
758.044	11460.98
758.381	11408.56
758.719	11369.01
759.056	11351.83
759.394	11288.79
759.731	11266.41
760.068	11260.76
760.405	11152.52
760.743	11137.6
761.08	11170.6
761.417	11095.57
761.754	11094.67
762.091	11062.58
762.428	10901.45
762.765	10886.31
763.102	11010.37
763.438	10948.68
763.775	10918.85
764.112	10921.56
764.449	10907.33
764.785	10839.31
765.122	10838.18
765.458	10804.73
765.795	10738.07
766.131	10807.44
766.467	10662.59
766.804	10683.6
767.14	10632.98
767.476	10635.02
767.812	10583.04
768.148	10483.38
768.485	10500.78
768.821	10495.59
769.157	10473.89
769.492	10423.27
769.828	10389.6
770.164	10297.17
770.5	10347.57
770.836	10326.78
771.171	10245.65
771.507	10275.7
771.842	10153.67
772.178	10139.89
772.513	10033
772.849	10087.46
773.184	10068.93
773.519	10050.85
773.855	9973.34
774.19	9937.18
774.525	9867.35
774.86	9992.1
775.195	9963.4
775.53	9915.26
775.865	9828.48
776.2	9785.32
776.535	9762.95
776.87	9751.42
777.205	9749.62
777.539	9690.64
777.874	9685.44
778.209	9623.29
778.543	9608.38
778.878	9566.8
779.212	9619.68
779.547	9532.45
779.881	9515.72
780.215	9388.95
780.55	9463.3
780.884	9372.68
781.218	9428.27
781.552	9434.6
781.886	9329.06
782.22	9314.37
782.554	9256.3
782.888	9208.39
783.222	9197.99
783.556	9139.24
783.889	9173.59
784.223	9087.49
784.557	9132.91
784.89	9055.17
785.224	9005
785.557	9030.09
785.891	8990.54
786.224	8933.37
786.558	8897.44
786.891	8844.56
787.224	8910.09
787.557	8810.88
787.891	8800.26
788.224	8835.74
788.557	8818.79
788.89	8766.59
789.223	8706.93
789.556	8616.76
789.888	8686.14
790.221	8607.27
790.554	8543.32
790.887	8537.67
791.219	8522.3
791.552	8496.77
791.884	8491.57
792.217	8398.01
792.549	8404.12
792.882	8352.14
793.214	8360.5
793.546	8364.34
793.879	8295.19
794.211	8266.49
794.543	8292.93
794.875	8244.57
795.207	8186.95
795.539	8149.66
795.871	8152.37
796.203	8137.46
796.535	8074.86
796.867	8086.61
797.198	8014.29
797.53	8038.02
797.862	7977.01
798.193	7944.01
798.525	7912.6
798.856	7964.58
799.188	7878.71
799.519	7794.19
799.85	7760.74
800.182	7719.39
800.513	7745.83
800.844	7672.61
801.175	7694.3
801.506	7678.94
801.837	7612.5
802.168	7617.02
802.499	7604.81
802.83	7531.14
803.161	7520.75
803.491	7534.53
803.822	7542.22
804.153	7434.65
804.483	7429.23
804.814	7446.85
805.145	7409.79
805.475	7375.89
805.805	7299.06
806.136	7374.09
806.466	7391.71
806.796	7265.39
807.126	7217.93
807.457	7242.56
807.787	7183.58
808.117	7168.22
808.447	7131.83
808.777	7152.85
809.107	7085.05
809.436	7150.59
809.766	7071.49
810.096	7073.3
810.426	7000.54
810.755	7054.09
811.085	7030.59
811.414	6987.66
811.744	6902.91
812.073	6937.71
812.403	6864.95
812.732	6826.53
813.061	6787.21
813.39	6793.99
813.719	6733.42
814.049	6821.78
814.378	6760.77
814.707	6816.13
815.036	6795.8
815.365	6706.76
815.693	6704.95
816.022	6624.5
816.351	6675.12
816.68	6603.48
817.008	6581.56
817.337	6560.77
817.665	6542.7
817.994	6512.64
818.322	6545.63
818.651	6531.62
818.979	6470.61
819.307	6539.31
819.636	6510.38
819.964	6404.85
820.292	6431.96
820.62	6429.25
820.948	6451.85
821.276	6501.34
821.604	6423.6
821.932	6445.52
822.259	6363.04
822.587	6370.72
822.915	6346.54
823.243	6370.04
823.57	6398.07
823.898	6402.36
824.225	6405.3
824.553	6411.63
824.88	6339.54
825.207	6461.57
825.535	6391.96
825.862	6363.04
826.189	6403.49
826.516	6442.81
826.843	6381.34
827.17	6377.05
827.497	6394.68
827.824	6394.22
828.151	6320.33
828.478	6414.11
828.805	6382.93
829.131	6352.42
829.458	6322.59
829.785	6321.68
830.111	6317.62
830.438	6292.53
830.764	6380.67
831.09	6339.99
831.417	6363.72
831.743	6356.49
832.069	6322.59
832.395	6302.02
832.722	6329.59
833.048	6333.44
833.374	6340.44
833.7	6363.49
834.026	6303.83
834.351	6338.63
834.677	6340.89
835.003	6351.74
835.329	6308.8
835.654	6260.67
835.98	6278.75
836.306	6306.32
836.631	6252.76
836.956	6273.1
837.282	6337.95
837.607	6259.09
837.932	6251.4
838.258	6242.82
838.583	6266.77
838.908	6274.45
839.233	6239.2
839.558	6198.52
839.883	6164.63
840.208	6203.27
840.533	6183.83
840.858	6205.08
841.182	6173.21
841.507	6168.92
841.832	6154.91
842.156	6147.68
842.481	6090.73
842.805	6064.74
843.13	6100.45
843.454	6072.88
843.778	6079.66
844.103	6040.34
844.427	5998.08
844.751	6029.26
845.075	6083.5
845.399	6026.78
845.723	6040.11
846.047	6054.12
846.371	6006.21
846.695	6036.04
847.019	5958.3
847.343	5934.12
847.666	5869.04
847.99	5869.04
848.313	5857.29
848.637	5786.1
848.96	5782.49
849.284	5777.29
849.607	5783.39
849.931	5683.28
850.254	5757.86
850.577	5691.87
850.9	5683.06
851.223	5617.07
851.546	5615.94
851.869	5601.03
852.192	5680.12
852.515	5535.04
852.838	5554.7
853.161	5591.31
853.483	5504.3
853.806	5549.27
854.129	5501.37
854.451	5492.55
854.774	5474.93
855.096	5429.73
855.419	5468.83
855.741	5447.36
856.063	5417.08
856.385	5375.27
856.708	5375.72
857.03	5374.14
857.352	5364.87
857.674	5345.66
857.996	5333.91
858.318	5343.86
858.64	5338.21
858.961	5326.23
859.283	5340.24
859.605	5318.32
859.926	5341.6
860.248	5286.46
860.57	5252.33
860.891	5226.12
861.212	5278.55
861.534	5222.05
861.855	5221.83
862.176	5239.45
862.498	5187.02
862.819	5187.7
863.14	5181.38
863.461	5172.79
863.782	5171.66
864.103	5221.6
864.424	5130.75
864.745	5148.61
865.065	5131.66
865.386	5125.56
865.707	5134.14
866.027	5139.34
866.348	5079.23
866.668	5095.5
866.989	5115.39
867.309	5119.46
867.63	5066.12
867.95	5055.5
868.27	5077.2
868.59	5072
868.91	5044.2
869.23	5062.28
869.55	5013.02
869.87	5079.91
870.19	5030.19
870.51	4987.71
870.83	5032.45
871.15	5002.85
871.469	5014.15
871.789	4992.91
872.109	4952.23
872.428	4974.6
872.748	4986.58
873.067	4970.31
873.386	4946.13
873.706	4919.46
874.025	4908.84
874.344	4880.37
874.663	4896.64
874.982	4879.69
875.301	4931.66
875.62	4894.38
875.939	4925.11
876.258	4866.81
876.577	4870.2
876.896	4856.86
877.214	4830.2
877.533	4850.54
877.852	4813.02
878.17	4845.34
878.489	4870.2
878.807	4812.35
879.125	4808.96
879.444	4845.79
879.762	4804.44
880.08	4780.03
880.398	4739.35
880.716	4749.52
881.034	4782.74
881.352	4745.91
881.67	4787.94
881.988	4727.83
882.306	4736.42
882.624	4699.13
882.941	4661.84
883.259	4669.07
883.577	4633.82
883.894	4700.48
884.212	4650.77
884.529	4680.37
884.846	4622.29
885.164	4589.07
885.481	4637.89
885.798	4577.78
886.115	4575.97
886.432	4553.59
886.75	4545.69
887.067	4558.11
887.383	4494.61
887.7	4515.86
888.017	4440.6
888.334	4488.29
888.651	4467.27
888.967	4500.94
889.284	4421.17
889.6	4427.27
889.917	4414.39
890.233	4439.25
890.55	4380.72
890.866	4429.53
891.182	4339.14
891.498	4403.54
891.815	4364.22
892.131	4354.05
892.447	4333.49
892.763	4299.36
893.079	4289.65
893.395	4312.02
893.71	4229.99
894.026	4264.56
894.342	4225.24
894.657	4157.22
894.973	4192.93
895.289	4170.78
895.604	4201.29
895.92	4131.23
896.235	4116.77
896.55	4127.62
896.865	4089.2
897.181	4094.85
897.496	4110.22
897.811	4088.3
898.126	4063.44
898.441	4053.5
898.756	4019.6
899.071	4016.21
899.386	3986.38
899.7	3977.11
900.015	3972.59
900.33	3929.2
900.644	3960.84
900.959	3943.22
901.273	3898.7
901.588	3866.16
901.902	3873.16
902.216	3881.3
902.531	3832.03
902.845	3821.64
903.159	3795.87
903.473	3848.53
903.787	3786.61
904.101	3781.41
904.415	3757.91
904.729	3745.93
905.042	3731.7
905.356	3715.88
905.67	3693.05
905.984	3681.08
906.297	3693.28
906.611	3663.22
906.924	3652.6
907.237	3614.64
907.551	3645.6
907.864	3609.44
908.177	3583.45
908.491	3522.89
908.804	3511.36
909.117	3523.34
909.43	3535.54
909.743	3501.42
910.056	3508.65
910.368	3510.23
910.681	3499.84
910.994	3496.45
911.307	3489.89
911.619	3428.65
911.932	3406.96
912.244	3427.3
912.557	3397.47
912.869	3368.09
913.181	3364.02
913.494	3339.16
913.806	3333.29
914.118	3337.81
914.43	3332.38
914.742	3314.53
915.054	3282.22
915.366	3337.13
915.678	3302.55
915.99	3250.58
916.302	3215.33
916.613	3254.19
916.925	3201.54
917.236	3217.13
917.548	3169.45
917.859	3189.11
918.171	3176
918.482	3184.82
918.794	3121.77
919.105	3126.06
919.416	3132.16
919.727	3075.67
920.038	3110.02
920.349	3070.7
920.66	3067.53
920.971	3073.41
921.282	3049.91
921.593	2992.73
921.903	3026.86
922.214	3005.39
922.525	3024.82
922.835	2991.15
923.146	2962
923.456	2937.37
923.767	2929.91
924.077	2933.75
924.387	2936.24
924.697	2894.66
925.008	2913.86
925.318	2888.1
925.628	2893.53
925.938	2912.28
926.248	2838.61
926.558	2827.09
926.867	2815.56
927.177	2830.25
927.487	2780.99
927.796	2763.81
928.106	2774.66
928.416	2820.99
928.725	2774.66
929.034	2748.67
929.344	2741.21
929.653	2705.06
929.962	2703.7
930.271	2670.48
930.581	2696.69
930.89	2680.88
931.199	2685.4
931.508	2653.08
931.817	2663.02
932.125	2625.28
932.434	2672.74
932.743	2649.69
933.051	2611.27
933.36	2610.6
933.669	2604.72
933.977	2578.28
934.286	2596.13
934.594	2557.49
934.902	2583.48
935.21	2548
935.519	2495.34
935.827	2541.22
936.135	2536.25
936.443	2503.93
936.751	2543.48
937.059	2476.59
937.367	2473.42
937.674	2494.67
937.982	2482.69
938.29	2463.03
938.597	2442.69
938.905	2443.82
939.213	2378.51
939.52	2399.75
939.827	2423.93
940.135	2432.29
940.442	2390.26
940.749	2372.86
941.056	2404.5
941.363	2369.92
941.67	2344.61
941.977	2306.2
942.284	2330.6
942.591	2352.3
942.898	2307.78
943.205	2344.39
943.511	2329.02
943.818	2298.74
944.125	2302.58
944.431	2308.68
944.738	2288.57
945.044	2268.01
945.35	2258.51
945.657	2247.21
945.963	2239.98
946.269	2241.34
946.575	2256.71
946.881	2244.96
947.187	2224.62
947.493	2206.09
947.799	2206.31
948.105	2208.35
948.41	2195.92
948.716	2206.76
949.022	2182.13
949.327	2162.7
949.633	2138.97
949.938	2152.08
950.244	2149.82
950.549	2145.52
950.854	2104.62
951.16	2134.22
951.465	2070.27
951.77	2108.69
952.075	2101.68
952.38	2102.81
952.685	2083.6
952.99	2071.4
953.294	2054.23
953.599	2043.38
953.904	2072.76
954.209	2027.11
954.513	2021.91
954.818	2006.77
955.122	2043.6
955.426	2017.62
955.731	2031.63
956.035	1978.07
956.339	1974.23
956.643	2011.06
956.948	1968.13
957.252	1958.63
957.556	1923.61
957.86	1961.35
958.163	1936.94
958.467	1916.83
958.771	1942.14
959.075	1896.94
959.378	1933.32
959.682	1894.68
959.985	1902.59
960.289	1890.61
960.592	1867.56
960.896	1880.67
961.199	1883.16
961.502	1881.12
961.805	1854.68
962.108	1845.19
962.411	1874.34
962.714	1835.93
963.017	1837.73
963.32	1837.06
963.623	1839.54
963.926	1843.38
964.228	1811.75
964.531	1814.23
964.833	1812.88
965.136	1769.94
965.438	1762.03
965.741	1760.67
966.043	1763.84
966.345	1774.91
966.648	1752.99
966.95	1746.66
967.252	1743.27
967.554	1738.98
967.856	1733.56
968.158	1713.44
968.46	1736.72
968.761	1724.29
969.063	1692.2
969.365	1706.89
969.666	1727.23
969.968	1675.25
970.269	1690.85
970.571	1692.88
970.872	1670.51
971.174	1656.95
971.475	1654.91
971.776	1671.64
972.077	1647.68
972.378	1669.38
972.679	1632.77
972.98	1617.4
973.281	1649.26
973.582	1628.93
973.883	1616.72
974.183	1596.84
974.484	1616.72
974.785	1585.99
975.085	1585.09
975.386	1580.79
975.686	1591.86
975.986	1589.15
976.287	1576.72
976.587	1548.7
976.887	1550.96
977.187	1526.33
977.487	1535.14
977.787	1536.73
978.087	1534.92
978.387	1524.3
978.687	1521.13
978.987	1507.8
979.286	1527.23
979.586	1514.58
979.885	1502.6
980.185	1513.45
980.484	1475.48
980.784	1482.04
981.083	1448.59
981.382	1473
981.682	1438.65
981.981	1454.69
982.28	1438.2
982.579	1466.67
982.878	1457.18
983.177	1456.05
983.475	1448.82
983.774	1429.84
984.073	1440
984.372	1412.66
984.67	1429.16
984.969	1399.78
985.267	1403.62
985.566	1390.74
985.864	1410.85
986.162	1373.34
986.461	1373.79
986.759	1360.23
987.057	1363.85
987.355	1337.63
987.653	1341.25
987.951	1358.42
988.249	1362.72
988.547	1334.02
988.844	1350.52
989.142	1317.97
989.44	1318.2
989.737	1334.47
990.035	1322.27
990.332	1311.87
990.63	1274.81
990.927	1298.09
991.224	1313.68
991.521	1273.23
991.819	1280.91
992.116	1275.49
992.413	1270.29
992.71	1267.81
993.006	1253.57
993.303	1255.15
993.6	1262.83
993.897	1249.73
994.193	1246.11
994.49	1219.9
994.787	1200.69
995.083	1179.67
995.379	1202.95
995.676	1217.19
995.972	1231.2
996.268	1197.53
996.565	1201.59
996.861	1214.02
997.157	1187.81
997.453	1164.53
997.749	1145.77
998.044	1169.96
998.34	1159.33
998.636	1158.2
998.932	1145.55
999.227	1150.29
999.523	1158.66
999.818	1122.05
1000.114	1138.54
1000.409	1096.74
1000.704	1107.36
1001	1116.4
1001.295	1094.02
1001.59	1100.58
1001.885	1089.51
1002.18	1083.63
1002.475	1091.54
1002.77	1063.52
1003.065	1039.79
1003.359	1051.77
1003.654	1055.16
1003.949	1056.74
1004.243	1056.29
1004.538	1051.54
1004.832	1044.31
1005.127	1020.35
1005.421	1024.65
1005.715	1043.63
1006.009	1030.98
1006.304	1028.72
1006.598	1011.99
1006.892	1011.54
1007.186	1009.96
1007.48	1008.38
1007.773	1000.24
1008.067	1018.77
1008.361	973.35
1008.655	992.56
1008.948	955.95
1009.242	975.61
1009.535	973.58
1009.829	971.77
1010.122	967.02
1010.415	960.24
1010.708	945.55
1011.001	928.83
1011.295	932.22
1011.588	906.46
1011.881	920.02
1012.173	900.13
1012.466	908.72
1012.759	891.32
1013.052	912.56
1013.344	894.48
1013.637	923.63
1013.93	878.66
1014.222	857.42
1014.514	896.52
1014.807	883.41
1015.099	859.68
1015.391	876.4
1015.683	850.64
1015.976	876.4
1016.268	856.07
1016.56	861.49
1016.851	857.19
1017.143	854.26
1017.435	844.54
1017.727	855.16
1018.018	831.43
1018.31	830.98
1018.602	813.13
1018.893	817.65
1019.185	835.95
1019.476	814.71
1019.767	810.64
1020.058	790.76
1020.35	817.65
1020.641	788.72
1020.932	786.91
1021.223	778.1
1021.514	792.79
1021.804	772.68
1022.095	747.37
1022.386	768.38
1022.677	782.39
1022.967	787.82
1023.258	783.07
1023.548	772
1023.839	760.47
1024.129	756.86
1024.419	733.81
1024.709	745.33
1025	721.38
1025.29	745.11
1025.58	749.85
1025.87	709.4
1026.16	703.07
1026.449	709.18
1026.739	713.47
1027.029	709.85
1027.319	710.76
1027.608	703.53
1027.898	697.43
1028.187	700.36
1028.477	675.28
1028.766	682.06
1029.055	688.61
1029.344	673.25
1029.634	685.9
1029.923	656.75
1030.212	680.48
1030.501	652.68
1030.79	679.12
1031.078	677.76
1031.367	667.37
1031.656	645.9
1031.945	649.52
1032.233	644.77
1032.522	631.89
1032.81	635.05
1033.099	634.15
1033.387	628.73
1033.675	649.29
1033.963	651.32
1034.251	636.18
1034.54	617.43
1034.828	613.59
1035.116	602.96
1035.403	601.16
1035.691	617.65
1035.979	619.91
1036.267	608.16
1036.554	590.31
1036.842	593.25
1037.129	594.15
1037.417	605.22
1037.704	621.72
1037.992	606.35
1038.279	601.38
1038.566	579.91
1038.853	579.91
1039.14	579.91
