Data from foam2_polystyrene_foam_FLMS001491_00035.txt Node
Date: Wed Feb 08 10:57:52 GMT 2017
User: dcchb
Spectrometer: FLMS00149
Trigger mode: 0
Integration Time (sec): 2.000000E-2
Scans to average: 10
Electric dark correction enabled: true
Nonlinearity correction enabled: false
Boxcar width: 0
XAxis mode: Wavelengths
Number of Pixels in Spectrum: 2048
>>>>>Begin Spectral Data<<<<<
341.393	-13.5
341.776	-13.5
342.16	-13.5
342.543	-62.09
342.927	-61.41
343.31	-75.65
343.693	-70
344.077	-79.04
344.46	-73.61
344.843	-58.7
345.226	-31.58
345.61	-32.49
345.993	-37.91
346.376	-12.37
346.759	16.78
347.142	29.43
347.525	54.97
347.908	55.65
348.291	93.39
348.674	110.79
349.057	110.34
349.44	127.51
349.823	119.6
350.206	164.8
350.588	209.99
350.971	208.41
351.354	230.11
351.737	242.54
352.119	266.26
352.502	249.77
352.884	268.07
353.267	291.8
353.65	294.96
354.032	288.64
354.414	305.81
354.797	310.1
355.179	322.08
355.562	337
355.944	343.78
356.326	348.3
356.709	318.69
357.091	340.84
357.473	351.01
357.855	353.04
358.238	355.3
358.62	346.71
359.002	347.62
359.384	339.03
359.766	357.11
360.148	363.21
360.53	351.01
360.912	363.44
361.294	360.27
361.676	353.04
362.057	340.16
362.439	363.44
362.821	341.97
363.203	335.87
363.584	351.46
363.966	324.34
364.348	332.7
364.729	337.45
365.111	325.92
365.493	332.25
365.874	333.38
366.256	357.79
366.637	344.23
367.019	324.12
367.4	332.48
367.781	347.39
368.163	319.37
368.544	345.36
368.925	344.91
369.306	341.52
369.688	320.05
370.069	323.66
370.45	318.69
370.831	347.39
371.212	327.73
371.593	336.32
371.974	348.07
372.355	349.2
372.736	347.39
373.117	348.75
373.498	331.35
373.879	354.62
374.26	341.52
374.641	340.84
375.021	358.92
375.402	364.79
375.783	362.31
376.163	380.84
376.544	363.44
376.925	359.37
377.305	358.01
377.686	343.32
378.066	378.13
378.447	351.46
378.827	356.66
379.208	365.7
379.588	369.54
379.968	384.45
380.349	369.76
380.729	377.45
381.109	375.64
381.489	376.54
381.87	400.5
382.25	389.42
382.63	390.78
383.01	403.44
383.39	385.58
383.77	400.5
384.15	428.52
384.53	387.84
384.91	408.86
385.29	407.73
385.67	416.32
386.049	418.58
386.429	404.11
386.809	419.48
387.189	419.93
387.568	427.62
387.948	430.1
388.328	414.51
388.707	441.4
389.087	440.72
389.466	426.26
389.846	449.99
390.225	444.11
390.605	468.74
390.984	458.35
391.363	451.12
391.743	466.03
392.122	469.65
392.501	468.74
392.881	474.85
393.26	470.55
393.639	476.2
394.018	472.13
394.397	464.23
394.776	474.39
395.155	496.09
395.534	511
395.913	501.06
396.292	498.12
396.671	522.3
397.05	489.54
397.429	527.95
397.808	520.95
398.186	514.62
398.565	504
398.944	530.44
399.323	550.55
399.701	518.91
400.08	516.43
400.458	529.08
400.837	536.77
401.215	538.35
401.594	556.65
401.972	555.97
402.351	554.84
402.729	570.66
403.107	559.82
403.486	566.6
403.864	556.43
404.242	593.71
404.62	580.38
404.999	595.07
405.377	605.69
405.755	626.25
406.133	606.37
406.511	623.77
406.889	624.45
407.267	626.71
407.645	641.85
408.023	653.82
408.401	638.91
408.779	667.61
409.156	669.87
409.534	675.74
409.912	674.62
410.29	684.78
410.667	689.3
411.045	688.63
411.422	704.67
411.8	712.13
412.178	729.53
412.555	755.97
412.933	748.51
413.31	726.82
413.687	749.87
414.065	759.81
414.442	747.38
414.819	781.28
415.197	780.37
415.574	798.91
415.951	787.61
416.328	801.62
416.705	803.43
417.082	814.72
417.46	833.48
417.837	825.35
418.214	814.5
418.591	824.67
418.967	828.28
419.344	831.45
419.721	847.72
420.098	857.44
420.475	902.18
420.852	859.24
421.228	891.33
421.605	884.33
421.982	912.57
422.358	921.39
422.735	914.83
423.111	923.42
423.488	925.68
423.864	943.99
424.241	954.83
424.617	956.64
424.994	982.4
425.37	969.3
425.746	1008.84
426.123	1007.04
426.499	986.25
426.875	1030.54
427.251	1031.89
427.627	1039.58
428.003	1042.06
428.379	1057.66
428.756	1092.91
429.132	1108.28
429.507	1108.05
429.883	1120.93
430.259	1139.69
430.635	1117.77
431.011	1148.95
431.387	1166.81
431.763	1188.27
432.138	1195.96
432.514	1231.21
432.89	1245.22
433.265	1258.55
433.641	1243.64
434.016	1257.88
434.392	1306.24
434.767	1328.84
435.143	1324.09
435.518	1336.74
435.894	1316.86
436.269	1360.47
436.644	1387.82
437.02	1401.38
437.395	1374.94
437.77	1421.94
438.145	1451.09
438.52	1455.84
438.895	1478.89
439.271	1488.15
439.646	1495.38
440.021	1516.63
440.395	1519.79
440.77	1528.6
441.145	1513.91
441.52	1556.17
441.895	1579.68
442.27	1587.59
442.645	1614.93
443.019	1609.51
443.394	1614.48
443.769	1642.95
444.143	1625.78
444.518	1663.29
444.892	1659.45
445.267	1698.77
445.641	1685.66
446.016	1692.22
446.39	1757.07
446.764	1729.05
447.139	1766.11
447.513	1730.41
447.887	1748.71
448.262	1781.7
448.636	1805.43
449.01	1826
449.384	1844.3
449.758	1858.09
450.132	1869.16
450.506	1864.64
450.88	1895.37
451.254	1941.93
451.628	1936.28
452.002	2015.6
452.376	1931.53
452.75	1986.22
453.123	2029.83
453.497	2047.91
453.871	2036.16
454.244	2109.38
454.618	2063.05
454.992	2123.62
455.365	2129.72
455.739	2195.93
456.112	2182.6
456.486	2194.8
456.859	2220.34
457.232	2267.79
457.606	2254.91
457.979	2264.86
458.352	2294.69
458.725	2341.92
459.099	2378.75
459.472	2411.97
459.845	2408.58
460.218	2458.07
460.591	2466.66
460.964	2451.52
461.337	2539.65
461.71	2577.16
462.083	2602.47
462.456	2621.68
462.829	2647.22
463.201	2645.41
463.574	2653.32
463.947	2678.18
464.32	2765.63
464.692	2742.36
465.065	2788.01
465.438	2835.69
465.81	2886.99
466.183	2882.24
466.555	2962.69
466.928	2969.47
467.3	2975.57
467.672	3019.64
468.045	3105.06
468.417	3106.87
468.789	3151.84
469.161	3223.7
469.534	3241.1
469.906	3279.97
470.278	3294.66
470.65	3340.99
471.022	3432.96
471.394	3498.95
471.766	3503.92
472.138	3566.06
472.51	3618.27
472.882	3634.09
473.253	3704.59
473.625	3747.98
473.997	3800.86
474.369	3849.45
474.74	3895.32
475.112	3943
475.484	4001.76
475.855	4072.94
476.227	4047.63
476.598	4219.61
476.97	4235.88
477.341	4308.64
477.713	4430
478.084	4454.63
478.455	4559.26
478.827	4613.95
479.198	4710.89
479.569	4746.82
479.94	4866.82
480.311	4941.85
480.682	5031.56
481.053	5127.38
481.424	5220.71
481.795	5215.06
482.166	5328.5
482.537	5402.4
482.908	5529.63
483.279	5567.37
483.65	5667.48
484.021	5769.17
484.391	5815.5
484.762	5898.43
485.133	5965.1
485.503	6046.45
485.874	6135.49
486.244	6234.24
486.615	6334.81
486.985	6375.26
487.356	6491.41
487.726	6506.33
488.097	6663.38
488.467	6703.38
488.837	6826.32
489.207	6989.25
489.578	7083.03
489.948	7099.76
490.318	7227.21
490.688	7263.82
491.058	7335.23
491.428	7442.12
491.798	7564.15
492.168	7633.53
492.538	7715.79
492.908	7772.73
493.278	7933.86
493.648	7915.55
494.017	8105.15
494.387	8045.49
494.757	8176.79
495.126	8272.83
495.496	8313.74
495.866	8380.4
496.235	8440.51
496.605	8606.61
496.974	8681.18
497.344	8717.34
497.713	8768.87
498.082	8829.43
498.452	8969.76
498.821	8927.05
499.19	8971.35
499.559	9080.04
499.928	9200.27
500.298	9227.61
500.667	9316.42
501.036	9338.57
501.405	9452.46
501.774	9433.71
502.143	9500.37
502.512	9590.54
502.88	9663.76
503.249	9701.27
503.618	9794.15
503.987	9814.04
504.356	9914.15
504.724	10048.38
505.093	10047.25
505.462	10051.32
505.83	10202.5
506.199	10228.71
506.567	10381.7
506.936	10332.21
507.304	10593.9
507.672	10604.75
508.041	10653.79
508.409	10691.53
508.777	10816.72
509.145	10865.08
509.514	10963.38
509.882	10963.38
510.25	11025.98
510.618	11148.24
510.986	11194.11
511.354	11324.96
511.722	11356.59
512.09	11512.07
512.458	11560.66
512.826	11598.4
513.193	11762.23
513.561	11763.36
513.929	11813.31
514.297	11997.03
514.664	12079.51
515.032	12148.21
515.4	12220.98
515.767	12253.29
516.135	12357.25
516.502	12324.93
516.869	12621.87
517.237	12693.96
517.604	12579.61
517.972	12775.31
518.339	12926.95
518.706	12920.62
519.073	13024.35
519.44	13160.39
519.808	13320.16
520.175	13278.35
520.542	13481.74
520.909	13560.6
521.276	13553.6
521.643	13705.91
522.009	13841.95
522.376	13912.46
522.743	13997.88
523.11	14129.18
523.477	14368.94
523.843	14392.45
524.21	14568.26
524.577	14675.15
524.943	14707.92
525.31	14761.48
525.676	14951.08
526.043	15107.46
526.409	15095.25
526.776	15214.12
527.142	15342.7
527.508	15420.22
527.874	15584.05
528.241	15642.36
528.607	15726.87
528.973	15833.54
529.339	15880.54
529.705	16069.92
530.071	16233.75
530.437	16285.96
530.803	16377.25
531.169	16506.74
531.535	16433.75
531.901	16544.03
532.267	16675.78
532.632	16813.63
532.998	16814.76
533.364	16863.79
533.73	17007.52
534.095	17103.56
534.461	17101.98
534.826	17254.07
535.192	17248.42
535.557	17423.55
535.923	17462.2
536.288	17473.27
536.653	17596.43
537.019	17696.99
537.384	17772.92
537.749	17790.1
538.114	17868.51
538.479	17869.64
538.845	18131.33
539.21	18045.91
539.575	18072.58
539.94	18242.97
540.305	18276.86
540.67	18249.97
541.034	18437.76
541.399	18470.31
541.764	18512.34
542.129	18656.97
542.494	18564.77
542.858	18772.44
543.223	18842.05
543.587	18911.2
543.952	18908.94
544.316	19034.58
544.681	19042.72
545.045	19144.86
545.41	19254.92
545.774	19284.52
546.138	19355.93
546.503	19293.79
546.867	19488.13
547.231	19644.29
547.595	19628.69
547.959	19669.82
548.324	19724.06
548.688	19762.7
549.052	19837.5
549.416	20019.19
549.779	19947.1
550.143	20072.98
550.507	20194.1
550.871	20226.42
551.235	20210.15
551.599	20410.82
551.962	20397.49
552.326	20618.5
552.689	20611.72
553.053	20547.09
553.417	20700.08
553.78	20896.91
554.143	20926.29
554.507	20982.33
554.87	21056.68
555.234	21310.91
555.597	21214.64
555.96	21285.6
556.323	21340.06
556.686	21417.35
557.05	21649.43
557.413	21507.06
557.776	21662.09
558.139	21834.74
558.502	21925.58
558.865	21914.28
559.228	22156.31
559.59	22256.65
559.953	22266.14
560.316	22401.28
560.679	22512.01
561.041	22596.3
561.404	22748.84
561.767	22779.34
562.129	22740.48
562.492	23078.77
562.854	23055.27
563.217	23060.92
563.579	23246.22
563.941	23357.63
564.304	23460.68
564.666	23563.73
565.028	23537.29
565.39	23734.57
565.753	23968.69
566.115	23889.37
566.477	23986.09
566.839	24107.22
567.201	24251.17
567.563	24183.38
567.925	24525.97
568.287	24556.92
568.648	24711.95
569.01	24678.73
569.372	24923.47
569.734	24873.98
570.095	25092.5
570.457	25077.14
570.819	25252.27
571.18	25246.17
571.542	25386.96
571.903	25333.4
572.265	25460.63
572.626	25501.31
572.987	25500.4
573.349	25605.03
573.71	25850.9
574.071	25794.41
574.432	25838.93
574.794	25987.62
575.155	26101.07
575.516	25925.7
575.877	26154.4
576.238	26155.75
576.599	26313.94
576.96	26422.19
577.32	26465.58
577.681	26450.43
578.042	26478
578.403	26440.27
578.763	26571.34
579.124	26666.7
579.485	26628.06
579.845	26728.85
580.206	26619.47
580.566	26579.92
580.927	26640.71
581.287	26804.32
581.648	26782.63
582.008	26896.52
582.368	26732.01
582.728	26859.46
583.089	26822.4
583.449	26945.11
583.809	26982.17
584.169	26932
584.529	26975.84
584.889	27125.67
585.249	26910.08
585.609	26848.84
585.969	27080.02
586.329	26925.68
586.688	26909.18
587.048	27047.48
587.408	26919.57
587.768	26966.58
588.127	26839.58
588.487	26977.88
588.846	27110.08
589.206	26905.79
589.565	27083.64
589.925	27163.41
590.284	27100.59
590.643	27153.47
591.003	27094.26
591.362	27162.73
591.721	27144.65
592.08	27162.73
592.44	27147.59
592.799	27190.75
593.158	27019.46
593.517	27106.46
593.876	27151.66
594.235	27145.56
594.593	27160.47
594.952	27159.34
595.311	27052.45
595.67	27226.23
596.029	27399.79
596.387	27393.91
596.746	27513.01
597.104	27352.11
597.463	27252
597.822	27461.71
598.18	27421.48
598.538	27303.75
598.897	27533.12
599.255	27231.43
599.613	27657.18
599.972	27502.61
600.33	27497.19
600.688	27496.51
601.046	27584.19
601.404	27733.79
601.762	27607.01
602.12	27797.97
602.478	27647.69
602.836	27759.1
603.194	27564.76
603.552	27609.27
603.91	27429.17
604.268	27751.64
604.625	27690.63
604.983	27725.43
605.341	27685.88
605.698	27765.65
606.056	27978.53
606.413	27795.48
606.771	27971.52
607.128	27900.79
607.485	27807.01
607.843	27928.36
608.2	28036.61
608.557	28095.59
608.914	27956.84
609.272	28145.76
609.629	28168.36
609.986	28311.4
610.343	28194.57
610.7	28448.12
611.057	28347.56
611.414	28246.77
611.771	28352.98
612.127	28406.54
612.484	28501.68
612.841	28566.09
613.198	28493.32
613.554	28381.01
613.911	28614.22
614.267	28566.99
614.624	28479.31
614.98	28543.26
615.337	28607.67
615.693	28556.14
616.05	28454
616.406	28665.97
616.762	28681.56
617.118	28637.5
617.475	28616.03
617.831	28615.8
618.187	28651.73
618.543	28773.76
618.899	28964.49
619.255	28840.88
619.611	28847.21
619.967	28990.48
620.323	29103.25
620.678	28875.23
621.034	28846.08
621.39	28863.7
621.746	28759.53
622.101	29156.13
622.457	28929.92
622.812	28913.87
623.168	28972.63
623.523	29084.72
623.879	29222.79
624.234	28857.38
624.589	28959.75
624.945	29094.21
625.3	29043.81
625.655	28929.01
626.01	28883.82
626.365	28968.56
626.72	28918.62
627.075	29089.01
627.43	28786.19
627.785	28797.04
628.14	28888.79
628.495	28947.32
628.85	28813.76
629.205	28716.82
629.559	28897.15
629.914	28805.4
630.269	28725.18
630.623	28740.54
630.978	28627.78
631.332	28724.27
631.687	28715.23
632.041	28546.42
632.396	28608.12
632.75	28368.12
633.104	28503.71
633.459	28404.06
633.813	28505.97
634.167	28507.78
634.521	28448.35
634.875	28424.85
635.229	28438.18
635.583	28321.35
635.937	28330.84
636.291	28295.36
636.645	28230.95
636.999	28251.07
637.352	28203.83
637.706	28027.79
638.06	28211.29
638.413	28093.78
638.767	27996.38
639.121	28039.77
639.474	27819.21
639.828	27909.15
640.181	27945.31
640.534	27897.85
640.888	27833.9
641.241	27590.74
641.594	27871.64
641.947	27628.03
642.301	27751.87
642.654	27662.15
643.007	27651.53
643.36	27482.5
643.713	27538.54
644.066	27668.26
644.419	27478.43
644.771	27202.96
645.124	27093.58
645.477	26994.6
645.83	26875.06
646.182	26701.73
646.535	26526.36
646.888	26640.26
647.24	26473.48
647.593	26664.44
647.945	26602.52
648.298	26342.19
648.65	26292.25
649.002	26353.71
649.355	26290.66
649.707	26365.92
650.059	26339.7
650.411	26803.42
650.763	26606.14
651.115	26943.75
651.467	27015.84
651.819	26936.07
652.171	26881.84
652.523	26815.62
652.875	26854.94
653.227	26660.6
653.578	26913.25
653.93	26671.67
654.282	26654.95
654.633	26582.41
654.985	26718.68
655.337	26717.55
655.688	26626.25
656.039	26810.2
656.391	26572.47
656.742	26544.9
657.094	26534.27
657.445	26585.35
657.796	26400.49
658.147	26449.08
658.498	26346.48
658.849	26423.77
659.2	26507.16
659.551	26395.97
659.902	26474.61
660.253	26396.42
660.604	26407.05
660.955	26174.28
661.306	26288.4
661.656	26282.3
662.007	26338.35
662.358	26311
662.708	26267.61
663.059	26258.35
663.409	26118.01
663.76	26405.24
664.11	26249.54
664.461	26282.08
664.811	26170.67
665.161	26239.37
665.511	26009.77
665.862	26189.65
666.212	26162.53
666.562	26197.33
666.912	26083.89
667.262	26123.21
667.612	26113.72
667.962	26101.29
668.312	25946.04
668.662	26111.46
669.011	26077.79
669.361	26113.95
669.711	26006.83
670.06	25948.07
670.41	25954.18
670.76	25890.22
671.109	26038.47
671.459	26006.15
671.808	25926.61
672.157	25839.15
672.507	25756.89
672.856	25959.6
673.205	25918.47
673.554	25997.79
673.904	25744.69
674.253	25893.84
674.602	25828.76
674.951	25393.97
675.3	25314.87
675.649	25671.7
675.998	25676.9
676.346	25614.52
676.695	25804.35
677.044	25585.37
677.393	25600.29
677.741	25537.24
678.09	25453.85
678.438	25368.2
678.787	25466.28
679.135	25508.76
679.484	25239.17
679.832	25446.85
680.181	25282.1
680.529	25350.58
680.877	25367.98
681.225	25175.21
681.573	25267.64
681.922	25166.4
682.27	25038.27
682.618	25072.62
682.966	24943.36
683.314	24912.85
683.661	24887.31
684.009	24777.48
684.357	24531.84
684.705	24578.85
685.053	24689.12
685.4	24658.62
685.748	24573.65
686.095	24553.54
686.443	24483.25
686.79	24464.5
687.138	24450.94
687.485	24428.57
687.832	24335.24
688.18	24458.62
688.527	24194.67
688.874	24222.24
689.221	24224.96
689.568	24073.32
689.915	24038.52
690.262	24069.03
690.609	23876.04
690.956	23791.07
691.303	23794.46
691.65	23755.59
691.997	23682.82
692.344	23508.59
692.69	23533.45
693.037	23533.9
693.383	23229.28
693.73	23491.64
694.077	23239.45
694.423	23158.77
694.769	23169.84
695.116	23132.33
695.462	23192.44
695.808	23101.14
696.155	23015.95
696.501	22862.96
696.847	22895.05
697.193	22728.95
697.539	22709.97
697.885	22572.8
698.231	22582.06
698.577	22571.21
698.923	22507.94
699.269	22453.25
699.614	22203.77
699.96	22224.1
700.306	22216.87
700.651	22109.31
700.997	22035.86
701.342	22019.36
701.688	22071.34
702.033	21934.17
702.379	22002.42
702.724	21954.51
703.069	21971.46
703.415	21684.23
703.76	21713.84
704.105	21715.87
704.45	21697.34
704.795	21538.7
705.14	21480.17
705.485	21499.38
705.83	21441.98
706.175	21497.12
706.52	21312.04
706.865	21343
707.209	21152.72
707.554	21087.19
707.899	21100.74
708.243	21009.9
708.588	20969.45
708.932	20901.88
709.277	20849
709.621	20731.04
709.966	20574.43
710.31	20630.93
710.654	20533.3
710.998	20524.49
711.342	20474.09
711.687	20464.6
712.031	20345.51
712.375	20424.83
712.719	20471.38
713.063	20417.37
713.407	20391.16
713.75	20338.96
714.094	20312.74
714.438	20270.48
714.782	20302.12
715.125	20153.65
715.469	20250.6
715.812	20098.74
716.156	19896.03
716.499	19911.17
716.843	19948.68
717.186	19735.58
717.53	19839.53
717.873	19912.75
718.216	19767.67
718.559	19664.62
718.902	19479.09
719.246	19640.9
719.589	19560.9
719.932	19397.29
720.275	19429.83
720.617	19404.07
720.96	19345.99
721.303	19386.44
721.646	19392.99
721.989	19198.42
722.331	19286.78
722.674	19292.43
723.016	19217.86
723.359	19260.34
723.701	19168.59
724.044	19106.22
724.386	19057.41
724.729	19029.39
725.071	19105.09
725.413	18897.64
725.755	18982.83
726.097	18957.98
726.439	18828.04
726.782	18817.64
727.124	18959.56
727.465	18839.11
727.807	18724.31
728.149	18658.32
728.491	18660.81
728.833	18595.05
729.175	18592.56
729.516	18518.44
729.858	18497.2
730.199	18469.18
730.541	18437.76
730.882	18486.8
731.224	18530.87
731.565	18368.61
731.906	18379.01
732.248	18347.37
732.589	18278.45
732.93	18176.75
733.271	18179.69
733.612	18224.66
733.953	18206.81
734.294	18068.73
734.635	18059.69
734.976	18081.84
735.317	18007.27
735.658	17890.21
735.999	17934.95
736.339	17884.56
736.68	17952.13
737.021	17851.11
737.361	17780.38
737.702	17944.67
738.042	17774.05
738.383	17762.08
738.723	17834.16
739.063	17734.05
739.404	17741.51
739.744	17678.46
740.084	17661.96
740.424	17750.1
740.764	17510.78
741.104	17659.93
741.444	17589.65
741.784	17509.2
742.124	17589.88
742.464	17517.34
742.804	17430.33
743.143	17512.14
743.483	17493.16
743.823	17368.64
744.162	17425.36
744.502	17443.67
744.841	17386.27
745.181	17326.15
745.52	17316.21
745.86	17283.67
746.199	17200.06
746.538	17146.27
746.877	17127.29
747.216	17138.59
747.556	17068.53
747.895	17096.78
748.234	16976.56
748.573	16925.71
748.911	16902.44
749.25	16969.1
749.589	16891.59
749.928	16824.25
750.267	16854.3
750.605	16837.35
750.944	16800.97
751.283	16752.16
751.621	16793.51
751.96	16641.43
752.298	16669.22
752.636	16635.55
752.975	16600.52
753.313	16553.97
753.651	16622.22
753.989	16498.38
754.327	16434.65
754.666	16340.19
755.004	16329.8
755.342	16370.7
755.679	16183.13
756.017	16266.52
756.355	16205.05
756.693	16191.27
757.031	16140.2
757.368	16106.53
757.706	16012.52
758.044	15969.13
758.381	15989.24
758.719	15951.95
759.056	15932.52
759.394	15872.86
759.731	15703.15
760.068	15636.71
760.405	15667.44
760.743	15678.06
761.08	15619.53
761.417	15571.85
761.754	15504.51
762.091	15444.85
762.428	15409.59
762.765	15359.65
763.102	15451.85
763.438	15360.78
763.775	15205.08
764.112	15187.23
764.449	15132.31
764.785	15127.57
765.122	15050.06
765.458	15038.31
765.795	14987.69
766.131	14910.17
766.467	14846.9
766.804	14733.23
767.14	14702.04
767.476	14708.82
767.812	14634.7
768.148	14586.79
768.485	14486.68
768.821	14385.67
769.157	14445.55
769.492	14405.1
769.828	14356.52
770.164	14237.87
770.5	14212.56
770.836	14305.9
771.171	14174.37
771.507	14125.79
771.842	14030.42
772.178	13992.91
772.513	13957.2
772.849	13980.48
773.184	13859.13
773.519	13865.91
773.855	13730.32
774.19	13694.39
774.525	13698.23
774.86	13698.23
775.195	13658.23
775.53	13580.49
775.865	13506.59
776.2	13362.19
776.535	13357.45
776.87	13287.84
777.205	13253.04
777.539	13183.89
777.874	13202.2
778.209	13059.83
778.543	13052.37
778.878	13044.46
779.212	12996.32
779.547	12970.11
779.881	12989.32
780.215	12830.45
780.55	12899.38
780.884	12902.99
781.218	12792.94
781.552	12741.42
781.886	12735.77
782.22	12557.69
782.554	12636.79
782.888	12501.42
783.222	12450.58
783.556	12355.66
783.889	12382.56
784.223	12277.93
784.557	12243.35
784.89	12296.46
785.224	12242.9
785.557	12169.23
785.891	12163.58
786.224	12114.77
786.558	12086.07
786.891	11951.61
787.224	11934.88
787.557	11802.46
787.891	11872.29
788.224	11851.72
788.557	11816.47
788.89	11792.29
789.223	11728.34
789.556	11704.16
789.888	11585.29
790.221	11568.11
790.554	11516.36
790.887	11556.59
791.219	11415.12
791.552	11460.77
791.884	11371.96
792.217	11319.08
792.549	11304.62
792.882	11252.42
793.214	11142.14
793.546	11221.46
793.879	11138.97
794.211	11059.88
794.543	10994.8
794.875	11043.83
795.207	11122.48
795.539	11025.98
795.871	10988.02
796.203	10861.47
796.535	10837.96
796.867	10820.56
797.198	10841.58
797.53	10821.92
797.862	10699.89
798.193	10719.77
798.525	10624.86
798.856	10658.08
799.188	10554.81
799.519	10527.69
799.85	10458.09
800.182	10513.23
800.513	10520.91
800.844	10373.8
801.175	10462.38
801.506	10301.48
801.837	10334.25
802.168	10305.32
802.499	10294.93
802.83	10175.38
803.161	10218.09
803.491	10155.72
803.822	10102.16
804.153	10075.72
804.483	10076.85
804.814	10044.09
805.145	9996.4
805.475	10029.17
805.805	10006.8
806.136	9937.42
806.466	9915.5
806.796	9905.11
807.126	9821.72
807.457	9788.5
807.787	9837.76
808.117	9724.09
808.447	9695.17
808.777	9774.26
809.107	9783.3
809.436	9686.58
809.766	9739.91
810.096	9606.13
810.426	9616.75
810.755	9667.82
811.085	9534.04
811.414	9589.18
811.744	9486.81
812.073	9461.05
812.403	9500.82
812.732	9439.81
813.061	9442.52
813.39	9370.66
813.719	9373.37
814.049	9449.07
814.378	9354.61
814.707	9332.47
815.036	9292.69
815.365	9270.1
815.693	9184.45
816.022	9156.43
816.351	9098.8
816.68	9135.41
817.008	9092.02
817.337	9066.71
817.665	9064.68
817.994	9002.76
818.322	8994.62
818.651	8963.66
818.979	8925.92
819.307	8916.88
819.636	8911.46
819.964	8894.06
820.292	8888.18
820.62	8935.64
820.948	8853.83
821.276	8850.45
821.604	8847.73
821.932	8880.73
822.259	8866.04
822.587	8844.8
822.915	8890.22
823.243	8876.66
823.57	8828.52
823.898	8878.47
824.225	8838.69
824.553	8880.05
824.88	8877.11
825.207	8928.18
825.535	8854.51
825.862	8868.07
826.189	8852.03
826.516	8885.47
826.843	8854.51
827.17	8860.39
827.497	8829.65
827.824	8887.96
828.151	8865.59
828.478	8831.46
828.805	8852.25
829.131	8807.96
829.458	8769.09
829.785	8766.83
830.111	8821.75
830.438	8829.65
830.764	8836.66
831.09	8809.54
831.417	8800.96
831.743	8745.36
832.069	8827.17
832.395	8727.28
832.722	8800.28
833.048	8747.62
833.374	8831.91
833.7	8785.81
834.026	8767.51
834.351	8787.62
834.677	8759.15
835.003	8833.95
835.329	8755.53
835.654	8722.76
835.98	8673.95
836.306	8705.36
836.631	8693.84
836.956	8705.59
837.282	8671.47
837.607	8715.99
837.932	8685.03
838.258	8647.74
838.583	8645.7
838.908	8635.08
839.233	8639.6
839.558	8549.21
839.883	8581.98
840.208	8490
840.533	8615.42
840.858	8507.63
841.182	8553.73
841.507	8511.25
841.832	8423.56
842.156	8487.29
842.481	8394.19
842.805	8375.43
843.13	8393.28
843.454	8347.63
843.778	8410.46
844.103	8313.74
844.427	8295.66
844.751	8306.05
845.075	8237.58
845.399	8260.63
845.723	8239.39
846.047	8229.9
846.371	8198.03
846.695	8153.97
847.019	8086.17
847.343	8093.18
847.666	8046.85
847.99	8034.2
848.313	8045.72
848.637	7946.97
848.96	7932.73
849.284	7909.68
849.607	7864.03
849.931	7803.69
850.254	7740.64
850.577	7732.06
850.9	7670.36
851.223	7665.17
851.546	7658.39
851.869	7610.48
852.192	7556.92
852.515	7555.11
852.838	7480.09
853.161	7467.2
853.483	7446.64
853.806	7456.81
854.129	7464.94
854.451	7336.59
854.774	7357.38
855.096	7311.28
855.419	7319.86
855.741	7294.1
856.063	7243.26
856.385	7283.25
856.708	7265.4
857.03	7234.22
857.352	7205.52
857.674	7157.16
857.996	7119.64
858.318	7106.99
858.64	7103.37
858.961	7102.24
859.283	7053.88
859.605	7082.36
859.926	7040.78
860.248	7026.31
860.57	7011.62
860.891	7008.69
861.212	6947.9
861.534	6984.28
861.855	6934.34
862.176	6950.16
862.498	6849.37
862.819	6923.94
863.14	6825.64
863.461	6826.77
863.782	6797.17
864.103	6766.21
864.424	6791.97
864.745	6809.82
865.065	6772.31
865.386	6784.74
865.707	6772.99
866.027	6729.82
866.348	6784.06
866.668	6691.86
866.989	6721.01
867.309	6700.67
867.63	6754.68
867.95	6698.41
868.27	6650.73
868.59	6657.06
868.91	6636.27
869.23	6624.74
869.55	6583.39
869.87	6607.57
870.19	6605.08
870.51	6653.21
870.83	6626.77
871.15	6560.34
871.469	6548.36
871.789	6626.55
872.109	6558.08
872.428	6471.52
872.748	6528.25
873.067	6496.83
873.386	6501.58
873.706	6477.63
874.025	6448.7
874.344	6467.68
874.663	6492.32
874.982	6452.99
875.301	6433.79
875.62	6452.09
875.939	6394.01
876.258	6377.29
876.577	6388.36
876.896	6362.38
877.214	6375.93
877.533	6322.15
877.852	6325.77
878.17	6335.48
878.489	6332.32
878.807	6294.13
879.125	6319.66
879.444	6287.57
879.762	6276.05
880.08	6237.63
880.398	6249.84
880.716	6222.94
881.034	6206.9
881.352	6213.45
881.67	6187.46
881.988	6231.31
882.306	6169.16
882.624	6172.32
882.941	6148.6
883.259	6119.44
883.577	6112.21
883.894	6118.54
884.212	6098.65
884.529	6128.26
884.846	6109.5
885.164	6111.53
885.481	6089.39
885.798	6043.97
886.115	6014.14
886.432	6095.04
886.75	6048.03
887.067	6032.44
887.383	6023.85
887.7	6018.88
888.017	5970.75
888.334	5943.86
888.651	5952.44
888.967	5953.12
889.284	5913.8
889.6	5892.33
889.917	5849.17
890.233	5939.11
890.55	5882.16
890.866	5837.64
891.182	5846.91
891.498	5808.27
891.815	5815.27
892.131	5768.04
892.447	5784.99
892.763	5653.02
893.079	5707.48
893.395	5679.91
893.71	5644.43
894.026	5661.83
894.342	5625.67
894.657	5612.11
894.973	5600.81
895.289	5583.86
895.604	5556.29
895.92	5565.79
896.235	5500.02
896.55	5477.65
896.865	5503.87
897.181	5516.97
897.496	5437.65
897.811	5417.32
898.126	5419.35
898.441	5391.1
898.756	5358.11
899.071	5392.46
899.386	5351.33
899.7	5333.02
900.015	5325.79
900.33	5285.79
900.644	5271.1
900.959	5290.09
901.273	5281.95
901.588	5249.18
901.902	5175.29
902.216	5218.45
902.531	5213.48
902.845	5199.47
903.159	5159.24
903.473	5171.22
903.787	5118.34
904.101	5046.25
904.415	5118.57
904.729	5057.55
905.042	5051.45
905.356	5022.07
905.67	4995.41
905.984	5006.48
906.297	4933.94
906.611	4964.9
906.924	4923.77
907.237	4900.94
907.551	4890.1
907.864	4841.74
908.177	4884
908.491	4868.63
908.804	4820.49
909.117	4808.97
909.43	4800.16
909.743	4760.61
910.056	4723.32
910.368	4722.64
910.681	4690.55
910.994	4693.04
911.307	4665.24
911.619	4646.71
911.932	4628.18
912.244	4621.4
912.557	4605.59
912.869	4617.34
913.181	4585.02
913.494	4585.25
913.806	4553.38
914.118	4493.72
914.43	4514.74
914.742	4496.66
915.054	4468.19
915.366	4465.93
915.678	4399.71
915.99	4453.05
916.302	4375.08
916.613	4410.34
916.925	4353.39
917.236	4340.73
917.548	4330.11
917.859	4360.85
918.171	4285.37
918.482	4289.89
918.794	4286.5
919.105	4278.59
919.416	4219.83
919.727	4231.58
920.038	4207.86
920.349	4130.8
920.66	4158.14
920.971	4148.42
921.282	4139.83
921.593	4089.89
921.903	4090.8
922.214	4037.24
922.525	4021.65
922.835	4006.28
923.146	4021.42
923.456	3994.98
923.767	3987.75
924.077	4028.2
924.387	3975.55
924.697	3950.69
925.008	3924.47
925.318	3868.66
925.628	3895.55
925.938	3860.07
926.248	3846.06
926.558	3804.7
926.867	3814.19
927.177	3803.12
927.487	3783.91
927.796	3745.95
928.106	3767.42
928.416	3756.57
928.725	3723.35
929.034	3733.07
929.344	3730.81
929.653	3737.59
929.962	3671.15
930.271	3614.2
930.581	3672.5
930.89	3611.94
931.199	3601.09
931.508	3613.29
931.817	3599.06
932.125	3586.4
932.434	3566.29
932.743	3551.15
933.051	3530.59
933.36	3525.61
933.669	3507.76
933.977	3523.81
934.286	3476.35
934.594	3441.1
934.902	3442
935.21	3408.78
935.519	3437.93
935.827	3392.28
936.135	3384.6
936.443	3352.74
936.751	3339.4
937.059	3320.42
937.367	3324.04
937.674	3323.13
937.982	3319.52
938.29	3301.89
938.597	3289.91
938.905	3283.59
939.213	3269.35
939.52	3203.81
939.827	3258.73
940.135	3263.47
940.442	3186.64
940.749	3192.97
941.056	3207.43
941.363	3146.64
941.67	3153.65
941.977	3118.62
942.284	3134.66
942.591	3110.71
942.898	3115.45
943.205	3099.64
943.511	3071.39
943.818	3077.26
944.125	3084.27
944.431	3053.31
944.738	3044.72
945.044	3003.14
945.35	3012.41
945.657	2995.23
945.963	2972.86
946.269	2965.85
946.575	2960.66
946.881	2921.34
947.187	2914.56
947.493	2931.96
947.799	2920.88
948.105	2917.04
948.41	2931.73
948.716	2910.26
949.022	2877.72
949.327	2895.57
949.633	2827.78
949.938	2829.81
950.244	2818.74
950.549	2777.84
950.854	2807.44
951.16	2802.92
951.465	2788.01
951.77	2750.27
952.075	2701.45
952.38	2705.07
952.685	2741
952.99	2689.03
953.294	2705.07
953.599	2703.49
953.904	2696.93
954.209	2672.98
954.513	2701.23
954.818	2642.7
955.122	2603.83
955.426	2600.67
955.731	2585.53
956.035	2590.5
956.339	2611.06
956.643	2575.58
956.948	2582.36
957.252	2566.32
957.556	2562.25
957.86	2543.04
958.163	2528.35
958.467	2505.3
958.771	2532.42
959.075	2507.56
959.378	2493.1
959.682	2453.33
959.985	2432.76
960.289	2487.45
960.592	2417.62
960.896	2446.77
961.199	2419.2
961.502	2388.02
961.805	2435.92
962.108	2398.19
962.411	2390.5
962.714	2370.62
963.017	2374.91
963.32	2359.09
963.623	2352.76
963.926	2392.99
964.228	2349.37
964.531	2331.97
964.833	2340.56
965.136	2296.27
965.438	2294.23
965.741	2261.92
966.043	2270.96
966.345	2290.39
966.648	2281.13
966.95	2250.84
967.252	2225.31
967.554	2222.6
967.856	2233.44
968.158	2221.47
968.46	2212.65
968.761	2190.28
969.063	2213.33
969.365	2178.98
969.666	2165.42
969.968	2150.51
970.269	2152.77
970.571	2150.28
970.872	2128.36
971.174	2131.75
971.475	2138.08
971.776	2099.89
972.077	2132.43
972.378	2100.57
972.679	2089.27
972.98	2095.37
973.281	2098.08
973.582	2074.58
973.883	2072.54
974.183	2064.18
974.484	2029.83
974.785	2010.4
975.085	2013.79
975.386	2033.9
975.686	2028.25
975.986	2001.81
976.287	2035.94
976.587	1979.44
976.887	1972.21
977.187	1960.23
977.487	1970.85
977.787	1951.19
978.087	1941.47
978.387	1906.22
978.687	1922.72
978.987	1937.86
979.286	1904.64
979.586	1885.88
979.885	1851.76
980.185	1862.61
980.484	1852.21
980.784	1881.81
981.083	1858.76
981.382	1873.45
981.682	1869.84
981.981	1843.85
982.28	1816.96
982.579	1807.01
982.878	1817.86
983.177	1799.56
983.475	1797.52
983.774	1793
984.073	1814.02
984.372	1772.21
984.67	1783.51
984.969	1775.15
985.267	1758.88
985.566	1723.18
985.864	1759.11
986.162	1737.86
986.461	1730.63
986.759	1716.4
987.057	1694.93
987.355	1698.99
987.653	1712.55
987.951	1688.37
988.249	1677.3
988.547	1679.79
988.844	1680.24
989.142	1651.31
989.44	1652.44
989.737	1635.72
990.035	1619.22
990.332	1644.98
990.63	1618.77
990.927	1627.81
991.224	1599.34
991.521	1604.31
991.819	1599.56
992.116	1613.57
992.413	1590.98
992.71	1564.76
993.006	1590.07
993.303	1592.33
993.6	1576.29
993.897	1553.69
994.193	1564.31
994.49	1543.52
994.787	1530.64
995.083	1524.99
995.379	1537.42
995.676	1494.71
995.972	1524.54
996.268	1503.29
996.565	1483.18
996.861	1476.18
997.157	1485.22
997.453	1480.92
997.749	1441.6
998.044	1434.37
998.34	1440.92
998.636	1438.66
998.932	1442.28
999.227	1444.31
999.523	1473.24
999.818	1428.49
1000.114	1416.97
1000.409	1413.35
1000.704	1403.18
1001	1381.26
1001.295	1405.44
1001.59	1380.59
1001.885	1392.11
1002.18	1375.84
1002.475	1369.29
1002.77	1379.91
1003.065	1350.08
1003.359	1355.28
1003.654	1367.93
1003.949	1329.97
1004.243	1342.85
1004.538	1319.34
1004.832	1312.56
1005.127	1284.99
1005.421	1278.21
1005.715	1278.67
1006.009	1293.13
1006.304	1283.19
1006.598	1276.86
1006.892	1260.59
1007.186	1262.62
1007.48	1226.92
1007.773	1277.31
1008.067	1247.26
1008.361	1232.79
1008.655	1222.62
1008.948	1222.85
1009.242	1241.38
1009.535	1188.05
1009.829	1194.38
1010.122	1182.85
1010.415	1180.14
1010.708	1187.82
1011.001	1206.35
1011.295	1183.75
1011.588	1157.77
1011.881	1167.71
1012.173	1154.15
1012.466	1152.79
1012.759	1142.85
1013.052	1182.62
1013.344	1116.64
1013.637	1136.3
1013.93	1109.18
1014.222	1120.7
1014.514	1140.14
1014.807	1105.34
1015.099	1119.35
1015.391	1085.9
1015.683	1080.48
1015.976	1083.42
1016.268	1078.22
1016.56	1059.01
1016.851	1070.31
1017.143	1061.72
1017.435	1062.4
1017.727	1060.14
1018.018	1051.33
1018.31	1053.59
1018.602	1035.06
1018.893	1049.29
1019.185	1015.85
1019.476	996.41
1019.767	1003.19
1020.058	1001.16
1020.35	995.74
1020.641	967.94
1020.932	1011.56
1021.223	990.31
1021.514	971.56
1021.804	945.34
1022.095	967.49
1022.386	954.16
1022.677	955.29
1022.967	950.54
1023.258	945.79
1023.548	960.48
1023.839	950.09
1024.129	924.33
1024.419	939.47
1024.709	940.14
1025	926.13
1025.29	896.76
1025.58	899.92
1025.87	892.24
1026.16	903.31
1026.449	902.63
1026.739	879.13
1027.029	892.46
1027.319	894.27
1027.608	860.82
1027.898	890.2
1028.187	878.23
1028.477	844.33
1028.766	836.64
1029.055	849.98
1029.344	835.74
1029.634	855.18
1029.923	825.8
1030.212	842.29
1030.501	843.88
1030.79	821.73
1031.078	809.3
1031.367	835.06
1031.656	808.17
1031.945	777.21
1032.233	806.14
1032.522	800.49
1032.81	791.22
1033.099	792.13
1033.387	774.05
1033.675	790.54
1033.963	771.11
1034.251	767.72
1034.54	760.71
1034.828	757.1
1035.116	750.77
1035.403	750.77
1035.691	709.42
1035.979	739.25
1036.267	737.21
1036.554	738.12
1036.842	747.83
1037.129	721.62
1037.417	733.37
1037.704	737.66
1037.992	717.1
1038.279	729.3
1038.566	730.21
1038.853	730.21
1039.14	730.21
