Data from foam1_polythene_foam_FLMS001491_00080.txt Node
Date: Wed Feb 08 10:55:23 GMT 2017
User: dcchb
Spectrometer: FLMS00149
Trigger mode: 0
Integration Time (sec): 2.000000E-2
Scans to average: 10
Electric dark correction enabled: true
Nonlinearity correction enabled: false
Boxcar width: 0
XAxis mode: Wavelengths
Number of Pixels in Spectrum: 2048
>>>>>Begin Spectral Data<<<<<
341.393	-10.3
341.776	-10.3
342.16	-10.3
342.543	-63.18
342.927	-62.95
343.31	-82.61
343.693	-80.58
344.077	-66.11
344.46	-59.11
344.843	-43.06
345.226	-31.09
345.61	-36.28
345.993	-20.92
346.376	-17.75
346.759	22.92
347.142	51.4
347.525	48.01
347.908	44.62
348.291	85.29
348.674	96.14
349.057	89.14
349.44	136.82
349.823	143.37
350.206	156.7
350.588	188.34
350.971	192.64
351.354	217.95
351.737	224.95
352.119	229.92
352.502	237.83
352.884	241.45
353.267	265.4
353.65	292.29
354.032	295.01
354.414	279.41
354.797	293.2
355.179	303.37
355.562	297.94
355.944	311.73
356.326	331.84
356.709	340.43
357.091	319.86
357.473	313.54
357.855	322.35
358.238	350.15
358.62	337.49
359.002	314.67
359.384	327.32
359.766	326.64
360.148	347.66
360.53	316.25
360.912	307.44
361.294	320.32
361.676	332.52
362.057	326.64
362.439	327.55
362.821	320.99
363.203	304.72
363.584	304.05
363.966	300.2
364.348	317.83
364.729	303.82
365.111	340.43
365.493	315.12
365.874	313.99
366.256	316.02
366.637	309.7
367.019	311.5
367.4	304.27
367.781	303.14
368.163	304.72
368.544	298.4
368.925	309.47
369.306	314.89
369.688	308.57
370.069	285.29
370.45	301.79
370.831	288.45
371.212	319.86
371.593	298.17
371.974	306.08
372.355	310.15
372.736	309.7
373.117	304.95
373.498	323.71
373.879	310.15
374.26	297.27
374.641	316.02
375.021	304.27
375.402	313.99
375.783	324.16
376.163	321.67
376.544	321.45
376.925	335.91
377.305	305.63
377.686	329.36
378.066	330.26
378.447	335.23
378.827	332.29
379.208	331.16
379.588	328
379.968	333.2
380.349	349.02
380.729	347.43
381.109	342.46
381.489	334.78
381.87	348.56
382.25	373.42
382.63	340.88
383.01	340.88
383.39	334.55
383.77	376.13
384.15	338.62
384.53	334.33
384.91	344.27
385.29	364.84
385.67	346.08
386.049	354.67
386.429	347.89
386.809	340.65
387.189	373.65
387.568	386.08
387.948	350.37
388.328	367.09
388.707	381.33
389.087	352.63
389.466	362.8
389.846	370.94
390.225	372.74
390.605	384.5
390.984	369.58
391.363	374.78
391.743	385.17
392.122	385.17
392.501	378.39
392.881	387.21
393.26	408
393.639	375.23
394.018	416.36
394.397	419.52
394.776	396.25
395.155	402.35
395.534	416.36
395.913	420.2
396.292	397.15
396.671	431.95
397.05	398.05
397.429	417.72
397.808	429.24
398.186	435.34
398.565	394.44
398.944	415.46
399.323	419.07
399.701	448.67
400.08	446.41
400.458	446.41
400.837	438.51
401.215	449.13
401.594	462.23
401.972	434.44
402.351	456.36
402.729	429.24
403.107	473.53
403.486	438.96
403.864	448
404.242	455.23
404.62	478.05
404.999	473.53
405.377	468.79
405.755	468.11
406.133	480.09
406.511	511.05
406.889	466.75
407.267	489.8
407.645	499.07
408.023	506.3
408.401	511.95
408.779	496.58
409.156	523.25
409.534	509.01
409.912	505.85
410.29	525.73
410.667	511.27
411.045	537.94
411.422	527.32
411.8	538.16
412.178	542.23
412.555	557.6
412.933	561.67
413.31	539.52
413.687	561.89
414.065	551.95
414.442	586.07
414.819	578.84
415.197	572.29
415.574	559.86
415.951	619.07
416.328	588.78
416.705	585.39
417.082	616.81
417.46	644.83
417.837	609.57
418.214	611.83
418.591	597.82
418.967	622.91
419.344	636.47
419.721	617.26
420.098	615
420.475	629.46
420.852	636.47
421.228	662.23
421.605	655
421.982	641.66
422.358	661.1
422.735	683.47
423.111	657.48
423.488	679.4
423.864	679.86
424.241	679.4
424.617	698.61
424.994	687.31
425.37	720.53
425.746	719.18
426.123	719.85
426.499	711.49
426.875	723.7
427.251	717.14
427.627	762.79
428.003	761.66
428.379	757.82
428.756	775.9
429.132	793.98
429.507	795.78
429.883	803.47
430.259	816.12
430.635	803.47
431.011	799.63
431.387	821.77
431.763	863.13
432.138	829.46
432.514	864.48
432.89	873.07
433.265	877.14
433.641	899.06
434.016	907.87
434.392	882.34
434.767	917.59
435.143	915.33
435.518	915.78
435.894	940.41
436.269	952.84
436.644	989
437.02	968.66
437.395	981.99
437.77	977.25
438.145	989.9
438.52	1019.73
438.895	1025.16
439.271	1058.38
439.646	1071.03
440.021	1064.93
440.395	1041.43
440.77	1064.25
441.145	1079.84
441.52	1104.48
441.895	1097.7
442.27	1098.38
442.645	1130.24
443.019	1103.8
443.394	1117.13
443.769	1129.11
444.143	1149.67
444.518	1151.71
444.892	1143.12
445.267	1148.77
445.641	1176.34
446.016	1205.94
446.39	1214.98
446.764	1213.85
447.139	1218.15
447.513	1233.29
447.887	1243.68
448.262	1250.69
448.636	1240.52
449.01	1270.12
449.384	1279.16
449.758	1312.83
450.132	1281.87
450.506	1304.47
450.88	1307.64
451.254	1311.02
451.628	1367.07
452.002	1352.61
452.376	1364.81
452.75	1382.44
453.123	1424.69
453.497	1403.9
453.871	1432.6
454.244	1417.91
454.618	1439.38
454.992	1457.69
455.365	1457.24
455.739	1489.55
456.112	1482.09
456.486	1520.51
456.859	1542.66
457.232	1536.1
457.606	1527.74
457.979	1591.02
458.352	1579.27
458.725	1603.67
459.099	1608.87
459.472	1671.69
459.845	1641.41
460.218	1676.66
460.591	1683.22
460.964	1671.02
461.337	1728.19
461.71	1741.3
462.083	1759.15
462.456	1769.09
462.829	1774.29
463.201	1778.36
463.574	1773.16
463.947	1832.82
464.32	1881.63
464.692	1882.08
465.065	1871.01
465.438	1908.98
465.81	1925.47
466.183	1940.39
466.555	1972.25
466.928	1966.15
467.3	1987.62
467.672	2024.68
468.045	2041.85
468.417	2093.15
468.789	2112.81
469.161	2139.03
469.534	2176.31
469.906	2147.16
470.278	2218.8
470.65	2252.92
471.022	2252.24
471.394	2270.55
471.766	2315.07
472.138	2362.3
472.51	2383.99
472.882	2406.82
473.253	2436.42
473.625	2454.5
473.997	2503.54
474.369	2538.11
474.74	2540.15
475.112	2594.83
475.484	2648.84
475.855	2681.61
476.227	2680.48
476.598	2742.85
476.97	2780.59
477.341	2839.8
477.713	2862.85
478.084	2887.71
478.455	2984.65
478.827	2972
479.198	3114.82
479.569	3123.86
479.94	3143.29
480.311	3198.88
480.682	3271.88
481.053	3296.74
481.424	3401.14
481.795	3409.73
482.166	3470.74
482.537	3529.95
482.908	3569.04
483.279	3615.82
483.65	3670.96
484.021	3728.36
484.391	3790.51
484.762	3795.25
485.133	3891.52
485.503	3918.41
485.874	3989.37
486.244	4028.92
486.615	4087
486.985	4167.45
487.356	4247.9
487.726	4229.14
488.097	4329.93
488.467	4345.75
488.837	4438.63
489.207	4486.53
489.578	4559.3
489.948	4587.55
490.318	4685.17
490.688	4745.74
491.058	4797.49
491.428	4840.65
491.798	4888.11
492.168	4906.41
492.538	4971.95
492.908	5073.86
493.278	5125.39
493.648	5145.73
494.017	5205.61
494.387	5255.55
494.757	5293.97
495.126	5323.8
495.496	5385.04
495.866	5432.05
496.235	5516.56
496.605	5502.1
496.974	5541.42
497.344	5693.28
497.713	5660.29
498.082	5691.93
498.452	5755.2
498.821	5768.31
499.19	5803.11
499.559	5902.77
499.928	5932.6
500.298	5905.03
500.667	6040.39
501.036	6024.35
501.405	6129.43
501.774	6110.9
502.143	6167.39
502.512	6208.3
502.88	6305.47
503.249	6213.49
503.618	6304.34
503.987	6305.7
504.356	6401.51
504.724	6439.25
505.093	6480.38
505.462	6465.92
505.83	6596.08
506.199	6675.63
506.567	6724.89
506.936	6713.59
507.304	6759.7
507.672	6816.42
508.041	6862.52
508.409	6928.5
508.777	6995.4
509.145	6997.88
509.514	7052.79
509.882	7105.45
510.25	7107.03
510.618	7196.97
510.986	7271.09
511.354	7305.67
511.722	7333.47
512.09	7384.99
512.458	7409.17
512.826	7535.49
513.193	7590.63
513.561	7578.43
513.929	7645.1
514.297	7750.4
514.664	7820.91
515.032	7801.02
515.4	7847.58
515.767	7921.92
516.135	7940.46
516.502	7920.57
516.869	8110.62
517.237	8184.52
517.604	8153.56
517.972	8287.11
518.339	8356.26
518.706	8380.9
519.073	8378.41
519.44	8466.09
519.808	8539.99
520.175	8459.99
520.542	8654.79
520.909	8688.23
521.276	8710.38
521.643	8863.37
522.009	8919.41
522.376	9002.57
522.743	9026.53
523.11	9168.22
523.477	9202.12
523.843	9290.93
524.21	9315.33
524.577	9376.35
524.943	9437.82
525.31	9531.6
525.676	9624.03
526.043	9742.89
526.409	9740.86
526.776	9834.42
527.142	9857.47
527.508	9969.55
527.874	9934.3
528.241	10064.69
528.607	10071.02
528.973	10149.89
529.339	10215.42
529.705	10277.57
530.071	10425.81
530.437	10465.13
530.803	10541.29
531.169	10627.39
531.535	10579.93
531.901	10610.44
532.267	10668.52
532.632	10791.45
532.998	10808.85
533.364	10868.74
533.73	10935.86
534.095	10984.67
534.461	11020.37
534.826	11109.19
535.192	11181.95
535.557	11283.42
535.923	11277.09
536.288	11297.2
536.653	11351.44
537.019	11257.66
537.384	11375.39
537.749	11441.61
538.114	11421.95
538.479	11541.72
538.845	11569.74
539.21	11593.47
539.575	11642.28
539.94	11740.36
540.305	11755.27
540.67	11704.2
541.034	11883.63
541.399	11870.07
541.764	11891.09
542.129	11895.38
542.494	11974.25
542.858	12047.92
543.223	12056.51
543.587	12157.97
543.952	12145.54
544.316	12187.35
544.681	12236.39
545.045	12283.62
545.41	12331.98
545.774	12350.73
546.138	12323.16
546.503	12440.45
546.867	12388.7
547.231	12591.63
547.595	12618.75
547.959	12606.1
548.324	12658.3
548.688	12705.3
549.052	12835.47
549.416	12780.78
549.779	12807.22
550.143	12763.61
550.507	12877.73
550.871	12935.35
551.235	13002.92
551.599	13133.54
551.962	13087.21
552.326	13147.55
552.689	13238.39
553.053	13176.48
553.417	13219.19
553.78	13429.8
554.143	13379.86
554.507	13423.47
554.87	13482.68
555.234	13626.86
555.597	13613.07
555.96	13634.54
556.323	13665.5
556.686	13696.24
557.05	13809.68
557.413	13802.67
557.776	13924.03
558.139	13955.89
558.502	13985.04
558.865	14025.72
559.228	14024.36
559.59	14213.06
559.953	14176.45
560.316	14295.77
560.679	14320.17
561.041	14350.68
561.404	14474.07
561.767	14645.36
562.129	14505.93
562.492	14711.12
562.854	14650.11
563.217	14700.5
563.579	14753.38
563.941	14809.2
564.304	14903.44
564.666	14991.34
565.028	15104.11
565.39	15182.3
565.753	15206.03
566.115	15304.78
566.477	15382.52
566.839	15377.32
567.201	15523.53
567.563	15486.02
567.925	15528.5
568.287	15578.22
568.648	15653.47
569.01	15805.11
569.372	15904.09
569.734	15819.12
570.095	15978.66
570.457	16003.07
570.819	16042.84
571.18	16070.41
571.542	16044.65
571.903	16109.51
572.265	16170.07
572.626	16184.76
572.987	16232.67
573.349	16302.04
573.71	16420.46
574.071	16425.43
574.432	16495.03
574.794	16536.61
575.155	16597.18
575.516	16527.12
575.877	16645.31
576.238	16665.88
576.599	16671.52
576.96	16651.41
577.32	16623.39
577.681	16753.33
578.042	16937.05
578.403	16820.9
578.763	16786.1
579.124	16818.19
579.485	17075.36
579.845	16979.77
580.206	17071.51
580.566	16893.67
580.927	17095.02
581.287	16973.66
581.648	17042.59
582.008	17027.67
582.368	17007.56
582.728	17064.96
583.089	17139.08
583.449	17046.43
583.809	17130.72
584.169	17117.84
584.529	17156.48
584.889	17285.29
585.249	17190.16
585.609	17188.35
585.969	17281.45
586.329	17194.22
586.688	17083.72
587.048	17169.36
587.408	17109.71
587.768	17040.78
588.127	17048.01
588.487	17044.62
588.846	17250.72
589.206	17102.25
589.565	17252.3
589.925	17306.31
590.284	17187.9
590.643	17229.25
591.003	17289.81
591.362	17304.5
591.721	17266.31
592.08	17253.88
592.44	17236.93
592.799	17344.73
593.158	17309.47
593.517	17273.54
593.876	17286.65
594.235	17244.39
594.593	17369.81
594.952	17331.62
595.311	17231.28
595.67	17290.04
596.029	17380.66
596.387	17320.32
596.746	17381.56
597.104	17320.77
597.463	17317.38
597.822	17371.39
598.18	17327.78
598.538	17309.47
598.897	17476.02
599.255	17378.17
599.613	17546.76
599.972	17352.64
600.33	17460.2
600.688	17448.91
601.046	17481.67
601.404	17528.23
601.762	17490.49
602.12	17652.06
602.478	17480.32
602.836	17535.23
603.194	17463.59
603.552	17579.98
603.91	17450.26
604.268	17577.04
604.625	17487.32
604.983	17645.96
605.341	17530.26
605.698	17627.88
606.056	17749.91
606.413	17695.68
606.771	17702.01
607.128	17761.67
607.485	17642.57
607.843	17699.97
608.2	17819.07
608.557	17838.95
608.914	17791.04
609.272	17869.69
609.629	17874.43
609.986	17892.06
610.343	17838.73
610.7	18057.93
611.057	17907.42
611.414	17782
611.771	17986.52
612.127	17955.78
612.484	18006.86
612.841	18080.53
613.198	18047.31
613.554	17928.67
613.911	18155.1
614.267	17991.04
614.624	18096.35
614.98	18054.31
615.337	18076.69
615.693	18155.78
616.05	18126.63
616.406	18266.06
616.762	18108.32
617.118	18165.95
617.475	18150.36
617.831	18197.36
618.187	18228.55
618.543	18223.8
618.899	18342.67
619.255	18301.76
619.611	18279.39
619.967	18305.15
620.323	18345.61
620.678	18384.7
621.034	18275.1
621.39	18349.45
621.746	18236.46
622.101	18489.78
622.457	18150.58
622.812	18314.65
623.168	18379.05
623.523	18366.85
623.879	18336.34
624.234	18260.41
624.589	18333.18
624.945	18356.68
625.3	18327.3
625.655	18295.66
626.01	18347.41
626.365	18361.42
626.72	18407.98
627.075	18344.93
627.43	18366.62
627.785	18195.78
628.14	18232.39
628.495	18308.77
628.85	18186.51
629.205	18214.54
629.559	18297.02
629.914	18250.47
630.269	18115.33
630.623	18218.38
630.978	18139.73
631.332	18122.79
631.687	18264.48
632.041	18161.2
632.396	18249.79
632.75	18024.48
633.104	18113.97
633.459	18065.16
633.813	17978.16
634.167	17998.04
634.521	17900.42
634.875	18012.96
635.229	17999.4
635.583	17819.52
635.937	17814.77
636.291	17817.48
636.645	17813.64
636.999	17877.82
637.352	17873.98
637.706	17858.39
638.06	17774.77
638.413	17813.87
638.767	17804.83
639.121	17763.47
639.474	17686.87
639.828	17646.87
640.181	17628.56
640.534	17597.38
640.888	17413.65
641.241	17440.77
641.594	17430.38
641.947	17544.72
642.301	17477.83
642.654	17423.37
643.007	17474.44
643.36	17535.91
643.713	17537.49
644.066	17530.71
644.419	17391.73
644.771	17501.33
645.124	17208.23
645.477	17226.31
645.83	16946.55
646.182	16912.2
646.535	16812.09
646.888	16813.67
647.24	16591.75
647.593	16769.15
647.945	16610.51
648.298	16591.75
648.65	16564.18
649.002	16461.36
649.355	16685.08
649.707	16634.69
650.059	16678.98
650.411	17070.61
650.763	17022.7
651.115	17223.37
651.467	17100.89
651.819	17039.42
652.171	17008.47
652.523	16945.64
652.875	16885.76
653.227	16772.54
653.578	16845.98
653.93	16792.43
654.282	16777.28
654.633	16637.4
654.985	16808.24
655.337	16776.61
655.688	16780.45
656.039	16849.37
656.391	16684.63
656.742	16777.96
657.094	16812.09
657.445	16847.57
657.796	16728.02
658.147	16666.78
658.498	16635.82
658.849	16743.39
659.2	16643.73
659.551	16610.28
659.902	16605.99
660.253	16572.09
660.604	16543.39
660.955	16474.69
661.306	16546.78
661.656	16562.15
662.007	16513.34
662.358	16626.33
662.708	16577.29
663.059	16530.51
663.409	16420.23
663.76	16526.22
664.11	16527.35
664.461	16564.86
664.811	16538.65
665.161	16461.81
665.511	16431.53
665.862	16464.52
666.212	16454.13
666.562	16428.59
666.912	16396.05
667.262	16326.22
667.612	16386.56
667.962	16336.17
668.312	16387.46
668.662	16423.85
669.011	16324.19
669.361	16442.83
669.711	16436.05
670.06	16385.66
670.41	16287.35
670.76	16366.22
671.109	16445.77
671.459	16470.17
671.808	16372.55
672.157	16260.46
672.507	16314.47
672.856	16158.77
673.205	16269.95
673.554	16235.15
673.904	16166
674.253	16163.97
674.602	16128.71
674.951	15943.63
675.3	15857.76
675.649	16049.62
675.998	16191.09
676.346	16076.74
676.695	16216.85
677.044	16139.56
677.393	16162.84
677.741	16196.74
678.09	16091.88
678.438	16083.07
678.787	16161.03
679.135	16037.42
679.484	15900.7
679.832	16028.6
680.181	15839.46
680.529	15874.48
680.877	15857.31
681.225	15790.19
681.573	15912.9
681.922	15796.52
682.27	15711.1
682.618	15714.04
682.966	15705.67
683.314	15705.45
683.661	15685.34
684.009	15595.85
684.357	15617.77
684.705	15684.66
685.053	15724.21
685.4	15619.8
685.748	15594.49
686.095	15521.27
686.443	15467.26
686.79	15373.03
687.138	15359.47
687.485	15446.47
687.832	15394.5
688.18	15274.73
688.527	15240.38
688.874	15194.28
689.221	15192.92
689.568	15136.65
689.915	15139.59
690.262	15043.32
690.609	15040.61
690.956	14954.06
691.303	15010.55
691.65	14952.02
691.997	14905.92
692.344	14877.67
692.69	14928.97
693.037	14883.1
693.383	14799.94
693.73	14832.7
694.077	14729.88
694.423	14654.63
694.769	14622.54
695.116	14493.73
695.462	14530.56
695.808	14448.76
696.155	14486.95
696.501	14361.3
696.847	14418.25
697.193	14191.14
697.539	14331.93
697.885	14183.23
698.231	14211.93
698.577	14187.07
698.923	14176.68
699.269	14136.22
699.614	14049.67
699.96	14072.5
700.306	14090.12
700.651	13964.7
700.997	13969
701.342	14015.1
701.688	13926.06
702.033	13847.64
702.379	13802.22
702.724	13789.79
703.069	13796.12
703.415	13580.98
703.76	13682.9
704.105	13659.17
704.45	13555.67
704.795	13510.03
705.14	13453.76
705.485	13421.67
705.83	13413.08
706.175	13475.68
706.52	13304.38
706.865	13350.93
707.209	13426.64
707.554	13312.07
707.899	13380.99
708.243	13265.29
708.588	13273.87
708.932	13191.62
709.277	13205.85
709.621	13154.33
709.966	13051.51
710.31	13085.63
710.654	12985.07
710.998	12921.57
711.342	12931.96
711.687	12906.43
712.031	12840.44
712.375	12750.27
712.719	12717.28
713.063	12782.36
713.407	12773.77
713.75	12665.75
714.094	12636.83
714.438	12666.21
714.782	12756.15
715.125	12611.74
715.469	12740.78
715.812	12644.74
716.156	12541.92
716.499	12651.07
716.843	12651.29
717.186	12515.25
717.53	12562.93
717.873	12577.4
718.216	12495.82
718.559	12300.57
718.902	12293.11
719.246	12293.11
719.589	12207.91
719.932	12214.47
720.275	12173.11
720.617	12126.11
720.96	12226.67
721.303	12187.35
721.646	12137.63
721.989	12077.97
722.331	12181.02
722.674	12115.71
723.016	12171.53
723.359	12189.38
723.701	12216.05
724.044	12040.69
724.386	12117.52
724.729	12131.76
725.071	12027.35
725.413	12042.95
725.755	11963.17
726.097	11997.3
726.439	11905.32
726.782	11901.03
727.124	11853.35
727.465	11838.43
727.807	11733.35
728.149	11723.18
728.491	11701.94
728.833	11667.36
729.175	11692.22
729.516	11665.78
729.858	11643.18
730.199	11660.58
730.541	11666.23
730.882	11604.99
731.224	11703.29
731.565	11606.35
731.906	11585.33
732.248	11637.08
732.589	11623.07
732.93	11605.22
733.271	11620.58
733.612	11584.2
733.953	11548.95
734.294	11493.81
734.635	11406.58
734.976	11437.54
735.317	11433.47
735.658	11357.54
735.999	11394.15
736.339	11237.77
736.68	11328.84
737.021	11202.06
737.361	11215.85
737.702	11311.89
738.042	11212.01
738.383	11195.96
738.723	11209.97
739.063	11233.02
739.404	11250.65
739.744	11232.57
740.084	11231.44
740.424	11198
740.764	11158
741.104	11224.21
741.444	11079.81
741.784	11139.02
742.124	11127.94
742.464	11057.66
742.804	11059.47
743.143	11041.39
743.483	10961.17
743.823	10867.61
744.162	10937.44
744.502	10843.2
744.841	10864.67
745.181	10814.05
745.52	10751.45
745.86	10866.25
746.199	10826.25
746.538	10875.52
746.877	10843.2
747.216	10756.43
747.556	10805.01
747.895	10792.36
748.234	10738.35
748.573	10829.64
748.911	10684.34
749.25	10772.25
749.589	10667.84
749.928	10718.46
750.267	10711.23
750.605	10657.67
750.944	10609.31
751.283	10531.57
751.621	10605.92
751.96	10465.81
752.298	10413.61
752.636	10450.9
752.975	10337.45
753.313	10288.87
753.651	10370.45
753.989	10282.09
754.327	10287.29
754.666	10251.81
755.004	10249.77
755.342	10255.42
755.679	10219.49
756.017	10169.1
756.355	10227.63
756.693	10198.25
757.031	10278.7
757.368	10193.96
757.706	10140.85
758.044	10166.84
758.381	10077.8
758.719	10072.83
759.056	10071.02
759.394	10043.9
759.731	9910.8
760.068	9963.68
760.405	9921.65
760.743	9826.28
761.08	9861.08
761.417	9798.49
761.754	9762.78
762.091	9779.95
762.428	9708.54
762.765	9706.28
763.102	9694.99
763.438	9602.33
763.775	9562.11
764.112	9622.44
764.449	9643.91
764.785	9552.16
765.122	9529.79
765.458	9488.89
765.795	9481.88
766.131	9435.56
766.467	9477.36
766.804	9407.31
767.14	9354.2
767.476	9373.64
767.812	9320.76
768.148	9283.47
768.485	9207.99
768.821	9155.79
769.157	9144.04
769.492	9103.36
769.828	9029.92
770.164	9013.65
770.5	8973.42
770.836	8971.16
771.171	8892.07
771.507	8909.02
771.842	8870.83
772.178	8826.99
772.513	8825.63
772.849	8815.23
773.184	8761.68
773.519	8790.15
773.855	8766.2
774.19	8754.22
774.525	8676.03
774.86	8752.64
775.195	8688.01
775.53	8603.04
775.865	8573.66
776.2	8494.79
776.535	8481.91
776.87	8471.06
777.205	8440.78
777.539	8424.96
777.874	8399.65
778.209	8352.42
778.543	8308.58
778.878	8223.39
779.212	8235.81
779.547	8126.44
779.881	8231.52
780.215	8197.85
780.55	8146.55
780.884	8079.66
781.218	8056.16
781.552	8045.31
781.886	8057.06
782.22	7999.89
782.554	8003.28
782.888	7898.42
783.222	7934.81
783.556	7855.94
783.889	7864.75
784.223	7810.97
784.557	7853.23
784.89	7829.05
785.224	7804.19
785.557	7771.87
785.891	7726.68
786.224	7719.67
786.558	7728.26
786.891	7582.72
787.224	7582.27
787.557	7561.93
787.891	7486.23
788.224	7516.29
788.557	7414.37
788.89	7437.19
789.223	7434.48
789.556	7384.99
789.888	7349.06
790.221	7310.19
790.554	7223.41
790.887	7278.1
791.219	7247.59
791.552	7227.48
791.884	7223.86
792.217	7174.6
792.549	7142.96
792.882	7128.95
793.214	7144.54
793.546	7128.95
793.879	7141.38
794.211	7099.35
794.543	7101.83
794.875	7052.12
795.207	7018.9
795.539	6962.18
795.871	6999.01
796.203	6944.32
796.535	6849.18
796.867	6844.66
797.198	6881.27
797.53	6848.73
797.862	6752.24
798.193	6785.91
798.525	6721.05
798.856	6766.93
799.188	6675.18
799.519	6632.92
799.85	6573.49
800.182	6590.21
800.513	6589.53
800.844	6584.33
801.175	6560.15
801.506	6634.5
801.837	6502.53
802.168	6592.69
802.499	6531.9
802.83	6474.5
803.161	6502.75
803.491	6476.76
803.822	6549.08
804.153	6466.6
804.483	6412.36
804.814	6389.54
805.145	6417.33
805.475	6389.54
805.805	6386.15
806.136	6426.82
806.466	6323.1
806.796	6334.85
807.126	6256.66
807.457	6253.04
807.787	6245.36
808.117	6258.47
808.447	6131.69
808.777	6187.73
809.107	6151.35
809.436	6059.6
809.766	6129.66
810.096	6087.62
810.426	6077.23
810.755	6092.59
811.085	6088.98
811.414	6025.7
811.744	6001.07
812.073	6067.28
812.403	6048.75
812.732	5961.75
813.061	6003.78
813.39	5966.95
813.719	5923.56
814.049	6005.59
814.378	5987.06
814.707	5891.47
815.036	5962.88
815.365	5881.98
815.693	5816.22
816.022	5852.37
816.351	5858.93
816.68	5754.75
817.008	5836.1
817.337	5720.63
817.665	5712.04
817.994	5740.96
818.322	5738.25
818.651	5707.52
818.979	5642.66
819.307	5698.03
819.636	5693.96
819.964	5608.09
820.292	5653.96
820.62	5679.95
820.948	5603.79
821.276	5619.84
821.604	5662.55
821.932	5676.33
822.259	5665.71
822.587	5653.96
822.915	5647.63
823.243	5684.7
823.57	5610.8
823.898	5651.48
824.225	5626.62
824.553	5622.55
824.88	5669.33
825.207	5641.76
825.535	5665.03
825.862	5645.6
826.189	5632.27
826.516	5647.41
826.843	5677.24
827.17	5667.07
827.497	5664.81
827.824	5638.37
828.151	5669.78
828.478	5625.04
828.805	5633.17
829.131	5641.31
829.458	5596.11
829.785	5531.7
830.111	5563.57
830.438	5576.45
830.764	5567.18
831.09	5613.28
831.417	5517.02
831.743	5571.93
832.069	5556.34
832.395	5558.6
832.722	5559.27
833.048	5585.71
833.374	5521.31
833.7	5579.16
834.026	5599.95
834.351	5608.09
834.677	5580.29
835.003	5584.58
835.329	5549.78
835.654	5519.5
835.98	5532.38
836.306	5536.22
836.631	5534.87
836.956	5510.69
837.282	5548.88
837.607	5550.91
837.932	5474.53
838.258	5536.68
838.583	5463.23
838.908	5443.8
839.233	5452.61
839.558	5427.3
839.883	5426.4
840.208	5369.45
840.533	5351.6
840.858	5378.94
841.182	5377.36
841.507	5351.37
841.832	5315.89
842.156	5383.46
842.481	5276.8
842.805	5324.03
843.13	5300.07
843.454	5279.06
843.778	5165.16
844.103	5300.75
844.427	5244.71
844.751	5214.65
845.075	5192.28
845.399	5249.68
845.723	5217.14
846.047	5238.83
846.371	5166.52
846.695	5164.48
847.019	5121.55
847.343	5063.02
847.666	5079.97
847.99	5119.51
848.313	5088.55
848.637	5061.43
848.96	5053.75
849.284	5068.21
849.607	5025.5
849.931	4981.66
850.254	4936.69
850.577	4983.02
850.9	4905.96
851.223	4889.24
851.546	4893.98
851.869	4859.41
852.192	4876.81
852.515	4775.57
852.838	4750.03
853.161	4760.2
853.483	4729.92
853.806	4704.83
854.129	4722.91
854.451	4702.8
854.774	4660.77
855.096	4696.25
855.419	4648.34
855.741	4599.3
856.063	4614.44
856.385	4632.75
856.708	4609.92
857.03	4625.29
857.352	4578.96
857.674	4632.29
857.996	4565.18
858.318	4520.21
858.64	4557.72
858.961	4539.64
859.283	4510.49
859.605	4520.21
859.926	4496.7
860.248	4518.4
860.57	4494.9
860.891	4492.18
861.212	4484.27
861.534	4454.67
861.855	4463.03
862.176	4470.04
862.498	4446.76
862.819	4405.41
863.14	4423.94
863.461	4397.5
863.782	4379.87
864.103	4351.62
864.424	4369.7
864.745	4385.29
865.065	4329.02
865.386	4359.76
865.707	4369.7
866.027	4326.99
866.348	4298.06
866.668	4266.2
866.989	4268.01
867.309	4252.87
867.63	4282.92
867.95	4282.47
868.27	4265.98
868.59	4291.06
868.91	4272.75
869.23	4259.2
869.55	4272.3
869.87	4258.74
870.19	4212.87
870.51	4286.99
870.83	4238.41
871.15	4235.47
871.469	4249.25
871.789	4258.07
872.109	4255.35
872.428	4222.36
872.748	4224.85
873.067	4198.18
873.386	4225.3
873.706	4226.43
874.025	4190.95
874.344	4165.41
874.663	4188.92
874.982	4178.52
875.301	4177.16
875.62	4155.02
875.939	4134.91
876.258	4108.01
876.577	4101.91
876.896	4115.24
877.214	4036.38
877.533	4111.4
877.852	4028.02
878.17	4076.38
878.489	4060.33
878.807	4074.79
879.125	4092.19
879.444	4046.32
879.762	4010.16
880.08	4009.71
880.398	3998.41
880.716	3994.34
881.034	3988.69
881.352	3994.34
881.67	4003.61
881.988	4004.29
882.306	4009.94
882.624	4009.94
882.941	3956.83
883.259	4014.46
883.577	3983.04
883.894	3950.96
884.212	3943.72
884.529	3942.59
884.846	3958.86
885.164	3929.71
885.481	3926.78
885.798	3883.61
886.115	3889.71
886.432	3858.98
886.75	3910.96
887.067	3874.57
887.383	3823.28
887.7	3849.94
888.017	3846.55
888.334	3781.69
888.651	3823.5
888.967	3810.39
889.284	3794.12
889.6	3797.51
889.917	3759.1
890.233	3779.89
890.55	3706.44
890.866	3772.2
891.182	3715.48
891.498	3731.3
891.815	3686.56
892.131	3682.71
892.447	3679.55
892.763	3685.65
893.079	3660.79
893.395	3618.99
893.71	3612.89
894.026	3619.66
894.342	3629.38
894.657	3599.1
894.973	3621.7
895.289	3580.12
895.604	3654.47
895.92	3577.41
896.235	3616.05
896.55	3591.64
896.865	3576.73
897.181	3529.72
897.496	3545.99
897.811	3544.41
898.126	3548.71
898.441	3494.24
898.756	3536.05
899.071	3466
899.386	3498.99
899.7	3464.87
900.015	3446.56
900.33	3401.59
900.644	3443.62
900.959	3392.55
901.273	3435.94
901.588	3381.93
901.902	3371.08
902.216	3350.52
902.531	3377.41
902.845	3309.84
903.159	3289.73
903.473	3299
903.787	3280.69
904.101	3297.19
904.415	3284.08
904.729	3242.73
905.042	3234.82
905.356	3270.75
905.67	3247.7
905.984	3220.35
906.297	3194.82
906.611	3190.3
906.924	3220.35
907.237	3161.37
907.551	3176.06
907.864	3164.08
908.177	3177.87
908.491	3195.27
908.804	3117.53
909.117	3131.32
909.43	3122.28
909.743	3108.49
910.056	3106.23
910.368	3071.88
910.681	3080.92
910.994	3070.07
911.307	3090.19
911.619	3052.67
911.932	3069.85
912.244	3019
912.557	3007.93
912.869	3024.2
913.181	2988.95
913.494	3021.49
913.806	2981.72
914.118	2931.55
914.43	2937.65
914.742	2954.37
915.054	2882.51
915.366	2862.17
915.678	2898.1
915.99	2879.57
916.302	2848.16
916.613	2838.44
916.925	2857.65
917.236	2799.8
917.548	2797.31
917.859	2838.44
918.171	2796.18
918.482	2822.4
918.794	2776.3
919.105	2733.36
919.416	2736.3
919.727	2761.61
920.038	2695.85
920.349	2717.77
920.66	2682.97
920.971	2723.64
921.282	2694.49
921.593	2688.62
921.903	2671.44
922.214	2668.96
922.525	2670.99
922.835	2657.88
923.146	2674.83
923.456	2665.79
923.767	2638
924.077	2616.08
924.387	2602.97
924.697	2629.86
925.008	2593.48
925.318	2599.13
925.628	2568.39
925.938	2523.42
926.248	2527.26
926.558	2543.08
926.867	2551.9
927.177	2500.82
927.487	2497.21
927.796	2476.19
928.106	2448.17
928.416	2452.69
928.725	2459.02
929.034	2482.97
929.344	2461.05
929.653	2439.36
929.962	2428.96
930.271	2408.85
930.581	2384.22
930.89	2413.14
931.199	2414.5
931.508	2353.48
931.817	2352.13
932.125	2308.06
932.434	2334.5
932.743	2301.51
933.051	2329.53
933.36	2306.93
933.669	2304.67
933.977	2320.72
934.286	2312.13
934.594	2267.84
934.902	2250.21
935.21	2270.55
935.519	2307.83
935.827	2271.68
936.135	2242.07
936.443	2241.17
936.751	2238.91
937.059	2234.84
937.367	2214.73
937.674	2251.34
937.982	2219.48
938.29	2215.18
938.597	2196.2
938.905	2174.73
939.213	2170.89
939.52	2171.79
939.827	2168.86
940.135	2181.28
940.442	2140.16
940.749	2120.95
941.056	2139.03
941.363	2106.48
941.67	2094.51
941.977	2124.34
942.284	2112.36
942.591	2085.24
942.898	2082.3
943.205	2049.54
943.511	2020.61
943.818	2060.61
944.125	2042.76
944.431	2003.44
944.738	2009.99
945.044	2032.59
945.35	2008.63
945.657	1979.26
945.963	1982.87
946.269	1980.61
946.575	1951.23
946.881	1950.33
947.187	1947.62
947.493	1961.63
947.799	1949.65
948.105	1926.15
948.41	1934.29
948.716	1939.26
949.022	1932.25
949.327	1913.04
949.633	1885.25
949.938	1925.47
950.244	1903.78
950.549	1884.8
950.854	1868.52
951.16	1868.98
951.465	1848.64
951.77	1852.03
952.075	1833.05
952.38	1809.77
952.685	1815.64
952.99	1854.51
953.294	1812.93
953.599	1807.06
953.904	1786.72
954.209	1801.18
954.513	1795.53
954.818	1793.27
955.122	1790.56
955.426	1770.45
955.731	1776.1
956.035	1745.14
956.339	1767.96
956.643	1734.74
956.948	1736.32
957.252	1762.76
957.556	1771.8
957.86	1720.73
958.163	1760.5
958.467	1734.06
958.771	1693.84
959.075	1681.86
959.378	1714.63
959.682	1703.78
959.985	1703.56
960.289	1668.3
960.592	1688.64
960.896	1654.29
961.199	1656.33
961.502	1646.38
961.805	1617.91
962.108	1622.88
962.411	1609.1
962.714	1624.69
963.017	1617.46
963.32	1617.01
963.623	1597.12
963.926	1581.75
964.228	1608.64
964.531	1562.32
964.833	1583.33
965.136	1563.67
965.438	1560.96
965.741	1542.21
966.043	1564.35
966.345	1549.89
966.648	1546.72
966.95	1568.65
967.252	1544.24
967.554	1520.96
967.856	1501.75
968.158	1519.83
968.46	1526.61
968.761	1511.92
969.063	1480.06
969.365	1481.64
969.666	1500.17
969.968	1471.47
970.269	1459.04
970.571	1459.5
970.872	1485.94
971.174	1483.9
971.475	1456.56
971.776	1450.68
972.077	1472.15
972.378	1419.72
972.679	1443.9
972.98	1433.51
973.281	1387.18
973.582	1406.84
973.883	1441.19
974.183	1423.34
974.484	1379.05
974.785	1391.7
975.085	1382.89
975.386	1413.17
975.686	1384.92
975.986	1380.63
976.287	1352.38
976.587	1357.8
976.887	1355.54
977.187	1356
977.487	1337.46
977.787	1328.88
978.087	1330.46
978.387	1349.67
978.687	1308.99
978.987	1325.04
979.286	1338.37
979.586	1339.95
979.885	1314.41
980.185	1303.12
980.484	1292.72
980.784	1288.65
981.083	1291.14
981.382	1282.1
981.682	1264.02
981.981	1283.91
982.28	1261.53
982.579	1255.66
982.878	1252.27
983.177	1271.48
983.475	1244.13
983.774	1238.03
984.073	1253.4
984.372	1234.87
984.67	1242.33
984.969	1219.95
985.267	1239.84
985.566	1223.57
985.864	1234.42
986.162	1212.5
986.461	1204.36
986.759	1202.33
987.057	1212.04
987.355	1213.63
987.653	1215.21
987.951	1215.66
988.249	1187.64
988.547	1184.7
988.844	1185.83
989.142	1172.27
989.44	1155.32
989.737	1114.65
990.035	1155.1
990.332	1148.32
990.63	1125.94
990.927	1143.8
991.224	1141.99
991.521	1123.23
991.819	1125.94
992.116	1131.59
992.413	1116.91
992.71	1126.17
993.006	1099.5
993.303	1120.52
993.6	1119.62
993.897	1075.1
994.193	1092.27
994.49	1083.01
994.787	1069.68
995.083	1073.29
995.379	1083.01
995.676	1035.1
995.972	1087.53
996.268	1066.51
996.565	1056.79
996.861	1057.47
997.157	1024.25
997.453	1051.37
997.749	1063.12
998.044	1028.77
998.34	1018.6
998.636	1029.68
998.932	1054.99
999.227	1001.88
999.523	1004.82
999.818	1010.24
1000.114	1010.47
1000.409	1010.69
1000.704	1028.55
1001	1015.21
1001.295	1001.2
1001.59	1002.11
1001.885	1022.9
1002.18	992.84
1002.475	981.99
1002.77	973.86
1003.065	984.93
1003.359	986.51
1003.654	981.54
1003.949	962.79
1004.243	952.62
1004.538	948.32
1004.832	966.18
1005.127	954.2
1005.421	936.12
1005.715	918.04
1006.009	942.9
1006.304	927.53
1006.598	930.7
1006.892	934.31
1007.186	906.97
1007.48	931.37
1007.773	898.61
1008.067	909.68
1008.361	874.65
1008.655	904.71
1008.948	895.22
1009.242	878.49
1009.535	885.73
1009.829	888.66
1010.122	878.72
1010.415	857.48
1010.708	871.04
1011.001	855.9
1011.295	878.95
1011.588	845.05
1011.881	844.82
1012.173	839.62
1012.466	842.56
1012.759	833.07
1013.052	833.98
1013.344	830.36
1013.637	820.19
1013.93	834.2
1014.222	829.91
1014.514	823.13
1014.807	829.68
1015.099	851.83
1015.391	806.86
1015.683	792.62
1015.976	806.41
1016.268	809.34
1016.56	788.55
1016.851	802.56
1017.143	803.69
1017.435	779.51
1017.727	773.19
1018.018	760.08
1018.31	776.8
1018.602	789.68
1018.893	769.12
1019.185	755.33
1019.476	782.68
1019.767	785.61
1020.058	747.88
1020.35	738.38
1020.641	769.8
1020.932	746.07
1021.223	734.54
1021.514	756.46
1021.804	731.38
1022.095	722.34
1022.386	752.4
1022.677	718.5
1022.967	711.04
1023.258	714.43
1023.548	721.66
1023.839	695.67
1024.129	688.89
1024.419	704.49
1024.709	709.23
1025	694.54
1025.29	707.42
1025.58	688.67
1025.87	692.28
1026.16	661.1
1026.449	696.35
1026.739	687.54
1027.029	664.94
1027.319	666.75
1027.608	668.78
1027.898	670.59
1028.187	655.22
1028.477	657.26
1028.766	669.91
1029.055	665.62
1029.344	648.22
1029.634	649.57
1029.923	659.97
1030.212	637.37
1030.501	638.5
1030.79	650.03
1031.078	640.53
1031.367	645.28
1031.656	625.85
1031.945	629.91
1032.233	620.65
1032.522	646.64
1032.81	620.2
1033.099	613.64
1033.387	614.09
1033.675	612.29
1033.963	616.35
1034.251	609.12
1034.54	601.89
1034.828	606.86
1035.116	603.7
1035.403	592.63
1035.691	596.24
1035.979	598.95
1036.267	603.7
1036.554	589.01
1036.842	571.61
1037.129	579.52
1037.417	578.61
1037.704	583.59
1037.992	582.91
1038.279	586.98
1038.566	570.71
1038.853	570.71
1039.14	570.71
