Data from foam2_polystyrene_foam_FLMS001491_00052.txt Node
Date: Wed Feb 08 10:58:09 GMT 2017
User: dcchb
Spectrometer: FLMS00149
Trigger mode: 0
Integration Time (sec): 2.000000E-2
Scans to average: 10
Electric dark correction enabled: true
Nonlinearity correction enabled: false
Boxcar width: 0
XAxis mode: Wavelengths
Number of Pixels in Spectrum: 2048
>>>>>Begin Spectral Data<<<<<
341.393	7.78
341.776	7.78
342.16	7.78
342.543	-63.18
342.927	-61.37
343.31	-58.66
343.693	-72.44
344.077	-66.79
344.46	-60.69
344.843	-42.39
345.226	-37.87
345.61	-26.34
345.993	-32.22
346.376	-15.49
346.759	9.59
347.142	30.83
347.525	48.69
347.908	57.72
348.291	79.87
348.674	99.76
349.057	86.42
349.44	143.82
349.823	130.04
350.206	154.67
350.588	184.05
350.971	214.56
351.354	237.61
351.737	244.16
352.119	247.78
352.502	247.55
352.884	277.15
353.267	294.33
353.65	278.74
354.032	304.5
354.414	306.53
354.797	303.37
355.179	318.73
355.562	318.73
355.944	325.74
356.326	326.87
356.709	326.87
357.091	346.98
357.473	353.99
357.855	355.34
358.238	342.01
358.62	372.29
359.002	341.11
359.384	344.27
359.766	341.78
360.148	333.42
360.53	332.29
360.912	338.4
361.294	342.01
361.676	352.41
362.057	344.27
362.439	356.7
362.821	351.05
363.203	328.68
363.584	338.62
363.966	331.62
364.348	323.25
364.729	334.78
365.111	340.2
365.493	341.56
365.874	333.88
366.256	326.19
366.637	323.93
367.019	322.8
367.4	337.72
367.781	351.05
368.163	325.06
368.544	336.14
368.925	325.06
369.306	354.44
369.688	353.76
370.069	361.22
370.45	320.77
370.831	324.61
371.212	345.17
371.593	345.4
371.974	346.08
372.355	350.15
372.736	357.38
373.117	343.59
373.498	369.58
373.879	340.43
374.26	342.91
374.641	330.26
375.021	349.69
375.402	344.04
375.783	353.08
376.163	368.22
376.544	356.93
376.925	363.03
377.305	363.03
377.686	370.03
378.066	355.57
378.447	365.06
378.827	361.22
379.208	369.81
379.588	380.2
379.968	368.45
380.349	382.01
380.729	400.77
381.109	397.83
381.489	391.05
381.87	403.03
382.25	383.82
382.63	401.9
383.01	390.82
383.39	386.08
383.77	405.96
384.15	413.65
384.53	398.51
384.91	400.09
385.29	417.04
385.67	419.07
386.049	420.65
386.429	415.91
386.809	435.34
387.189	456.58
387.568	432.63
387.948	433.99
388.328	452.74
388.707	433.31
389.087	418.17
389.466	444.61
389.846	453.19
390.225	450.48
390.605	445.96
390.984	462.23
391.363	463.59
391.743	478.96
392.122	473.53
392.501	485.51
392.881	476.92
393.26	478.96
393.639	466.08
394.018	465.17
394.397	471.5
394.776	489.13
395.155	488
395.534	518.05
395.913	503.36
396.292	529.12
396.671	501.78
397.05	542.91
397.429	530.93
397.808	507.43
398.186	540.88
398.565	529.35
398.944	536.36
399.323	545.4
399.701	561.67
400.08	551.27
400.458	553.98
400.837	568.67
401.215	560.08
401.594	555.79
401.972	551.27
402.351	563.02
402.729	576.35
403.107	563.02
403.486	588.11
403.864	588.78
404.242	601.21
404.62	573.87
404.999	613.64
405.377	615.68
405.755	613.64
406.133	618.84
406.511	612.06
406.889	634.21
407.267	629.91
407.645	655.22
408.023	636.01
408.401	642.57
408.779	667.43
409.156	680.31
409.534	678.05
409.912	700.42
410.29	709.23
410.667	730.93
411.045	724.6
411.422	734.32
411.8	716.46
412.178	744.03
412.555	748.1
412.933	740.42
413.31	774.09
413.687	765.5
414.065	768.21
414.442	763.92
414.819	805.73
415.197	787.87
415.574	792.39
415.951	814.09
416.328	837.82
416.705	832.39
417.082	840.98
417.46	854.99
417.837	866.97
418.214	849.12
418.591	853.18
418.967	885.27
419.344	905.39
419.721	879.62
420.098	870.36
420.475	897.93
420.852	923.01
421.228	905.61
421.605	906.29
421.982	944.25
422.358	932.05
422.735	944.25
423.111	940.41
423.488	941.54
423.864	949.45
424.241	996.23
424.617	981.77
424.994	1032.84
425.37	1017.47
425.746	1026.74
426.123	1027.42
426.499	1036.23
426.875	1037.59
427.251	1019.73
427.627	1078.94
428.003	1079.39
428.379	1102.22
428.756	1090.24
429.132	1120.75
429.507	1138.83
429.883	1130.01
430.259	1151.48
430.635	1151.26
431.011	1161.88
431.387	1198.71
431.763	1231.48
432.138	1232.16
432.514	1261.08
432.89	1266.73
433.265	1272.83
433.641	1285.26
434.016	1324.36
434.392	1329.1
434.767	1345.15
435.143	1362.1
435.518	1374.75
435.894	1367.75
436.269	1400.29
436.644	1406.16
437.02	1437.58
437.395	1402.55
437.77	1464.24
438.145	1461.08
438.52	1475.54
438.895	1491.59
439.271	1510.12
439.646	1537.23
440.021	1562.54
440.395	1547.63
440.77	1521.64
441.145	1576.33
441.52	1602.54
441.895	1586.5
442.27	1628.08
442.645	1609.55
443.019	1638.47
443.394	1637.12
443.769	1648.19
444.143	1679.83
444.518	1705.36
444.892	1676.89
445.267	1711.69
445.641	1715.99
446.016	1733.84
446.39	1764.8
446.764	1796.66
447.139	1764.12
447.513	1779.94
447.887	1802.54
448.262	1793.27
448.636	1839.37
449.01	1864.46
449.384	1860.39
449.758	1864.46
450.132	1880.28
450.506	1900.61
450.88	1901.97
451.254	1932.03
451.628	1984.91
452.002	2007.73
452.376	2023.55
452.75	2006.15
453.123	2027.16
453.497	2061.06
453.871	2083.66
454.244	2146.71
454.618	2116.65
454.992	2097.22
455.365	2139.93
455.739	2153.71
456.112	2211.79
456.486	2226.48
456.859	2234.16
457.232	2329.76
457.606	2280.26
457.979	2313.71
458.352	2338.34
458.725	2367.27
459.099	2364.56
459.472	2463.76
459.845	2447.49
460.218	2495.17
460.591	2512.12
460.964	2500.15
461.337	2546.25
461.71	2563.42
462.083	2615.62
462.456	2638.22
462.829	2642.97
463.201	2667.83
463.574	2714.38
463.947	2700.37
464.32	2767.03
464.692	2804.54
465.065	2809.29
465.438	2832.34
465.81	2889.29
466.183	2953.02
466.555	3004.09
466.928	3001.6
467.3	2997.99
467.672	3015.61
468.045	3127.7
468.417	3124.76
468.789	3146.46
469.161	3184.65
469.534	3264.42
469.906	3310.75
470.278	3314.81
470.65	3347.81
471.022	3427.58
471.394	3497.86
471.766	3500.57
472.138	3538.31
472.51	3602.72
472.882	3639.33
473.253	3681.58
473.625	3747.8
473.997	3811.52
474.369	3838.42
474.74	3882.26
475.112	3967.9
475.484	4051.07
475.855	4090.39
476.227	4126.32
476.598	4220.55
476.97	4282.47
477.341	4352.3
477.713	4387.55
478.084	4452.86
478.455	4524.5
478.827	4559.08
479.198	4660.32
479.569	4706.19
479.94	4812.85
480.311	4912.74
480.682	5002.68
481.053	5080.87
481.424	5127.87
481.795	5235.89
482.166	5315.44
482.537	5418.04
482.908	5459.84
483.279	5536.45
483.65	5663.68
484.021	5759.5
484.391	5807.86
484.762	5886.72
485.133	5868.19
485.503	5976.21
485.874	6100.73
486.244	6153.84
486.615	6310.67
486.985	6392.7
487.356	6481.96
487.726	6519.48
488.097	6715.85
488.467	6676.08
488.837	6816.42
489.207	6924.89
489.578	6973.25
489.948	7070.42
490.318	7128.72
490.688	7209.63
491.058	7295.73
491.428	7393.58
491.798	7491.43
492.168	7584.76
492.538	7633.8
492.908	7758.54
493.278	7815.94
493.648	7883.28
494.017	7955.14
494.387	8053.45
494.757	8090.06
495.126	8237.85
495.496	8240.11
495.866	8268.58
496.235	8359.43
496.605	8459.54
496.974	8572.3
497.344	8593.32
497.713	8652.53
498.082	8726.42
498.452	8824.5
498.821	8904.05
499.19	8820.21
499.559	8999.86
499.928	9056.58
500.298	9098.62
500.667	9242.34
501.036	9204.6
501.405	9291.61
501.774	9340.64
502.143	9411.6
502.512	9535.67
502.88	9560.53
503.249	9667.64
503.618	9720.3
503.987	9630.35
504.356	9838.26
504.724	9852.5
505.093	9911.93
505.462	9926.17
505.83	10090.46
506.199	10158.7
506.567	10254.29
506.936	10193.28
507.304	10314.4
507.672	10453.38
508.041	10384.01
508.409	10538.35
508.777	10587.39
509.145	10705.81
509.514	10708.29
509.882	10826.48
510.25	10838.91
510.618	10979.47
510.986	10995.52
511.354	11097.21
511.722	11218.33
512.09	11254.49
512.458	11306.92
512.826	11443.41
513.193	11539.91
513.561	11500.36
513.929	11650.87
514.297	11807.47
514.664	11852.22
515.032	11910.29
515.4	12044.98
515.767	12063.96
516.135	12080.46
516.502	12171.08
516.869	12285.88
517.237	12414.91
517.604	12374.69
517.972	12532.88
518.339	12609.94
518.706	12642.7
519.073	12730.39
519.44	12875.69
519.808	12942.58
520.175	12961.79
520.542	13170.15
520.909	13246.98
521.276	13260.32
521.643	13489.24
522.009	13514.55
522.376	13625.73
522.743	13769.68
523.11	13867.98
523.477	14052.16
523.843	14089.22
524.21	14204.47
524.577	14333.06
524.943	14358.37
525.31	14503.45
525.676	14635.65
526.043	14765.36
526.409	14858.01
526.776	15014.62
527.142	15011.91
527.508	15067.05
527.874	15287.83
528.241	15373.03
528.607	15369.64
528.973	15544.1
529.339	15560.37
529.705	15683.98
530.071	15780.7
530.437	15807.14
530.803	15988.83
531.169	16010.3
531.535	16091.43
531.901	16181.59
532.267	16218.88
532.632	16273.12
532.998	16438.08
533.364	16563.73
533.73	16608.48
534.095	16743.16
534.461	16807.79
534.826	16904.51
535.192	16937.05
535.557	17074.9
535.923	17081.68
536.288	17151.06
536.653	17210.95
537.019	17295.69
537.384	17311.73
537.749	17439.64
538.114	17567.55
538.479	17481
538.845	17651.16
539.21	17619.3
539.575	17738.16
539.94	17794.43
540.305	17965.28
540.67	17863.81
541.034	18027.2
541.399	18057.25
541.764	18092.96
542.129	18171.15
542.494	18187.87
542.858	18306.74
543.223	18398.03
543.587	18488.88
543.952	18506.96
544.316	18534.3
544.681	18545.37
545.045	18650.46
545.41	18719.15
545.774	18813.84
546.138	18752.6
546.503	18818.59
546.867	18948.08
547.231	19051.8
547.595	19081.41
547.959	19239.59
548.324	19294.96
548.688	19289.31
549.052	19371.11
549.416	19356.88
549.779	19519.36
550.143	19464.45
550.507	19688.39
550.871	19618.79
551.235	19721.39
551.599	19834.83
551.962	19865.11
552.326	20040.25
552.689	20099.23
553.053	20044.32
553.417	20193.24
553.78	20519.56
554.143	20384.42
554.507	20446.79
554.87	20505.1
555.234	20684.98
555.597	20659.89
555.96	20756.39
556.323	20807.46
556.686	20865.31
557.05	21129.26
557.413	21089.49
557.776	21159.09
558.139	21228.92
558.502	21299.43
558.865	21390.95
559.228	21504.62
559.59	21583.94
559.953	21553.2
560.316	21824.61
560.679	21877.26
561.041	22081.33
561.404	22162.23
561.767	22298.95
562.129	22153.64
562.492	22508.66
562.854	22429.57
563.217	22419.17
563.579	22574.87
563.941	22750.01
564.304	22729.22
564.666	22954.98
565.028	22961.08
565.39	23032.49
565.753	23279.71
566.115	23352.25
566.477	23386.6
566.839	23521.51
567.201	23722.19
567.563	23611.68
567.925	23759.7
568.287	23902.52
568.648	24006.02
569.01	24074.95
569.372	24196.75
569.734	24066.58
570.095	24427.25
570.457	24446.91
570.819	24482.84
571.18	24561.26
571.542	24663.41
571.903	24685.33
572.265	24749.05
572.626	24827.24
572.987	24872.89
573.349	24858.88
573.71	25029.95
574.071	24998.31
574.432	25154.24
574.794	25281.92
575.155	25226.1
575.516	25292.77
575.877	25328.47
576.238	25402.14
576.599	25540.67
576.96	25519.88
577.32	25528.24
577.681	25553.55
578.042	25694.79
578.403	25630.16
578.763	25886.65
579.124	25818.63
579.485	25895.24
579.845	26029.02
580.206	25936.14
580.566	25931.17
580.927	25982.47
581.287	26116.25
581.648	25934.78
582.008	26172.52
582.368	26036.02
582.728	26062.69
583.089	26065.63
583.449	26091.16
583.809	26235.12
584.169	26088.45
584.529	26048.23
584.889	26414.77
585.249	26099.53
585.609	26022.01
585.969	26160.54
586.329	26164.38
586.688	26281.67
587.048	26218.39
587.408	26146.3
587.768	26120.77
588.127	26145.63
588.487	25990.83
588.846	26301.1
589.206	26074.89
589.565	26183.59
589.925	26245.74
590.284	26070.83
590.643	26310.59
591.003	26161.22
591.362	26333.19
591.721	26333.87
592.08	26300.42
592.44	26324.6
592.799	26298.16
593.158	26232.18
593.517	26279.41
593.876	26276.92
594.235	26338.84
594.593	26387.2
594.952	26471.04
595.311	26396.92
595.67	26353.98
596.029	26522.11
596.387	26527.99
596.746	26531.6
597.104	26426.07
597.463	26391.27
597.822	26491.61
598.18	26432.62
598.538	26382.91
598.897	26537.48
599.255	26369.12
599.613	26796.23
599.972	26559.63
600.33	26673.52
600.688	26579.06
601.046	26620.19
601.404	26829
601.762	26778.38
602.12	26881.43
602.478	26993.74
602.836	26950.35
603.194	26769.11
603.552	26932.72
603.91	26807.3
604.268	26998.94
604.625	26834.42
604.983	26986.96
605.341	26881.2
605.698	26893.86
606.056	27130.68
606.413	27009.56
606.771	27038.03
607.128	27189.44
607.485	26990.58
607.843	26993.97
608.2	27126.17
608.557	27253.17
608.914	27083
609.272	27212.72
609.629	27322.09
609.986	27408.42
610.343	27297.01
610.7	27399.6
611.057	27452.48
611.414	27453.61
611.771	27454.29
612.127	27535.19
612.484	27408.64
612.841	27617.45
613.198	27473.73
613.554	27530.22
613.911	27717.11
614.267	27635.76
614.624	27594.63
614.98	27558.02
615.337	27784.91
615.693	27758.01
616.05	27515.08
616.406	27944.9
616.762	27729.31
617.118	27847.95
617.475	27795.53
617.831	27893.83
618.187	28012.02
618.543	27977.67
618.899	28094.28
619.255	28143.54
619.611	28028.97
619.967	28038.01
620.323	28195.06
620.678	28049.76
621.034	27970.66
621.39	28011.79
621.746	27961.4
622.101	28161.62
622.457	27891.34
622.812	28066.48
623.168	28044.79
623.523	28129.53
623.879	28148.74
624.234	27911.46
624.589	27993.49
624.945	28080.72
625.3	28086.14
625.655	28151.9
626.01	28066.03
626.365	28116.2
626.72	28051.34
627.075	27921.4
627.43	28081.62
627.785	28031
628.14	28011.79
628.495	28030.77
628.85	27950.78
629.205	27869.65
629.559	28029.19
629.914	27968.18
630.269	28095.63
630.623	27951.91
630.978	27880.5
631.332	27934.96
631.687	27937.67
632.041	27807.96
632.396	27932.7
632.75	27742.19
633.104	27846.15
633.459	27595.76
633.813	27612.03
634.167	27679.37
634.521	27556.44
634.875	27694.06
635.229	27485.03
635.583	27445.48
635.937	27404.8
636.291	27360.74
636.645	27287.07
636.999	27205.71
637.352	27445.25
637.706	27251.36
638.06	27308.08
638.413	27126.39
638.767	27185.15
639.121	27262.21
639.474	27038.03
639.828	27083.68
640.181	27031.03
640.534	27086.39
640.888	26977.47
641.241	26896.57
641.594	26934.76
641.947	26968.66
642.301	26786.51
642.654	26854.99
643.007	26744.03
643.36	26738.38
643.713	26582.68
644.066	26758.49
644.419	26438.27
644.771	26364.15
645.124	26103.59
645.477	26169.13
645.83	25883.71
646.182	25786.99
646.535	25722.81
646.888	25790.16
647.24	25770.27
647.593	25819.08
647.945	25794.67
648.298	25622.25
648.65	25586.54
649.002	25478.75
649.355	25619.31
649.707	25520.78
650.059	25593.55
650.411	25875.58
650.763	25916.48
651.115	26158.96
651.467	26055.46
651.819	26097.72
652.171	26027.21
652.523	25911.73
652.875	25979.75
653.227	25923.49
653.578	25971.62
653.93	25907.21
654.282	25772.98
654.633	25711.74
654.985	25888.91
655.337	25850.49
655.688	25885.75
656.039	25892.3
656.391	25664.51
656.742	25729.37
657.094	25768.46
657.445	25720.55
657.796	25808.91
658.147	25648.46
658.498	25608.47
658.849	25733.43
659.2	25571.63
659.551	25451.86
659.902	25651.85
660.253	25644.4
660.604	25574.79
660.955	25442.59
661.306	25540.22
661.656	25459.77
662.007	25503.38
662.358	25516.94
662.708	25427.68
663.059	25437.62
663.409	25282.82
663.76	25504.96
664.11	25468.81
664.461	25464.06
664.811	25386.78
665.161	25493.44
665.511	25379.54
665.862	25325.99
666.212	25440.56
666.562	25397.17
666.912	25316.72
667.262	25375.7
667.612	25329.15
667.962	25356.49
668.312	25279.21
668.662	25358.3
669.011	25252.32
669.361	25247.34
669.711	25241.02
670.06	25148.36
670.41	25215.03
670.76	25066.11
671.109	25185.65
671.459	25237.63
671.808	25026.11
672.157	25162.6
672.507	25015.49
672.856	25002.83
673.205	25020.68
673.554	25095.94
673.904	25039.67
674.253	25086.22
674.602	24917.41
674.951	24666.57
675.3	24366.92
675.649	24930.29
675.998	24940.01
676.346	24793.57
676.695	24950.4
677.044	24768.26
677.393	24849.16
677.741	24937.07
678.09	24785.89
678.438	24693.01
678.787	24807.58
679.135	24871.99
679.484	24639.45
679.832	24756.28
680.181	24600.13
680.529	24644.87
680.877	24625.67
681.225	24463.86
681.573	24674.7
681.922	24519
682.27	24467.03
682.618	24463.64
682.966	24265.68
683.314	24290.08
683.661	24321.04
684.009	24195.85
684.357	24259.35
684.705	24216.19
685.053	24174.15
685.4	24129.18
685.748	23964.89
686.095	23966.93
686.443	23904.1
686.79	23794.28
687.138	23972.8
687.485	23864.78
687.832	23767.16
688.18	23809.87
688.527	23606.48
688.874	23602.64
689.221	23600.16
689.568	23532.36
689.915	23604.68
690.262	23512.93
690.609	23384.79
690.956	23384.79
691.303	23326.49
691.65	23082.43
691.997	23220.05
692.344	23175.31
692.69	23024.8
693.037	23095.31
693.383	22858.93
693.73	22923.79
694.077	22768.54
694.423	22857.35
694.769	22772.61
695.116	22666.4
695.462	22611.71
695.808	22530.13
696.155	22556.79
696.501	22406.97
696.847	22392.96
697.193	22228.44
697.539	22239.97
697.885	22200.87
698.231	22065.96
698.577	22102.57
698.923	22093.98
699.269	21927.43
699.614	21794.78
699.96	21761.33
700.306	21734.67
700.651	21727.66
700.997	21635.91
701.342	21633.88
701.688	21520.21
702.033	21451.29
702.379	21543.49
702.724	21406.32
703.069	21553.43
703.415	21230.28
703.76	21198.19
704.105	21171.75
704.45	21227.56
704.795	21078.87
705.14	21004.74
705.485	21048.36
705.83	20825.77
706.175	20976.95
706.52	20820.34
706.865	20660.35
707.209	20743.28
707.554	20716.16
707.899	20650.86
708.243	20447.47
708.588	20545.55
708.932	20418.32
709.277	20357.76
709.621	20337.19
709.966	20235.27
710.31	20208.16
710.654	20059.01
710.998	20090.19
711.342	20146.01
711.687	20076.86
712.031	19996.18
712.375	19873.25
712.719	19734.27
713.063	19835.06
713.407	19859.24
713.75	19741.95
714.094	19772.23
714.438	19721.84
714.782	19594.84
715.125	19552.58
715.469	19585.35
715.812	19497.89
716.156	19413.37
716.499	19383.09
716.843	19488.85
717.186	19376.99
717.53	19435.75
717.873	19361.62
718.216	19356.88
718.559	19240.04
718.902	19117.34
719.246	19124.12
719.589	19073.27
719.932	18900.39
720.275	19083.21
720.617	19052.71
720.96	18974.29
721.303	18984.68
721.646	18887.51
721.989	18771.36
722.331	18795.99
722.674	18803.45
723.016	18830.56
723.359	18767.52
723.701	18710.79
724.044	18618.37
724.386	18586.05
724.729	18655.43
725.071	18578.59
725.413	18628.76
725.755	18434.42
726.097	18410.69
726.439	18350.8
726.782	18323.91
727.124	18383.57
727.465	18323.46
727.807	18314.19
728.149	18253.18
728.491	18181.77
728.833	18225.38
729.175	18081.43
729.516	18069.45
729.858	18052.51
730.199	18059.51
730.541	17964.6
730.882	18036.46
731.224	17970.02
731.565	17885.73
731.906	17938.16
732.248	17909.23
732.589	17857.03
732.93	17825.62
733.271	17865.17
733.612	17760.99
733.953	17779.29
734.294	17636.25
734.635	17566.42
734.976	17669.24
735.317	17629.47
735.658	17622.69
735.999	17571.16
736.339	17471.28
736.68	17607.09
737.021	17527.32
737.361	17480.77
737.702	17505.18
738.042	17379.75
738.383	17393.09
738.723	17408.68
739.063	17306.31
739.404	17345.63
739.744	17330.72
740.084	17321.23
740.424	17183.15
740.764	17243.49
741.104	17281.45
741.444	17159.87
741.784	17142.25
742.124	17116.03
742.464	17169.36
742.804	17066.99
743.143	16988.13
743.483	16982.48
743.823	16917.39
744.162	16840.79
744.502	16916.94
744.841	16885.76
745.181	16869.71
745.52	16807.79
745.86	16761.47
746.199	16732.31
746.538	16639.66
746.877	16757.85
747.216	16736.83
747.556	16617.74
747.895	16666.33
748.234	16565.76
748.573	16526.44
748.911	16531.64
749.25	16491.19
749.589	16378.2
749.928	16386.79
750.267	16512.21
750.605	16387.69
750.944	16256.39
751.283	16271.99
751.621	16275.15
751.96	16220.46
752.298	16159.45
752.636	16178.88
752.975	16119.45
753.313	16077.64
753.651	16111.54
753.989	16027.93
754.327	15976.85
754.666	15886.46
755.004	15902.96
755.342	15902.96
755.679	15913.35
756.017	15783.41
756.355	15802.85
756.693	15720.59
757.031	15697.99
757.368	15594.72
757.706	15587.94
758.044	15568.28
758.381	15551.33
758.719	15466.36
759.056	15501.39
759.394	15428.39
759.731	15309.75
760.068	15320.6
760.405	15328.51
760.743	15189.98
761.08	15243.77
761.417	15196.54
761.754	15177.78
762.091	15118.12
762.428	15040.16
762.765	14979.14
763.102	15036.09
763.438	14913.61
763.775	14845.36
764.112	14890.55
764.449	14817.11
764.785	14679.49
765.122	14712.03
765.458	14535.54
765.795	14641.3
766.131	14623.22
766.467	14492.15
766.804	14456.44
767.14	14331.93
767.476	14469.1
767.812	14272.49
768.148	14275.66
768.485	14150.46
768.821	14101.2
769.157	14042.44
769.492	14055.1
769.828	14046.96
770.164	13864.59
770.5	13799.06
770.836	13762.22
771.171	13683.13
771.507	13711.6
771.842	13610.14
772.178	13687.2
772.513	13565.17
772.849	13530.36
773.184	13482.23
773.519	13385.96
773.855	13390.26
774.19	13341.44
774.525	13251.73
774.86	13275.91
775.195	13231.16
775.53	13098.96
775.865	13113.2
776.2	13029.13
776.535	12931.06
776.87	13001.56
777.205	12866.43
777.539	12866.65
777.874	12895.13
778.209	12719.54
778.543	12713.89
778.878	12667.34
779.212	12707.11
779.547	12589.37
779.881	12577.62
780.215	12499.21
780.55	12472.09
780.884	12440
781.218	12481.8
781.552	12385.31
781.886	12295.14
782.22	12204.3
782.554	12205.65
782.888	12104.41
783.222	12089.95
783.556	12031.65
783.889	11991.65
784.223	11881.14
784.557	11874.36
784.89	11890.41
785.224	11827.58
785.557	11743.74
785.891	11726.12
786.224	11736.97
786.558	11689.28
786.891	11479.57
787.224	11586.69
787.557	11534.48
787.891	11547.82
788.224	11452.91
788.557	11458.78
788.89	11455.39
789.223	11406.8
789.556	11297.65
789.888	11292.91
790.221	11256.98
790.554	11120.48
790.887	11139.47
791.219	11114.83
791.552	11104.67
791.884	11034.61
792.217	10972.24
792.549	11014.95
792.882	10918.91
793.214	10857.67
793.546	10899.7
793.879	10822.41
794.211	10757.33
794.543	10722.53
794.875	10734.28
795.207	10778.35
795.539	10649.99
795.871	10675.07
796.203	10638.01
796.535	10592.59
796.867	10509.2
797.198	10535.87
797.53	10538.58
797.862	10441.63
798.193	10397.57
798.525	10394.4
798.856	10372.03
799.188	10266.72
799.519	10278.7
799.85	10139.95
800.182	10238.7
800.513	10159.38
800.844	10067.86
801.175	10183.33
801.506	10144.24
801.837	10034.86
802.168	10078.25
802.499	10005.71
802.83	9937.46
803.161	9909.22
803.491	9876.9
803.822	9832.38
804.153	9836
804.483	9740.63
804.814	9742.22
805.145	9709.22
805.475	9737.47
805.805	9683.23
806.136	9643.01
806.466	9707.41
806.796	9628.09
807.126	9535.22
807.457	9510.58
807.787	9535.44
808.117	9486.4
808.447	9417.7
808.777	9465.61
809.107	9426.52
809.436	9378.38
809.766	9426.29
810.096	9295.67
810.426	9296.8
810.755	9276.92
811.085	9332.28
811.414	9258.39
811.744	9186.75
812.073	9204.83
812.403	9181.78
812.732	9174.32
813.061	9190.37
813.39	9047.54
813.719	9085.96
814.049	9121.44
814.378	9076.02
814.707	8960.77
815.036	8980.43
815.365	8949.24
815.693	8878.06
816.022	8904.72
816.351	8875.35
816.68	8763.94
817.008	8849.81
817.337	8751.96
817.665	8737.04
817.994	8738.4
818.322	8743.15
818.651	8688.91
818.979	8637.61
819.307	8678.51
819.636	8715.35
819.964	8683.26
820.292	8665.86
820.62	8603.04
820.948	8566.65
821.276	8596.03
821.604	8591.29
821.932	8636.03
822.259	8562.36
822.587	8589.25
822.915	8537.5
823.243	8663.83
823.57	8474.9
823.898	8615.47
824.225	8482.14
824.553	8573.21
824.88	8610.95
825.207	8655.24
825.535	8561.68
825.862	8587.9
826.189	8438.52
826.516	8539.76
826.843	8638.52
827.17	8567.78
827.497	8580.89
827.824	8569.82
828.151	8640.55
828.478	8569.37
828.805	8563.72
829.131	8564.39
829.458	8589.25
829.785	8511.51
830.111	8537.05
830.438	8558.07
830.764	8510.84
831.09	8588.8
831.417	8512.19
831.743	8624.05
832.069	8494.11
832.395	8551.96
832.722	8506.09
833.048	8466.09
833.374	8452.31
833.7	8476.71
834.026	8487.79
834.351	8477.84
834.677	8448.46
835.003	8507.22
835.329	8436.71
835.654	8445.07
835.98	8396.71
836.306	8371.4
836.631	8435.81
836.956	8396.26
837.282	8389.03
837.607	8361.69
837.932	8281.01
838.258	8265.19
838.583	8285.08
838.908	8296.83
839.233	8305.42
839.558	8258.64
839.883	8230.16
840.208	8239.66
840.533	8247.11
840.858	8250.96
841.182	8219.77
841.507	8141.81
841.832	8195.59
842.156	8058.42
842.481	8148.81
842.805	8121.02
843.13	8104.29
843.454	8016.61
843.778	8031.98
844.103	8025.88
844.427	8068.36
844.751	8032.66
845.075	7952.66
845.399	7935.03
845.723	7916.73
846.047	7924.64
846.371	7887.12
846.695	7868.82
847.019	7843.96
847.343	7786.56
847.666	7713.79
847.99	7664.76
848.313	7712.66
848.637	7663.85
848.96	7673.57
849.284	7624.53
849.607	7576.4
849.931	7528.26
850.254	7504.99
850.577	7387.48
850.9	7424.76
851.223	7395.61
851.546	7406.91
851.869	7323.75
852.192	7385.89
852.515	7218.21
852.838	7278.1
853.161	7276.52
853.483	7228.16
853.806	7201.94
854.129	7128.5
854.451	7142.51
854.774	7152.68
855.096	7119.46
855.419	7099.57
855.741	7051.21
856.063	7006.92
856.385	7054.6
856.708	6969.86
857.03	6966.24
857.352	6973.93
857.674	6962.85
857.996	6941.16
858.318	6916.75
858.64	6918.56
858.961	6836.53
859.283	6862.74
859.605	6747.04
859.926	6842.63
860.248	6796.08
860.57	6731.9
860.891	6805.34
861.212	6703.2
861.534	6708.62
861.855	6729.64
862.176	6768.96
862.498	6743.2
862.819	6744.33
863.14	6655.07
863.461	6620.04
863.782	6682.64
864.103	6634.27
864.424	6628.63
864.745	6626.37
865.065	6566.71
865.386	6613.26
865.707	6573.26
866.027	6592.92
866.348	6575.75
866.668	6511.57
866.989	6518.35
867.309	6525.58
867.63	6539.59
867.95	6453.71
868.27	6430.21
868.59	6492.58
868.91	6467.73
869.23	6424.79
869.55	6456.43
869.87	6428.86
870.19	6386.15
870.51	6418.01
870.83	6354.28
871.15	6371.23
871.469	6367.16
871.789	6310.89
872.109	6336.2
872.428	6341.4
872.748	6362.87
873.067	6266.37
873.386	6309.31
873.706	6274.28
874.025	6302.98
874.344	6269.54
874.663	6272.25
874.982	6260.95
875.301	6305.7
875.62	6239.26
875.939	6209.88
876.258	6206.72
876.577	6173.72
876.896	6181.41
877.214	6191.12
877.533	6186.38
877.852	6190.44
878.17	6165.59
878.489	6157.23
878.807	6153.38
879.125	6161.29
879.444	6112.71
879.762	6087.85
880.08	6127.4
880.398	6086.04
880.716	6101.41
881.034	6045.36
881.352	6050.79
881.67	6024.8
881.988	6058.92
882.306	6007.85
882.624	6007.85
882.941	5975.76
883.259	5952.71
883.577	5949.55
883.894	5912.03
884.212	5873.39
884.529	5919.72
884.846	5963.11
885.164	5867.52
885.481	5850.34
885.798	5880.4
886.115	5825.03
886.432	5820.96
886.75	5877.68
887.067	5834.75
887.383	5798.14
887.7	5799.95
888.017	5714.75
888.334	5757.46
888.651	5791.59
888.967	5743.9
889.284	5713.62
889.6	5632.04
889.917	5600.63
890.233	5659.84
890.55	5598.37
890.866	5630.91
891.182	5614.87
891.498	5581.65
891.815	5580.74
892.131	5541.42
892.447	5533.96
892.763	5513.4
893.079	5574.42
893.395	5517.02
893.71	5445.61
894.026	5506.85
894.342	5457.13
894.657	5418.49
894.973	5457.13
895.289	5393.18
895.604	5387.98
895.92	5382.1
896.235	5371.48
896.55	5302.33
896.865	5373.29
897.181	5325.83
897.496	5363.57
897.811	5290.58
898.126	5271.82
898.441	5285.16
898.756	5220.53
899.071	5187.76
899.386	5246.97
899.7	5173.07
900.015	5139.17
900.33	5130.81
900.644	5136.01
900.959	5138.49
901.273	5098.27
901.588	5039.74
901.902	5060.98
902.216	4998.39
902.531	5040.87
902.845	4989.57
903.159	4991.83
903.473	4919.29
903.787	4950.48
904.101	4901.89
904.415	4899.86
904.729	4925.85
905.042	4839.75
905.356	4810.37
905.67	4813.31
905.984	4820.54
906.297	4804.49
906.611	4800.65
906.924	4774.21
907.237	4785.28
907.551	4669.58
907.864	4737.6
908.177	4659.64
908.491	4689.02
908.804	4639.07
909.117	4604.95
909.43	4599.3
909.743	4627.55
910.056	4589.81
910.368	4608.11
910.681	4511.17
910.994	4557.04
911.307	4538.51
911.619	4498.06
911.932	4506.65
912.244	4486.08
912.557	4462.58
912.869	4435.69
913.181	4402.02
913.494	4424.62
913.806	4375.58
914.118	4382.36
914.43	4350.49
914.742	4332.87
915.054	4324.28
915.366	4329.7
915.678	4294.45
915.99	4292.19
916.302	4254.45
916.613	4232.3
916.925	4202.02
917.236	4196.6
917.548	4171.29
917.859	4172.19
918.171	4145.3
918.482	4119.09
918.794	4077.73
919.105	4077.05
919.416	4039.77
919.727	4070.27
920.038	4038.18
920.349	4009.26
920.66	4009.26
920.971	3968.36
921.282	3991.18
921.593	3963.38
921.903	3948.02
922.214	3920.67
922.525	3906.66
922.835	3857.4
923.146	3827.79
923.456	3838.64
923.767	3837.29
924.077	3873.67
924.387	3860.11
924.697	3810.85
925.008	3775.82
925.318	3802.48
925.628	3757.51
925.938	3740.79
926.248	3760.9
926.558	3718.87
926.867	3744.41
927.177	3670.96
927.487	3680.68
927.796	3654.24
928.106	3650.4
928.416	3636.61
928.725	3608.82
929.034	3601.13
929.344	3612.21
929.653	3593.68
929.962	3540.8
930.271	3548.93
930.581	3534.02
930.89	3548.93
931.199	3482.95
931.508	3484.75
931.817	3481.14
932.125	3472.55
932.434	3440.23
932.743	3399.33
933.051	3414.47
933.36	3406.11
933.669	3372.44
933.977	3372.89
934.286	3347.81
934.594	3353.68
934.902	3336.51
935.21	3326.11
935.519	3322.05
935.827	3289.28
936.135	3293.8
936.443	3250.18
936.751	3233.46
937.059	3255.38
937.367	3186.23
937.674	3215.61
937.982	3186.68
938.29	3190.3
938.597	3221.94
938.905	3146.46
939.213	3097.87
939.52	3115.72
939.827	3121.37
940.135	3114.59
940.442	3082.05
940.749	3125.21
941.056	3060.58
941.363	3076.63
941.67	3023.3
941.977	3033.47
942.284	3012.68
942.591	3009.74
942.898	3005.67
943.205	3003.64
943.511	2998.44
943.818	2946.69
944.125	2908.5
944.431	2919.8
944.738	2920.02
945.044	2888.38
945.35	2885.22
945.657	2845
945.963	2868.27
946.269	2868.95
946.575	2853.36
946.881	2850.87
947.187	2820.36
947.493	2784.21
947.799	2814.04
948.105	2809.29
948.41	2799.12
948.716	2743.3
949.022	2733.59
949.327	2751.89
949.633	2711.44
949.938	2743.76
950.244	2737.43
950.549	2703.76
950.854	2715.06
951.16	2703.08
951.465	2692.23
951.77	2657.66
952.075	2616.53
952.38	2628.96
952.685	2612.01
952.99	2594.15
953.294	2626.92
953.599	2576.3
953.904	2579.01
954.209	2575.17
954.513	2579.92
954.818	2567.26
955.122	2542.18
955.426	2493.59
955.731	2531.56
956.035	2533.82
956.339	2475.51
956.643	2501.28
956.948	2479.81
957.252	2478
957.556	2491.78
957.86	2455.4
958.163	2421.73
958.467	2424.67
958.771	2409.08
959.075	2429.64
959.378	2397.1
959.682	2399.13
959.985	2386.02
960.289	2353.26
960.592	2347.16
960.896	2349.42
961.199	2357.33
961.502	2343.77
961.805	2346.48
962.108	2301.73
962.411	2334.27
962.714	2293.37
963.017	2297.21
963.32	2286.82
963.623	2284.78
963.926	2301.96
964.228	2244.79
964.531	2258.34
964.833	2251.79
965.136	2231
965.438	2220.61
965.741	2204.33
966.043	2167.95
966.345	2200.49
966.648	2188.97
966.95	2169.31
967.252	2158.46
967.554	2144.9
967.856	2171.57
968.158	2131.57
968.46	2106.71
968.761	2122.3
969.063	2135.41
969.365	2113.49
969.666	2106.94
969.968	2058.58
970.269	2061.74
970.571	2071.91
970.872	2078.91
971.174	2031.23
971.475	2043.66
971.776	2041.18
972.077	2063.32
972.378	2030.55
972.679	1999.59
972.98	1989.65
973.281	2016.99
973.582	2016.99
973.883	1995.3
974.183	1967.5
974.484	1965.47
974.785	1936.77
975.085	1936.77
975.386	1932.03
975.686	1953.49
975.986	1933.38
976.287	1910.33
976.587	1908.98
976.887	1923.66
977.187	1898.35
977.487	1847.51
977.787	1899.71
978.087	1872.14
978.387	1857.23
978.687	1840.73
978.987	1854.29
979.286	1827.62
979.586	1829.43
979.885	1845.7
980.185	1815.64
980.484	1814.29
980.784	1809.32
981.083	1748.98
981.382	1773.16
981.682	1782.42
981.981	1776.1
982.28	1789.2
982.579	1755.53
982.878	1758.92
983.177	1757.34
983.475	1747.85
983.774	1725.25
984.073	1728.64
984.372	1703.78
984.67	1685.25
984.969	1685.03
985.267	1673.73
985.566	1678.7
985.864	1649.77
986.162	1676.66
986.461	1655.87
986.759	1672.82
987.057	1631.69
987.355	1645.25
987.653	1641.64
987.951	1649.1
988.249	1630.34
988.547	1615.2
988.844	1595.54
989.142	1563
989.44	1569.55
989.737	1589.21
990.035	1563.22
990.332	1577.01
990.63	1569.78
990.927	1586.5
991.224	1558.02
991.521	1555.31
991.819	1510.12
992.116	1523.67
992.413	1551.92
992.71	1531.36
993.006	1513.28
993.303	1484.13
993.6	1483
993.897	1517.8
994.193	1505.37
994.49	1479.83
994.787	1470.57
995.083	1477.12
995.379	1450.91
995.676	1450.68
995.972	1429.44
996.268	1433.06
996.565	1443.22
996.861	1409.78
997.157	1437.58
997.453	1417.91
997.749	1431.7
998.044	1396.9
998.34	1405.03
998.636	1409.1
998.932	1382.66
999.227	1394.19
999.523	1366.62
999.818	1378.82
1000.114	1352.15
1000.409	1372.04
1000.704	1353.06
1001	1338.14
1001.295	1331.14
1001.59	1323.91
1001.885	1334.08
1002.18	1332.27
1002.475	1294.53
1002.77	1294.53
1003.065	1301.76
1003.359	1307.64
1003.654	1280.74
1003.949	1288.88
1004.243	1288.65
1004.538	1281.65
1004.832	1266.05
1005.127	1249.56
1005.421	1259.27
1005.715	1263.12
1006.009	1262.21
1006.304	1242.55
1006.598	1219.73
1006.892	1202.1
1007.186	1203.46
1007.48	1198.03
1007.773	1174.76
1008.067	1178.82
1008.361	1170.92
1008.655	1171.59
1008.948	1184.47
1009.242	1151.71
1009.535	1162.1
1009.829	1178.6
1010.122	1133.18
1010.415	1155.77
1010.708	1124.82
1011.001	1125.27
1011.295	1165.72
1011.588	1134.08
1011.881	1147.19
1012.173	1117.81
1012.466	1099.05
1012.759	1064.7
1013.052	1102.67
1013.344	1096.79
1013.637	1081.2
1013.93	1104.48
1014.222	1065.38
1014.514	1078.49
1014.807	1058.83
1015.099	1065.16
1015.391	1063.57
1015.683	1064.48
1015.976	1034.87
1016.268	1019.06
1016.56	1045.27
1016.851	1024.03
1017.143	1027.19
1017.435	1003.46
1017.727	989.68
1018.018	1018.38
1018.31	989.9
1018.602	1003.24
1018.893	1007.08
1019.185	979.96
1019.476	969.11
1019.767	997.81
1020.058	966.4
1020.35	965.72
1020.641	937.02
1020.932	959.4
1021.223	955.78
1021.514	923.01
1021.804	945.84
1022.095	926.63
1022.386	920.98
1022.677	941.09
1022.967	924.37
1023.258	919.17
1023.548	905.16
1023.839	905.84
1024.129	918.72
1024.419	899.51
1024.709	898.38
1025	880.3
1025.29	883.01
1025.58	855.44
1025.87	870.58
1026.16	877.82
1026.449	871.71
1026.739	845.27
1027.029	839.4
1027.319	833.98
1027.608	831.49
1027.898	818.38
1028.187	832.85
1028.477	833.52
1028.766	811.38
1029.055	803.69
1029.344	800.76
1029.634	827.87
1029.923	801.89
1030.212	800.3
1030.501	778.16
1030.79	799.17
1031.078	782
1031.367	788.55
1031.656	755.33
1031.945	757.82
1032.233	760.76
1032.522	766.18
1032.81	767.31
1033.099	760.53
1033.387	732.96
1033.675	745.84
1033.963	759.85
1034.251	742.68
1034.54	741.77
1034.828	718.72
1035.116	724.15
1035.403	712.4
1035.691	696.13
1035.979	724.6
1036.267	713.98
1036.554	694.09
1036.842	729.35
1037.129	705.39
1037.417	696.58
1037.704	699.06
1037.992	694.09
1038.279	676.69
1038.566	657.71
1038.853	657.71
1039.14	657.71
