Data from foam2_polystyrene_foam_FLMS001491_00087.txt Node
Date: Wed Feb 08 10:58:38 GMT 2017
User: dcchb
Spectrometer: FLMS00149
Trigger mode: 0
Integration Time (sec): 2.000000E-2
Scans to average: 10
Electric dark correction enabled: true
Nonlinearity correction enabled: false
Boxcar width: 0
XAxis mode: Wavelengths
Number of Pixels in Spectrum: 2048
>>>>>Begin Spectral Data<<<<<
341.393	4.65
341.776	4.65
342.16	4.65
342.543	-71.96
342.927	-69.7
343.31	-63.37
343.693	-65.86
344.077	-66.31
344.46	-54.11
344.843	-57.72
345.226	-46.2
345.61	-31.51
345.993	-7.78
346.376	-4.84
346.759	17.75
347.142	17.3
347.525	37.87
347.908	26.34
348.291	90.29
348.674	108.15
349.057	100.01
349.44	102.95
349.823	137.98
350.206	167.13
350.588	211.42
350.971	234.92
351.354	230.4
351.737	249.61
352.119	249.39
352.502	297.29
352.884	295.03
353.267	292.1
353.65	290.06
354.032	308.37
354.414	328.93
354.797	319.89
355.179	323.28
355.562	314.02
355.944	340.68
356.326	345.43
356.709	332.55
357.091	353.79
357.473	365.32
357.855	355.37
358.238	373
358.62	359.21
359.002	367.58
359.384	360.57
359.766	372.09
360.148	371.42
360.53	373.45
360.912	354.02
361.294	354.24
361.676	344.3
362.057	374.81
362.439	344.3
362.821	361.93
363.203	358.99
363.584	344.07
363.966	356.28
364.348	370.29
364.729	341.36
365.111	347.69
365.493	349.95
365.874	341.81
366.256	351.53
366.637	360.57
367.019	361.47
367.4	356.28
367.781	352.43
368.163	351.53
368.544	348.37
368.925	354.69
369.306	363.06
369.688	367.58
370.069	355.6
370.45	349.04
370.831	369.38
371.212	374.35
371.593	370.74
371.974	377.29
372.355	361.47
372.736	354.47
373.117	364.41
373.498	380.68
373.879	381.13
374.26	380.23
374.641	360.12
375.021	359.21
375.402	367.35
375.783	378.65
376.163	398.31
376.544	412.77
376.925	400.34
377.305	422.71
377.686	395.82
378.066	408.03
378.447	379.78
378.827	405.09
379.208	395.6
379.588	392.66
379.968	397.4
380.349	405.31
380.729	425.2
381.109	423.17
381.489	436.05
381.87	429.72
382.25	426.78
382.63	452.09
383.01	438.76
383.39	422.04
383.77	443.73
384.15	447.57
384.53	433.79
384.91	452.77
385.29	434.47
385.67	460.23
386.049	471.75
386.429	455.71
386.809	492.77
387.189	458.19
387.568	464.07
387.948	491.64
388.328	480.11
388.707	491.64
389.087	487.35
389.466	503.62
389.846	511.3
390.225	490.06
390.605	495.03
390.984	503.84
391.363	524.86
391.743	522.83
392.122	521.47
392.501	509.27
392.881	543.39
393.26	535.71
393.639	538.87
394.018	537.74
394.397	562.82
394.776	544.75
395.155	556.95
395.534	542.03
395.913	575.25
396.292	572.09
396.671	585.65
397.05	591.3
397.429	584.29
397.808	590.85
398.186	602.82
398.565	589.49
398.944	589.04
399.323	627.23
399.701	614.8
400.08	617.29
400.458	636.49
400.837	635.82
401.215	633.1
401.594	649.38
401.972	635.36
402.351	638.98
402.729	647.79
403.107	658.64
403.486	668.36
403.864	692.99
404.242	665.65
404.62	703.16
404.999	679.21
405.377	693.22
405.755	702.93
406.133	700.9
406.511	696.38
406.889	718.98
407.267	732.31
407.645	747.23
408.023	754.91
408.401	759.66
408.779	770.05
409.156	784.51
409.534	758.07
409.912	804.85
410.29	827.22
410.667	826.32
411.045	841.91
411.422	846.43
411.8	843.49
412.178	870.16
412.555	857.73
412.933	874.68
413.31	890.73
413.687	895.02
414.065	897.5
414.442	914
414.819	918.07
415.197	943.15
415.574	976.15
415.951	925.53
416.328	979.76
416.705	975.24
417.082	964.85
417.46	991.06
417.837	993.32
418.214	1012.98
418.591	1039.42
418.967	1013.89
419.344	1022.02
419.721	1050.27
420.098	1034.68
420.475	1080.1
420.852	1041.91
421.228	1068.12
421.605	1103.15
421.982	1108.57
422.358	1108.12
422.735	1118.52
423.111	1106.09
423.488	1139.53
423.864	1146.99
424.241	1175.92
424.617	1182.47
424.994	1186.08
425.37	1191.06
425.746	1187.44
426.123	1232.19
426.499	1232.41
426.875	1258.85
427.251	1281.68
427.627	1292.75
428.003	1288.68
428.379	1288.68
428.756	1316.93
429.132	1355.8
429.507	1370.94
429.883	1360.09
430.259	1433.08
430.635	1388.34
431.011	1403.03
431.387	1441.22
431.763	1473.76
432.138	1464.95
432.514	1503.59
432.89	1508.79
433.265	1548.33
433.641	1564.15
434.016	1563.93
434.392	1608.67
434.767	1633.3
435.143	1590.14
435.518	1640.54
435.894	1676.24
436.269	1709.01
436.644	1702.46
437.02	1738.16
437.395	1689.35
437.77	1762.34
438.145	1784.26
438.52	1817.93
438.895	1817.25
439.271	1825.16
439.646	1860.42
440.021	1879.85
440.395	1888.89
440.77	1892.96
441.145	1888.67
441.52	1932.05
441.895	1958.49
442.27	1973.41
442.645	1961.43
443.019	2001.88
443.394	1986.97
443.769	1974.99
444.143	2021.32
444.518	2042.11
444.892	2037.59
445.267	2090.02
445.641	2072.16
446.016	2096.12
446.39	2119.39
446.764	2130.92
447.139	2158.94
447.513	2188.32
447.887	2208.43
448.262	2192.39
448.636	2225.15
449.01	2224.7
449.384	2303.12
449.758	2284.59
450.132	2313.74
450.506	2335.21
450.88	2336.34
451.254	2357.58
451.628	2358.03
452.002	2410.46
452.376	2425.83
452.75	2440.74
453.123	2471.7
453.497	2518.93
453.871	2475.77
454.244	2572.49
454.618	2573.62
454.992	2591.25
455.365	2587.63
455.739	2697.68
456.112	2689.1
456.486	2699.72
456.859	2759.6
457.232	2796.89
457.606	2791.92
457.979	2839.6
458.352	2851.13
458.725	2932.03
459.099	2929.54
459.472	3008.86
459.845	3046.6
460.218	3034.62
460.591	3048.18
460.964	3065.36
461.337	3190.33
461.71	3203.66
462.083	3236.88
462.456	3234.39
462.829	3247.95
463.201	3306.93
463.574	3335.41
463.947	3341.73
464.32	3450.21
464.692	3457.21
465.065	3492.01
465.438	3535.63
465.81	3578.79
466.183	3614.04
466.555	3690.43
466.928	3699.92
467.3	3714.38
467.672	3772.23
468.045	3901.27
468.417	3891.78
468.789	3901.95
469.161	3971.77
469.534	4049.06
469.906	4119.79
470.278	4170.64
470.65	4223.07
471.022	4268.49
471.394	4316.4
471.766	4387.58
472.138	4439.56
472.51	4510.74
472.882	4598.65
473.253	4634.81
473.625	4725.43
473.997	4770.17
474.369	4883.16
474.74	4882.48
475.112	4972.2
475.484	5001.58
475.855	5092.87
476.227	5145.53
476.598	5316.82
476.97	5353.21
477.341	5493.77
477.713	5525.86
478.084	5558.85
478.455	5737.83
478.827	5809.24
479.198	6027.99
479.569	5973.53
479.94	6173.98
480.311	6170.59
480.682	6311.83
481.053	6484.48
481.424	6557.69
481.795	6655.77
482.166	6683.12
482.537	6797.01
482.908	6909.55
483.279	7033.61
483.65	7152.93
484.021	7305.47
484.391	7338.47
484.762	7466.82
485.133	7512.25
485.503	7630.89
485.874	7874.5
486.244	7893.7
486.615	8025.68
486.985	8094.83
487.356	8300.47
487.726	8382.51
488.097	8489.85
488.467	8525.78
488.837	8715.6
489.207	8831.53
489.578	8927.58
489.948	9026.33
490.318	9227.23
490.688	9219.09
491.058	9298.19
491.428	9498.86
491.798	9639.87
492.168	9724.17
492.538	9751.96
492.908	9842.81
493.278	10011.39
493.648	10043.7
494.017	10185.17
494.387	10219.52
494.757	10338.61
495.126	10492.73
495.496	10516.46
495.866	10600.75
496.235	10633.07
496.605	10735.89
496.974	10859.95
497.344	11092.26
497.713	10990.12
498.082	11157.12
498.452	11294.97
498.821	11266.27
499.19	11414.29
499.559	11515.3
499.928	11522.99
500.298	11633.95
500.667	11720.95
501.036	11715.07
501.405	11926.82
501.774	11952.58
502.143	12120.71
502.512	12080.04
502.88	12106.25
503.249	12239.13
503.618	12394.38
503.987	12474.83
504.356	12466.92
504.724	12575.39
505.093	12683.86
505.462	12728.83
505.83	12896.74
506.199	12961.82
506.567	13048.6
506.936	13101.7
507.304	13276.61
507.672	13295.37
508.041	13487.68
508.409	13524.29
508.777	13641.35
509.145	13701.01
509.514	13810.84
509.882	13847.67
510.25	13947.56
510.618	14048.57
510.986	14095.58
511.354	14249.7
511.722	14328.56
512.09	14479.52
512.458	14501.89
512.826	14616.92
513.193	14660.76
513.561	14729.01
513.929	14943.91
514.297	15008.55
514.664	15062.56
515.032	15256.45
515.4	15315.66
515.767	15445.14
516.135	15496.67
516.502	15528.31
516.869	15809.65
517.237	15870.44
517.604	15835.64
517.972	16015.75
518.339	16130.55
518.706	16211.68
519.073	16343.43
519.44	16422.52
519.808	16667.49
520.175	16663.87
520.542	16816.41
520.909	17046.46
521.276	17056.85
521.643	17264.53
522.009	17402.38
522.376	17540.23
522.743	17612.77
523.11	17829.04
523.477	17944.29
523.843	18007.11
524.21	18207.33
524.577	18431.51
524.943	18525.97
525.31	18625.17
525.676	18780.2
526.043	18844.83
526.409	19107.65
526.776	19271.48
527.142	19274.2
527.508	19382.22
527.874	19595.32
528.241	19733.85
528.607	19834.41
528.973	20019.26
529.339	20020.62
529.705	20369.99
530.071	20453.6
530.437	20477.55
530.803	20622.64
531.169	20767.04
531.535	20659.02
531.901	20770.88
532.267	20997.99
532.632	21129.52
532.998	21168.84
533.364	21379.68
533.73	21432.56
534.095	21607.02
534.461	21671.2
534.826	21830.51
535.192	21886.11
535.557	21943.28
535.923	22016.05
536.288	22099.43
536.653	22254.68
537.019	22151.86
537.384	22355.92
537.749	22419.88
538.114	22561.79
538.479	22621
538.845	22674.79
539.21	22737.38
539.575	22845.85
539.94	22878.62
540.305	23039.52
540.67	23110.48
541.034	23082.23
541.399	23257.14
541.764	23354.32
542.129	23460.53
542.494	23456.69
542.858	23676.11
543.223	23679.28
543.587	23698.49
543.952	23782.78
544.316	23867.07
544.681	23909.1
545.045	24080.62
545.41	24175.99
545.774	24276.32
546.138	24439.26
546.503	24448.07
546.867	24370.56
547.231	24730.1
547.595	24787.95
547.959	24869.08
548.324	24766.26
548.688	24944.33
549.052	24998.11
549.416	24960.15
549.779	25078.11
550.143	25224.32
550.507	25337.99
550.871	25466.12
551.235	25426.35
551.599	25632.45
551.962	25705.67
552.326	25833.35
552.689	26116.5
553.053	25886.45
553.417	25985.21
553.78	26390.62
554.143	26236.05
554.507	26376.83
554.87	26514.91
555.234	26711.06
555.597	26666.54
555.96	26835.58
556.323	26914.22
556.686	26862.7
557.05	27149.02
557.413	27268.56
557.776	27114.89
558.139	27494.77
558.502	27560.53
558.865	27689.57
559.228	27909.45
559.59	27884.37
559.953	28085.26
560.316	28338.14
560.679	28354.18
561.041	28581.07
561.404	28611.35
561.767	28809.09
562.129	28741.74
562.492	29123.2
562.854	29077.78
563.217	29127.5
563.579	29311.9
563.941	29428.28
564.304	29534.49
564.666	29734.03
565.028	29821.94
565.39	29884.54
565.753	30121.82
566.115	30252.89
566.477	30283.62
566.839	30300.57
567.201	30547.8
567.563	30589.83
567.925	30812.65
568.287	30719.55
568.648	30945.53
569.01	31051.51
569.372	31261.9
569.734	31159.31
570.095	31369.02
570.457	31538.51
570.819	31549.81
571.18	31684.04
571.542	31829.57
571.903	31878.38
572.265	32045.61
572.626	31996.12
572.987	32067.08
573.349	32291.48
573.71	32344.14
574.071	32387.3
574.432	32377.13
574.794	32612.38
575.155	32597.01
575.516	32570.8
575.877	32654.18
576.238	32850.34
576.599	32835.42
576.96	32927.85
577.32	33077.22
577.681	33177.56
578.042	33227.05
578.403	33167.62
578.763	33193.38
579.124	33298.23
579.485	33517.89
579.845	33444.67
580.206	33424.33
580.566	33582.75
580.927	33420.49
581.287	33593.82
581.648	33549.53
582.008	33699.81
582.368	33572.35
582.728	33807.83
583.089	33685.12
583.449	33573.26
583.809	33590.88
584.169	33695.74
584.529	33693.03
584.889	33878.78
585.249	33760.6
585.609	33541.39
585.969	33852.8
586.329	33712.69
586.688	33791.78
587.048	33749.07
587.408	33610.99
587.768	33728.05
588.127	33723.08
588.487	33721.95
588.846	33865.23
589.206	33661.61
589.565	33594.5
589.925	33798.56
590.284	33745
590.643	33775.74
591.003	33870.2
591.362	33945
591.721	33827.03
592.08	33947.48
592.44	33950.87
592.799	33881.72
593.158	34018.44
593.517	33923.08
593.876	34103.41
594.235	33879.01
594.593	33984.32
594.952	34137.76
595.311	33958.1
595.67	33893.02
596.029	34170.3
596.387	34172.56
596.746	34158.1
597.104	33964.43
597.463	34077.88
597.822	34155.84
598.18	33975.5
598.538	33978.89
598.897	34215.05
599.255	34009.85
599.613	34568.03
599.972	34071.55
600.33	34459.79
600.688	34340.47
601.046	34339.11
601.404	34435.61
601.762	34415.27
602.12	34559.9
602.478	34570.74
602.836	34703.85
603.194	34462.5
603.552	34566.45
603.91	34605.32
604.268	34611.42
604.625	34629.5
604.983	34883.96
605.341	34605.09
605.698	34853.45
606.056	34952.2
606.413	34849.38
606.771	35008.02
607.128	35047.79
607.485	34743.39
607.843	34759.67
608.2	35105.87
608.557	35020
608.914	34998.98
609.272	35179.99
609.629	35207.56
609.986	35235.13
610.343	35149.03
610.7	35237.84
611.057	35246.43
611.414	35341.34
611.771	35274.23
612.127	35403.72
612.484	35401
612.841	35585.86
613.198	35482.58
613.554	35440.78
613.911	35637.61
614.267	35648.23
614.624	35498.4
614.98	35769.81
615.337	35711.96
615.693	35807.32
616.05	35758.06
616.406	35953.53
616.762	35664.95
617.118	35827.89
617.475	35935.91
617.831	36012.06
618.187	35920.76
618.543	35945.4
618.899	36059.74
619.255	36065.39
619.611	36105.17
619.967	36305.16
620.323	36325.95
620.678	36232.62
621.034	36017.03
621.39	36179.97
621.746	36135.45
622.101	36495.66
622.457	36225.39
622.812	36243.92
623.168	36339.96
623.523	36376.8
623.879	36476
624.234	36290.92
624.589	36291.15
624.945	36484.82
625.3	36234.2
625.655	36397.36
626.01	36405.27
626.365	36273.07
626.72	36334.76
627.075	36233.3
627.43	36296.35
627.785	36186.75
628.14	36286.4
628.495	36303.35
628.85	36295.44
629.205	36215.22
629.559	36382.45
629.914	36236.01
630.269	36063.13
630.623	36042.12
630.978	36083.47
631.332	36104.04
631.687	36136.8
632.041	36018.84
632.396	36024.72
632.75	35891.39
633.104	36013.87
633.459	35776.36
633.813	35665.18
634.167	35791.28
634.521	35626.08
634.875	35731.84
635.229	35565.07
635.583	35464.73
635.937	35513.09
636.291	35479.65
636.645	35571.85
636.999	35491.85
637.352	35558.06
637.706	35285.75
638.06	35409.14
638.413	35312.19
638.767	35168.24
639.121	35386.99
639.474	35138.41
639.828	34977.29
640.181	35021.81
640.534	35007.57
640.888	34816.39
641.241	34824.75
641.594	34954.46
641.947	34929.15
642.301	34765.54
642.654	34763.28
643.007	34743.85
643.36	34738.65
643.713	34639.67
644.066	34803.73
644.419	34490.52
644.771	34445.32
645.124	34033.81
645.477	33923.3
645.83	33736.19
646.182	33511.11
646.535	33410.77
646.888	33596.08
647.24	33388.85
647.593	33523.99
647.945	33453.26
648.298	33265.92
648.65	33173.94
649.002	33209.2
649.355	33240.16
649.707	33218.91
650.059	33319.93
650.411	33665.68
650.763	33723.99
651.115	33990.87
651.467	33915.85
651.819	33887.37
652.171	33957.65
652.523	33670.2
652.875	33620.26
653.227	33533.26
653.578	33740.71
653.93	33715.17
654.282	33518.79
654.633	33416.2
654.985	33498.68
655.337	33471.11
655.688	33556.31
656.039	33600.15
656.391	33314.28
656.742	33415.75
657.094	33377.33
657.445	33448.06
657.796	33362.87
658.147	33310.21
658.498	33208.97
658.849	33268.63
659.2	33191.34
659.551	33113.15
659.902	33232.02
660.253	33166.49
660.604	33168.97
660.955	33045.59
661.306	33145.92
661.656	33115.19
662.007	33026.15
662.358	33072.7
662.708	32854.4
663.059	32986.6
663.409	32787.97
663.76	32991.12
664.11	33060.05
664.461	32838.13
664.811	32922.65
665.161	32882.88
665.511	32690.79
665.862	32704.58
666.212	32782.99
666.562	32685.14
666.912	32716.1
667.262	32719.72
667.612	32687.18
667.962	32754.52
668.312	32627.29
668.662	32790.9
669.011	32625.94
669.361	32628.42
669.711	32561.53
670.06	32635.65
670.41	32498.71
670.76	32376
671.109	32552.49
671.459	32459.61
671.808	32406.28
672.157	32583.23
672.507	32270.69
672.856	32298.49
673.205	32214.42
673.554	32410.8
673.904	32289.9
674.253	32417.58
674.602	32205.16
674.951	31738.95
675.3	31651.95
675.649	32155.67
675.998	32070.02
676.346	31938.5
676.695	32065.5
677.044	31863.02
677.393	32045.16
677.741	31944.37
678.09	31849.23
678.438	31862.11
678.787	31845.62
679.135	31792.96
679.484	31612.86
679.832	31608.34
680.181	31629.13
680.529	31635.23
680.877	31644.04
681.225	31465.06
681.573	31611.5
681.922	31421.45
682.27	31367.44
682.618	31276.59
682.966	31164.05
683.314	31293.09
683.661	31230.27
684.009	31062.36
684.357	30978.52
684.705	30915.92
685.053	31002.25
685.4	30893.78
685.748	30870.5
686.095	30812.42
686.443	30585.76
686.79	30478.65
687.138	30603.84
687.485	30461.25
687.832	30571.3
688.18	30488.14
688.527	30240.69
688.874	30216.28
689.221	30123.85
689.568	30112.56
689.915	30030.07
690.262	30057.19
690.609	29939.45
690.956	29814.71
691.303	29787.14
691.65	29635.96
691.997	29760.7
692.344	29475.74
692.69	29488.17
693.037	29379.02
693.383	29243.88
693.73	29245.46
694.077	29153.94
694.423	29101.28
694.769	28982.19
695.116	29021.06
695.462	28911.46
695.808	28736.09
696.155	28861.29
696.501	28590.79
696.847	28563.9
697.193	28363.9
697.539	28419.72
697.885	28292.04
698.231	28095.21
698.577	28207.97
698.923	28163.68
699.269	28100.41
699.614	27808.89
699.96	27813.18
700.306	27861.99
700.651	27850.92
700.997	27636.91
701.342	27723.69
701.688	27555.11
702.033	27484.83
702.379	27335.23
702.724	27396.47
703.069	27440.31
703.415	27121.45
703.76	27178.85
704.105	27214.1
704.45	27080.09
704.795	26932.07
705.14	26919.87
705.485	26899.53
705.83	26679.43
706.175	26745.86
706.52	26640.33
706.865	26536.15
707.209	26559.88
707.554	26453.44
707.899	26532.08
708.243	26305.88
708.588	26236.27
708.932	26165.31
709.277	26059.78
709.621	26087.35
709.966	25931.42
710.31	25976.85
710.654	25799.9
710.998	25890.97
711.342	25798.54
711.687	25818.43
712.031	25650.3
712.375	25609.85
712.719	25550.19
713.063	25589.74
713.407	25617.98
713.75	25514.94
714.094	25384.54
714.438	25302.96
714.782	25273.36
715.125	25253.93
715.469	25218
715.812	25149.3
716.156	24846.71
716.499	24859.36
716.843	24960.6
717.186	24877.89
717.53	24976.87
717.873	24915.4
718.216	24842.86
718.559	24814.16
718.902	24524.91
719.246	24714.96
719.589	24577.79
719.932	24472.03
720.275	24412.82
720.617	24342.99
720.96	24401.29
721.303	24338.92
721.646	24250.34
721.989	24146.38
722.331	24283.56
722.674	24127.85
723.016	24115.2
723.359	24087.86
723.701	24185.71
724.044	23941.87
724.386	23919.27
724.729	23937.12
725.071	23994.52
725.413	23885.6
725.755	23831.59
726.097	23822.33
726.439	23706.17
726.782	23699.39
727.124	23720.63
727.465	23539.85
727.807	23579.39
728.149	23535.1
728.491	23522.45
728.833	23441.54
729.175	23397.03
729.516	23470.7
729.858	23327.2
730.199	23343.24
730.541	23351.38
730.882	23204.04
731.224	23259.18
731.565	23182.12
731.906	23110.48
732.248	23089.69
732.589	23045.62
732.93	23014.44
733.271	23026.19
733.612	23018.73
733.953	22998.39
734.294	22923.59
734.635	22863.71
734.976	22841.11
735.317	22848.57
735.658	22808.79
735.999	22907.77
736.339	22709.59
736.68	22839.98
737.021	22657.84
737.361	22629.14
737.702	22776.03
738.042	22626.88
738.383	22561.12
738.723	22502.13
739.063	22524.96
739.404	22498.07
739.744	22404.06
740.084	22360.22
740.424	22303.04
740.764	22330.16
741.104	22326.55
741.444	22183.27
741.784	22090.39
742.124	22242.71
742.464	22187.11
742.804	22070.06
743.143	22088.81
743.483	21960
743.823	21970.4
744.162	21873
744.502	21850.85
744.841	21844.52
745.181	21853.34
745.52	21751.19
745.86	21700.57
746.199	21754.13
746.538	21690.63
746.877	21748.03
747.216	21722.04
747.556	21686.11
747.895	21618.77
748.234	21503.06
748.573	21446.57
748.911	21415.61
749.25	21423.07
749.589	21372.9
749.928	21316.85
750.267	21336.97
750.605	21347.14
750.944	21283.86
751.283	21231.89
751.621	21206.58
751.96	21148.72
752.298	21201.6
752.636	21193.02
752.975	21043.87
753.313	20964.32
753.651	21102.62
753.989	20856.98
754.327	20871.89
754.666	20823.08
755.004	20808.62
755.342	20776.53
755.679	20663.31
756.017	20588.96
756.355	20583.77
756.693	20514.84
757.031	20654.95
757.368	20384.9
757.706	20359.14
758.044	20329.08
758.381	20366.6
758.719	20321.17
759.056	20300.61
759.394	20236.88
759.731	20041.63
760.068	20032.59
760.405	19945.82
760.743	19854.07
761.08	19955.31
761.417	19787.4
761.754	19765.26
762.091	19701.53
762.428	19686.39
762.765	19513.29
763.102	19593.51
763.438	19536.79
763.775	19337.25
764.112	19368.88
764.449	19293.63
764.785	19218.15
765.122	19104.94
765.458	19143.13
765.795	19079.63
766.131	18996.24
766.467	18974.54
766.804	18849.8
767.14	18823.81
767.476	18769.8
767.812	18674.89
768.148	18786.07
768.485	18581.79
768.821	18541.79
769.157	18516.93
769.492	18498.4
769.828	18480.77
770.164	18309.48
770.5	18193.1
770.836	18116.26
771.171	18122.81
771.507	18009.6
771.842	17940.9
772.178	17936.6
772.513	17827
772.849	17860
773.184	17652.77
773.519	17765.31
773.855	17591.08
774.19	17547.01
774.525	17507.69
774.86	17417.97
775.195	17387.24
775.53	17332.33
775.865	17300.92
776.2	17115.38
776.535	17001.94
776.87	17115.84
777.205	16876.52
777.539	16855.28
777.874	16991.54
778.209	16738.9
778.543	16702.51
778.878	16606.7
779.212	16637.88
779.547	16533.93
779.881	16572.35
780.215	16289.42
780.55	16443.99
780.884	16320.38
781.218	16300.26
781.552	16372.13
781.886	16197.22
782.22	16133.94
782.554	16022.08
782.888	15787.73
783.222	15869.54
783.556	15765.81
783.889	15774.18
784.223	15634.74
784.557	15704.8
784.89	15611.69
785.224	15625.03
785.557	15463.45
785.891	15427.52
786.224	15399.27
786.558	15310.23
786.891	15150.01
787.224	15121.54
787.557	15125.15
787.891	15076.34
788.224	15044.48
788.557	15037.92
788.89	14950.69
789.223	14889.45
789.556	14719.74
789.888	14720.87
790.221	14701.21
790.554	14637.48
790.887	14500.54
791.219	14584.6
791.552	14481.33
791.884	14461.22
792.217	14433.42
792.549	14392.74
792.882	14186.87
793.214	14207.44
793.546	14245.85
793.879	14106.87
794.211	14011.06
794.543	14065.07
794.875	14093.54
795.207	14111.85
795.539	13938.52
795.871	13943.72
796.203	13870.04
796.535	13714.12
796.867	13696.94
797.198	13711.18
797.53	13594.12
797.862	13634.57
798.193	13600
798.525	13479.55
798.856	13449.49
799.188	13310.96
799.519	13356.39
799.85	13212.89
800.182	13306.9
800.513	13210.18
800.844	13158.65
801.175	13294.24
801.506	13171.98
801.837	13027.58
802.168	13016.51
802.499	12946.68
802.83	12882.05
803.161	12886.34
803.491	12976.06
803.822	12941.48
804.153	12812.9
804.483	12739.91
804.814	12583.53
805.145	12625.33
805.475	12632.56
805.805	12616.97
806.136	12527.48
806.466	12558.67
806.796	12463.3
807.126	12404.09
807.457	12348.28
807.787	12389.63
808.117	12339.69
808.447	12241.16
808.777	12282.52
809.107	12206.81
809.436	12237.32
809.766	12188.51
810.096	12132.69
810.426	12041.84
810.755	12054.5
811.085	12115.74
811.414	12027.61
811.744	11948.51
812.073	11976.31
812.403	11960.94
812.732	11902.41
813.061	11831.68
813.39	11765.02
813.719	11731.12
814.049	11841.62
814.378	11721.85
814.707	11671.91
815.036	11698.35
815.365	11607.73
815.693	11527.06
816.022	11518.92
816.351	11506.27
816.68	11395.76
817.008	11449.77
817.337	11367.51
817.665	11300.85
817.994	11400.28
818.322	11308.08
818.651	11244.35
818.979	11182.43
819.307	11253.84
819.636	11147.63
819.964	11133.85
820.292	11224.69
820.62	11178.36
820.948	11099.5
821.276	11157.35
821.604	11115.09
821.932	11066.05
822.259	11163.22
822.587	11083
822.915	11049.55
823.243	11134.75
823.57	11012.04
823.898	11129.1
824.225	11064.24
824.553	11024.02
824.88	11116.67
825.207	11175.2
825.535	11065.82
825.862	11143.34
826.189	11107.18
826.516	11096.78
826.843	11137.01
827.17	11088.88
827.497	11138.59
827.824	11180.4
828.151	11160.51
828.478	11162.32
828.805	11265.37
829.131	11063.34
829.458	11131.59
829.785	11004.58
830.111	11097.91
830.438	11167.29
830.764	11102.21
831.09	11121.64
831.417	11028.09
831.743	11020.63
832.069	11075.32
832.395	11057.24
832.722	11033.74
833.048	10968.43
833.374	10990.35
833.7	10998.93
834.026	10996.9
834.351	11059.05
834.677	10948.31
835.003	11017.24
835.329	10946.51
835.654	10949.67
835.98	10892.04
836.306	10918.26
836.631	10883.46
836.956	10925.49
837.282	10898.6
837.607	10869.9
837.932	10746.96
838.258	10836.68
838.583	10745.16
838.908	10763.91
839.233	10706.06
839.558	10657.7
839.883	10687.76
840.208	10628.32
840.533	10617.25
840.858	10641.2
841.182	10672.84
841.507	10641.2
841.832	10551.26
842.156	10539.06
842.481	10536.35
842.805	10520.98
843.13	10494.77
843.454	10481.43
843.778	10333.64
844.103	10374.09
844.427	10359.4
844.751	10307.2
845.075	10311.72
845.399	10217.71
845.723	10123.25
846.047	10235.56
846.371	10149.92
846.695	10090.94
847.019	10054.33
847.343	9984.5
847.666	9955.35
847.99	9872.86
848.313	9920.54
848.637	9819.08
848.96	9782.47
849.284	9788.8
849.607	9740.44
849.931	9737.27
850.254	9619.31
850.577	9646.2
850.9	9482.59
851.223	9559.65
851.546	9510.84
851.869	9424.29
852.192	9464.74
852.515	9415.25
852.838	9349.49
853.161	9390.39
853.483	9298.41
853.806	9259.77
854.129	9278.98
854.451	9233.33
854.774	9219.77
855.096	9191.98
855.419	9131.41
855.741	9121.02
856.063	9044.86
856.385	9069.49
856.708	9035.37
857.03	9068.36
857.352	9081.02
857.674	9005.31
857.996	8971.87
858.318	8920.57
858.64	8958.76
858.961	8873.11
859.283	8859.1
859.605	8891.42
859.926	8902.72
860.248	8807.35
860.57	8736.39
860.891	8766.68
861.212	8746.79
861.534	8732.1
861.855	8707.02
862.176	8660.46
862.498	8612.1
862.819	8695.27
863.14	8594.93
863.461	8596.06
863.782	8597.64
864.103	8602.84
864.424	8489.17
864.745	8534.37
865.065	8509.51
865.386	8490.75
865.707	8527.36
866.027	8485.55
866.348	8438.78
866.668	8392.67
866.989	8388.38
867.309	8393.8
867.63	8389.06
867.95	8364.2
868.27	8341.6
868.59	8292.11
868.91	8279.23
869.23	8299.12
869.55	8281.72
869.87	8311.32
870.19	8278.78
870.51	8240.59
870.83	8308.61
871.15	8222.51
871.469	8206.24
871.789	8237.2
872.109	8189.06
872.428	8137.09
872.748	8205.34
873.067	8168.5
873.386	8140.93
873.706	8091.67
874.025	8116.98
874.344	8082.85
874.663	8083.98
874.982	8076.07
875.301	8055.73
875.62	8060.25
875.939	8032.91
876.258	8069.97
876.577	8007.6
876.896	7961.95
877.214	7918.56
877.533	7909.52
877.852	7973.7
878.17	7916.53
878.489	7976.87
878.807	7927.6
879.125	7875.63
879.444	7903.2
879.762	7867.26
880.08	7910.65
880.398	7887.6
880.716	7866.81
881.034	7782.52
881.352	7787.27
881.67	7807.83
881.988	7761.5
882.306	7740.49
882.624	7747.49
882.941	7815.29
883.259	7685.12
883.577	7690.09
883.894	7703.88
884.212	7630.66
884.529	7653.71
884.846	7617.1
885.164	7604.22
885.481	7596.31
885.798	7599.93
886.115	7580.72
886.432	7601.28
886.75	7551.34
887.067	7564.9
887.383	7453.26
887.7	7510.44
888.017	7448.29
888.334	7421.4
888.651	7373.72
888.967	7391.8
889.284	7328.97
889.6	7296.88
889.917	7277.68
890.233	7302.76
890.55	7233.38
890.866	7309.99
891.182	7314.51
891.498	7200.16
891.815	7265.47
892.131	7200.62
892.447	7181.41
892.763	7119.04
893.079	7135.31
893.395	7133.95
893.71	7136.44
894.026	7101.86
894.342	7093.95
894.657	7101.64
894.973	7054.86
895.289	6976.44
895.604	6958.36
895.92	6989.77
896.235	6968.76
896.55	6959.49
896.865	6889.66
897.181	6907.52
897.496	6880.17
897.811	6828.65
898.126	6824.35
898.441	6822.77
898.756	6750.01
899.071	6728.54
899.386	6745.49
899.7	6651.25
900.015	6671.82
900.33	6625.49
900.644	6658.26
900.959	6635.43
901.273	6556.56
901.588	6585.72
901.902	6537.81
902.216	6510.24
902.531	6512.95
902.845	6420.75
903.159	6397.7
903.473	6398.38
903.787	6412.84
904.101	6355.89
904.415	6337.36
904.729	6276.57
905.042	6313.18
905.356	6233.64
905.67	6197.03
905.984	6254.88
906.297	6220.98
906.611	6188.66
906.924	6160.64
907.237	6177.37
907.551	6117.25
907.864	6046.75
908.177	6045.84
908.491	6083.81
908.804	6010.36
909.117	6002
909.43	5979.63
909.743	5972.85
910.056	5899.18
910.368	5912.97
910.681	5904.38
910.994	5827.54
911.307	5830.03
911.619	5836.58
911.932	5813.53
912.244	5742.57
912.557	5784.38
912.869	5708
913.181	5745.06
913.494	5705.06
913.806	5623.26
914.118	5639.07
914.43	5607.66
914.742	5576.48
915.054	5567.89
915.366	5561.56
915.678	5500.77
915.99	5485.63
916.302	5507.1
916.613	5438.63
916.925	5415.8
917.236	5437.5
917.548	5410.83
917.859	5377.84
918.171	5355.69
918.482	5339.65
918.794	5312.53
919.105	5293.77
919.416	5226.88
919.727	5189.37
920.038	5241.8
920.349	5145.98
920.66	5178.52
920.971	5142.36
921.282	5077.28
921.593	5111.63
921.903	5071.41
922.214	5076.15
922.525	5040.22
922.835	5011.52
923.146	5000.9
923.456	5007.23
923.767	4983.27
924.077	4979.43
924.387	4925.87
924.697	4900.79
925.008	4851.98
925.318	4835.48
925.628	4846.78
925.938	4796.84
926.248	4827.34
926.558	4809.27
926.867	4803.62
927.177	4747.57
927.487	4709.16
927.796	4670.74
928.106	4664.86
928.416	4666.22
928.725	4645.88
929.034	4625.77
929.344	4666.67
929.653	4618.99
929.962	4598.65
930.271	4545.09
930.581	4502.83
930.89	4512.32
931.199	4513
931.508	4493.79
931.817	4491.76
932.125	4475.49
932.434	4458.09
932.743	4401.82
933.051	4349.84
933.36	4390.52
933.669	4326.34
933.977	4329.28
934.286	4300.35
934.594	4309.17
934.902	4274.37
935.21	4269.39
935.519	4232.78
935.827	4201.37
936.135	4208.83
936.443	4156.63
936.751	4126.57
937.059	4135.16
937.367	4112.11
937.674	4086.8
937.982	4125.67
938.29	4092.22
938.597	4094.26
938.905	4041.6
939.213	4070.08
939.52	4016.29
939.827	4028.5
940.135	4005.67
940.442	4003.19
940.749	3978.55
941.056	3966.8
941.363	3917.31
941.67	3907.14
941.977	3876.86
942.284	3874.83
942.591	3870.99
942.898	3863.08
943.205	3833.02
943.511	3814.04
943.818	3836.86
944.125	3773.36
944.431	3750.99
944.738	3735.62
945.044	3740.14
945.35	3727.71
945.657	3714.83
945.963	3693.59
946.269	3674.38
946.575	3647.94
946.881	3674.38
947.187	3660.6
947.493	3599.35
947.799	3619.47
948.105	3618.56
948.41	3551.22
948.716	3552.12
949.022	3548.06
949.327	3544.89
949.633	3482.75
949.938	3494.05
950.244	3499.24
950.549	3444.56
950.854	3457.21
951.16	3400.94
951.465	3396.65
951.77	3422.64
952.075	3376.54
952.38	3383.54
952.685	3337.44
952.99	3326.59
953.294	3313.03
953.599	3325.92
953.904	3324.56
954.209	3252.7
954.513	3296.09
954.818	3267.84
955.122	3276.2
955.426	3259.25
955.731	3218.57
956.035	3203.66
956.339	3180.38
956.643	3201.62
956.948	3138.58
957.252	3151.91
957.556	3135.19
957.86	3126.6
958.163	3070.33
958.467	3088.63
958.771	3111.01
959.075	3107.39
959.378	3072.36
959.682	3077.33
959.985	2998.47
960.289	3022.19
960.592	3005.02
960.896	2986.49
961.199	2956.89
961.502	2953.95
961.805	2965.02
962.108	2948.98
962.411	2957.79
962.714	2938.58
963.017	2917.34
963.32	2916.89
963.623	2925.7
963.926	2894.51
964.228	2867.85
964.531	2831.47
964.833	2850.9
965.136	2825.36
965.438	2808.87
965.741	2817.68
966.043	2778.81
966.345	2777.68
966.648	2770.22
966.95	2720.51
967.252	2760.73
967.554	2756.89
967.856	2706.27
968.158	2682.09
968.46	2681.41
968.761	2704.46
969.063	2680.96
969.365	2651.13
969.666	2639.15
969.968	2610.45
970.269	2598.7
970.571	2573.39
970.872	2581.08
971.174	2614.52
971.475	2578.82
971.776	2579.49
972.077	2584.47
972.378	2548.08
972.679	2540.63
972.98	2566.39
973.281	2540.63
973.582	2471.93
973.883	2491.14
974.183	2500.63
974.484	2516.9
974.785	2470.57
975.085	2462.89
975.386	2457.92
975.686	2462.21
975.986	2439.39
976.287	2406.62
976.587	2406.39
976.887	2399.16
977.187	2384.47
977.487	2382.89
977.787	2398.26
978.087	2365.26
978.387	2349.22
978.687	2363.68
978.987	2310.57
979.286	2330.46
979.586	2323.23
979.885	2282.78
980.185	2277.13
980.484	2246.62
980.784	2256.56
981.083	2277.81
981.382	2264.25
981.682	2256.11
981.981	2255.66
982.28	2236.68
982.579	2212.95
982.878	2194.65
983.177	2200.52
983.475	2189
983.774	2156.45
984.073	2170.47
984.372	2171.37
984.67	2165.72
984.969	2130.92
985.267	2153.52
985.566	2127.98
985.864	2103.35
986.162	2123.69
986.461	2036.01
986.759	2083.24
987.057	2053.63
987.355	2047.98
987.653	2064.93
987.951	2038.94
988.249	2059.73
988.547	1995.1
988.844	2029.45
989.142	2006.63
989.44	1984.71
989.737	1996.46
990.035	2002.79
990.332	1980.87
990.63	1959.62
990.927	1912.85
991.224	1945.61
991.521	1960.53
991.819	1929.34
992.116	1921.21
992.413	1920.53
992.71	1919.62
993.006	1880.53
993.303	1894.54
993.6	1872.62
993.897	1888.67
994.193	1879.17
994.49	1842.56
994.787	1854.09
995.083	1858.38
995.379	1821.1
995.676	1822.68
995.972	1826.52
996.268	1808.89
996.565	1795.56
996.861	1766.63
997.157	1790.14
997.453	1794.88
997.749	1776.8
998.044	1747.88
998.34	1758.05
998.636	1746.52
998.932	1722.34
999.227	1739.52
999.523	1711.72
999.818	1710.59
1000.114	1689.12
1000.409	1690.93
1000.704	1643.93
1001	1650.48
1001.295	1646.86
1001.59	1670.59
1001.885	1656.81
1002.18	1629.24
1002.475	1643.7
1002.77	1592.85
1003.065	1629.01
1003.359	1614.32
1003.654	1604.38
1003.949	1604.83
1004.243	1575.45
1004.538	1579.52
1004.832	1574.55
1005.127	1554.89
1005.421	1549.69
1005.715	1520.54
1006.009	1547.21
1006.304	1530.48
1006.598	1525.28
1006.892	1535.91
1007.186	1498.62
1007.48	1521.22
1007.773	1499.52
1008.067	1460.43
1008.361	1481.22
1008.655	1457.72
1008.948	1453.42
1009.242	1420.43
1009.535	1451.61
1009.829	1419.3
1010.122	1405.97
1010.415	1441.67
1010.708	1429.24
1011.001	1395.8
1011.295	1385.85
1011.588	1376.14
1011.881	1370.94
1012.173	1364.84
1012.466	1359.64
1012.759	1342.69
1013.052	1357.61
1013.344	1347.89
1013.637	1336.82
1013.93	1346.53
1014.222	1339.98
1014.514	1322.8
1014.807	1309.25
1015.099	1296.59
1015.391	1290.26
1015.683	1266.76
1015.976	1261.34
1016.268	1270.83
1016.56	1256.59
1016.851	1243.03
1017.143	1252.07
1017.435	1232.86
1017.727	1229.25
1018.018	1212.07
1018.31	1205.97
1018.602	1190.83
1018.893	1215.69
1019.185	1175.01
1019.476	1168.01
1019.767	1193.32
1020.058	1187.44
1020.35	1189.02
1020.641	1157.38
1020.932	1176.59
1021.223	1145.63
1021.514	1141.34
1021.804	1149.02
1022.095	1101.57
1022.386	1088.01
1022.677	1121.91
1022.967	1115.35
1023.258	1123.94
1023.548	1101.34
1023.839	1088.69
1024.129	1081.91
1024.419	1082.81
1024.709	1056.14
1025	1039.65
1025.29	1048.24
1025.58	1052.53
1025.87	1038.97
1026.16	1013.21
1026.449	1059.76
1026.739	1041.23
1027.029	1023.6
1027.319	1034.68
1027.608	1024.73
1027.898	1006.43
1028.187	998.07
1028.477	1030.38
1028.766	996.26
1029.055	975.47
1029.344	975.69
1029.634	970.72
1029.923	977.5
1030.212	966.88
1030.501	937.96
1030.79	947.45
1031.078	916.71
1031.367	906.54
1031.656	901.12
1031.945	929.37
1032.233	916.49
1032.522	898.41
1032.81	898.63
1033.099	872.42
1033.387	884.62
1033.675	877.17
1033.963	871.29
1034.251	889.6
1034.54	873.32
1034.828	890.73
1035.116	856.38
1035.403	862.93
1035.691	845.3
1035.979	854.12
1036.267	833.33
1036.554	841.01
1036.842	851.86
1037.129	811.63
1037.417	816.83
1037.704	821.12
1037.992	819.31
1038.279	807.79
1038.566	813.21
1038.853	813.21
1039.14	813.21
