Data from foam2_polystyrene_foam_FLMS001491_00010.txt Node
Date: Wed Feb 08 10:57:27 GMT 2017
User: dcchb
Spectrometer: FLMS00149
Trigger mode: 0
Integration Time (sec): 2.000000E-2
Scans to average: 10
Electric dark correction enabled: true
Nonlinearity correction enabled: false
Boxcar width: 0
XAxis mode: Wavelengths
Number of Pixels in Spectrum: 2048
>>>>>Begin Spectral Data<<<<<
341.393	-25.75
341.776	-25.75
342.16	-25.75
342.543	-49.93
342.927	-66.65
343.31	-50.15
343.693	-65.52
344.077	-47.89
344.46	-65.75
344.843	-68.68
345.226	-56.71
345.61	-21.23
345.993	-15.8
346.376	-26.43
346.759	4.99
347.142	33.46
347.525	17.41
347.908	67.13
348.291	89.5
348.674	81.14
349.057	124.53
349.44	120.91
349.823	129.05
350.206	166.79
350.588	201.59
350.971	244.53
351.354	262.15
351.737	249.5
352.119	261.25
352.502	269.39
352.884	283.85
353.267	287.69
353.65	313.68
354.032	307.8
354.414	321.59
354.797	326.11
355.179	316.62
355.562	327.92
355.944	341.02
356.326	354.36
356.709	333.34
357.091	358.65
357.473	355.94
357.855	365.65
358.238	367.69
358.62	357.97
359.002	345.32
359.384	388.7
359.766	365.43
360.148	365.88
360.53	359.1
360.912	329.27
361.294	353.68
361.676	354.36
362.057	357.74
362.439	346.9
362.821	362.26
363.203	342.6
363.584	334.02
363.966	369.95
364.348	363.62
364.729	357.07
365.111	352.77
365.493	332.89
365.874	336.28
366.256	338.99
366.637	328.82
367.019	334.47
367.4	356.39
367.781	364.75
368.163	357.97
368.544	341.25
368.925	339.89
369.306	359.55
369.688	344.19
370.069	350.29
370.45	367.24
370.831	341.47
371.212	343.06
371.593	360.23
371.974	362.94
372.355	350.06
372.736	342.6
373.117	345.99
373.498	355.94
373.879	373.11
374.26	364.07
374.641	366.56
375.021	352.77
375.402	382.15
375.783	371.53
376.163	412.66
376.544	400.23
376.925	384.64
377.305	372.66
377.686	368.37
378.066	388.7
378.447	431.87
378.827	410.62
379.208	409.27
379.588	402.04
379.968	394.58
380.349	399.1
380.729	388.25
381.109	417.86
381.489	400.91
381.87	396.16
382.25	408.14
382.63	388.48
383.01	446.56
383.39	414.69
383.77	415.14
384.15	431.87
384.53	423.51
384.91	427.8
385.29	436.84
385.67	443.39
386.049	449.27
386.429	439.1
386.809	448.59
387.189	447.46
387.568	446.1
387.948	441.81
388.328	452.43
388.707	452.43
389.087	458.76
389.466	476.39
389.846	468.02
390.225	488.14
390.605	467.35
390.984	475.48
391.363	493.11
391.743	480.45
392.122	502.83
392.501	497.63
392.881	522.03
393.26	500.57
393.639	537.18
394.018	507.8
394.397	526.55
394.776	532.66
395.155	532.43
395.534	519.1
395.913	537.4
396.292	557.06
396.671	527.23
397.05	532.66
397.429	523.39
397.808	537.18
398.186	562.71
398.565	544.41
398.944	562.94
399.323	566.33
399.701	585.08
400.08	581.47
400.458	602.94
400.837	581.47
401.215	582.82
401.594	594.12
401.972	607
402.351	605.65
402.729	634.12
403.107	606.78
403.486	631.41
403.864	614.69
404.242	633.67
404.62	641.35
404.999	643.84
405.377	660.34
405.755	669.83
406.133	675.93
406.511	659.43
406.889	696.49
407.267	689.94
407.645	688.58
408.023	695.82
408.401	712.99
408.779	694.01
409.156	725.64
409.534	712.54
409.912	732.65
410.29	748.47
410.667	758.86
411.045	779.2
411.422	762.48
411.8	777.62
412.178	789.82
412.555	782.37
412.933	789.37
413.31	806.32
413.687	820.11
414.065	831.86
414.442	838.18
414.819	828.69
415.197	851.74
415.574	848.13
415.951	880.44
416.328	851.07
416.705	874.79
417.082	884.74
417.46	887
417.837	901.91
418.214	914.34
418.591	913.44
418.967	927
419.344	959.76
419.721	932.64
420.098	957.28
420.475	981.68
420.852	973.77
421.228	978.29
421.605	979.88
421.982	1007.9
422.358	991.4
422.735	1022.36
423.111	1032.53
423.488	1027.11
423.864	1047.9
424.241	1053.09
424.617	1059.42
424.994	1090.83
425.37	1071.17
425.746	1086.09
426.123	1105.75
426.499	1110.49
426.875	1133.54
427.251	1154.33
427.627	1177.84
428.003	1190.94
428.379	1189.36
428.756	1190.94
429.132	1206.08
429.507	1268.23
429.883	1246.31
430.259	1266.42
430.635	1272.07
431.011	1282.47
431.387	1322.47
431.763	1358.85
432.138	1322.47
432.514	1330.15
432.89	1359.53
433.265	1386.87
433.641	1423.03
434.016	1403.14
434.392	1451.05
434.767	1451.95
435.143	1465.51
435.518	1497.38
435.894	1522.01
436.269	1508.9
436.644	1558.84
437.02	1550.93
437.395	1538.96
437.77	1585.51
438.145	1599.07
438.52	1621.21
438.895	1648.78
439.271	1637.26
439.646	1687.43
440.021	1712.29
440.395	1691.27
440.77	1700.99
441.145	1703.47
441.52	1753.19
441.895	1751.83
442.27	1766.3
442.645	1784.15
443.019	1804.94
443.394	1776.92
443.769	1802
444.143	1799.06
444.518	1840.64
444.892	1854.65
445.267	1852.39
445.641	1896.46
446.016	1907.99
446.39	1944.37
446.764	1962.22
447.139	1972.17
447.513	1944.82
447.887	1955.22
448.262	1966.52
448.636	2004.03
449.01	1996.57
449.384	2039.73
449.758	2076.57
450.132	2085.83
450.506	2052.62
450.88	2087.19
451.254	2076.34
451.628	2152.27
452.002	2163.12
452.376	2167.41
452.75	2233.85
453.123	2211.03
453.497	2254.19
453.871	2278.37
454.244	2323.34
454.618	2344.36
454.992	2362.44
455.365	2375.32
455.739	2435.43
456.112	2456.9
456.486	2459.16
456.859	2491.02
457.232	2545.03
457.606	2491.47
457.979	2555.43
458.352	2590.23
458.725	2664.35
459.099	2627.29
459.472	2686.72
459.845	2696.89
460.218	2760.85
460.591	2747.96
460.964	2748.42
461.337	2794.74
461.71	2874.29
462.083	2973.95
462.456	2926.94
462.829	2912.03
463.201	2950.67
463.574	2984.12
463.947	3041.74
464.32	3100.72
464.692	3083.77
465.065	3163.55
465.438	3192.47
465.81	3246.48
466.183	3229.76
466.555	3280.15
466.928	3359.47
467.3	3306.37
467.672	3367.61
468.045	3484.44
468.417	3487.83
468.789	3540.71
469.161	3603.31
469.534	3612.35
469.906	3712.46
470.278	3724.89
470.65	3753.14
471.022	3824.55
471.394	3887.82
471.766	3919.46
472.138	3990.19
472.51	4041.72
472.882	4107.93
473.253	4206.46
473.625	4219.79
473.997	4293.91
474.369	4324.87
474.74	4388.37
475.112	4488.26
475.484	4528.26
475.855	4581.59
476.227	4615.49
476.598	4752.43
476.97	4807.35
477.341	4953.78
477.713	5001.01
478.084	5004.4
478.455	5169.37
478.827	5159.2
479.198	5353.77
479.569	5309.71
479.94	5467.22
480.311	5552.41
480.682	5641.45
481.053	5785.4
481.424	5804.16
481.795	5881.67
482.166	5981.33
482.537	6114.88
482.908	6211.15
483.279	6283.92
483.65	6422.22
484.021	6531.37
484.391	6616.79
484.762	6641.87
485.133	6736.56
485.503	6789.44
485.874	6985.82
486.244	7000.28
486.615	7177.45
486.985	7240.73
487.356	7335.64
487.726	7464.68
488.097	7584.9
488.467	7642.3
488.837	7847.72
489.207	7917.77
489.578	7966.13
489.948	8110.54
490.318	8170.19
490.688	8190.08
491.058	8338.1
491.428	8475.72
491.798	8488.15
492.168	8694.02
492.538	8695.83
492.908	8890.85
493.278	8959.55
493.648	8989.83
494.017	9097.85
494.387	9128.81
494.757	9259.88
495.126	9382.14
495.496	9409.71
495.866	9503.04
496.235	9541.01
496.605	9717.72
496.974	9690.61
497.344	9811.73
497.713	9889.02
498.082	9948.23
498.452	10071.61
498.821	10122.69
499.19	10204.04
499.559	10332.62
499.928	10336.92
500.298	10424.15
500.667	10484.03
501.036	10478.16
501.405	10641.09
501.774	10630.7
502.143	10750.24
502.512	10822.33
502.88	10956.56
503.249	10942.78
503.618	11016.22
503.987	11047.18
504.356	11203.34
504.724	11197.46
505.093	11381.18
505.462	11403.33
505.83	11493.72
506.199	11542.08
506.567	11751.34
506.936	11730.55
507.304	11878.8
507.672	11904.33
508.041	11929.87
508.409	12009.87
508.777	12100.26
509.145	12287.6
509.514	12248.51
509.882	12367.6
510.25	12441.95
510.618	12455.51
510.986	12583.86
511.354	12796.29
511.722	12810.3
512.09	13004.42
512.458	12998.09
512.826	13018.65
513.193	13198.99
513.561	13184.75
513.929	13260.68
514.297	13462.03
514.664	13594.91
515.032	13597.17
515.4	13721.46
515.767	13747.45
516.135	13852.53
516.502	13807.33
516.869	14045.29
517.237	14175.01
517.604	14191.51
517.972	14366.19
518.339	14351.73
518.706	14472.63
519.073	14514.89
519.44	14705.84
519.808	14864.48
520.175	14767.08
520.542	15123.68
520.909	15154.19
521.276	15166.17
521.643	15327.75
522.009	15413.39
522.376	15649.55
522.743	15676.89
523.11	15810.22
523.477	15978.13
523.843	16122.53
524.21	16342.41
524.577	16421.05
524.943	16492.91
525.31	16524.33
525.676	16736.98
526.043	16805.67
526.409	16953.92
526.776	17154.59
527.142	17256.28
527.508	17304.87
527.874	17489.5
528.241	17625.99
528.607	17666.44
528.973	17781.92
529.339	17792.77
529.705	17996.38
530.071	18139.2
530.437	18194.79
530.803	18367.89
531.169	18428.68
531.535	18454.9
531.901	18562.46
532.267	18625.51
532.632	18818.28
532.998	18862.79
533.364	19019.18
533.73	19006.75
534.095	19206.51
534.461	19270.92
534.826	19296
535.192	19404.02
535.557	19541.2
535.923	19507.07
536.288	19627.29
536.653	19702.32
537.019	19785.93
537.384	19813.5
537.749	19958.59
538.114	20078.13
538.479	20065.93
538.845	20224.79
539.21	20189.77
539.575	20389.53
539.94	20352.93
540.305	20445.13
540.67	20590.43
541.034	20604.67
541.399	20672.24
541.764	20737.77
542.129	20867.71
542.494	20940.71
542.858	20984.1
543.223	21061.38
543.587	21115.17
543.952	21125.56
544.316	21272.9
544.681	21308.38
545.045	21388.15
545.41	21501.14
545.774	21556.28
546.138	21572.78
546.503	21677.18
546.867	21741.14
547.231	21869.5
547.595	21898.87
547.959	22027.46
548.324	22059.32
548.688	22113.78
549.052	22150.62
549.416	22201.01
549.779	22324.17
550.143	22435.81
550.507	22666.76
550.871	22593.09
551.235	22710.83
551.599	22852.97
551.962	22886.87
552.326	23072.18
552.689	23159.63
553.053	23036.47
553.417	23188.78
553.78	23412.73
554.143	23358.5
554.507	23454.31
554.87	23534.99
555.234	23887.75
555.597	23704.7
555.96	23833.96
556.323	23869.44
556.686	23920.29
557.05	24042.77
557.413	24202.77
557.776	24236.21
558.139	24569.99
558.502	24544.91
558.865	24659.48
559.228	24823.32
559.59	24909.42
559.953	24966.36
560.316	25285.22
560.679	25307.37
561.041	25387.6
561.404	25368.16
561.767	25612.67
562.129	25675.72
562.492	25823.06
562.854	25907.58
563.217	25913.68
563.579	26059.67
563.941	26294.46
564.304	26376.72
564.666	26467.34
565.028	26554.12
565.39	26628.01
565.753	26787.78
566.115	27007.67
566.477	27046.31
566.839	27236.81
567.201	27498.5
567.563	27282.46
567.925	27633.86
568.287	27627.08
568.648	27657.59
569.01	27788.89
569.372	27951.37
569.734	27944.14
570.095	28218.03
570.457	28221.19
570.819	28238.37
571.18	28232.94
571.542	28452.15
571.903	28475.88
572.265	28576.89
572.626	28705.93
572.987	28664.57
573.349	28834.28
573.71	28997.44
574.071	29026.6
574.432	29112.02
574.794	29260.71
575.155	29354.95
575.516	29228.17
575.877	29316.31
576.238	29346.59
576.599	29483.31
576.96	29474.27
577.32	29606.92
577.681	29717.42
578.042	29804.43
578.403	29793.36
578.763	29897.31
579.124	29846.69
579.485	30003.52
579.845	30221.14
580.206	29997.19
580.566	30045.78
580.927	30098.21
581.287	30048.04
581.648	29968.27
582.008	30254.36
582.368	30174.14
582.728	30281.7
583.089	30236.51
583.449	30257.52
583.809	30353.79
584.169	30450.74
584.529	30265.88
584.889	30589.49
585.249	30330.74
585.609	30349.72
585.969	30504.52
586.329	30321.48
586.688	30522.83
587.048	30521.25
587.408	30326.67
587.768	30355.37
588.127	30291.87
588.487	30392.44
588.846	30509.72
589.206	30332.78
589.565	30351.76
589.925	30498.2
590.284	30469.5
590.643	30429.5
591.003	30477.86
591.362	30536.61
591.721	30506.78
592.08	30444.19
592.44	30652.32
592.799	30656.84
593.158	30639.66
593.517	30607.12
593.876	30762.82
594.235	30593.56
594.593	30671.07
594.952	30795.36
595.311	30688.02
595.67	30738.19
596.029	30923.95
596.387	30881.91
596.746	30847.11
597.104	30660
597.463	30741.58
597.822	30872.87
598.18	30755.36
598.538	30854.12
598.897	30972.53
599.255	30617.97
599.613	31038.07
599.972	30842.14
600.33	30981.57
600.688	30752.88
601.046	31009.37
601.404	31137.05
601.762	31129.14
602.12	31083.72
602.478	31281.9
602.836	31185.86
603.194	31055.24
603.552	31141.34
603.91	31121
604.268	31171.4
604.625	31192.19
604.983	31410.94
605.341	31167.56
605.698	31302.02
606.056	31378.85
606.413	31268.57
606.771	31390.38
607.128	31409.13
607.485	31277.61
607.843	31262.92
608.2	31563.48
608.557	31684.83
608.914	31488.68
609.272	31702.91
609.629	31745.17
609.986	31830.14
610.343	31701.33
610.7	31850.93
611.057	31878.72
611.414	31750.82
611.771	31917.82
612.127	31972.73
612.484	31950.36
612.841	32063.8
613.198	31840.08
613.554	32082.11
613.911	32180.64
614.267	32063.35
614.624	32089.11
614.98	32068.1
615.337	32347.86
615.693	32254.76
616.05	32288.43
616.406	32440.97
616.762	32338.6
617.118	32250.92
617.475	32339.05
617.831	32498.59
618.187	32397.35
618.543	32559.38
618.899	32576.33
619.255	32471.48
619.611	32393.51
619.967	32569.78
620.323	32648.2
620.678	32546.73
621.034	32383.8
621.39	32486.39
621.746	32379.73
622.101	32929.09
622.457	32564.13
622.812	32577.01
623.168	32655.88
623.523	32485.94
623.879	32904.91
624.234	32533.62
624.589	32764.8
624.945	32714.86
625.3	32709.66
625.655	32640.29
626.01	32676.9
626.365	32720.51
626.72	32629.89
627.075	32655.2
627.43	32675.09
627.785	32529.78
628.14	32547.18
628.495	32636.67
628.85	32583.11
629.205	32497.46
629.559	32593.06
629.914	32523.45
630.269	32595.99
630.623	32341.31
630.978	32412.72
631.332	32511.48
631.687	32447.52
632.041	32367.07
632.396	32352.38
632.75	32251.37
633.104	32203.91
633.459	31996.46
633.813	32058.61
634.167	32058.15
634.521	32012.51
634.875	32013.86
635.229	32019.96
635.583	31942.23
635.937	31870.59
636.291	31823.58
636.645	31801.89
636.999	31799.18
637.352	31833.75
637.706	31594.44
638.06	31867.42
638.413	31712.4
638.767	31635.57
639.121	31692.06
639.474	31553.76
639.828	31453.42
640.181	31555.57
640.534	31463.82
640.888	31413.65
641.241	31419.75
641.594	31376.36
641.947	31468.57
642.301	31290.04
642.654	31329.13
643.007	31210.04
643.36	31188.8
643.713	31209.81
644.066	31279.64
644.419	31129.14
644.771	30875.36
645.124	30655.48
645.477	30634.01
645.83	30372.77
646.182	30251.87
646.535	30134.59
646.888	30050.98
647.24	29963.75
647.593	30199.67
647.945	30103.86
648.298	30054.14
648.65	29844.43
649.002	29887.14
649.355	30024.08
649.707	29989.28
650.059	29968.72
650.411	30426.78
650.763	30370.06
651.115	30775.48
651.467	30530.96
651.819	30582.03
652.171	30567.57
652.523	30417.97
652.875	30481.25
653.227	30347.69
653.578	30485.31
653.93	30350.18
654.282	30140.46
654.633	30137.3
654.985	30253.68
655.337	30262.95
655.688	30160.35
656.039	30356.5
656.391	30219.56
656.742	30124.87
657.094	30125.78
657.445	30222.04
657.796	30147.02
658.147	30161.71
658.498	30106.34
658.849	30146.79
659.2	30077.87
659.551	30000.81
659.902	30086.68
660.253	30009.39
660.604	30050.07
660.955	29903.41
661.306	30022.05
661.656	29928.49
662.007	30012.33
662.358	29854.82
662.708	29955.84
663.059	29980.47
663.409	29639.23
663.76	29965.33
664.11	29862.05
664.461	29930.98
664.811	29971.66
665.161	29831.55
665.511	29860.25
665.862	29764.2
666.212	29827.7
666.562	29795.39
666.912	29587.94
667.262	29648.95
667.612	29598.11
667.962	29747.48
668.312	29644.21
668.662	29795.84
669.011	29666.35
669.361	29695.73
669.711	29613.02
670.06	29729.18
670.41	29450.09
670.76	29421.16
671.109	29645.56
671.459	29590.87
671.808	29492.8
672.157	29484.44
672.507	29336.87
672.856	29361.5
673.205	29432.91
673.554	29482.4
673.904	29273.82
674.253	29588.84
674.602	29424.1
674.951	29013.94
675.3	28930.78
675.649	29225.23
675.998	29292.35
676.346	29287.83
676.695	29401.73
677.044	29076.99
677.393	29219.13
677.741	29246.48
678.09	29118.8
678.438	29016.2
678.787	29006.94
679.135	29039.7
679.484	28895.07
679.832	29063.2
680.181	28791.8
680.529	28860.27
680.877	28954.06
681.225	28789.09
681.573	28917.9
681.922	28725.36
682.27	28668.41
682.618	28713.61
682.966	28458.25
683.314	28573.5
683.661	28421.64
684.009	28242.21
684.357	28329.66
684.705	28232.49
685.053	28291.93
685.4	28193.17
685.748	28086.96
686.095	27890.13
686.443	27768.55
686.79	27692.62
687.138	27765.84
687.485	27852.84
687.832	27731.71
688.18	27678.61
688.527	27579.4
688.874	27526.75
689.221	27415.34
689.568	27317.94
689.915	27315.68
690.262	27333.31
690.609	27270.94
690.956	27202.24
691.303	27236.13
691.65	27038.17
691.997	26990.49
692.344	26914.56
692.69	26896.26
693.037	26965.41
693.383	26650.84
693.73	26765.64
694.077	26608.13
694.423	26466.21
694.769	26385.08
695.116	26330.62
695.462	26382.6
695.808	26366.1
696.155	26324.97
696.501	26133.56
696.847	26191.87
697.193	25945.55
697.539	25982.83
697.885	25802.73
698.231	25723.86
698.577	25686.34
698.923	25675.5
699.269	25573.8
699.614	25446.58
699.96	25300.14
700.306	25326.58
700.651	25253.14
700.997	25103.99
701.342	25132.23
701.688	25160.93
702.033	24929.53
702.379	24948.74
702.724	24747.16
703.069	24947.83
703.415	24554.17
703.76	24560.27
704.105	24651.8
704.45	24553.04
704.795	24366.83
705.14	24410.67
705.485	24253.16
705.83	24205.03
706.175	24203.45
706.52	24144.92
706.865	24050.23
707.209	24045.48
707.554	23942.44
707.899	24016.33
708.243	23854.08
708.588	23827.41
708.932	23704.93
709.277	23593.29
709.621	23709.45
709.966	23430.13
710.31	23604.82
710.654	23377.48
710.998	23445.95
711.342	23472.84
711.687	23282.34
712.031	23148.78
712.375	23130.03
712.719	23080.99
713.063	23072.85
713.407	23220.42
713.75	22928.22
714.094	22975.23
714.438	22878.06
714.782	22927.77
715.125	22776.14
715.469	22903.14
715.812	22702.24
716.156	22570.72
716.499	22577.27
716.843	22608.91
717.186	22511.29
717.53	22564.17
717.873	22641.23
718.216	22570.72
718.559	22442.14
718.902	22257.73
719.246	22230.84
719.589	22206.44
719.932	22140.9
720.275	22159.43
720.617	22099.55
720.96	22145.65
721.303	21958.53
721.646	22037.63
721.989	21860.23
722.331	21924.64
722.674	21830.4
723.016	21807.8
723.359	21726.67
723.701	21802.83
724.044	21645.32
724.386	21588.15
724.729	21712.44
725.071	21612.33
725.413	21547.02
725.755	21425.89
726.097	21464.08
726.439	21408.26
726.782	21370.07
727.124	21495.49
727.465	21299.34
727.807	21186.12
728.149	21182.28
728.491	21181.38
728.833	21150.19
729.175	20975.06
729.516	21034.49
729.858	21013.47
730.199	20935.96
730.541	20923.98
730.882	20877.43
731.224	20852.57
731.565	20795.85
731.906	20754.72
732.248	20783.42
732.589	20612.58
732.93	20600.38
733.271	20523.09
733.612	20545.69
733.953	20565.58
734.294	20520.6
734.635	20516.08
734.976	20604.44
735.317	20482.41
735.658	20419.14
735.999	20396.54
736.339	20441.51
736.68	20524.67
737.021	20358.12
737.361	20238.58
737.702	20326.71
738.042	20248.07
738.383	20165.59
738.723	20205.58
739.063	20178.47
739.404	20149.54
739.744	20030.9
740.084	19972.82
740.424	20046.94
740.764	19886.27
741.104	19944.57
741.444	19820.28
741.784	19819.15
742.124	19799.72
742.464	19828.87
742.804	19705.71
743.143	19641.98
743.483	19671.14
743.823	19547.52
744.162	19528.09
744.502	19596.56
744.841	19469.56
745.181	19507.52
745.52	19472.95
745.86	19481.54
746.199	19392.72
746.538	19392.27
746.877	19425.94
747.216	19434.08
747.556	19358.83
747.895	19381.88
748.234	19254.42
748.573	19183.24
748.911	19158.38
749.25	19141.21
749.589	19058.5
749.928	19076.8
750.267	19154.99
750.605	18994.99
750.944	19045.62
751.283	18919.06
751.621	18907.31
751.96	18817.82
752.298	18898.05
752.636	18894.88
752.975	18748.45
753.313	18628.68
753.651	18736.02
753.989	18559.53
754.327	18633.87
754.666	18556.81
755.004	18527.21
755.342	18569.02
755.679	18449.7
756.017	18371.51
756.355	18360.21
756.693	18220.55
757.031	18202.7
757.368	18171.74
757.706	18156.37
758.044	18169.93
758.381	18078.41
758.719	18091.06
759.056	18071.18
759.394	18019.65
759.731	17782.15
760.068	17780.34
760.405	17638.87
760.743	17651.75
761.08	17611.3
761.417	17537.41
761.754	17633.45
762.091	17487.46
762.428	17467.13
762.765	17439.1
763.102	17410.86
763.438	17328.37
763.775	17227.36
764.112	17177.64
764.449	17200.47
764.785	17121.6
765.122	17007.7
765.458	16928.83
765.795	16861.94
766.131	16877.31
766.467	16770.65
766.804	16653.81
767.14	16569.07
767.476	16632.35
767.812	16543.31
768.148	16533.82
768.485	16344.67
768.821	16316.87
769.157	16331.79
769.492	16274.16
769.828	16279.36
770.164	16162.98
770.5	16085.47
770.836	16031.01
771.171	15982.42
771.507	15933.83
771.842	15851.57
772.178	15852.03
772.513	15788.3
772.849	15693.84
773.184	15770.9
773.519	15687.29
773.855	15568.19
774.19	15498.36
774.525	15493.17
774.86	15514.86
775.195	15474.86
775.53	15433.96
775.865	15271.48
776.2	15236.9
776.535	15152.38
776.87	15128.43
777.205	15054.76
777.539	14985.38
777.874	14986.29
778.209	14843.92
778.543	14876.01
778.878	14792.85
779.212	14723.92
779.547	14681.21
779.881	14715.79
780.215	14590.59
780.55	14631.95
780.884	14526.19
781.218	14514.66
781.552	14513.76
781.886	14419.52
782.22	14307.66
782.554	14271.05
782.888	14156.7
783.222	14081
783.556	13994.22
783.889	14026.54
784.223	14050.72
784.557	13899.54
784.89	13896.15
785.224	13879.42
785.557	13818.41
785.891	13786.54
786.224	13733.66
786.558	13719.43
786.891	13575.93
787.224	13570.28
787.557	13457.06
787.891	13530.28
788.224	13319.89
788.557	13467.46
788.89	13384.52
789.223	13346.33
789.556	13334.58
789.888	13242.83
790.221	13151.76
790.554	13108.82
790.887	13096.62
791.219	13011.42
791.552	13055.26
791.884	12968.26
792.217	12906.79
792.549	12906.12
792.882	12776.18
793.214	12657.76
793.546	12759
793.879	12587.03
794.211	12553.58
794.543	12612.56
794.875	12610.76
795.207	12581.6
795.539	12448.27
795.871	12408.05
796.203	12339.58
796.535	12318.33
796.867	12274.27
797.198	12265.91
797.53	12219.35
797.862	12147.49
798.193	12189.98
798.525	12095.52
798.856	12114.05
799.188	11999.02
799.519	11951.34
799.85	11853.49
800.182	11822.3
800.513	11840.83
800.844	11840.61
801.175	11780.5
801.506	11778.24
801.837	11728.29
802.168	11671.12
802.499	11610.78
802.83	11652.14
803.161	11607.84
803.491	11549.09
803.822	11619.6
804.153	11500.05
804.483	11415.08
804.814	11382.54
805.145	11389.09
805.475	11345.93
805.805	11299.83
806.136	11334.63
806.466	11292.37
806.796	11205.82
807.126	11175.31
807.457	11172.83
807.787	11175.31
808.117	11087.18
808.447	10996.79
808.777	11019.39
809.107	11075.88
809.436	10954.98
809.766	10924.47
810.096	10922.21
810.426	10976.22
810.755	10917.69
811.085	10786.4
811.414	10881.99
811.744	10762.67
812.073	10711.6
812.403	10726.51
812.732	10625.05
813.061	10634.08
813.39	10612.16
813.719	10591.37
814.049	10635.44
814.378	10568.32
814.707	10496.46
815.036	10510.92
815.365	10478.16
815.693	10388.44
816.022	10397.71
816.351	10330.36
816.68	10338.73
817.008	10337.6
817.337	10218.73
817.665	10248.11
817.994	10362.91
818.322	10240.65
818.651	10181.44
818.979	10105.74
819.307	10214.43
819.636	10221.89
819.964	10078.85
820.292	10165.62
820.62	10167.2
820.948	10071.16
821.276	10109.8
821.604	10161.33
821.932	10125.17
822.259	10039.98
822.587	10126.3
822.915	10067.77
823.243	10105.96
823.57	10031.61
823.898	10119.3
824.225	10023.48
824.553	9974.22
824.88	9953.2
825.207	10030.71
825.535	10036.36
825.862	10079.75
826.189	10051.5
826.516	10088.11
826.843	10096.92
827.17	10165.17
827.497	10105.29
827.824	10045.17
828.151	10050.6
828.478	10107.77
828.805	10124.27
829.131	10030.48
829.458	10018.73
829.785	9985.74
830.111	9957.94
830.438	9986.87
830.764	10038.62
831.09	10014.89
831.417	9955.01
831.743	10043.37
832.069	9953.2
832.395	10029.81
832.722	9989.36
833.048	9988.68
833.374	9905.06
833.7	9909.36
834.026	9887.89
834.351	9914.33
834.677	9839.53
835.003	9874.56
835.329	9911.62
835.654	9874.56
835.98	9778.51
836.306	9898.51
836.631	9838.63
836.956	9887.66
837.282	9843.37
837.607	9787.78
837.932	9795.24
838.258	9773.99
838.583	9809.02
838.908	9740.77
839.233	9776.48
839.558	9724.05
839.883	9655.81
840.208	9619.65
840.533	9661
840.858	9651.51
841.182	9683.6
841.507	9623.72
841.832	9599.31
842.156	9526.54
842.481	9586.43
842.805	9518.41
843.13	9563.15
843.454	9466.66
843.778	9523.38
844.103	9390.5
844.427	9403.83
844.751	9376.04
845.075	9421.69
845.399	9324.06
845.723	9292.65
846.047	9367
846.371	9228.25
846.695	9223.05
847.019	9154.35
847.343	9054.92
847.666	9112.99
847.99	9019.44
848.313	9073.67
848.637	9019.89
848.96	8953
849.284	8992.77
849.607	8842.72
849.931	8880.01
850.254	8865.09
850.577	8738.09
850.9	8741.25
851.223	8702.38
851.546	8700.12
851.869	8592.56
852.192	8668.03
852.515	8551.65
852.838	8514.59
853.161	8522.05
853.483	8449.28
853.806	8435.27
854.129	8448.61
854.451	8387.14
854.774	8302.62
855.096	8374.48
855.419	8303.98
855.741	8284.77
856.063	8215.17
856.385	8227.37
856.708	8271.21
857.03	8210.42
857.352	8155.28
857.674	8176.07
857.996	8149.18
858.318	8145.11
858.64	8039.35
858.961	8109.41
859.283	8076.86
859.605	8005.23
859.926	8062.18
860.248	8023.98
860.57	7964.55
860.891	7984.89
861.212	7933.82
861.534	7952.35
861.855	7908.51
862.176	7926.36
862.498	7918.22
862.819	7904.44
863.14	7816.31
863.461	7811.33
863.782	7748.28
864.103	7797.78
864.424	7798.23
864.745	7809.53
865.065	7727.72
865.386	7715.97
865.707	7709.19
866.027	7708.96
866.348	7605.92
866.668	7660.38
866.989	7579.48
867.309	7620.38
867.63	7652.02
867.95	7582.41
868.27	7558.23
868.59	7609.53
868.91	7597.33
869.23	7580.38
869.55	7516.2
869.87	7500.16
870.19	7524.79
870.51	7478.69
870.83	7536.99
871.15	7426.94
871.469	7450.89
871.789	7513.49
872.109	7387.16
872.428	7344.68
872.748	7414.28
873.067	7428.07
873.386	7424
873.706	7393.49
874.025	7322.76
874.344	7306.71
874.663	7361.18
874.982	7348.52
875.301	7414.96
875.62	7331.12
875.939	7346.49
876.258	7248.86
876.577	7193.05
876.896	7275.53
877.214	7224.46
877.533	7182.88
877.852	7216.1
878.17	7323.66
878.489	7203.89
878.807	7177.45
879.125	7214.97
879.444	7222.65
879.762	7212.93
880.08	7166.83
880.398	7204.8
880.716	7175.19
881.034	7114.18
881.352	7144.23
881.67	7167.28
881.988	7073.95
882.306	7064.24
882.624	7007.29
882.941	7069.66
883.259	7023.11
883.577	7031.24
883.894	6991.69
884.212	6930.23
884.529	6944.46
884.846	6961.64
885.164	6889.78
885.481	6903.34
885.798	6921.41
886.115	6905.14
886.432	6829.67
886.75	6851.36
887.067	6848.65
887.383	6771.36
887.7	6801.64
888.017	6758.71
888.334	6804.13
888.651	6815.2
888.967	6773.85
889.284	6673.06
889.6	6670.8
889.917	6618.15
890.233	6635.09
890.55	6608.43
890.866	6652.04
891.182	6608.65
891.498	6557.81
891.815	6579.73
892.131	6583.8
892.447	6487.3
892.763	6531.14
893.079	6506.74
893.395	6486.85
893.71	6492.72
894.026	6457.02
894.342	6457.92
894.657	6419.96
894.973	6379.73
895.289	6341.99
895.604	6399.62
895.92	6314.42
896.235	6270.36
896.55	6283.69
896.865	6278.27
897.181	6213.41
897.496	6244.6
897.811	6274.43
898.126	6156.24
898.441	6219.74
898.756	6176.8
899.071	6129.34
899.386	6171.83
899.7	6069.91
900.015	6065.84
900.33	6055.22
900.644	6029.46
900.959	6032.62
901.273	6031.27
901.588	5992.4
901.902	6015
902.216	5936.58
902.531	5915.56
902.845	5889.58
903.159	5892.29
903.473	5812.29
903.787	5853.19
904.101	5809.35
904.415	5773.42
904.729	5824.95
905.042	5710.15
905.356	5712.18
905.67	5721.22
905.984	5691.62
906.297	5658.85
906.611	5660.88
906.924	5615.69
907.237	5603.26
907.551	5607.55
907.864	5573.65
908.177	5515.12
908.491	5518.74
908.804	5501.11
909.117	5467.44
909.43	5442.36
909.743	5430.38
910.056	5364.62
910.368	5348.12
910.681	5312.42
910.994	5304.28
911.307	5367.33
911.619	5273.55
911.932	5249.14
912.244	5267.67
912.557	5220.22
912.869	5226.77
913.181	5231.74
913.494	5167.34
913.806	5135.47
914.118	5151.74
914.43	5085.3
914.742	5107.9
915.054	5098.41
915.366	5094.57
915.678	5028.58
915.99	5043.05
916.302	4983.61
916.613	4962.14
916.925	4942.71
917.236	4923.27
917.548	4903.16
917.859	4954.91
918.171	4868.13
918.482	4895.03
918.794	4836.27
919.105	4807.12
919.416	4751.75
919.727	4771.41
920.038	4763.28
920.349	4702.94
920.66	4690.74
920.971	4725.09
921.282	4658.42
921.593	4696.16
921.903	4611.19
922.214	4664.3
922.525	4628.59
922.835	4562.15
923.146	4564.41
923.456	4579.55
923.767	4512.66
924.077	4521.03
924.387	4473.57
924.697	4463.85
925.008	4454.81
925.318	4439.45
925.628	4437.86
925.938	4340.01
926.248	4366.68
926.558	4382.27
926.867	4339.11
927.177	4337.3
927.487	4293.23
927.796	4315.83
928.106	4281.03
928.416	4248.72
928.725	4235.61
929.034	4242.84
929.344	4196.06
929.653	4182.5
929.962	4237.42
930.271	4158.55
930.581	4099.34
930.89	4103.18
931.199	4098.44
931.508	4102.28
931.817	4083.52
932.125	4052.79
932.434	4005.78
932.743	4011.43
933.051	4006.46
933.36	3954.03
933.669	3963.98
933.977	3978.89
934.286	3903.87
934.594	3901.83
934.902	3898.67
935.21	3855.28
935.519	3891.44
935.827	3865.22
936.135	3830.42
936.443	3835.39
936.751	3780.03
937.059	3831.55
937.367	3786.36
937.674	3760.59
937.982	3756.07
938.29	3723.76
938.597	3722.85
938.905	3684.21
939.213	3683.08
939.52	3699.8
939.827	3691.67
940.135	3637.43
940.442	3619.13
940.749	3605.12
941.056	3579.81
941.363	3577.32
941.67	3576.42
941.977	3576.87
942.284	3510.2
942.591	3502.07
942.898	3499.81
943.205	3516.98
943.511	3460.26
943.818	3483.31
944.125	3434.95
944.431	3437.89
944.738	3503.88
945.044	3423.2
945.35	3417.78
945.657	3366.48
945.963	3367.38
946.269	3333.94
946.575	3349.98
946.881	3353.37
947.187	3315.63
947.493	3272.24
947.799	3280.83
948.105	3260.49
948.41	3302.98
948.716	3246.03
949.022	3218.46
949.327	3253.26
949.633	3199.48
949.938	3171.68
950.244	3136.2
950.549	3128.07
950.854	3132.14
951.16	3157.45
951.465	3127.62
951.77	3104.79
952.075	3076.09
952.38	3085.36
952.685	3067.96
952.99	3012.82
953.294	3015.53
953.599	3012.59
953.904	2992.03
954.209	2994.96
954.513	2987.96
954.818	2966.49
955.122	2952.48
955.426	2924.01
955.731	2954.29
956.035	2899.15
956.339	2881.52
956.643	2921.97
956.948	2888.3
957.252	2897.34
957.556	2872.71
957.86	2873.84
958.163	2844.46
958.467	2825.25
958.771	2842.65
959.075	2804.91
959.378	2773.27
959.682	2815.53
959.985	2785.93
960.289	2747.06
960.592	2750.45
960.896	2735.31
961.199	2770.11
961.502	2716.33
961.805	2733.28
962.108	2725.82
962.411	2701.64
962.714	2664.58
963.017	2664.12
963.32	2651.24
963.623	2666.84
963.926	2653.28
964.228	2611.24
964.531	2610.79
964.833	2611.24
965.136	2574.18
965.438	2605.37
965.741	2587.06
966.043	2579.16
966.345	2562.43
966.648	2545.71
966.95	2531.7
967.252	2500.97
967.554	2482.43
967.856	2503.68
968.158	2485.82
968.46	2470.46
968.761	2473.4
969.063	2439.27
969.365	2459.38
969.666	2418.03
969.968	2394.08
970.269	2404.24
970.571	2382.55
970.872	2377.35
971.174	2359.05
971.475	2364.92
971.776	2365.83
972.077	2373.06
972.378	2352.49
972.679	2336.45
972.98	2311.14
973.281	2310.01
973.582	2312.95
973.883	2296.68
974.183	2260.52
974.484	2287.64
974.785	2248.09
975.085	2260.75
975.386	2240.63
975.686	2251.93
975.986	2231.37
976.287	2220.52
976.587	2187.75
976.887	2168.77
977.187	2218.71
977.487	2167.41
977.787	2157.02
978.087	2199.96
978.387	2146.85
978.687	2153.86
978.987	2136.46
979.286	2134.87
979.586	2147.08
979.885	2106.4
980.185	2107.3
980.484	2087.42
980.784	2098.94
981.083	2104.59
981.382	2073.63
981.682	2073.63
981.981	2058.49
982.28	2036.12
982.579	2053.07
982.878	2004.93
983.177	2032.73
983.475	2060.98
983.774	2027.31
984.073	1991.6
984.372	1971.26
984.67	1994.09
984.969	1975.1
985.267	1964.48
985.566	1924.48
985.864	1924.94
986.162	1930.13
986.461	1938.49
986.759	1914.31
987.057	1902.56
987.355	1897.82
987.653	1899.4
987.951	1871.15
988.249	1896.24
988.547	1876.8
988.844	1854.2
989.142	1885.61
989.44	1844.94
989.737	1872.51
990.035	1830.47
990.332	1849.91
990.63	1799.97
990.927	1815.56
991.224	1802
991.521	1820.53
991.819	1796.35
992.116	1787.76
992.413	1753.41
992.71	1765.62
993.006	1738.95
993.303	1745.96
993.6	1762.91
993.897	1722.23
994.193	1721.78
994.49	1703.02
994.787	1703.47
995.083	1696.01
995.379	1709.8
995.676	1675.45
995.972	1680.42
996.268	1659.63
996.565	1625.51
996.861	1683.36
997.157	1649.24
997.453	1646.3
997.749	1602.91
998.044	1619.41
998.34	1601.78
998.636	1604.94
998.932	1586.87
999.227	1578.5
999.523	1584.83
999.818	1598.62
1000.114	1576.24
1000.409	1560.88
1000.704	1556.13
1001	1552.06
1001.295	1543.93
1001.59	1501.67
1001.885	1535.12
1002.18	1537.83
1002.475	1517.26
1002.77	1500.31
1003.065	1504.61
1003.359	1479.75
1003.654	1499.86
1003.949	1471.84
1004.243	1460.09
1004.538	1470.94
1004.832	1447.21
1005.127	1447.66
1005.421	1462.35
1005.715	1435.46
1006.009	1389.81
1006.304	1421.67
1006.598	1388.68
1006.892	1397.72
1007.186	1401.33
1007.48	1373.54
1007.773	1377.61
1008.067	1365.4
1008.361	1369.02
1008.655	1362.69
1008.948	1336.48
1009.242	1353.88
1009.535	1312.07
1009.829	1304.16
1010.122	1310.49
1010.415	1298.96
1010.708	1312.07
1011.001	1309.58
1011.295	1303.93
1011.588	1284.95
1011.881	1270.72
1012.173	1267.1
1012.466	1273.88
1012.759	1244.5
1013.052	1246.08
1013.344	1244.73
1013.637	1219.64
1013.93	1226.2
1014.222	1186.88
1014.514	1221.68
1014.807	1230.49
1015.099	1210.6
1015.391	1219.64
1015.683	1189.14
1015.976	1182.58
1016.268	1200.43
1016.56	1188.01
1016.851	1158.18
1017.143	1181
1017.435	1151.85
1017.727	1148.68
1018.018	1133.77
1018.31	1126.54
1018.602	1119.08
1018.893	1129.48
1019.185	1105.3
1019.476	1107.33
1019.767	1077.5
1020.058	1089.03
1020.35	1093.09
1020.641	1090.38
1020.932	1096.03
1021.223	1071.17
1021.514	1081.12
1021.804	1064.84
1022.095	1067.56
1022.386	1047.9
1022.677	1037.27
1022.967	1032.76
1023.258	1048.35
1023.548	1032.08
1023.839	1026.65
1024.129	994.56
1024.419	1016.94
1024.709	999.08
1025	992.08
1025.29	982.59
1025.58	991.85
1025.87	970.61
1026.16	995.92
1026.449	977.84
1026.739	961.8
1027.029	947.79
1027.319	936.03
1027.608	934.68
1027.898	948.69
1028.187	938.07
1028.477	902.82
1028.766	909.82
1029.055	898.3
1029.344	910.5
1029.634	915.47
1029.923	900.33
1030.212	878.18
1030.501	881.12
1030.79	884.96
1031.078	888.35
1031.367	875.47
1031.656	865.75
1031.945	889.71
1032.233	863.72
1032.522	888.58
1032.81	866.66
1033.099	832.99
1033.387	849.26
1033.675	811.29
1033.963	827.34
1034.251	843.61
1034.54	814
1034.828	835.25
1035.116	829.14
1035.403	818.3
1035.691	805.64
1035.979	805.87
1036.267	804.51
1036.554	807.22
1036.842	788.47
1037.129	800.22
1037.417	782.82
1037.704	804.06
1037.992	791.41
1038.279	773.1
1038.566	788.92
1038.853	788.92
1039.14	788.92
