Data from foam1_polythene_foam_FLMS001491_00017.txt Node
Date: Wed Feb 08 10:54:27 GMT 2017
User: dcchb
Spectrometer: FLMS00149
Trigger mode: 0
Integration Time (sec): 2.000000E-2
Scans to average: 10
Electric dark correction enabled: true
Nonlinearity correction enabled: false
Boxcar width: 0
XAxis mode: Wavelengths
Number of Pixels in Spectrum: 2048
>>>>>Begin Spectral Data<<<<<
341.393	-11.85
341.776	-11.85
342.16	-11.85
342.543	-70.83
342.927	-54.11
343.31	-59.53
343.693	-79.64
344.077	-47.56
344.46	-63.37
344.843	-62.24
345.226	-49.82
345.61	-30.83
345.993	-5.3
346.376	3.97
346.759	-1.23
347.142	31.99
347.525	18.66
347.908	63.85
348.291	85.55
348.674	86
349.057	109.5
349.44	107.24
349.823	120.35
350.206	161.03
350.588	188.14
350.971	185.21
351.354	200.35
351.737	204.19
352.119	239.44
352.502	260.23
352.884	267.46
353.267	248.48
353.65	279.44
354.032	281.7
354.414	277.18
354.797	292.55
355.179	303.17
355.562	306.33
355.944	318.99
356.326	326.9
356.709	312.66
357.091	304.75
357.473	327.8
357.855	337.29
358.238	321.93
358.62	321.93
359.002	317.86
359.384	319.44
359.766	318.31
360.148	334.36
360.53	327.35
360.912	308.59
361.294	318.31
361.676	316.05
362.057	323.06
362.439	318.54
362.821	298.2
363.203	340.91
363.584	288.26
363.966	287.35
364.348	318.54
364.729	309.5
365.111	288.93
365.493	289.16
365.874	300.23
366.256	307.69
366.637	310.18
367.019	305.2
367.4	294.81
367.781	288.26
368.163	301.14
368.544	322.15
368.925	311.31
369.306	315.37
369.688	293.68
370.069	308.37
370.45	289.39
370.831	294.58
371.212	307.24
371.593	298.2
371.974	282.61
372.355	297.97
372.736	304.53
373.117	304.75
373.498	289.16
373.879	286.22
374.26	308.59
374.641	323.06
375.021	300.01
375.402	291.64
375.783	288.71
376.163	289.61
376.544	316.05
376.925	320.8
377.305	321.02
377.686	306.79
378.066	297.52
378.447	338.88
378.827	309.95
379.208	312.89
379.588	316.73
379.968	323.06
380.349	320.8
380.729	320.8
381.109	343.62
381.489	336.84
381.87	323.96
382.25	334.81
382.63	333.9
383.01	326.9
383.39	326.67
383.77	341.14
384.15	326.9
384.53	313.34
384.91	338.2
385.29	348.14
385.67	329.38
386.049	340.68
386.429	339.78
386.809	332.1
387.189	343.62
387.568	346.33
387.948	331.42
388.328	339.1
388.707	364.19
389.087	338.2
389.466	357.86
389.846	322.6
390.225	340.46
390.605	354.24
390.984	340.23
391.363	339.33
391.743	334.58
392.122	376.61
392.501	363.06
392.881	370.06
393.26	357.86
393.639	362.15
394.018	357.86
394.397	369.16
394.776	343.85
395.155	351.76
395.534	349.27
395.913	386.78
396.292	397.18
396.671	351.76
397.05	355.15
397.429	368.48
397.808	384.52
398.186	366.67
398.565	367.58
398.944	364.86
399.323	372.55
399.701	389.95
400.08	378.65
400.458	373.22
400.837	367.8
401.215	378.2
401.594	383.62
401.972	381.59
402.351	375.71
402.729	394.24
403.107	388.14
403.486	409.83
403.864	409.61
404.242	394.69
404.62	396.27
404.999	411.64
405.377	391.08
405.755	398.08
406.133	390.4
406.511	406.22
406.889	389.72
407.267	432.43
407.645	415.94
408.023	418.42
408.401	401.7
408.779	395.82
409.156	420
409.534	430.85
409.912	417.29
410.29	418.87
410.667	420.23
411.045	428.82
411.422	426.56
411.8	415.26
412.178	416.84
412.555	447.8
412.933	429.95
413.31	441.92
413.687	446.67
414.065	455.26
414.442	457.97
414.819	463.62
415.197	431.08
415.574	462.04
415.951	452.77
416.328	464.97
416.705	467.01
417.082	474.01
417.46	447.35
417.837	473.11
418.214	476.27
418.591	470.85
418.967	468.59
419.344	466.78
419.721	476.05
420.098	457.97
420.475	486.67
420.852	489.61
421.228	463.62
421.605	495.71
421.982	466.33
422.358	490.06
422.735	489.38
423.111	507.91
423.488	518.31
423.864	504.52
424.241	484.63
424.617	504.97
424.994	507.68
425.37	508.59
425.746	516.72
426.123	510.62
426.499	530.28
426.875	537.97
427.251	529.83
427.627	539.32
428.003	559.89
428.379	529.15
428.756	527.12
429.132	547.01
429.507	553.56
429.883	549.27
430.259	528.25
430.635	558.53
431.011	572.32
431.387	552.88
431.763	575.71
432.138	565.31
432.514	572.99
432.89	577.97
433.265	580
433.641	603.05
434.016	606.21
434.392	592.43
434.767	587.68
435.143	604.86
435.518	619.09
435.894	612.09
436.269	655.7
436.644	604.63
437.02	612.09
437.395	647.12
437.77	637.4
438.145	632.43
438.52	645.76
438.895	669.94
439.271	671.3
439.646	648.47
440.021	673.1
440.395	674.23
440.77	648.92
441.145	654.12
441.52	702.26
441.895	673.33
442.27	709.04
442.645	698.19
443.019	697.96
443.394	703.84
443.769	711.97
444.143	684.4
444.518	711.29
444.892	720.11
445.267	719.66
445.641	736.38
446.016	738.41
446.39	732.31
446.764	745.42
447.139	744.97
447.513	735.93
447.887	753.55
448.262	761.69
448.636	753.33
449.01	773.89
449.384	803.72
449.758	805.08
450.132	776.6
450.506	798.07
450.88	795.13
451.254	784.97
451.628	814.34
452.002	815.25
452.376	848.92
452.75	830.61
453.123	816.38
453.497	804.63
453.871	832.42
454.244	841.01
454.618	863.83
454.992	860.22
455.365	856.38
455.739	877.84
456.112	864.29
456.486	892.31
456.859	872.19
457.232	878.3
457.606	874.68
457.979	870.84
458.352	878.75
458.725	875.81
459.099	899.54
459.472	883.95
459.845	924.85
460.218	879.88
460.591	890.27
460.964	928.01
461.337	932.76
461.71	959.65
462.083	951.06
462.456	942.25
462.829	953.77
463.201	936.37
463.574	953.77
463.947	965.07
464.32	965.53
464.692	992.42
465.065	969.82
465.438	1001.23
465.81	995.81
466.183	975.47
466.555	1001.68
466.928	991.06
467.3	998.29
467.672	1029.03
468.045	1022.25
468.417	1025.86
468.789	1061.34
469.161	1065.41
469.534	1085.3
469.906	1064.28
470.278	1072.64
470.65	1061.79
471.022	1074
471.394	1136.14
471.766	1126.65
472.138	1134.56
472.51	1141.57
472.882	1156.93
473.253	1159.19
473.625	1195.12
473.997	1183.6
474.369	1182.24
474.74	1210.49
475.112	1208.91
475.484	1229.7
475.855	1243.26
476.227	1247.55
476.598	1283.71
476.97	1272.18
477.341	1307.44
477.713	1318.74
478.084	1325.52
478.455	1339.3
478.827	1366.42
479.198	1390.6
479.569	1393.31
479.94	1410.94
480.311	1418.39
480.682	1446.42
481.053	1455.91
481.424	1470.6
481.795	1490.03
482.166	1533.65
482.537	1536.36
482.908	1552.63
483.279	1542.23
483.65	1593.31
484.021	1589.46
484.391	1607.99
484.762	1613.87
485.133	1683.25
485.503	1660.42
485.874	1717.82
486.244	1698.61
486.615	1718.73
486.985	1763.47
487.356	1779.97
487.726	1810.93
488.097	1836.24
488.467	1816.35
488.837	1840.3
489.207	1834.88
489.578	1894.54
489.948	1886.86
490.318	1950.81
490.688	1949.68
491.058	1985.39
491.428	1972.5
491.798	1995.55
492.168	2013.86
492.538	2036.01
492.908	2054.99
493.278	2064.03
493.648	2074.65
494.017	2108.09
494.387	2121.65
494.757	2085.04
495.126	2125.27
495.496	2127.53
495.866	2181.31
496.235	2190.8
496.605	2205.94
496.974	2238.26
497.344	2240.07
497.713	2261.76
498.082	2250.92
498.452	2298.15
498.821	2277.58
499.19	2270.8
499.559	2321.42
499.928	2359.61
500.298	2311.48
500.667	2354.64
501.036	2356
501.405	2363.45
501.774	2399.39
502.143	2421.08
502.512	2429.67
502.88	2444.36
503.249	2470.57
503.618	2435.32
503.987	2464.7
504.356	2503.56
504.724	2483.9
505.093	2515.32
505.462	2514.86
505.83	2520.51
506.199	2560.51
506.567	2600.96
506.936	2554.18
507.304	2599.83
507.672	2625.37
508.041	2635.76
508.409	2645.93
508.777	2708.98
509.145	2729.09
509.514	2679.38
509.882	2700.17
510.25	2685.25
510.618	2745.14
510.986	2755.99
511.354	2769.55
511.722	2795.31
512.09	2835.31
512.458	2806.83
512.826	2866.27
513.193	2875.08
513.561	2854.29
513.929	2896.32
514.297	2945.13
514.664	2912.37
515.032	2945.81
515.4	2983.1
515.767	2960.05
516.135	3002.31
516.502	3005.25
516.869	3036.88
517.237	3032.14
517.604	3093.38
517.972	3064.68
518.339	3084.79
518.706	3119.37
519.073	3146.03
519.44	3151
519.808	3179.25
520.175	3200.27
520.542	3207.05
520.909	3261.96
521.276	3210.89
521.643	3294.5
522.009	3288.85
522.376	3318.91
522.743	3316.88
523.11	3335.86
523.477	3393.94
523.843	3383.77
524.21	3455.4
524.577	3458.12
524.943	3480.71
525.31	3493.82
525.676	3535.4
526.043	3549.64
526.409	3549.19
526.776	3547.38
527.142	3545.8
527.508	3629.18
527.874	3677.09
528.241	3700.37
528.607	3677.77
528.973	3738.33
529.339	3741.72
529.705	3746.24
530.071	3793.25
530.437	3809.74
530.803	3820.37
531.169	3840.03
531.535	3846.81
531.901	3873.47
532.267	3926.58
532.632	3937.2
532.998	3955.5
533.364	3909.63
533.73	4001.38
534.095	3955.96
534.461	4017.42
534.826	4006.12
535.192	4016.97
535.557	4046.57
535.923	4060.59
536.288	4078.66
536.653	4056.29
537.019	4054.94
537.384	4120.47
537.749	4039.12
538.114	4162.05
538.479	4212.67
538.845	4163.18
539.21	4229.85
539.575	4199.34
539.94	4232.11
540.305	4229.85
540.67	4264.87
541.034	4282.73
541.399	4257.87
541.764	4277.53
542.129	4322.73
542.494	4360.92
542.858	4368.6
543.223	4340.35
543.587	4344.65
543.952	4398.43
544.316	4355.04
544.681	4330.18
545.045	4432.78
545.41	4444.98
545.774	4469.16
546.138	4482.27
546.503	4482.72
546.867	4517.75
547.231	4522.95
547.595	4511.42
547.959	4535.38
548.324	4548.26
548.688	4597.97
549.052	4555.04
549.416	4584.87
549.779	4614.24
550.143	4661.47
550.507	4676.16
550.871	4669.61
551.235	4694.24
551.599	4699.66
551.962	4714.58
552.326	4734.24
552.689	4762.04
553.053	4736.27
553.417	4784.18
553.78	4845.42
554.143	4854.91
554.507	4902.37
554.87	4893.33
555.234	4927.91
555.597	4885.65
555.96	4912.09
556.323	4929.72
556.686	5000.9
557.05	5000.45
557.413	5010.16
557.776	5039.54
558.139	5077.28
558.502	5087.9
558.865	5105.3
559.228	5130.16
559.59	5136.72
559.953	5122.93
560.316	5217.84
560.679	5251.51
561.041	5240.22
561.404	5327.67
561.767	5339.42
562.129	5280.67
562.492	5343.94
562.854	5312.98
563.217	5336.26
563.579	5375.8
563.941	5442.92
564.304	5472.07
564.666	5486.54
565.028	5507.55
565.39	5538.96
565.753	5560.43
566.115	5600.43
566.477	5637.49
566.839	5646.76
567.201	5636.59
567.563	5638.4
567.925	5682.69
568.287	5709.36
568.648	5705.74
569.01	5761.56
569.372	5826.87
569.734	5786.42
570.095	5815.79
570.457	5847.21
570.819	5936.02
571.18	5879.29
571.542	5889.92
571.903	5865.51
572.265	5947.32
572.626	5932.17
572.987	6013.08
573.349	6011.72
573.71	6064.83
574.071	5992.51
574.432	6056.92
574.794	6068.22
575.155	6101.21
575.516	6082.23
575.877	6073.41
576.238	6050.59
576.599	6182.56
576.96	6142.11
577.32	6193.41
577.681	6142.11
578.042	6218.72
578.403	6212.85
578.763	6181.66
579.124	6235.22
579.485	6179.63
579.845	6230.02
580.206	6251.94
580.566	6256.46
580.927	6276.35
581.287	6289.91
581.648	6289
582.008	6340.98
582.368	6263.01
582.728	6291.71
583.089	6284.48
583.449	6286.97
583.809	6277.25
584.169	6302.33
584.529	6291.94
584.889	6333.07
585.249	6309.11
585.609	6300.3
585.969	6341.43
586.329	6290.13
586.688	6311.15
587.048	6275.89
587.408	6321.09
587.768	6311.83
588.127	6258.49
588.487	6311.83
588.846	6393.86
589.206	6292.39
589.565	6310.47
589.925	6342.56
590.284	6366.29
590.643	6372.39
591.003	6366.06
591.362	6380.98
591.721	6324.93
592.08	6320.64
592.44	6361.99
592.799	6413.74
593.158	6332.62
593.517	6391.6
593.876	6399.28
594.235	6393.18
594.593	6366.06
594.952	6314.99
595.311	6331.49
595.67	6344.59
596.029	6419.62
596.387	6456.68
596.746	6428.66
597.104	6394.99
597.463	6377.81
597.822	6406.51
598.18	6364.48
598.538	6396.34
598.897	6447.42
599.255	6423.69
599.613	6462.78
599.972	6439.96
600.33	6475.89
600.688	6394.31
601.046	6475.21
601.404	6480.18
601.762	6433.4
602.12	6494.42
602.478	6448.09
602.836	6438.6
603.194	6439.96
603.552	6437.7
603.91	6482.44
604.268	6484.93
604.625	6479.96
604.983	6473.4
605.341	6457.13
605.698	6488.54
606.056	6532.16
606.413	6460.07
606.771	6490.13
607.128	6524.7
607.485	6517.47
607.843	6470.69
608.2	6517.7
608.557	6536.23
608.914	6558.6
609.272	6503.68
609.629	6553.85
609.986	6560.63
610.343	6552.72
610.7	6572.38
611.057	6570.58
611.414	6610.12
611.771	6564.93
612.127	6551.59
612.484	6656.45
612.841	6616.45
613.198	6630.24
613.554	6583.91
613.911	6656.22
614.267	6634.3
614.624	6646.51
614.98	6660.06
615.337	6697.8
615.693	6686.96
616.05	6641.53
616.406	6655.55
616.762	6593.63
617.118	6604.7
617.475	6739.38
617.831	6723.79
618.187	6684.02
618.543	6736.67
618.899	6713.17
619.255	6704.58
619.611	6717.01
619.967	6730.8
620.323	6696.22
620.678	6685.6
621.034	6669.78
621.39	6728.31
621.746	6671.14
622.101	6802.21
622.457	6722.89
622.812	6714.3
623.168	6719.27
623.523	6735.54
623.879	6717.24
624.234	6670.46
624.589	6708.88
624.945	6670.46
625.3	6698.48
625.655	6651.25
626.01	6641.53
626.365	6685.6
626.72	6679.05
627.075	6729.22
627.43	6652.38
627.785	6635.43
628.14	6625.26
628.495	6655.55
628.85	6659.84
629.205	6619.16
629.559	6687.86
629.914	6618.71
630.269	6593.4
630.623	6602.21
630.978	6606.73
631.332	6587.52
631.687	6626.62
632.041	6579.39
632.396	6608.31
632.75	6580.07
633.104	6567.64
633.459	6529.45
633.813	6528.77
634.167	6551.14
634.521	6517.24
634.875	6552.27
635.229	6547.98
635.583	6511.37
635.937	6508.88
636.291	6524.25
636.645	6524.7
636.999	6420.52
637.352	6488.32
637.706	6423.91
638.06	6479.96
638.413	6489.67
638.767	6434.53
639.121	6435.21
639.474	6410.35
639.828	6394.76
640.181	6436.57
640.534	6357.02
640.888	6370.13
641.241	6379.85
641.594	6347.3
641.947	6347.76
642.301	6342.56
642.654	6329
643.007	6376.46
643.36	6348.43
643.713	6367.87
644.066	6397.47
644.419	6291.71
644.771	6175.56
645.124	6083.36
645.477	6034.77
645.83	5992.06
646.182	6050.59
646.535	6053.98
646.888	6122.9
647.24	6137.14
647.593	6179.85
647.945	6164.03
648.298	6125.62
648.65	6113.19
649.002	6082.45
649.355	6133.98
649.707	6046.3
650.059	6063.47
650.411	6091.49
650.763	6100.53
651.115	6155.45
651.467	6130.59
651.819	6158.38
652.171	6200.42
652.523	6126.29
652.875	6144.15
653.227	6141.66
653.578	6128.78
653.93	6110.02
654.282	6093.3
654.633	6090.59
654.985	6050.36
655.337	6103.7
655.688	6079.06
656.039	6106.41
656.391	6006.97
656.742	6048.56
657.094	6035.9
657.445	6058.72
657.796	6012.17
658.147	6043.81
658.498	6031.61
658.849	6013.75
659.2	6060.76
659.551	5986.86
659.902	6069.35
660.253	6014.66
660.604	5990.7
660.955	5912.74
661.306	6003.81
661.656	5969.46
662.007	5980.08
662.358	5987.09
662.708	5962.46
663.059	5983.7
663.409	5963.59
663.76	5994.55
664.11	5983.7
664.461	6006.07
664.811	6009.91
665.161	6001.55
665.511	5984.83
665.862	6004.26
666.212	5986.41
666.562	5985.28
666.912	5897.6
667.262	5878.39
667.612	5907.77
667.962	5937.6
668.312	5908.45
668.662	5950.48
669.011	5907.32
669.361	5942.12
669.711	5961.1
670.06	5895.57
670.41	5937.37
670.76	5912.74
671.109	5954.77
671.459	5943.02
671.808	5907.32
672.157	5902.34
672.507	5880.65
672.856	5837.04
673.205	5869.35
673.554	5830.71
673.904	5875.9
674.253	5893.31
674.602	5847.66
674.951	5804.72
675.3	5766.98
675.649	5858.73
675.998	5825.28
676.346	5854.21
676.695	5888.33
677.044	5831.16
677.393	5825.74
677.741	5893.76
678.09	5794.55
678.438	5800.2
678.787	5824.61
679.135	5827.54
679.484	5713.42
679.832	5790.71
680.181	5717.49
680.529	5769.69
680.877	5784.38
681.225	5727.21
681.573	5798.84
681.922	5759.52
682.27	5714.55
682.618	5712.29
682.966	5771.05
683.314	5725.4
683.661	5733.54
684.009	5669.58
684.357	5622.35
684.705	5656.02
685.053	5623.93
685.4	5625.74
685.748	5600.88
686.095	5555.01
686.443	5612.18
686.79	5580.09
687.138	5584.61
687.485	5581.9
687.832	5566.76
688.18	5543.71
688.527	5530.38
688.874	5561.79
689.221	5545.52
689.568	5517.27
689.915	5547.55
690.262	5500.32
690.609	5500.32
690.956	5477.95
691.303	5458.51
691.65	5457.38
691.997	5380.32
692.344	5386.43
692.69	5412.87
693.037	5404.96
693.383	5378.97
693.73	5376.03
694.077	5379.87
694.423	5360.89
694.769	5308.24
695.116	5346.43
695.462	5258.97
695.808	5289.71
696.155	5271.4
696.501	5228.46
696.847	5221.23
697.193	5166.09
697.539	5195.24
697.885	5213.55
698.231	5198.41
698.577	5177.39
698.923	5177.17
699.269	5210.84
699.614	5158.41
699.96	5148.69
700.306	5119.31
700.651	5080.9
700.997	5042.93
701.342	5042.03
701.688	5038.41
702.033	5056.72
702.379	5058.53
702.724	5005.19
703.069	5005.42
703.415	4952.77
703.76	4960.45
704.105	4966.55
704.45	4947.57
704.795	4927.46
705.14	4923.16
705.485	4917.96
705.83	4889.72
706.175	4930.84
706.52	4934.46
706.865	4921.35
707.209	4907.12
707.554	4899.89
707.899	4903.28
708.243	4810.17
708.588	4856.04
708.932	4818.98
709.277	4755.26
709.621	4788.48
709.966	4800.68
710.31	4767.69
710.654	4744.18
710.998	4734.01
711.342	4772.43
711.687	4736.27
712.031	4738.76
712.375	4719.1
712.719	4733.56
713.063	4746.44
713.407	4738.31
713.75	4713.22
714.094	4668.7
714.438	4659.89
714.782	4636.62
715.125	4667.35
715.469	4625.09
715.812	4637.97
716.156	4581.7
716.499	4613.11
716.843	4633
717.186	4611.76
717.53	4619.44
717.873	4630.74
718.216	4634.13
718.559	4633.45
718.902	4578.31
719.246	4607.24
719.589	4581.48
719.932	4555.49
720.275	4513.45
720.617	4526.11
720.96	4535.83
721.303	4499.44
721.646	4512.55
721.989	4447.24
722.331	4510.07
722.674	4433
723.016	4463.74
723.359	4468.71
723.701	4456.73
724.044	4453.12
724.386	4416.28
724.729	4440.91
725.071	4432.55
725.413	4443.85
725.755	4449.05
726.097	4422.16
726.439	4369.28
726.782	4404.31
727.124	4377.87
727.465	4352.78
727.807	4366.34
728.149	4391.2
728.491	4354.14
728.833	4379.22
729.175	4308.71
729.516	4311.88
729.858	4336.51
730.199	4327.24
730.541	4344.65
730.882	4346.91
731.224	4345.1
731.565	4339.22
731.906	4304.19
732.248	4316.4
732.589	4316.62
732.93	4263.52
733.271	4290.64
733.612	4291.99
733.953	4282.05
734.294	4241.37
734.635	4242.73
734.976	4252.9
735.317	4226
735.658	4225.33
735.999	4186.23
736.339	4186.91
736.68	4222.16
737.021	4224.42
737.361	4231.2
737.702	4249.05
738.042	4233.91
738.383	4196.17
738.723	4209.96
739.063	4192.56
739.404	4164.31
739.744	4188.27
740.084	4161.37
740.424	4176.29
740.764	4166.8
741.104	4155.72
741.444	4085.9
741.784	4122.05
742.124	4148.72
742.464	4164.76
742.804	4103.07
743.143	4088.83
743.483	4115.05
743.823	4077.53
744.162	4094.03
744.502	4131.77
744.841	4146.01
745.181	4089.29
745.52	4111.66
745.86	4066.23
746.199	4081.6
746.538	4056.74
746.877	4093.8
747.216	4114.82
747.556	4028.95
747.895	4040.47
748.234	3994.37
748.573	4032.79
748.911	3988.27
749.25	4001.83
749.589	4021.04
749.928	3975.84
750.267	3982.85
750.605	3982.62
750.944	3957.54
751.283	3995.28
751.621	3965.9
751.96	3932.68
752.298	3959.12
752.636	3936.07
752.975	3939.23
753.313	3936.52
753.651	3947.59
753.989	3909.4
754.327	3889.74
754.666	3876.41
755.004	3875.05
755.342	3870.31
755.679	3869.18
756.017	3815.85
756.355	3822.17
756.693	3837.99
757.031	3864.88
757.368	3878.22
757.706	3829.63
758.044	3753.7
758.381	3827.6
758.719	3773.81
759.056	3823.76
759.394	3781.27
759.731	3782.63
760.068	3775.4
760.405	3774.72
760.743	3750.54
761.08	3764.77
761.417	3715.28
761.754	3744.44
762.091	3737.2
762.428	3705.34
762.765	3684.55
763.102	3661.95
763.438	3688.62
763.775	3635.51
764.112	3644.78
764.449	3656.3
764.785	3632.12
765.122	3598.9
765.458	3614.5
765.795	3590.09
766.131	3604.33
766.467	3613.59
766.804	3563.2
767.14	3573.14
767.476	3545.34
767.812	3576.76
768.148	3574.72
768.485	3500.37
768.821	3532.46
769.157	3479.58
769.492	3508.28
769.828	3480.71
770.164	3471.9
770.5	3445.23
770.836	3426.93
771.171	3421.73
771.507	3426.48
771.842	3387.38
772.178	3418.57
772.513	3381.51
772.849	3405.01
773.184	3379.93
773.519	3380.83
773.855	3398
774.19	3333.6
774.525	3374.5
774.86	3376.76
775.195	3338.8
775.53	3360.72
775.865	3288.85
776.2	3297.22
776.535	3291.57
776.87	3266.26
777.205	3269.87
777.539	3219.48
777.874	3212.47
778.209	3200.95
778.543	3202.3
778.878	3173.15
779.212	3191.23
779.547	3183.32
779.881	3175.41
780.215	3181.06
780.55	3144.23
780.884	3142.87
781.218	3135.64
781.552	3170.44
781.886	3134.96
782.22	3132.25
782.554	3108.97
782.888	3114.85
783.222	3089.09
783.556	3077.11
783.889	3050.89
784.223	3045.47
784.557	3040.73
784.89	3022.19
785.224	2987.17
785.557	2977.45
785.891	2960.5
786.224	2990.33
786.558	2955.3
786.891	2941.97
787.224	2961.41
787.557	2940.39
787.891	2911.01
788.224	2927.51
788.557	2977.45
788.89	2958.24
789.223	2943.1
789.556	2923.21
789.888	2914.85
790.221	2887.96
790.554	2897.9
790.887	2934.06
791.219	2886.6
791.552	2882.54
791.884	2854.97
792.217	2817
792.549	2840.28
792.882	2810.45
793.214	2803.44
793.546	2764.35
793.879	2728.64
794.211	2756.66
794.543	2776.1
794.875	2744.91
795.207	2761.41
795.539	2721.41
795.871	2728.19
796.203	2722.99
796.535	2701.75
796.867	2750.79
797.198	2734.97
797.53	2751.24
797.862	2710.11
798.193	2740.62
798.525	2706.04
798.856	2713.73
799.188	2706.04
799.519	2648.19
799.85	2662.88
800.182	2655.2
800.513	2652.26
800.844	2626.95
801.175	2625.59
801.506	2622.66
801.837	2613.39
802.168	2610.23
802.499	2567.07
802.83	2584.92
803.161	2594.41
803.491	2595.31
803.822	2595.09
804.153	2591.25
804.483	2565.71
804.814	2530.91
805.145	2564.58
805.475	2583.79
805.805	2553.73
806.136	2575.88
806.466	2525.94
806.796	2538.37
807.126	2515.54
807.457	2472.15
807.787	2494.52
808.117	2536.78
808.447	2476.67
808.777	2479.84
809.107	2434.87
809.436	2467.41
809.766	2481.42
810.096	2452.04
810.426	2455.2
810.755	2418.37
811.085	2445.49
811.414	2409.56
811.744	2445.03
812.073	2422.66
812.403	2443
812.732	2445.71
813.061	2455.43
813.39	2436.67
813.719	2404.13
814.049	2438.93
814.378	2435.54
814.707	2401.42
815.036	2400.06
815.365	2424.47
815.693	2353.06
816.022	2383.12
816.351	2368.2
816.68	2359.16
817.008	2347.41
817.337	2302.89
817.665	2313.74
817.994	2328.43
818.322	2291.37
818.651	2327.3
818.979	2325.04
819.307	2285.94
819.636	2307.86
819.964	2314.87
820.292	2302.67
820.62	2296.56
820.948	2335.43
821.276	2332.95
821.604	2302.21
821.932	2339.95
822.259	2311.93
822.587	2280.07
822.915	2321.87
823.243	2317.58
823.57	2285.49
823.898	2315.77
824.225	2292.95
824.553	2271.93
824.88	2288.2
825.207	2271.71
825.535	2271.48
825.862	2273.51
826.189	2303.57
826.516	2258.6
826.843	2284.36
827.17	2258.82
827.497	2273.06
827.824	2304.25
828.151	2307.19
828.478	2296.56
828.805	2324.36
829.131	2277.58
829.458	2292.72
829.785	2301.54
830.111	2268.99
830.438	2320.29
830.764	2296.11
831.09	2282.78
831.417	2298.6
831.743	2285.72
832.069	2292.5
832.395	2269.9
832.722	2306.06
833.048	2224.48
833.374	2266.06
833.7	2271.03
834.026	2238.26
834.351	2258.6
834.677	2261.31
835.003	2261.76
835.329	2269.9
835.654	2235.1
835.98	2244.36
836.306	2297.69
836.631	2241.2
836.956	2266.51
837.282	2250.92
837.607	2302.89
837.932	2238.26
838.258	2245.27
838.583	2244.14
838.908	2236.9
839.233	2232.61
839.558	2229.9
839.883	2250.92
840.208	2240.75
840.533	2219.05
840.858	2241.65
841.182	2240.29
841.507	2236.23
841.832	2235.32
842.156	2182.22
842.481	2193.97
842.805	2198.49
843.13	2163.46
843.454	2180.18
843.778	2169.34
844.103	2160.07
844.427	2156.68
844.751	2165.27
845.075	2170.69
845.399	2149
845.723	2146.51
846.047	2156.91
846.371	2146.96
846.695	2158.04
847.019	2149.68
847.343	2142.44
847.666	2132.05
847.99	2126.4
848.313	2130.69
848.637	2121.2
848.96	2086.85
849.284	2093.41
849.607	2090.69
849.931	2074.42
850.254	2047.3
850.577	2029.68
850.9	2039.17
851.223	2031.03
851.546	2017.7
851.869	2002.79
852.192	1998.94
852.515	2004.14
852.838	1965.05
853.161	1994.88
853.483	1999.85
853.806	1986.29
854.129	1970.24
854.451	1986.52
854.774	1992.62
855.096	1967.76
855.419	2004.14
855.741	1953.07
856.063	2006.63
856.385	1960.08
856.708	1972.28
857.03	1962.79
857.352	1997.81
857.674	1930.92
857.996	1955.33
858.318	1921.88
858.64	1927.08
858.961	1924.37
859.283	1919.62
859.605	1917.82
859.926	1915.33
860.248	1901.55
860.57	1893.64
860.891	1879.4
861.212	1888.21
861.534	1892.73
861.855	1876.24
862.176	1886.41
862.498	1887.99
862.819	1863.35
863.14	1862.68
863.461	1862.9
863.782	1869.68
864.103	1858.61
864.424	1849.8
864.745	1890.92
865.065	1866.52
865.386	1858.16
865.707	1847.99
866.027	1855.67
866.348	1861.77
866.668	1876.91
866.989	1848.21
867.309	1829.68
867.63	1844.82
867.95	1836.69
868.27	1829.91
868.59	1786.29
868.91	1802.57
869.23	1806.63
869.55	1765.28
869.87	1800.08
870.19	1817.25
870.51	1799.18
870.83	1805.73
871.15	1773.19
871.469	1792.17
871.789	1767.31
872.109	1777.03
872.428	1744.04
872.748	1793.07
873.067	1800.76
873.386	1813.41
873.706	1820.19
874.025	1809.12
874.344	1804.83
874.663	1788.1
874.982	1792.4
875.301	1797.37
875.62	1777.03
875.939	1778.84
876.258	1773.41
876.577	1765.73
876.896	1770.7
877.214	1780.19
877.533	1753.75
877.852	1769.8
878.17	1769.35
878.489	1733.19
878.807	1740.19
879.125	1711.49
879.444	1727.77
879.762	1734.32
880.08	1742.68
880.398	1744.94
880.716	1687.77
881.034	1718.73
881.352	1733.87
881.67	1720.31
881.988	1709.46
882.306	1726.41
882.624	1711.49
882.941	1709.91
883.259	1736.58
883.577	1730.25
883.894	1713.08
884.212	1695.45
884.529	1722.34
884.846	1706.3
885.164	1729.35
885.481	1732.28
885.798	1693.87
886.115	1714.88
886.432	1690.03
886.75	1704.94
887.067	1672.4
887.383	1659.29
887.7	1635.79
888.017	1679.18
888.334	1662.23
888.651	1655.22
888.967	1649.58
889.284	1661.33
889.6	1619.29
889.917	1606.86
890.233	1613.42
890.55	1618.39
890.866	1581.1
891.182	1616.81
891.498	1607.99
891.815	1615
892.131	1581.1
892.447	1603.25
892.763	1596.24
893.079	1616.81
893.395	1635.56
893.71	1613.87
894.026	1596.47
894.342	1568
894.657	1628.11
894.973	1597.83
895.289	1607.99
895.604	1593.76
895.92	1593.98
896.235	1550.82
896.55	1574.1
896.865	1566.41
897.181	1557.6
897.496	1542.23
897.811	1555.34
898.126	1538.84
898.441	1527.77
898.756	1506.98
899.071	1501.56
899.386	1482.35
899.7	1499.52
900.015	1514.21
900.33	1510.82
900.644	1490.26
900.959	1497.94
901.273	1481.9
901.588	1473.31
901.902	1487.55
902.216	1476.92
902.531	1452.74
902.845	1485.06
903.159	1475.12
903.473	1469.69
903.787	1485.29
904.101	1455.91
904.415	1442.58
904.729	1469.69
905.042	1452.07
905.356	1456.36
905.67	1468.11
905.984	1461.56
906.297	1457.49
906.611	1417.72
906.924	1422.91
907.237	1428.34
907.551	1402.35
907.864	1411.16
908.177	1398.96
908.491	1413.65
908.804	1387.66
909.117	1363.71
909.43	1379.3
909.743	1351.73
910.056	1374.55
910.368	1380.66
910.681	1377.49
910.994	1350.83
911.307	1317.15
911.619	1338.62
911.932	1330.04
912.244	1358.51
912.557	1326.87
912.869	1338.85
913.181	1321
913.494	1343.14
913.806	1333.2
914.118	1351.73
914.43	1338.4
914.742	1330.71
915.054	1319.87
915.366	1320.32
915.678	1312.18
915.99	1313.99
916.302	1273.31
916.613	1310.6
916.925	1300.88
917.236	1298.17
917.548	1307.21
917.859	1289.81
918.171	1287.1
918.482	1253.88
918.794	1268.79
919.105	1219.76
919.416	1238.06
919.727	1227.89
920.038	1215.46
920.349	1225.86
920.66	1228.8
920.971	1231.28
921.282	1241
921.593	1222.92
921.903	1215.69
922.214	1216.37
922.525	1197.84
922.835	1201
923.146	1208.23
923.456	1208.91
923.767	1204.62
924.077	1194.22
924.387	1193.54
924.697	1203.49
925.008	1210.26
925.318	1154.45
925.628	1160.1
925.938	1174.33
926.248	1156.25
926.558	1142.02
926.867	1156.03
927.177	1163.03
927.487	1115.13
927.796	1154.45
928.106	1131.17
928.416	1156.25
928.725	1137.05
929.034	1130.27
929.344	1118.97
929.653	1105.86
929.962	1088.91
930.271	1089.59
930.581	1059.08
930.89	1109.7
931.199	1094.34
931.508	1077.84
931.817	1091.4
932.125	1084.62
932.434	1075.81
932.743	1101.34
933.051	1083.49
933.36	1077.16
933.669	1083.26
933.977	1045.07
934.286	1061.57
934.594	1064.73
934.902	1075.13
935.21	1060.44
935.519	1047.56
935.827	1030.61
936.135	1053.88
936.443	1047.78
936.751	1058.4
937.059	1043.26
937.367	1047.56
937.674	1014.34
937.982	1064.28
938.29	1045.3
938.597	1030.83
938.905	1037.16
939.213	997.39
939.52	1011.17
939.827	995.58
940.135	1004.85
940.442	1019.31
940.749	972.3
941.056	961.23
941.363	988.58
941.67	984.28
941.977	982.02
942.284	967.33
942.591	972.08
942.898	958.07
943.205	953.1
943.511	968.01
943.818	954.9
944.125	964.85
944.431	967.11
944.738	993.77
945.044	962.36
945.35	940.89
945.657	946.99
945.963	927.56
946.269	947.67
946.575	946.99
946.881	937.28
947.187	927.56
947.493	925.53
947.799	939.54
948.105	952.87
948.41	931.85
948.716	941.57
949.022	937.05
949.327	902.7
949.633	937.05
949.938	908.8
950.244	921.23
950.549	903.61
950.854	904.96
951.16	911.29
951.465	888.69
951.77	884.4
952.075	890.5
952.38	878.97
952.685	879.2
952.99	860.67
953.294	869.71
953.599	869.93
953.904	847.79
954.209	864.06
954.513	878.3
954.818	880.56
955.122	852.08
955.426	872.65
955.731	859.31
956.035	859.99
956.339	837.17
956.643	854.57
956.948	838.52
957.252	855.7
957.556	859.54
957.86	849.82
958.163	849.37
958.467	836.04
958.771	858.41
959.075	846.88
959.378	825.19
959.682	827.68
959.985	843.27
960.289	840.56
960.592	828.35
960.896	839.65
961.199	822.03
961.502	821.57
961.805	808.92
962.108	779.09
962.411	801.46
962.714	789.48
963.017	805.3
963.32	804.4
963.623	777.73
963.926	781.12
964.228	768.02
964.531	788.81
964.833	763.5
965.136	768.92
965.438	775.7
965.741	742.93
966.043	760.79
966.345	777.51
966.648	773.44
966.95	756.72
967.252	737.06
967.554	754.91
967.856	761.24
968.158	741.8
968.46	760.79
968.761	773.44
969.063	749.26
969.365	749.49
969.666	780.22
969.968	748.36
970.269	743.16
970.571	767.79
970.872	750.62
971.174	743.38
971.475	723.72
971.776	719.66
972.077	716.04
972.378	729.37
972.679	743.61
972.98	731.41
973.281	740.22
973.582	704.74
973.883	725.31
974.183	773.44
974.484	721.01
974.785	709.94
975.085	683.95
975.386	708.81
975.686	714.91
975.986	686.66
976.287	694.35
976.587	711.07
976.887	671.75
977.187	695.02
977.487	703.84
977.787	673.78
978.087	704.97
978.387	691.86
978.687	692.31
978.987	671.07
979.286	671.3
979.586	688.47
979.885	695.7
980.185	668.58
980.484	690.96
980.784	696.83
981.083	670.39
981.382	665.42
981.682	662.26
981.981	685.31
982.28	678.53
982.579	669.49
982.878	669.04
983.177	656.16
983.475	660.9
983.774	626.33
984.073	666.78
984.372	674.23
984.67	661.35
984.969	663.39
985.267	647.79
985.566	652.77
985.864	655.25
986.162	633.56
986.461	628.59
986.759	636.04
987.057	636.72
987.355	638.98
987.653	663.61
987.951	644.86
988.249	641.24
988.547	625.65
988.844	616.61
989.142	628.81
989.44	616.61
989.737	630.84
990.035	611.18
990.332	622.26
990.63	624.52
990.927	611.41
991.224	616.83
991.521	626.33
991.819	620.45
992.116	606.66
992.413	619.77
992.71	580.22
993.006	605.99
993.303	620
993.6	612.99
993.897	608.02
994.193	615.25
994.49	606.66
994.787	594.01
995.083	592.65
995.379	605.99
995.676	601.92
995.972	604.41
996.268	578.42
996.565	582.26
996.861	610.05
997.157	592.65
997.453	558.98
997.749	606.66
998.044	584.97
998.34	601.24
998.636	564.41
998.932	570.73
999.227	588.59
999.523	572.09
999.818	561.24
1000.114	558.53
1000.409	582.03
1000.704	583.84
1001	568.7
1001.295	550.62
1001.59	557.85
1001.885	562.15
1002.18	554.91
1002.475	550.62
1002.77	563.28
1003.065	536.84
1003.359	538.19
1003.654	548.59
1003.949	557.63
1004.243	550.4
1004.538	551.07
1004.832	567.57
1005.127	529.15
1005.421	528.25
1005.715	543.39
1006.009	541.58
1006.304	519.44
1006.598	528.25
1006.892	549.27
1007.186	541.58
1007.48	519.66
1007.773	530.51
1008.067	527.34
1008.361	547.23
1008.655	511.53
1008.948	531.64
1009.242	522.37
1009.535	530.73
1009.829	522.83
1010.122	530.06
1010.415	513.56
1010.708	511.3
1011.001	521.92
1011.295	518.53
1011.588	524.41
1011.881	516.05
1012.173	521.92
1012.466	496.16
1012.759	507.46
1013.052	501.58
1013.344	500
1013.637	492.77
1013.93	497.74
1014.222	487.57
1014.514	495.26
1014.807	496.84
1015.099	476.05
1015.391	490.74
1015.683	508.14
1015.976	509.27
1016.268	505.2
1016.56	463.84
1016.851	503.16
1017.143	486.67
1017.435	480.57
1017.727	481.02
1018.018	466.56
1018.31	493.67
1018.602	468.59
1018.893	469.04
1019.185	471.98
1019.476	475.14
1019.767	478.98
1020.058	490.74
1020.35	483.5
1020.641	468.59
1020.932	455.48
1021.223	468.82
1021.514	465.43
1021.804	465.2
1022.095	449.83
1022.386	472.21
1022.677	445.77
1022.967	457.52
1023.258	445.09
1023.548	425.43
1023.839	450.74
1024.129	448.48
1024.419	453.67
1024.709	435.82
1025	449.61
1025.29	455.93
1025.58	459.32
1025.87	432.43
1026.16	434.47
1026.449	445.54
1026.739	434.69
1027.029	435.37
1027.319	446.22
1027.608	445.09
1027.898	443.05
1028.187	463.62
1028.477	441.25
1028.766	425.43
1029.055	420.46
1029.344	430.85
1029.634	432.66
1029.923	416.84
1030.212	424.52
1030.501	436.95
1030.79	423.84
1031.078	418.65
1031.367	426.1
1031.656	434.92
1031.945	401.47
1032.233	427.23
1032.522	441.47
1032.81	429.72
1033.099	426.33
1033.387	397.86
1033.675	421.58
1033.963	400.12
1034.251	423.17
1034.54	413.45
1034.828	423.39
1035.116	414.58
1035.403	412.09
1035.691	404.18
1035.979	420.91
1036.267	410.06
1036.554	410.96
1036.842	409.38
1037.129	423.39
1037.417	395.6
1037.704	390.17
1037.992	391.3
1038.279	423.62
1038.566	405.77
1038.853	405.77
1039.14	405.77
