Data from foam1_polythene_foam_FLMS001491_00019.txt Node
Date: Wed Feb 08 10:54:28 GMT 2017
User: dcchb
Spectrometer: FLMS00149
Trigger mode: 0
Integration Time (sec): 2.000000E-2
Scans to average: 10
Electric dark correction enabled: true
Nonlinearity correction enabled: false
Boxcar width: 0
XAxis mode: Wavelengths
Number of Pixels in Spectrum: 2048
>>>>>Begin Spectral Data<<<<<
341.393	-3.43
341.776	-3.43
342.16	-3.43
342.543	-59.25
342.927	-62.64
343.31	-77.55
343.693	-60.15
344.077	-69.42
344.46	-65.58
344.843	-47.05
345.226	-48.4
345.61	-15.18
345.993	-31.68
346.376	7.42
346.759	13.52
347.142	6.96
347.525	50.35
347.908	78.15
348.291	71.14
348.674	91.48
349.057	96
349.44	121.54
349.823	136.23
350.206	142.78
350.588	195.88
350.971	215.32
351.354	203.79
351.737	220.97
352.119	227.75
352.502	234.98
352.884	245.15
353.267	264.81
353.65	283.11
354.032	271.36
354.414	295.54
354.797	303
355.179	305.71
355.562	296.22
355.944	317.69
356.326	311.36
356.709	312.72
357.091	316.79
357.473	328.76
357.855	327.86
358.238	314.07
358.62	320.63
359.002	336.9
359.384	326.73
359.766	320.4
360.148	315.66
360.53	332.38
360.912	324.47
361.294	326.95
361.676	313.17
362.057	299.84
362.439	302.32
362.821	309.55
363.203	284.24
363.584	295.54
363.966	291.25
364.348	309.33
364.729	296.67
365.111	291.25
365.493	272.04
365.874	307.07
366.256	292.61
366.637	297.35
367.019	296.45
367.4	312.27
367.781	308.65
368.163	298.48
368.544	290.57
368.925	304.36
369.306	298.25
369.688	308.2
370.069	284.47
370.45	283.57
370.831	292.61
371.212	292.83
371.593	296.22
371.974	296
372.355	291.7
372.736	293.06
373.117	293.51
373.498	298.71
373.879	289.44
374.26	281.53
374.641	300.06
375.021	286.96
375.402	305.71
375.783	301.64
376.163	303.68
376.544	309.78
376.925	309.1
377.305	301.19
377.686	280.4
378.066	321.31
378.447	329.44
378.827	297.58
379.208	316.11
379.588	307.97
379.968	295.54
380.349	302.55
380.729	340.97
381.109	324.92
381.489	312.49
381.87	341.87
382.25	324.92
382.63	315.2
383.01	314.07
383.39	345.03
383.77	328.76
384.15	335.54
384.53	306.39
384.91	322.21
385.29	325.15
385.67	322.44
386.049	338.48
386.429	345.26
386.809	342.32
387.189	335.32
387.568	329.67
387.948	357.69
388.328	335.54
388.707	332.15
389.087	332.6
389.466	328.08
389.846	339.38
390.225	328.99
390.605	339.38
390.984	346.16
391.363	346.39
391.743	335.99
392.122	355.65
392.501	370.34
392.881	352.72
393.26	328.31
393.639	337.58
394.018	360.85
394.397	372.83
394.776	368.08
395.155	351.13
395.534	364.69
395.913	361.76
396.292	361.08
396.671	360.85
397.05	361.3
397.429	362.66
397.808	357.69
398.186	345.26
398.565	365.6
398.944	367.86
399.323	361.53
399.701	372.15
400.08	379.83
400.458	366.5
400.837	384.13
401.215	386.39
401.594	403.34
401.972	370.8
402.351	393.17
402.729	383.45
403.107	374.41
403.486	393.85
403.864	400.4
404.242	378.25
404.62	393.62
404.999	382.09
405.377	416.67
405.755	397.91
406.133	398.14
406.511	393.39
406.889	422.32
407.267	408.31
407.645	416.67
408.023	386.61
408.401	394.75
408.779	410.79
409.156	389.78
409.534	429.1
409.912	405.6
410.29	425.48
410.667	415.31
411.045	414.41
411.422	435.2
411.8	423.68
412.178	427.74
412.555	421.87
412.933	434.07
413.31	443.56
413.687	440.62
414.065	455.31
414.442	427.74
414.819	435.43
415.197	412.6
415.574	458.48
415.951	447.18
416.328	460.06
416.705	461.41
417.082	468.19
417.46	452.83
417.837	460.51
418.214	477.91
418.591	462.32
418.967	467.97
419.344	463.45
419.721	483.33
420.098	496.44
420.475	481.07
420.852	473.84
421.228	474.52
421.605	469.55
421.982	491.92
422.358	493.05
422.735	498.48
423.111	488.76
423.488	509.55
423.864	505.26
424.241	525.14
424.617	503.45
424.994	506.84
425.37	482.43
425.746	515.65
426.123	513.84
426.499	514.97
426.875	505.26
427.251	541.19
427.627	510.68
428.003	513.62
428.379	530.57
428.756	533.73
429.132	532.37
429.507	549.77
429.883	547.97
430.259	540.06
430.635	552.26
431.011	539.15
431.387	563.56
431.763	564.24
432.138	579.38
432.514	560.17
432.89	580.51
433.265	602.65
433.641	596.33
434.016	582.54
434.392	589.09
434.767	592.94
435.143	615.99
435.518	626.61
435.894	617.12
436.269	601.3
436.644	627.96
437.02	625.93
437.395	627.51
437.77	654.18
438.145	638.36
438.52	627.29
438.895	651.01
439.271	661.41
439.646	644.91
440.021	640.62
440.395	657.57
440.77	638.81
441.145	684.23
441.52	686.72
441.895	699.6
442.27	688.53
442.645	675.19
443.019	694.85
443.394	686.04
443.769	711.35
444.143	705.7
444.518	717
444.892	719.49
445.267	709.77
445.641	737.11
446.016	739.37
446.39	723.78
446.764	732.37
447.139	758.81
447.513	759.26
447.887	745.25
448.262	758.81
448.636	745.47
449.01	759.03
449.384	767.62
449.758	780.73
450.132	780.28
450.506	797.45
450.88	778.02
451.254	809.65
451.628	811.01
452.002	807.62
452.376	828.86
452.75	816.43
453.123	781.86
453.497	810.78
453.871	825.02
454.244	842.42
454.618	858.24
454.992	846.26
455.365	857.34
455.739	855.3
456.112	860.27
456.486	878.58
456.859	858.92
457.232	887.39
457.606	850.33
457.979	863.66
458.352	902.98
458.725	906.6
459.099	887.17
459.472	886.71
459.845	899.82
460.218	893.72
460.591	891.46
460.964	897.11
461.337	944.11
461.71	942.31
462.083	918.8
462.456	901.63
462.829	951.8
463.201	954.06
463.574	926.94
463.947	944.79
464.32	968.52
464.692	959.03
465.065	973.04
465.438	995.19
465.81	974.62
466.183	1002.19
466.555	1018.91
466.928	1014.39
467.3	1011.46
467.672	1025.02
468.045	1043.55
468.417	1029.76
468.789	1039.7
469.161	1064.79
469.534	1041.96
469.906	1091.68
470.278	1081.96
470.65	1088.74
471.022	1091.45
471.394	1127.16
471.766	1089.19
472.138	1111.57
472.51	1145.24
472.882	1135.3
473.253	1174.39
473.625	1195.86
473.997	1192.47
474.369	1194.28
474.74	1218.23
475.112	1222.52
475.484	1203.77
475.855	1212.36
476.227	1228.63
476.598	1281.96
476.97	1276.08
477.341	1291.68
477.713	1308.4
478.084	1281.28
478.455	1348.17
478.827	1362.41
479.198	1393.59
479.569	1395.18
479.94	1429.07
480.311	1436.98
480.682	1434.95
481.053	1484.21
481.424	1495.51
481.795	1485.57
482.166	1513.82
482.537	1542.06
482.908	1544.1
483.279	1556.75
483.65	1595.4
484.021	1585.9
484.391	1623.19
484.762	1669.52
485.133	1643.3
485.503	1638.56
485.874	1670.2
486.244	1693.7
486.615	1724.21
486.985	1729.86
487.356	1753.81
487.726	1773.92
488.097	1817.99
488.467	1784.32
488.837	1843.98
489.207	1865.67
489.578	1864.54
489.948	1897.76
490.318	1950.41
490.688	1901.38
491.058	1935.5
491.428	1966.46
491.798	2015.27
492.168	2006.91
492.538	2018.89
492.908	2066.34
493.278	2063.18
493.648	2072.22
494.017	2115.83
494.387	2107.25
494.757	2124.42
495.126	2143.18
495.496	2146.79
495.866	2177.98
496.235	2181.14
496.605	2193.12
496.974	2214.59
497.344	2225.21
497.713	2246.45
498.082	2257.98
498.452	2268.6
498.821	2303.4
499.19	2291.2
499.559	2314.25
499.928	2294.59
500.298	2323.51
500.667	2343.4
501.036	2370.52
501.405	2385.66
501.774	2372.78
502.143	2386.11
502.512	2381.14
502.88	2416.39
503.249	2437.63
503.618	2436.28
503.987	2485.54
504.356	2483.96
504.724	2513.11
505.093	2503.85
505.462	2497.75
505.83	2552.21
506.199	2586.1
506.567	2545.43
506.936	2585.2
507.304	2614.8
507.672	2601.47
508.041	2642.37
508.409	2662.26
508.777	2672.66
509.145	2656.61
509.514	2686.67
509.882	2700.45
510.25	2721.47
510.618	2724.41
510.986	2755.37
511.354	2761.47
511.722	2822.48
512.09	2823.39
512.458	2821.35
512.826	2830.62
513.193	2831.3
513.561	2867.9
513.929	2864.74
514.297	2920.56
514.664	2926.21
515.032	2960.33
515.4	2986.77
515.767	3001.01
516.135	2999.43
516.502	2976.6
516.869	3017.51
517.237	3063.61
517.604	3077.84
517.972	3094.79
518.339	3139.99
518.706	3139.54
519.073	3121.91
519.44	3127.78
519.808	3163.72
520.175	3182.92
520.542	3201.46
520.909	3226.99
521.276	3257.05
521.643	3279.87
522.009	3346.08
522.376	3328.46
522.743	3353.99
523.11	3361
523.477	3405.74
523.843	3431.05
524.21	3459.08
524.577	3474.44
524.943	3461.79
525.31	3507.66
525.676	3523.03
526.043	3579.52
526.409	3572.29
526.776	3547.66
527.142	3591.73
527.508	3604.38
527.874	3709.01
528.241	3676.25
528.607	3710.14
528.973	3757.6
529.339	3718.28
529.705	3751.95
530.071	3761.89
530.437	3800.99
530.803	3806.41
531.169	3828.11
531.535	3824.49
531.901	3864.04
532.267	3887.31
532.632	3891.38
532.998	3882.79
533.364	3935.9
533.73	3939.06
534.095	3972.96
534.461	4003.92
534.826	4040.3
535.192	4053.64
535.557	4055.9
535.923	4028.33
536.288	4098.83
536.653	4070.36
537.019	4105.84
537.384	4126.85
537.749	4117.59
538.114	4131.15
538.479	4113.75
538.845	4190.36
539.21	4178.6
539.575	4158.04
539.94	4193.97
540.305	4215.44
540.67	4249.34
541.034	4238.72
541.399	4270.35
541.764	4320.97
542.129	4316.91
542.494	4314.19
542.858	4378.6
543.223	4366.17
543.587	4415.21
543.952	4380.63
544.316	4365.04
544.681	4363.23
545.045	4449.33
545.41	4449.11
545.774	4464.25
546.138	4478.94
546.503	4524.58
546.867	4500.63
547.231	4529.1
547.595	4525.04
547.959	4558.48
548.324	4546.96
548.688	4594.64
549.052	4598.25
549.416	4591.25
549.779	4613.4
550.143	4669.21
550.507	4628.54
550.871	4697.01
551.235	4702.66
551.599	4662.66
551.962	4697.91
552.326	4694.3
552.689	4771.36
553.053	4754.63
553.417	4854.52
553.78	4832.15
554.143	4846.61
554.507	4879.83
554.87	4857.01
555.234	4910.56
555.597	4853.16
555.96	4929.55
556.323	4934.29
556.686	4980.62
557.05	5042.99
557.413	5003.67
557.776	5033.72
558.139	5030.79
558.502	5091.12
558.865	5085.47
559.228	5093.16
559.59	5137.68
559.953	5129.77
560.316	5209.54
560.679	5209.09
561.041	5257.9
561.404	5315.3
561.767	5346.48
562.129	5279.14
562.492	5360.72
562.854	5358.46
563.217	5358.23
563.579	5347.16
563.941	5443.2
564.304	5462.64
564.666	5462.86
565.028	5524.78
565.39	5546.7
565.753	5583.31
566.115	5575.4
566.477	5621.28
566.839	5635.74
567.201	5641.39
567.563	5694.72
567.925	5707.38
568.287	5712.12
568.648	5747.6
569.01	5744.67
569.372	5790.99
569.734	5778.79
570.095	5853.36
570.457	5910.54
570.819	5792.12
571.18	5857.88
571.542	5892.68
571.903	5898.33
572.265	5886.81
572.626	5954.15
572.987	5964.32
573.349	5981.72
573.71	6037.99
574.071	6087.48
574.432	6093.81
574.794	6110.98
575.155	6060.36
575.516	6069.18
575.877	6121.15
576.238	6101.27
576.599	6131.77
576.96	6161.38
577.32	6160.93
577.681	6217.65
578.042	6221.04
578.403	6155.5
578.763	6160.93
579.124	6188.27
579.485	6214.71
579.845	6242.05
580.206	6220.36
580.566	6281.83
580.927	6274.59
581.287	6293.13
581.648	6287.48
582.008	6336.74
582.368	6298.55
582.728	6257.65
583.089	6267.82
583.449	6248.61
583.809	6345.33
584.169	6298.32
584.529	6322.73
584.889	6379.9
585.249	6298.1
585.609	6361.82
585.969	6388.94
586.329	6271.88
586.688	6361.6
587.048	6326.8
587.408	6309.85
587.768	6348.94
588.127	6280.47
588.487	6302.39
588.846	6380.81
589.206	6350.98
589.565	6386
589.925	6347.59
590.284	6418.32
590.643	6364.54
591.003	6359.34
591.362	6402.28
591.721	6375.38
592.08	6328.6
592.44	6314.82
592.799	6420.81
593.158	6381.03
593.517	6409.05
593.876	6339.68
594.235	6351.88
594.593	6372.9
594.952	6407.25
595.311	6332.45
595.67	6355.04
596.029	6399.11
596.387	6354.82
596.746	6340.36
597.104	6359.11
597.463	6362.28
597.822	6404.08
598.18	6356.4
598.538	6362.5
598.897	6435.49
599.255	6414.93
599.613	6512.33
599.972	6437.3
600.33	6405.44
600.688	6428.49
601.046	6419.22
601.404	6454.7
601.762	6474.14
602.12	6503.97
602.478	6485.66
602.836	6480.01
603.194	6471.65
603.552	6479.11
603.91	6450.86
604.268	6499
604.625	6477.75
604.983	6478.66
605.341	6482.73
605.698	6497.41
606.056	6487.02
606.413	6511.65
606.771	6511.65
607.128	6451.54
607.485	6476.85
607.843	6421.94
608.2	6536.28
608.557	6560.92
608.914	6508.71
609.272	6551.65
609.629	6609.5
609.986	6640.46
610.343	6490.86
610.7	6576.96
611.057	6599.33
611.414	6543.74
611.771	6616.96
612.127	6604.76
612.484	6583.29
612.841	6619.67
613.198	6585.55
613.554	6649.05
613.911	6581.71
614.267	6652.44
614.624	6651.31
614.98	6670.74
615.337	6680.46
615.693	6603.85
616.05	6650.86
616.406	6690.86
616.762	6627.58
617.118	6567.47
617.475	6638.2
617.831	6624.64
618.187	6641.82
618.543	6704.41
618.899	6727.01
619.255	6684.53
619.611	6730.85
619.967	6658.31
620.323	6701.48
620.678	6675.49
621.034	6664.42
621.39	6679.78
621.746	6667.8
622.101	6708.03
622.457	6684.08
622.812	6633.46
623.168	6715.26
623.523	6685.88
623.879	6684.98
624.234	6667.8
624.589	6729.95
624.945	6708.26
625.3	6758.88
625.655	6696.05
626.01	6710.06
626.365	6671.19
626.72	6689.73
627.075	6665.77
627.43	6679.33
627.785	6634.81
628.14	6607.47
628.495	6658.99
628.85	6632.33
629.205	6600.46
629.559	6663.29
629.914	6642.72
630.269	6639.11
630.623	6603.17
630.978	6664.19
631.332	6633
631.687	6633
632.041	6570.18
632.396	6580.35
632.75	6585.77
633.104	6578.54
633.459	6592.78
633.813	6515.49
634.167	6563.85
634.521	6525.89
634.875	6532.67
635.229	6507.36
635.583	6503.06
635.937	6404.31
636.291	6526.34
636.645	6443.4
636.999	6427.13
637.352	6493.57
637.706	6452.22
638.06	6383.74
638.413	6425.55
638.767	6396.85
639.121	6428.04
639.474	6392.56
639.828	6428.26
640.181	6432.1
640.534	6408.6
640.888	6344.42
641.241	6328.6
641.594	6393.69
641.947	6340.81
642.301	6291.32
642.654	6345.1
643.007	6358.21
643.36	6330.41
643.713	6342.84
644.066	6328.83
644.419	6240.7
644.771	6213.35
645.124	6123.41
645.477	6059.69
645.83	6074.83
646.182	6063.75
646.535	6121.15
646.888	6154.82
647.24	6132.68
647.593	6154.6
647.945	6169.29
648.298	6100.36
648.65	6106.24
649.002	5992.12
649.355	6092.45
649.707	6030.99
650.059	6028.05
650.411	6124.32
650.763	6080.02
651.115	6149.63
651.467	6194.15
651.819	6123.19
652.171	6155.95
652.523	6147.37
652.875	6176.74
653.227	6154.15
653.578	6157.31
653.93	6098.78
654.282	6170.64
654.633	6059.91
654.985	6118.44
655.337	6069.85
655.688	6082.51
656.039	6095.84
656.391	6010.2
656.742	6045.45
657.094	6051.1
657.445	6081.38
657.796	6048.39
658.147	6032.12
658.498	6021.27
658.849	6046.8
659.2	6018.56
659.551	5996.41
659.902	6067.59
660.253	5956.64
660.604	6005
660.955	6006.58
661.306	5991.21
661.656	5986.92
662.007	5993.7
662.358	5996.41
662.708	5915.06
663.059	6006.13
663.409	5941.5
663.76	6008.39
664.11	5986.24
664.461	5979.01
664.811	5981.72
665.161	5970.2
665.511	5978.78
665.862	5945.56
666.212	5960.48
666.562	6039.35
666.912	5969.97
667.262	5918.9
667.612	5970.42
667.962	5922.97
668.312	5970.87
668.662	5920.25
669.011	5935.85
669.361	5906.69
669.711	5937.65
670.06	5943.08
670.41	5911.21
670.76	5876.19
671.109	5899.69
671.459	5953.02
671.808	5899.01
672.157	5895.4
672.507	5834.38
672.856	5838.22
673.205	5884.77
673.554	5850.65
673.904	5838.67
674.253	5877.77
674.602	5811.33
674.951	5734.04
675.3	5783.99
675.649	5857.88
675.998	5827.6
676.346	5848.84
676.695	5889.75
677.044	5818.11
677.393	5849.52
677.741	5827.6
678.09	5806.81
678.438	5785.12
678.787	5852.01
679.135	5816.08
679.484	5763.2
679.832	5740.6
680.181	5776.75
680.529	5769.07
680.877	5758.22
681.225	5735.4
681.573	5762.07
681.922	5801.61
682.27	5725
682.618	5720.71
682.966	5758.68
683.314	5712.8
683.661	5672.12
684.009	5692.69
684.357	5623.54
684.705	5617.89
685.053	5616.31
685.4	5619.02
685.748	5585.8
686.095	5612.69
686.443	5616.99
686.79	5534.5
687.138	5556.65
687.485	5557.1
687.832	5565.01
688.18	5563.65
688.527	5560.49
688.874	5564.78
689.221	5583.31
689.568	5533.82
689.915	5477.78
690.262	5509.19
690.609	5478.23
690.956	5485.46
691.303	5422.41
691.65	5387.39
691.997	5429.65
692.344	5405.92
692.69	5363.43
693.037	5394.62
693.383	5393.71
693.73	5432.58
694.077	5375.86
694.423	5378.57
694.769	5298.35
695.116	5296.77
695.462	5269.2
695.808	5275.53
696.155	5303.1
696.501	5302.64
696.847	5239.82
697.193	5203.89
697.539	5198.24
697.885	5163.66
698.231	5210.67
698.577	5189.43
698.923	5146.49
699.269	5102.65
699.614	5099.26
699.96	5159.82
700.306	5155.53
700.651	5117.79
700.997	5077.79
701.342	5082.31
701.688	5101.07
702.033	5063.55
702.379	5008.19
702.724	5034.85
703.069	5018.58
703.415	4953.73
703.76	4975.19
704.105	5011.8
704.45	4977.91
704.795	4959.6
705.14	4976.55
705.485	4934.29
705.83	4928.64
706.175	4945.14
706.52	4934.07
706.865	4940.39
707.209	4918.47
707.554	4893.16
707.899	4867.17
708.243	4855.88
708.588	4819.49
708.932	4798.02
709.277	4790.34
709.621	4787.85
709.966	4732.94
710.31	4747.63
710.654	4692.49
710.998	4767.52
711.342	4784.01
711.687	4746.95
712.031	4736.78
712.375	4747.18
712.719	4777.69
713.063	4696.11
713.407	4788.31
713.75	4715.09
714.094	4666.73
714.438	4663.34
714.782	4670.57
715.125	4580.85
715.469	4617.24
715.812	4607.97
716.156	4565.26
716.499	4639.84
716.843	4592.83
717.186	4596.45
717.53	4617.24
717.873	4616.56
718.216	4599.16
718.559	4605.26
718.902	4532.95
719.246	4588.09
719.589	4564.36
719.932	4538.82
720.275	4523.68
720.617	4524.13
720.96	4544.92
721.303	4519.39
721.646	4478.03
721.989	4453.4
722.331	4437.13
722.674	4458.15
723.016	4465.83
723.359	4484.13
723.701	4459.28
724.044	4446.85
724.386	4438.48
724.729	4483.46
725.071	4429.22
725.413	4478.26
725.755	4457.69
726.097	4428.99
726.439	4427.41
726.782	4399.62
727.124	4438.03
727.465	4431.48
727.807	4361.65
728.149	4330.24
728.491	4358.04
728.833	4396
729.175	4281.43
729.516	4287.08
729.858	4340.18
730.199	4318.49
730.541	4315.55
730.882	4337.02
731.224	4359.39
731.565	4302.22
731.906	4352.39
732.248	4316.91
732.589	4281.88
732.93	4310.8
733.271	4262.9
733.612	4301.09
733.953	4249.11
734.294	4330.01
734.635	4245.72
734.976	4231.26
735.317	4237.59
735.658	4211.15
735.999	4204.37
736.339	4239.39
736.68	4243.46
737.021	4181.09
737.361	4210.69
737.702	4258.83
738.042	4233.52
738.383	4211.37
738.723	4223.35
739.063	4210.69
739.404	4201.43
739.744	4178.38
740.084	4209.56
740.424	4176.12
740.764	4176.8
741.104	4148.32
741.444	4142.45
741.784	4136.12
742.124	4112.62
742.464	4101.77
742.804	4143.8
743.143	4113.52
743.483	4085.05
743.823	4061.77
744.162	4090.47
744.502	4115.33
744.841	4114.43
745.181	4107.87
745.52	4087.53
745.86	4091.38
746.199	4067.87
746.538	4028.55
746.877	4060.42
747.216	4094.09
747.556	4068.78
747.895	4054.54
748.234	3996.46
748.573	4057.03
748.911	4013.19
749.25	3999.4
749.589	3980.87
749.928	3970.47
750.267	3963.7
750.605	3996.69
750.944	3942.45
751.283	3930.48
751.621	3972.28
751.96	3933.87
752.298	3965.73
752.636	3963.92
752.975	3931.38
753.313	3945.62
753.651	3982.9
753.989	3906.07
754.327	3911.04
754.666	3916.24
755.004	3895.9
755.342	3909.01
755.679	3887.31
756.017	3816.35
756.355	3829.24
756.693	3826.07
757.031	3843.7
757.368	3805.73
757.706	3794.66
758.044	3841.66
758.381	3809.12
758.719	3806.19
759.056	3815.45
759.394	3799.63
759.731	3809.57
760.068	3798.05
760.405	3729.35
760.743	3733.42
761.08	3762.12
761.417	3776.58
761.754	3713.53
762.091	3706.3
762.428	3710.37
762.765	3684.15
763.102	3678.5
763.438	3674.89
763.775	3629.47
764.112	3627.66
764.449	3612.74
764.785	3646.87
765.122	3600.99
765.458	3599.19
765.795	3600.54
766.131	3570.71
766.467	3635.57
766.804	3572.29
767.14	3563.03
767.476	3568.9
767.812	3560.32
768.148	3544.95
768.485	3535.01
768.821	3501.56
769.157	3542.46
769.492	3511.05
769.828	3467.66
770.164	3409.59
770.5	3427.89
770.836	3443.71
771.171	3457.49
771.507	3398.96
771.842	3377.72
772.178	3397.16
772.513	3378.4
772.849	3384.73
773.184	3344.73
773.519	3357.61
773.855	3344.28
774.19	3356.03
774.525	3378.85
774.86	3355.58
775.195	3330.27
775.53	3319.19
775.865	3270.83
776.2	3306.54
776.535	3252.08
776.87	3279.87
777.205	3217.5
777.539	3243.26
777.874	3211.17
778.209	3184.96
778.543	3145.19
778.878	3216.6
779.212	3199.42
779.547	3173.43
779.881	3160.78
780.215	3147.22
780.55	3139.31
780.884	3134.34
781.218	3181.57
781.552	3143.83
781.886	3121.23
782.22	3103.6
782.554	3103.15
782.888	3078.29
783.222	3099.76
783.556	3094.34
783.889	3089.82
784.223	3043.49
784.557	3015.92
784.89	3022.93
785.224	3012.31
785.557	2983.38
785.891	3010.95
786.224	2989.71
786.558	2976.6
786.891	2935.7
787.224	2973.21
787.557	2950.16
787.891	2950.16
788.224	2927.11
788.557	2983.38
788.89	2931.86
789.223	2935.47
789.556	2912.65
789.888	2917.4
790.221	2883.05
790.554	2933.89
790.887	2902.25
791.219	2871.52
791.552	2872.42
791.884	2841.24
792.217	2831.07
792.549	2801.69
792.882	2767.79
793.214	2805.99
793.546	2798.98
793.879	2792.2
794.211	2758.08
794.543	2779.32
794.875	2754.91
795.207	2782.71
795.539	2766.89
795.871	2750.39
796.203	2744.07
796.535	2685.31
796.867	2712.88
797.198	2759.66
797.53	2682.82
797.862	2700
798.193	2734.57
798.525	2675.82
798.856	2724.86
799.188	2649.83
799.519	2678.98
799.85	2646.89
800.182	2638.76
800.513	2649.61
800.844	2591.98
801.175	2653.45
801.506	2601.47
801.837	2590.85
802.168	2584.97
802.499	2565.54
802.83	2575.03
803.161	2548.14
803.491	2575.94
803.822	2589.95
804.153	2567.12
804.483	2558.76
804.814	2577.29
805.145	2566.9
805.475	2556.05
805.805	2568.25
806.136	2577.97
806.466	2561.02
806.796	2543.62
807.126	2537.52
807.457	2514.02
807.787	2483.06
808.117	2499.1
808.447	2447.12
808.777	2485.54
809.107	2492.77
809.436	2432.66
809.766	2449.84
810.096	2453.68
810.426	2413.23
810.755	2423.4
811.085	2487.12
811.414	2428.37
811.744	2419.33
812.073	2438.76
812.403	2453
812.732	2415.26
813.061	2428.82
813.39	2431.76
813.719	2417.07
814.049	2420.01
814.378	2427.24
814.707	2416.17
815.036	2390.86
815.365	2383.17
815.693	2375.04
816.022	2367.13
816.351	2366.45
816.68	2336.17
817.008	2328.48
817.337	2295.26
817.665	2300.46
817.994	2307.02
818.322	2308.6
818.651	2310.63
818.979	2327.13
819.307	2295.94
819.636	2335.94
819.964	2317.18
820.292	2289.61
820.62	2317.18
820.948	2270.18
821.276	2345.43
821.604	2355.6
821.932	2325.32
822.259	2325.55
822.587	2314.7
822.915	2322.61
823.243	2336.39
823.57	2304.98
823.898	2298.65
824.225	2288.94
824.553	2288.49
824.88	2299.11
825.207	2282.16
825.535	2270.41
825.862	2286.68
826.189	2274.93
826.516	2300.46
826.843	2274.7
827.17	2262.95
827.497	2283.74
827.824	2274.47
828.151	2256.17
828.478	2293.46
828.805	2302.27
829.131	2287.36
829.458	2298.2
829.785	2272.67
830.111	2311.31
830.438	2286.45
830.764	2312.44
831.09	2309.5
831.417	2273.8
831.743	2285.32
832.069	2289.61
832.395	2267.92
832.722	2271.08
833.048	2267.24
833.374	2239.9
833.7	2241.48
834.026	2237.86
834.351	2259.56
834.677	2269.28
835.003	2211.2
835.329	2242.61
835.654	2240.12
835.98	2243.29
836.306	2247.58
836.631	2264.08
836.956	2214.81
837.282	2222.27
837.607	2262.05
837.932	2267.92
838.258	2234.48
838.583	2238.09
838.908	2261.14
839.233	2231.31
839.558	2220.92
839.883	2240.12
840.208	2241.93
840.533	2233.57
840.858	2246.9
841.182	2241.25
841.507	2189.05
841.832	2180.92
842.156	2168.49
842.481	2186.79
842.805	2172.78
843.13	2220.46
843.454	2142.73
843.778	2135.49
844.103	2169.39
844.427	2166.23
844.751	2176.4
845.075	2177.75
845.399	2168.94
845.723	2141.82
846.047	2149.51
846.371	2141.37
846.695	2163.06
847.019	2141.14
847.343	2159.22
847.666	2155.38
847.99	2127.36
848.313	2105.89
848.637	2113.57
848.96	2121.48
849.284	2086.23
849.607	2082.16
849.931	2068.15
850.254	2040.58
850.577	2048.94
850.9	2053.91
851.223	2044.2
851.546	2005.78
851.869	2011.43
852.192	2043.07
852.515	2004.42
852.838	1991.54
853.161	1996.97
853.483	2003.97
853.806	1980.02
854.129	1975.27
854.451	1990.19
854.774	1966.01
855.096	1958.1
855.419	1966.01
855.741	1975.27
856.063	1961.49
856.385	2002.84
856.708	1968.49
857.03	1924.88
857.352	1977.31
857.674	1933.24
857.996	1974.82
858.318	1959.23
858.64	1909.29
858.961	1902.73
859.283	1917.42
859.605	1860.25
859.926	1871.09
860.248	1916.74
860.57	1867.93
860.891	1861.38
861.212	1884.2
861.534	1841.04
861.855	1854.82
862.176	1895.95
862.498	1841.49
862.819	1854.15
863.14	1855.05
863.461	1877.65
863.782	1858.44
864.103	1869.74
864.424	1859.57
864.745	1869.29
865.065	1851.43
865.386	1878.78
865.707	1884.65
866.027	1865.9
866.348	1849.17
866.668	1841.49
866.989	1882.39
867.309	1817.99
867.63	1824.99
867.95	1802.17
868.27	1820.47
868.59	1823.86
868.91	1820.7
869.23	1820.93
869.55	1791.55
869.87	1821.6
870.19	1794.03
870.51	1787.03
870.83	1816.63
871.15	1768.72
871.469	1754.04
871.789	1772.11
872.109	1789.06
872.428	1768.27
872.748	1757.2
873.067	1802.4
873.386	1789.52
873.706	1787.26
874.025	1784.54
874.344	1772.11
874.663	1798.55
874.982	1805.33
875.301	1808.05
875.62	1761.49
875.939	1778.44
876.258	1752.68
876.577	1757.88
876.896	1729.63
877.214	1740.25
877.533	1770.31
877.852	1754.94
878.17	1729.63
878.489	1738.67
878.807	1725.79
879.125	1730.53
879.444	1742.96
879.762	1707.48
880.08	1693.7
880.398	1707.03
880.716	1712.68
881.034	1717.2
881.352	1726.69
881.67	1730.99
881.988	1716.97
882.306	1699.57
882.624	1686.24
882.941	1706.81
883.259	1732.12
883.577	1698.44
883.894	1732.34
884.212	1727.14
884.529	1736.64
884.846	1697.09
885.164	1714.04
885.481	1725.11
885.798	1673.36
886.115	1711.1
886.432	1688.27
886.75	1705.45
887.067	1682.85
887.383	1673.36
887.7	1666.13
888.017	1675.85
888.334	1674.26
888.651	1667.48
888.967	1629.97
889.284	1626.58
889.6	1617.09
889.917	1634.94
890.233	1625.68
890.55	1625.23
890.866	1622.74
891.182	1602.63
891.498	1631.78
891.815	1599.46
892.131	1627.49
892.447	1611.44
892.763	1620.48
893.079	1595.17
893.395	1629.52
893.71	1598.56
894.026	1579.8
894.342	1594.49
894.657	1605.79
894.973	1598.79
895.289	1602.63
895.604	1604.44
895.92	1572.57
896.235	1567.6
896.55	1562.63
896.865	1571.44
897.181	1539.8
897.496	1566.47
897.811	1545.68
898.126	1535.28
898.441	1549.52
898.756	1516.53
899.071	1531.22
899.386	1511.78
899.7	1504.32
900.015	1506.13
900.33	1496.42
900.644	1490.77
900.959	1495.51
901.273	1458.68
901.588	1469.3
901.902	1470.65
902.216	1467.04
902.531	1454.83
902.845	1495.51
903.159	1455.96
903.473	1478.56
903.787	1477.66
904.101	1465.46
904.415	1436.98
904.729	1454.83
905.042	1450.31
905.356	1442.86
905.67	1454.61
905.984	1443.54
906.297	1442.41
906.611	1412.35
906.924	1417.1
907.237	1402.86
907.551	1389.3
907.864	1414.38
908.177	1400.82
908.491	1371
908.804	1358.57
909.117	1363.31
909.43	1363.99
909.743	1364.89
910.056	1376.87
910.368	1350.2
910.681	1355.18
910.994	1339.13
911.307	1329.19
911.619	1361.5
911.932	1353.82
912.244	1300.71
912.557	1342.07
912.869	1328.74
913.181	1330.54
913.494	1344.78
913.806	1310.88
914.118	1339.36
914.43	1325.12
914.742	1325.57
915.054	1315.86
915.366	1327.61
915.678	1318.12
915.99	1288.96
916.302	1291.9
916.613	1285.8
916.925	1289.42
917.236	1273.82
917.548	1296.87
917.859	1270.66
918.171	1281.05
918.482	1265.01
918.794	1229.53
919.105	1258.23
919.416	1239.25
919.727	1230.43
920.038	1224.33
920.349	1210.32
920.66	1212.36
920.971	1217.33
921.282	1208.74
921.593	1180.27
921.903	1206.25
922.214	1189.3
922.525	1192.47
922.835	1193.37
923.146	1188.17
923.456	1169.87
923.767	1214.39
924.077	1199.93
924.387	1218.68
924.697	1190.66
925.008	1187.72
925.318	1180.27
925.628	1181.85
925.938	1200.6
926.248	1175.07
926.558	1184.11
926.867	1160.15
927.177	1158.35
927.487	1156.54
927.796	1137.78
928.106	1161.73
928.416	1131.68
928.725	1149.08
929.034	1107.27
929.344	1130.78
929.653	1138.68
929.962	1096.2
930.271	1102.75
930.581	1077.22
930.89	1123.09
931.199	1067.95
931.508	1077.22
931.817	1114.05
932.125	1079.7
932.434	1080.38
932.743	1086.71
933.051	1088.06
933.36	1060.72
933.669	1067.27
933.977	1092.36
934.286	1054.39
934.594	1054.62
934.902	1051
935.21	1053.94
935.519	1062.08
935.827	1052.36
936.135	1064.34
936.443	1069.76
936.751	1047.84
937.059	1035.86
937.367	1048.07
937.674	1045.13
937.982	1042.64
938.29	1012.81
938.597	1029.54
938.905	1004.68
939.213	1009.2
939.52	1038.8
939.827	1008.52
940.135	993.6
940.442	1003.32
940.749	1002.19
941.056	992.47
941.363	976.66
941.67	1015.3
941.977	973.94
942.284	967.39
942.591	959.93
942.898	956.32
943.205	948.18
943.511	972.14
943.818	961.29
944.125	941.85
944.431	974.85
944.738	951.35
945.044	980.27
945.35	964.68
945.657	961.29
945.963	957.22
946.269	958.35
946.575	968.75
946.881	931.23
947.187	952.02
947.493	917.45
947.799	948.86
948.105	945.92
948.41	937.79
948.716	934.17
949.022	923.55
949.327	937.56
949.633	902.98
949.938	909.09
950.244	904.79
950.549	893.95
950.854	907.96
951.16	912.48
951.465	889.43
951.77	884.91
952.075	904.57
952.38	908.41
952.685	879.48
952.99	863.66
953.294	860.27
953.599	848.52
953.904	879.03
954.209	854.4
954.513	864.57
954.818	858.92
955.122	861.86
955.426	860.27
955.731	848.07
956.035	837.68
956.339	845.13
956.643	858.69
956.948	873.38
957.252	861.86
957.556	847.17
957.86	845.59
958.163	874.96
958.467	830.67
958.771	842.65
959.075	860.05
959.378	834.29
959.682	852.14
959.985	820.95
960.289	839.48
960.592	832.48
960.896	809.43
961.199	845.81
961.502	812.37
961.805	790.67
962.108	792.48
962.411	813.04
962.714	805.59
963.017	803.78
963.32	783.44
963.623	771.01
963.926	794.96
964.228	774.85
964.531	785.7
964.833	777.79
965.136	774.85
965.438	773.04
965.741	768.3
966.043	777.79
966.345	772.37
966.648	755.42
966.95	761.75
967.252	757.68
967.554	774.4
967.856	773.72
968.158	738.24
968.46	779.82
968.761	742.99
969.063	758.58
969.365	777.34
969.666	771.46
969.968	766.27
970.269	761.29
970.571	759.94
970.872	747.51
971.174	746.38
971.475	742.54
971.776	745.25
972.077	738.02
972.378	732.14
972.679	713.39
972.98	727.85
973.281	727.85
973.582	728.3
973.883	705.7
974.183	705.93
974.484	714.29
974.785	706.83
975.085	701.41
975.386	700.5
975.686	714.06
975.986	688.98
976.287	699.6
976.587	693.27
976.887	717.9
977.187	702.09
977.487	699.83
977.787	700.96
978.087	680.39
978.387	681.52
978.687	695.31
978.987	698.24
979.286	684.01
979.586	698.92
979.885	662.31
980.185	672.03
980.484	668.41
980.784	670
981.083	666.61
981.382	694.4
981.682	677
981.981	664.12
982.28	655.76
982.579	656.89
982.878	672.93
983.177	656.66
983.475	670.67
983.774	668.19
984.073	679.94
984.372	661.41
984.67	651.69
984.969	637.45
985.267	664.12
985.566	660.96
985.864	661.86
986.162	644.01
986.461	609.89
986.759	623.44
987.057	624.35
987.355	632.26
987.653	630.9
987.951	650.56
988.249	619.83
988.547	628.42
988.844	633.84
989.142	622.99
989.44	618.02
989.737	646.72
990.035	590.9
990.332	604.91
990.63	640.62
990.927	623.9
991.224	617.57
991.521	639.04
991.819	613.27
992.116	597.23
992.413	597
992.71	599.04
993.006	633.61
993.303	612.82
993.6	621.64
993.897	590.45
994.193	607.17
994.49	606.95
994.787	561.52
995.083	587.29
995.379	594.74
995.676	589.32
995.972	575.76
996.268	575.54
996.565	586.16
996.861	573.05
997.157	605.82
997.453	595.2
997.749	572.6
998.044	591.35
998.34	608.98
998.636	587.06
998.932	571.24
999.227	556.1
999.523	550.23
999.818	564.46
1000.114	573.05
1000.409	571.92
1000.704	555.65
1001	577.34
1001.295	557.23
1001.59	588.87
1001.885	565.37
1002.18	541.19
1002.475	548.42
1002.77	563.33
1003.065	557.68
1003.359	550.9
1003.654	540.96
1003.949	539.15
1004.243	524.69
1004.538	527.4
1004.832	531.7
1005.127	514.75
1005.421	540.73
1005.715	549.1
1006.009	553.39
1006.304	517.46
1006.598	527.63
1006.892	550.9
1007.186	519.04
1007.48	524.92
1007.773	522.66
1008.067	535.76
1008.361	514.97
1008.655	504.13
1008.948	498.7
1009.242	538.02
1009.535	501.41
1009.829	530.34
1010.122	504.13
1010.415	506.61
1010.708	517.01
1011.001	499.83
1011.295	498.7
1011.588	513.39
1011.881	498.25
1012.173	506.84
1012.466	509.55
1012.759	501.41
1013.052	510.45
1013.344	477.46
1013.637	493.73
1013.93	476.78
1014.222	481.53
1014.514	493.05
1014.807	502.09
1015.099	492.6
1015.391	492.15
1015.683	491.7
1015.976	489.89
1016.268	498.02
1016.56	481.3
1016.851	480.17
1017.143	484.69
1017.435	489.21
1017.727	489.66
1018.018	491.24
1018.31	488.76
1018.602	476.78
1018.893	482.43
1019.185	463.22
1019.476	493.96
1019.767	467.74
1020.058	476.78
1020.35	466.16
1020.641	485.37
1020.932	469.78
1021.223	455.09
1021.514	471.13
1021.804	463.67
1022.095	446.5
1022.386	458.25
1022.677	466.39
1022.967	442.43
1023.258	453.51
1023.548	449.89
1023.839	451.7
1024.129	432.49
1024.419	446.27
1024.709	446.95
1025	437.23
1025.29	429.55
1025.58	418.7
1025.87	448.31
1026.16	422.32
1026.449	452.83
1026.739	419.61
1027.029	415.77
1027.319	422.77
1027.608	442.21
1027.898	412.83
1028.187	450.79
1028.477	447.86
1028.766	429.1
1029.055	433.84
1029.344	420.74
1029.634	427.29
1029.923	435.43
1030.212	439.04
1030.501	425.94
1030.79	406.73
1031.078	403.79
1031.367	406.05
1031.656	390.46
1031.945	417.8
1032.233	409.21
1032.522	413.51
1032.81	400.17
1033.099	427.29
1033.387	420.96
1033.675	423.68
1033.963	425.71
1034.251	409.66
1034.54	401.3
1034.828	420.06
1035.116	413.51
1035.403	401.98
1035.691	377.8
1035.979	411.7
1036.267	406.05
1036.554	430
1036.842	407.18
1037.129	384.35
1037.417	396.78
1037.704	398.14
1037.992	391.36
1038.279	390.91
1038.566	422.09
1038.853	422.09
1039.14	422.09
