Data from foam1_polythene_foam_FLMS001491_00041.txt Node
Date: Wed Feb 08 10:54:52 GMT 2017
User: dcchb
Spectrometer: FLMS00149
Trigger mode: 0
Integration Time (sec): 2.000000E-2
Scans to average: 10
Electric dark correction enabled: true
Nonlinearity correction enabled: false
Boxcar width: 0
XAxis mode: Wavelengths
Number of Pixels in Spectrum: 2048
>>>>>Begin Spectral Data<<<<<
341.393	3.04
341.776	3.04
342.16	3.04
342.543	-48.71
342.927	-44.87
343.31	-67.47
343.693	-68.6
344.077	-60.69
344.46	-58.88
344.843	-43.06
345.226	-71.09
345.61	-16.17
345.993	-45.1
346.376	-0.81
346.759	-8.71
347.142	25.18
347.525	51.4
347.908	69.7
348.291	77.61
348.674	99.31
349.057	117.38
349.44	107.21
349.823	120.1
350.206	150.6
350.588	170.49
350.971	200.09
351.354	203.94
351.737	229.7
352.119	226.08
352.502	257.27
352.884	256.36
353.267	261.11
353.65	278.06
354.032	285.97
354.414	288.68
354.797	287.32
355.179	311.73
355.562	307.21
355.944	318.06
356.326	323.03
356.709	344.04
357.091	337.72
357.473	347.89
357.855	331.16
358.238	342.24
358.62	318.96
359.002	351.28
359.384	303.37
359.766	324.61
360.148	319.64
360.53	324.84
360.912	290.71
361.294	316.02
361.676	306.76
362.057	315.57
362.439	325.74
362.821	324.16
363.203	311.73
363.584	317.83
363.966	306.08
364.348	311.96
364.729	314.21
365.111	304.05
365.493	315.8
365.874	322.8
366.256	309.92
366.637	300.66
367.019	292.07
367.4	314.44
367.781	284.39
368.163	296.81
368.544	295.68
368.925	309.47
369.306	305.63
369.688	302.46
370.069	313.31
370.45	293.88
370.831	288.68
371.212	295.01
371.593	311.28
371.974	314.44
372.355	293.42
372.736	304.95
373.117	300.66
373.498	318.06
373.879	309.92
374.26	309.7
374.641	312.41
375.021	317.15
375.402	322.8
375.783	311.5
376.163	325.06
376.544	313.99
376.925	318.06
377.305	334.33
377.686	337.04
378.066	310.15
378.447	333.42
378.827	322.8
379.208	322.58
379.588	327.55
379.968	292.75
380.349	325.97
380.729	336.14
381.109	313.76
381.489	331.62
381.87	313.54
382.25	325.06
382.63	321.9
383.01	340.65
383.39	346.3
383.77	331.39
384.15	316.47
384.53	337.94
384.91	329.81
385.29	337.49
385.67	312.63
386.049	328.23
386.429	342.46
386.809	335.91
387.189	357.38
387.568	327.1
387.948	335.46
388.328	343.82
388.707	355.12
389.087	349.02
389.466	356.93
389.846	358.73
390.225	368.9
390.605	361.67
390.984	366.87
391.363	372.97
391.743	372.97
392.122	368.45
392.501	339.75
392.881	351.05
393.26	348.34
393.639	382.24
394.018	375.68
394.397	378.17
394.776	403.25
395.155	400.77
395.534	396.7
395.913	368.9
396.292	360.32
396.671	379.75
397.05	379.3
397.429	374.78
397.808	372.52
398.186	401.44
398.565	391.05
398.944	381.78
399.323	412.74
399.701	398.28
400.08	410.94
400.458	402.12
400.837	384.5
401.215	386.76
401.594	379.52
401.972	403.7
402.351	421.56
402.729	425.4
403.107	433.31
403.486	412.52
403.864	419.07
404.242	419.07
404.62	418.39
404.999	446.41
405.377	430.37
405.755	428.11
406.133	425.85
406.511	465.17
406.889	435.79
407.267	455
407.645	439.41
408.023	463.36
408.401	454.1
408.779	465.4
409.156	469.47
409.534	476.7
409.912	469.24
410.29	460.88
410.667	483.25
411.045	487.09
411.422	488.45
411.8	502.68
412.178	469.24
412.555	490.26
412.933	485.06
413.31	516.47
413.687	496.81
414.065	520.09
414.442	510.14
414.819	499.97
415.197	508.56
415.574	532.29
415.951	527.99
416.328	526.19
416.705	523.93
417.082	535.9
417.46	541.78
417.837	545.17
418.214	528.67
418.591	547.88
418.967	544.04
419.344	554.43
419.721	562.34
420.098	546.98
420.475	545.85
420.852	532.97
421.228	558.73
421.605	582.46
421.982	591.04
422.358	587.43
422.735	600.31
423.111	575.9
423.488	596.92
423.864	599.86
424.241	604.83
424.617	612.06
424.994	612.74
425.37	640.76
425.746	629.01
426.123	656.8
426.499	624.72
426.875	626.3
427.251	661.1
427.627	636.92
428.003	672.62
428.379	680.53
428.756	673.98
429.132	669.91
429.507	677.6
429.883	683.92
430.259	697.71
430.635	725.73
431.011	726.18
431.387	715.79
431.763	743.13
432.138	725.5
432.514	745.39
432.89	747.42
433.265	780.87
433.641	794.88
434.016	784.03
434.392	786.74
434.767	808.89
435.143	810.02
435.518	817.03
435.894	825.84
436.269	826.97
436.644	854.77
437.02	829.46
437.395	843.92
437.77	850.92
438.145	879.62
438.52	876.23
438.895	873.07
439.271	904.26
439.646	925.72
440.021	922.33
440.395	910.13
440.77	902.45
441.145	913.3
441.52	924.14
441.895	929.11
442.27	972.73
442.645	959.17
443.019	982.22
443.394	975.67
443.769	995.78
444.143	964.82
444.518	1005.95
444.892	1032.61
445.267	1003.91
445.641	1030.35
446.016	1055.66
446.39	1032.84
446.764	1050.24
447.139	1063.57
447.513	1064.25
447.887	1068.32
448.262	1064.48
448.636	1097.47
449.01	1103.12
449.384	1106.96
449.758	1122.33
450.132	1133.18
450.506	1133.4
450.88	1135.21
451.254	1136.11
451.628	1144.7
452.002	1179.28
452.376	1168.66
452.75	1192.38
453.123	1212.5
453.497	1244.13
453.871	1218.15
454.244	1224.47
454.618	1225.83
454.992	1274.19
455.365	1247.3
455.739	1258.14
456.112	1287.75
456.486	1308.09
456.859	1321.87
457.232	1335.21
457.606	1318.03
457.979	1341.53
458.352	1367.07
458.725	1363.9
459.099	1373.4
459.472	1406.39
459.845	1387.18
460.218	1433.06
460.591	1415.65
460.964	1453.85
461.337	1484.13
461.71	1468.08
462.083	1504.24
462.456	1486.84
462.829	1493.17
463.201	1525.03
463.574	1531.58
463.947	1549.21
464.32	1569.32
464.692	1582.2
465.065	1616.78
465.438	1605.93
465.81	1651.13
466.183	1681.18
466.555	1682.54
466.928	1706.95
467.3	1690.22
467.672	1725.7
468.045	1768.41
468.417	1750.11
468.789	1791.92
469.161	1772.48
469.534	1809.77
469.906	1873.04
470.278	1866.49
470.65	1864.91
471.022	1926.15
471.394	1953.04
471.766	1935.87
472.138	1965.7
472.51	2028.52
472.882	2039.37
473.253	2059.93
473.625	2098.12
473.997	2116.43
474.369	2132.25
474.74	2151.68
475.112	2198.23
475.484	2230.1
475.855	2291.34
476.227	2258.12
476.598	2319.81
476.97	2325.69
477.341	2405.01
477.713	2457.44
478.084	2436.42
478.455	2492.69
478.827	2489.07
479.198	2609.97
479.569	2598.67
479.94	2648.62
480.311	2657.88
480.682	2746.69
481.053	2802.74
481.424	2837.76
481.795	2890.87
482.166	2901.49
482.537	2962.73
482.908	2994.14
483.279	3009.29
483.65	3069.62
484.021	3149.85
484.391	3164.99
484.762	3210.64
485.133	3204.99
485.503	3249.73
485.874	3302.38
486.244	3418.31
486.615	3424.64
486.985	3491.53
487.356	3523.17
487.726	3530.63
488.097	3603.17
488.467	3663.28
488.837	3713.67
489.207	3742.83
489.578	3821.47
489.948	3865.31
490.318	3878.19
490.688	3905.31
491.058	3962.71
491.428	4020.56
491.798	4082.93
492.168	4164.28
492.538	4224.39
492.908	4221.91
493.278	4284.73
493.648	4325.18
494.017	4372.87
494.387	4368.8
494.757	4399.53
495.126	4456.25
495.496	4451.06
495.866	4524.95
496.235	4539.64
496.605	4617.83
496.974	4665.74
497.344	4690.15
497.713	4728.56
498.082	4779.41
498.452	4827.77
498.821	4814.66
499.19	4834.1
499.559	4910.25
499.928	4957.71
500.298	4970.36
500.667	5030.48
501.036	5003.13
501.405	5045.62
501.774	5161.09
502.143	5170.13
502.512	5198.15
502.88	5229.11
503.249	5226.85
503.618	5279.96
503.987	5335.78
504.356	5338.49
504.724	5377.13
505.093	5423.01
505.462	5433.63
505.83	5455.32
506.199	5514.76
506.567	5624.58
506.936	5634.53
507.304	5680.85
507.672	5697.8
508.041	5724.47
508.409	5793.62
508.777	5882.88
509.145	5912.94
509.514	5934.63
509.882	5898.7
510.25	5950.45
510.618	6013.73
510.986	6031.8
511.354	6122.2
511.722	6153.16
512.09	6227.73
512.458	6235.42
512.826	6258.01
513.193	6321.29
513.561	6385.69
513.929	6415.75
514.297	6507.95
514.664	6553.37
515.032	6526.25
515.4	6594.05
515.767	6643.09
516.135	6636.76
516.502	6676.76
516.869	6784.33
517.237	6824.33
517.604	6854.16
517.972	6961.27
518.339	6996.98
518.706	7031.78
519.073	7103.87
519.44	7150.65
519.808	7168.5
520.175	7166.24
520.542	7307.25
520.909	7336.86
521.276	7346.8
521.643	7438.32
522.009	7520.81
522.376	7519.45
522.743	7539.34
523.11	7692.78
523.477	7719.9
523.843	7781.36
524.21	7828.82
524.577	7912.66
524.943	7940.91
525.31	7998.08
525.676	8110.39
526.043	8111.75
526.409	8209.15
526.776	8261.58
527.142	8290.73
527.508	8361.46
527.874	8444.85
528.241	8479.88
528.607	8540.67
528.973	8639.65
529.339	8634.22
529.705	8725.29
530.071	8780.43
530.437	8815.23
530.803	8869.7
531.169	8935.23
531.535	8957.38
531.901	8960.54
532.267	9040.77
532.632	9110.59
532.998	9124.83
533.364	9207.77
533.73	9211.83
534.095	9284.83
534.461	9271.72
534.826	9338.38
535.192	9454.31
535.557	9509.45
535.923	9454.09
536.288	9613.18
536.653	9547.19
537.019	9621.54
537.384	9661.09
537.749	9699.5
538.114	9727.53
538.479	9771.82
538.845	9809.33
539.21	9795.32
539.575	9832.38
539.94	9924.36
540.305	9883.91
540.67	9927.97
541.034	9939.95
541.399	10059.72
541.764	10047.29
542.129	10094.75
542.494	10109.89
542.858	10222.65
543.223	10201.41
543.587	10209.55
543.952	10200.51
544.316	10277.57
544.681	10279.38
545.045	10370.67
545.41	10398.47
545.774	10422.88
546.138	10463.33
546.503	10501.52
546.867	10479.82
547.231	10602.31
547.595	10617.67
547.959	10598.01
548.324	10644.34
548.688	10756.65
549.052	10776.99
549.416	10862.19
549.779	10816.99
550.143	10850.21
550.507	10934.95
550.871	10973.82
551.235	11015.85
551.599	11049.07
551.962	11087.26
552.326	11094.27
552.689	11252.01
553.053	11160.26
553.417	11160.71
553.78	11325.22
554.143	11332.68
554.507	11344.89
554.87	11417.2
555.234	11465.79
555.597	11359.8
555.96	11468.95
556.323	11502.17
556.686	11592.34
557.05	11687.93
557.413	11679.79
557.776	11692.22
558.139	11833.01
558.502	11875.94
558.865	11962.72
559.228	12042.49
559.59	11980.57
559.953	12110.06
560.316	12173.56
560.679	12181.47
561.041	12355.25
561.404	12360.45
561.767	12417.85
562.129	12337.63
562.492	12422.6
562.854	12489.49
563.217	12492.2
563.579	12569.71
563.941	12670.27
564.304	12687
564.666	12749.82
565.028	12737.62
565.39	12843.6
565.753	12863.94
566.115	12943.04
566.477	13020.32
566.839	13063.03
567.201	13110.49
567.563	13102.35
567.925	13291.95
568.287	13238.62
568.648	13263.7
569.01	13339.18
569.372	13429.58
569.734	13399.07
570.095	13553.19
570.457	13559.74
570.819	13609.46
571.18	13599.29
571.542	13704.82
571.903	13682.45
572.265	13626.86
572.626	13695.78
572.987	13788.66
573.349	13787.08
573.71	13885.61
574.071	13908.66
574.432	13964.48
574.794	14135.09
575.155	14034.76
575.516	14126.51
575.877	14138.26
576.238	14108.43
576.599	14250.12
576.96	14220.06
577.32	14214.19
577.681	14245.37
578.042	14263.45
578.403	14309.78
578.763	14269.78
579.124	14397.46
579.485	14448.53
579.845	14466.84
580.206	14391.58
580.566	14400.62
580.927	14430
581.287	14469.1
581.648	14456.22
582.008	14547.29
582.368	14471.81
582.728	14567.4
583.089	14539.38
583.449	14535.54
583.809	14609.88
584.169	14487.4
584.529	14597.91
584.889	14612.6
585.249	14552.03
585.609	14637.68
585.969	14669.54
586.329	14699.15
586.688	14717.9
587.048	14625.48
587.408	14657.34
587.768	14606.27
588.127	14587.74
588.487	14550.68
588.846	14648.53
589.206	14573.5
589.565	14632.03
589.925	14705.02
590.284	14594.52
590.643	14587.74
591.003	14702.76
591.362	14673.16
591.721	14726.94
592.08	14693.95
592.44	14679.94
592.799	14766.26
593.158	14759.48
593.517	14704.8
593.876	14786.15
594.235	14690.11
594.593	14740.73
594.952	14676.1
595.311	14631.35
595.67	14755.42
596.029	14883.1
596.387	14857.11
596.746	14888.52
597.104	14814.85
597.463	14853.04
597.822	14828.64
598.18	14695.98
598.538	14795.19
598.897	14925.81
599.255	14715.64
599.613	14967.84
599.972	14937.33
600.33	14847.62
600.688	14892.36
601.046	14928.52
601.404	14935.3
601.762	14888.29
602.12	15044
602.478	14911.57
602.836	15046.26
603.194	14971.46
603.552	15045.35
603.91	15011.23
604.268	14992.02
604.625	14954.51
604.983	15033.38
605.341	15060.49
605.698	15129.87
606.056	15161.73
606.413	15088.52
606.771	15135.52
607.128	15236.99
607.485	15139.14
607.843	15091
608.2	15109.31
608.557	15204.22
608.914	15154.73
609.272	15258.91
609.629	15307.72
609.986	15302.07
610.343	15305.23
610.7	15406.47
611.057	15323.76
611.414	15307.27
611.771	15344.55
612.127	15399.24
612.484	15372.35
612.841	15446.47
613.198	15373.03
613.554	15413.03
613.911	15521.5
614.267	15508.84
614.624	15496.41
614.98	15524.44
615.337	15607.82
615.693	15557.88
616.05	15566.92
616.406	15512.01
616.762	15494.83
617.118	15674.71
617.475	15596.52
617.831	15583.87
618.187	15613.47
618.543	15604.89
618.899	15679.69
619.255	15607.15
619.611	15644.89
619.967	15639.01
620.323	15772.79
620.678	15746.8
621.034	15676.07
621.39	15727.59
621.746	15626.35
622.101	15877.87
622.457	15649.18
622.812	15726.01
623.168	15726.69
623.523	15739.35
623.879	15689.63
624.234	15653.92
624.589	15775.28
624.945	15820.93
625.3	15759.68
625.655	15712.68
626.01	15762.17
626.365	15642.4
626.72	15659.35
627.075	15732.57
627.43	15578.67
627.785	15625
628.14	15711.55
628.495	15714.26
628.85	15681.04
629.205	15628.61
629.559	15707.93
629.914	15655.96
630.269	15683.98
630.623	15560.59
630.978	15555.62
631.332	15644.21
631.687	15548.84
632.041	15610.99
632.396	15613.93
632.75	15569.63
633.104	15490.31
633.459	15464.33
633.813	15416.64
634.167	15401.05
634.521	15439.69
634.875	15420.48
635.229	15418.45
635.583	15302.75
635.937	15397.89
636.291	15350.2
636.645	15426.59
636.999	15276.31
637.352	15417.09
637.706	15215.74
638.06	15245.12
638.413	15357.89
638.767	15238.12
639.121	15194.28
639.474	15135.52
639.828	15134.39
640.181	15195.63
640.534	15250.77
640.888	15140.04
641.241	15056.88
641.594	15057.56
641.947	15160.6
642.301	15011.91
642.654	15072.92
643.007	15093.71
643.36	15019.36
643.713	15060.49
644.066	15107.05
644.419	14949.31
644.771	14987.73
645.124	14818.69
645.477	14883.55
645.83	14788.86
646.182	14533.5
646.535	14548.19
646.888	14501.19
647.24	14310.23
647.593	14401.75
647.945	14328.31
648.298	14290.34
648.65	14375.99
649.002	14282.21
649.355	14363.79
649.707	14362.89
650.059	14373.73
650.411	14532.6
650.763	14510.45
651.115	14646.72
651.467	14655.31
651.819	14657.11
652.171	14666.38
652.523	14524.46
652.875	14647.85
653.227	14543.67
653.578	14671.35
653.93	14525.82
654.282	14468.87
654.633	14370.57
654.985	14472.03
655.337	14486.95
655.688	14493.05
656.039	14592.71
656.391	14430.45
656.742	14462.54
657.094	14363.79
657.445	14400.17
657.796	14495.76
658.147	14469.55
658.498	14409.44
658.849	14442.66
659.2	14438.36
659.551	14421.19
659.902	14407.18
660.253	14425.71
660.604	14299.16
660.955	14197.01
661.306	14380.74
661.656	14236.56
662.007	14246.28
662.358	14328.08
662.708	14283.11
663.059	14321.53
663.409	14245.15
663.76	14266.84
664.11	14271.81
664.461	14239.5
664.811	14275.66
665.161	14237.92
665.511	14287.86
665.862	14224.81
666.212	14286.5
666.562	14334.86
666.912	14255.09
667.262	14201.76
667.612	14198.82
667.962	14208.09
668.312	14213.51
668.662	14211.25
669.011	14255.77
669.361	14149.56
669.711	14186.39
670.06	14164.92
670.41	14091.48
670.76	14126.51
671.109	14130.57
671.459	14071.14
671.808	14093.29
672.157	14093.97
672.507	13992.27
672.856	14062.1
673.205	14018.26
673.554	14092.61
673.904	14022.1
674.253	14168.31
674.602	13999.28
674.951	13895.1
675.3	13779.17
675.649	14066.17
675.998	14037.24
676.346	13973.74
676.695	14021.2
677.044	13961.99
677.393	13955.89
677.741	13984.36
678.09	13866.17
678.438	13841.77
678.787	13950.01
679.135	13881.77
679.484	13817.36
679.832	13789.11
680.181	13838.61
680.529	13733.07
680.877	13787.98
681.225	13733.07
681.573	13816.91
681.922	13750.7
682.27	13645.16
682.618	13756.57
682.966	13653.98
683.314	13655.79
683.661	13623.47
684.009	13559.29
684.357	13559.29
684.705	13557.48
685.053	13495.11
685.4	13490.59
685.748	13492.17
686.095	13472.51
686.443	13429.8
686.79	13418.73
687.138	13475.9
687.485	13340.31
687.832	13328.79
688.18	13312.07
688.527	13356.81
688.874	13242.91
689.221	13216.7
689.568	13190.03
689.915	13119.08
690.262	13213.08
690.609	13102.58
690.956	13086.53
691.303	13109.58
691.65	12941.45
691.997	12923.37
692.344	12936.71
692.69	12931.28
693.037	12912.75
693.383	12808.12
693.73	12812.42
694.077	12676.15
694.423	12731.74
694.769	12705.98
695.116	12676.38
695.462	12623.95
695.808	12585.76
696.155	12525.65
696.501	12557.51
696.847	12471.64
697.193	12421.92
697.539	12466.21
697.885	12436.38
698.231	12350.73
698.577	12392.54
698.923	12375.37
699.269	12271.19
699.614	12276.84
699.96	12242.26
700.306	12240
700.651	12172.21
700.997	12130.18
701.342	12154.36
701.688	12024.42
702.033	12021.48
702.379	12093.11
702.724	12028.94
703.069	11998.65
703.415	11840.24
703.76	11850.41
704.105	11861.03
704.45	11834.59
704.795	11800.24
705.14	11747.13
705.485	11717.76
705.83	11727.47
706.175	11666.68
706.52	11642.73
706.865	11641.83
707.209	11560.92
707.554	11553.92
707.899	11556.86
708.243	11525.45
708.588	11452.45
708.932	11445.9
709.277	11424.43
709.621	11420.59
709.966	11294.49
710.31	11422.17
710.654	11279.12
710.998	11390.76
711.342	11352.57
711.687	11329.74
712.031	11216.75
712.375	11175.4
712.719	11273.02
713.063	11176.98
713.407	11228.28
713.75	11160.94
714.094	11126.59
714.438	11088.39
714.782	11095.85
715.125	11068.06
715.469	11103.54
715.812	11038.68
716.156	10995.74
716.499	10927.04
716.843	11017.89
717.186	10899.47
717.53	10966.59
717.873	10893.82
718.216	10876.2
718.559	10878.91
718.902	10751.45
719.246	10839.14
719.589	10788.52
719.932	10689.08
720.275	10638.69
720.617	10712.13
720.96	10621.74
721.303	10746.93
721.646	10599.82
721.989	10560.5
722.331	10606.83
722.674	10508.98
723.016	10510.33
723.359	10530.67
723.701	10579.26
724.044	10508.52
724.386	10480.73
724.729	10549.43
725.071	10448.86
725.413	10499.03
725.755	10457.9
726.097	10394.85
726.439	10489.77
726.782	10359.6
727.124	10402.54
727.465	10344.23
727.807	10362.54
728.149	10255.2
728.491	10234.86
728.833	10315.99
729.175	10223.33
729.516	10306.49
729.858	10176.1
730.199	10202.32
730.541	10243.45
730.882	10216.1
731.224	10278.47
731.565	10178.36
731.906	10129.78
732.248	10221.75
732.589	10102.88
732.93	10117.12
733.271	10095.88
733.612	10123.9
733.953	10061.53
734.294	10052.49
734.635	10026.5
734.976	10015.65
735.317	9941.31
735.658	9932.95
735.999	10024.69
736.339	9993.96
736.68	10053.85
737.021	9972.94
737.361	9918.71
737.702	9919.16
738.042	9875.32
738.383	9949.89
738.723	9884.36
739.063	9880.97
739.404	9867.41
739.744	9755.55
740.084	9782.44
740.424	9803.68
740.764	9727.53
741.104	9719.84
741.444	9736.79
741.784	9629.68
742.124	9745.61
742.464	9732.5
742.804	9631.94
743.143	9593.07
743.483	9598.49
743.823	9501.54
744.162	9521.88
744.502	9596.46
744.841	9463.58
745.181	9570.47
745.52	9482.34
745.86	9498.15
746.199	9561.88
746.538	9552.62
746.877	9610.92
747.216	9530.7
747.556	9449.34
747.895	9477.36
748.234	9465.16
748.573	9441.43
748.911	9466.52
749.25	9408.44
749.589	9381.1
749.928	9378.61
750.267	9400.08
750.605	9351.94
750.944	9338.38
751.283	9279.63
751.621	9284.6
751.96	9281.89
752.298	9275.34
752.636	9244.38
752.975	9224.49
753.313	9193.76
753.651	9206.18
753.989	9165.28
754.327	9174.32
754.666	9122.57
755.004	9100.2
755.342	9142.68
755.679	9034.89
756.017	9052.29
756.355	9043.48
756.693	8970.94
757.031	9024.27
757.368	8931.62
757.706	8937.94
758.044	8868.79
758.381	8864.95
758.719	8817.27
759.056	8829.7
759.394	8799.87
759.731	8787.89
760.068	8725.29
760.405	8716.25
760.743	8635.58
761.08	8634.67
761.417	8638.52
761.754	8584.73
762.091	8544.06
762.428	8545.41
762.765	8525.52
763.102	8572.98
763.438	8535.02
763.775	8540.21
764.112	8524.39
764.449	8504.28
764.785	8490.5
765.122	8449.59
765.458	8317.62
765.795	8381.57
766.131	8293.67
766.467	8364.4
766.804	8290.5
767.14	8222.71
767.476	8302.25
767.812	8254.35
768.148	8198.75
768.485	8127.12
768.821	8111.07
769.157	8160.56
769.492	8111.3
769.828	8064.52
770.164	8073.56
770.5	8083.05
770.836	8011.64
771.171	8005.09
771.507	7954.01
771.842	7910.4
772.178	7870.63
772.513	7876.28
772.849	7882.83
773.184	7781.59
773.519	7774.36
773.855	7712.66
774.19	7689.16
774.525	7713.79
774.86	7702.27
775.195	7694.36
775.53	7617.53
775.865	7553.57
776.2	7560.58
776.535	7511.09
776.87	7502.27
777.205	7411.43
777.539	7377.31
777.874	7440.58
778.209	7343.18
778.543	7334.37
778.878	7273.35
779.212	7273.13
779.547	7203.3
779.881	7182.28
780.215	7205.79
780.55	7205.79
780.884	7124.66
781.218	7130.08
781.552	7157.2
781.886	7110.42
782.22	7082.4
782.554	7020.25
782.888	7013.25
783.222	7050.76
783.556	6927.37
783.889	7033.36
784.223	6922.63
784.557	6935.96
784.89	6857.32
785.224	6869.3
785.557	6826.59
785.891	6798.56
786.224	6755.63
786.558	6763.31
786.891	6694.61
787.224	6701.17
787.557	6633.6
787.891	6666.36
788.224	6671.34
788.557	6658.23
788.89	6606.7
789.223	6584.11
789.556	6539.36
789.888	6575.29
790.221	6566.25
790.554	6477.67
790.887	6477.44
791.219	6455.3
791.552	6417.78
791.884	6435.18
792.217	6419.59
792.549	6357.45
792.882	6308.18
793.214	6304.57
793.546	6296.66
793.879	6263.44
794.211	6279.26
794.543	6271.35
794.875	6232.7
795.207	6265.47
795.539	6243.1
795.871	6251.01
796.203	6193.83
796.535	6133.27
796.867	6103.89
797.198	6141.18
797.53	6094.63
797.862	6026.38
798.193	6051.69
798.525	6034.97
798.856	6058.47
799.188	5944.12
799.519	5895.99
799.85	5976.66
800.182	5951.13
800.513	5889.89
800.844	5839.27
801.175	5879.72
801.506	5905.03
801.837	5844.92
802.168	5837.69
802.499	5821.64
802.83	5801.3
803.161	5703.68
803.491	5724.02
803.822	5735.09
804.153	5659.84
804.483	5658.03
804.814	5635.43
805.145	5660.74
805.475	5618.93
805.805	5640.18
806.136	5638.37
806.466	5660.06
806.796	5588.88
807.126	5606.73
807.457	5587.07
807.787	5581.65
808.117	5514.98
808.447	5499.16
808.777	5519.28
809.107	5511.14
809.436	5510.01
809.766	5497.58
810.096	5453.74
810.426	5421.2
810.755	5386.62
811.085	5397.25
811.414	5349.11
811.744	5320.64
812.073	5412.16
812.403	5351.82
812.732	5344.37
813.061	5309.56
813.39	5330.81
813.719	5354.99
814.049	5313.18
814.378	5306.17
814.707	5335.33
815.036	5322.9
815.365	5265.95
815.693	5197.93
816.022	5236.57
816.351	5203.35
816.68	5211.71
817.008	5142.11
817.337	5124.48
817.665	5161.32
817.994	5159.51
818.322	5151.6
818.651	5127.42
818.979	5094.2
819.307	5120.87
819.636	5100.98
819.964	5078.61
820.292	5106.86
820.62	5066.86
820.948	5056.92
821.276	5096.91
821.604	5009.01
821.932	5065.95
822.259	5044.26
822.587	4994.32
822.915	5012.85
823.243	5061.21
823.57	4996.8
823.898	5015.33
824.225	5047.65
824.553	5032.51
824.88	4992.74
825.207	5036.58
825.535	5016.92
825.862	5027.31
826.189	4993.19
826.516	5047.65
826.843	5023.92
827.17	5027.09
827.497	5004.71
827.824	5061.43
828.151	5063.02
828.478	5085.61
828.805	5037.25
829.131	5023.24
829.458	5023.92
829.785	5019.4
830.111	4951.16
830.438	5032.96
830.764	5019.4
831.09	5034.77
831.417	4969.01
831.743	5005.17
832.069	5030.02
832.395	4986.86
832.722	5040.19
833.048	4993.64
833.374	5022.79
833.7	5013.75
834.026	4985.05
834.351	5029.12
834.677	5022.34
835.003	5033.19
835.329	5002.23
835.654	5000.19
835.98	4922.68
836.306	4985.73
836.631	4923.13
836.956	4980.08
837.282	4927.65
837.607	4886.3
837.932	4889.91
838.258	4934.21
838.583	4882.46
838.908	4891.5
839.233	4901.89
839.558	4912.74
839.883	4876.13
840.208	4839.97
840.533	4812.85
840.858	4864.83
841.182	4896.24
841.507	4816.7
841.832	4795.9
842.156	4794.78
842.481	4786.19
842.805	4771.05
843.13	4755.91
843.454	4738.73
843.778	4717.04
844.103	4713.2
844.427	4674.55
844.751	4685.4
845.075	4660.09
845.399	4686.76
845.723	4631.16
846.047	4654.67
846.371	4649.24
846.695	4640.88
847.019	4629.58
847.343	4631.84
847.666	4577.15
847.99	4565.85
848.313	4553.43
848.637	4547.1
848.96	4482.47
849.284	4504.61
849.607	4445.41
849.931	4423.03
850.254	4403.15
850.577	4425.29
850.9	4400.21
851.223	4371.74
851.546	4366.99
851.869	4332.64
852.192	4345.07
852.515	4300.1
852.838	4294.68
853.161	4301.91
853.483	4264.85
853.806	4277.27
854.129	4286.77
854.451	4243.83
854.774	4204.28
855.096	4224.62
855.419	4218.52
855.741	4190.05
856.063	4210.84
856.385	4177.16
856.708	4157.73
857.03	4147.56
857.352	4146.2
857.674	4142.14
857.996	4119.54
858.318	4073.44
858.64	4061.01
858.961	4056.72
859.283	4101.23
859.605	4062.36
859.926	4010.84
860.248	3992.99
860.57	4024.85
860.891	4031.86
861.212	4017.85
861.534	3997.51
861.855	3980.33
862.176	3974.46
862.498	3975.59
862.819	4002.48
863.14	3987.11
863.461	3989.37
863.782	3956.83
864.103	3924.06
864.424	3960.9
864.745	3930.62
865.065	3941.69
865.386	3913.22
865.707	3914.8
866.027	3902.82
866.348	3882.71
866.668	3872.99
866.989	3851.52
867.309	3878.64
867.63	3939.43
867.95	3860.11
868.27	3847.23
868.59	3881.35
868.91	3859.88
869.23	3852.65
869.55	3842.03
869.87	3814.69
870.19	3828.7
870.51	3855.59
870.83	3819.66
871.15	3810.39
871.469	3819.66
871.789	3810.17
872.109	3825.08
872.428	3788.7
872.748	3805.65
873.067	3767.68
873.386	3771.98
873.706	3781.47
874.025	3788.7
874.344	3776.27
874.663	3786.21
874.982	3736.95
875.301	3700.11
875.62	3723.62
875.939	3720.45
876.258	3712.54
876.577	3681.81
876.896	3731.98
877.214	3705.76
877.533	3694.92
877.852	3689.49
878.17	3703.73
878.489	3685.65
878.807	3694.92
879.125	3651.3
879.444	3653.56
879.762	3658.31
880.08	3619.44
880.398	3657.86
880.716	3679.78
881.034	3607.01
881.352	3599.33
881.67	3602.49
881.988	3599.78
882.306	3572.66
882.624	3578.08
882.941	3583.96
883.259	3575.82
883.577	3588.03
883.894	3542.38
884.212	3531.31
884.529	3567.91
884.846	3550.29
885.164	3561.36
885.481	3549.16
885.798	3559.78
886.115	3548.93
886.432	3572.89
886.75	3541.25
887.067	3537.41
887.383	3539.21
887.7	3546.45
888.017	3497.18
888.334	3475.04
888.651	3468.48
888.967	3468.93
889.284	3443.62
889.6	3449.05
889.917	3439.56
890.233	3438.2
890.55	3418.31
890.866	3407.01
891.182	3445.66
891.498	3409.95
891.815	3429.84
892.131	3410.86
892.447	3358.43
892.763	3418.77
893.079	3350.75
893.395	3378.32
893.71	3377.19
894.026	3316.4
894.342	3354.81
894.657	3302.38
894.973	3320.24
895.289	3312.1
895.604	3289.28
895.92	3237.3
896.235	3259.45
896.55	3219.45
896.865	3220.35
897.181	3198.21
897.496	3242.05
897.811	3242.05
898.126	3208.83
898.441	3144.2
898.756	3138.77
899.071	3149.85
899.386	3143.97
899.7	3167.25
900.015	3121.37
900.33	3126.8
900.644	3111.88
900.959	3113.24
901.273	3075.27
901.588	3083.63
901.902	3056.52
902.216	3066.46
902.531	3078.89
902.845	3029.4
903.159	2990.08
903.473	3004.54
903.787	3002.73
904.101	2976.07
904.415	3002.51
904.729	2948.27
905.042	2967.03
905.356	2953.02
905.67	2931.77
905.984	2923.64
906.297	2950.3
906.611	2930.64
906.924	2938.78
907.237	2876.86
907.551	2876.18
907.864	2858.33
908.177	2917.08
908.491	2937.2
908.804	2926.35
909.117	2917.76
909.43	2872.57
909.743	2846.13
910.056	2830.76
910.368	2814.71
910.681	2800.03
910.994	2790.53
911.307	2787.6
911.619	2763.64
911.932	2784.66
912.244	2736.07
912.557	2756.86
912.869	2742.63
913.181	2711.89
913.494	2729.74
913.806	2700.82
914.118	2689.97
914.43	2668.28
914.742	2666.24
915.054	2701.95
915.366	2642.29
915.678	2663.76
915.99	2671.89
916.302	2616.98
916.613	2595.06
916.925	2625.79
917.236	2621.5
917.548	2586.7
917.859	2590.31
918.171	2580.82
918.482	2535.4
918.794	2567.26
919.105	2540.6
919.416	2535.17
919.727	2508.06
920.038	2479.36
920.349	2488.17
920.66	2479.36
920.971	2499.24
921.282	2452.46
921.593	2462.18
921.903	2443.65
922.214	2410.2
922.525	2430.09
922.835	2432.8
923.146	2415.85
923.456	2382.86
923.767	2409.98
924.077	2419.92
924.387	2372.24
924.697	2336.08
925.008	2361.17
925.318	2367.72
925.628	2358.91
925.938	2333.6
926.248	2332.47
926.558	2353.48
926.867	2291.34
927.177	2301.51
927.487	2273.71
927.796	2316.87
928.106	2273.03
928.416	2273.94
928.725	2263.09
929.034	2249.31
929.344	2255.41
929.653	2228.29
929.962	2239.81
930.271	2242.07
930.581	2233.94
930.89	2240.49
931.199	2174.73
931.508	2189.19
931.817	2222.87
932.125	2188.06
932.434	2176.99
932.743	2140.16
933.051	2144.22
933.36	2149.19
933.669	2104.22
933.977	2111.46
934.286	2134.05
934.594	2137.22
934.902	2064.23
935.21	2099.25
935.519	2080.04
935.827	2060.38
936.135	2074.62
936.443	2078.24
936.751	2054.73
937.059	2056.32
937.367	2034.17
937.674	2032.81
937.982	2050.21
938.29	2016.77
938.597	2007.73
938.905	1984.45
939.213	2008.18
939.52	1991.01
939.827	2005.47
940.135	1961.86
940.442	1958.24
940.749	1935.19
941.056	1952.82
941.363	1940.84
941.67	1941.52
941.977	1924.12
942.284	1907.17
942.591	1912.14
942.898	1885.02
943.205	1928.18
943.511	1911.69
943.818	1904.91
944.125	1858.36
944.431	1871.91
944.738	1853.38
945.044	1878.69
945.35	1830.33
945.657	1835.76
945.963	1829.2
946.269	1853.16
946.575	1841.63
946.881	1818.13
947.187	1827.17
947.493	1786.49
947.799	1773.16
948.105	1768.41
948.41	1782.65
948.716	1768.87
949.022	1769.32
949.327	1761.86
949.633	1724.57
949.938	1735.42
950.244	1740.17
950.549	1746.49
950.854	1728.19
951.16	1713.95
951.465	1736.55
951.77	1727.06
952.075	1740.62
952.38	1706.72
952.685	1690.22
952.99	1716.89
953.294	1692.26
953.599	1664.46
953.904	1650.9
954.209	1661.52
954.513	1673.5
954.818	1641.64
955.122	1647.74
955.426	1646.84
955.731	1629.43
956.035	1627.17
956.339	1633.5
956.643	1627.17
956.948	1601.41
957.252	1624.69
957.556	1611.36
957.86	1597.35
958.163	1582.88
958.467	1594.41
958.771	1586.95
959.075	1578.81
959.378	1557.35
959.682	1579.94
959.985	1544.92
960.289	1539.95
960.592	1571.13
960.896	1512.83
961.199	1549.89
961.502	1541.98
961.805	1519.38
962.108	1527.29
962.411	1518.25
962.714	1502.66
963.017	1494.07
963.32	1515.99
963.623	1472.15
963.926	1486.39
964.228	1469.89
964.531	1482.55
964.833	1438.93
965.136	1447.97
965.438	1457.24
965.741	1455.43
966.043	1451.81
966.345	1397.35
966.648	1438.25
966.95	1411.81
967.252	1433.96
967.554	1416.11
967.856	1402.55
968.158	1392.38
968.46	1388.31
968.761	1378.14
969.063	1365.71
969.365	1362.77
969.666	1352.61
969.968	1362.32
970.269	1367.97
970.571	1343.79
970.872	1363.68
971.174	1353.28
971.475	1352.83
971.776	1355.77
972.077	1353.74
972.378	1353.06
972.679	1353.06
972.98	1351.25
973.281	1339.27
973.582	1352.15
973.883	1294.53
974.183	1337.01
974.484	1346.28
974.785	1299.5
975.085	1330.91
975.386	1325.71
975.686	1297.24
975.986	1305.6
976.287	1302.44
976.587	1290.23
976.887	1277.58
977.187	1277.58
977.487	1297.69
977.787	1277.58
978.087	1239.84
978.387	1284.36
978.687	1253.85
978.987	1249.56
979.286	1245.72
979.586	1250.01
979.885	1220.63
980.185	1196.9
980.484	1214.3
980.784	1228.99
981.083	1248.88
981.382	1204.14
981.682	1185.83
981.981	1218.37
982.28	1189.22
982.579	1186.96
982.878	1209.33
983.177	1198.03
983.475	1177.02
983.774	1171.59
984.073	1174.98
984.372	1156.23
984.67	1157.36
984.969	1190.35
985.267	1150.58
985.566	1156.45
985.864	1150.58
986.162	1152.84
986.461	1151.26
986.759	1144.93
987.057	1089.34
987.355	1108.09
987.653	1106.51
987.951	1126.17
988.249	1099.05
988.547	1118.49
988.844	1100.18
989.142	1112.61
989.44	1112.84
989.737	1105.38
990.035	1098.83
990.332	1085.95
990.63	1061.77
990.927	1084.82
991.224	1036.68
991.521	1069.45
991.819	1072.39
992.116	1071.71
992.413	1064.48
992.71	1060.86
993.006	1040.75
993.303	1037.13
993.6	1040.75
993.897	1017.25
994.193	1028.32
994.49	1020.41
994.787	1044.59
995.083	1019.06
995.379	1019.96
995.676	1013.41
995.972	1018.15
996.268	1006.4
996.565	998.26
996.861	995.1
997.157	1008.21
997.453	987.64
997.749	977.25
998.044	974.99
998.34	979.73
998.636	951.26
998.932	987.64
999.227	972.05
999.523	981.09
999.818	962.56
1000.114	952.16
1000.409	956.01
1000.704	976.57
1001	989.9
1001.295	959.4
1001.59	924.59
1001.885	941.54
1002.18	922.11
1002.475	927.53
1002.77	930.24
1003.065	934.09
1003.359	913.97
1003.654	901.32
1003.949	905.16
1004.243	925.5
1004.538	878.49
1004.832	893.41
1005.127	919.62
1005.421	916.23
1005.715	898.15
1006.009	887.76
1006.304	900.64
1006.598	893.63
1006.892	875.78
1007.186	886.4
1007.48	881.66
1007.773	871.26
1008.067	871.49
1008.361	853.86
1008.655	841.88
1008.948	846.4
1009.242	855.67
1009.535	869.91
1009.829	838.95
1010.122	835.33
1010.415	829.46
1010.708	828.78
1011.001	824.71
1011.295	822.68
1011.588	829.91
1011.881	826.52
1012.173	819.29
1012.466	819.29
1012.759	825.16
1013.052	819.51
1013.344	817.48
1013.637	819.29
1013.93	794.43
1014.222	791.04
1014.514	776.12
1014.807	793.07
1015.099	763.02
1015.391	795.78
1015.683	781.55
1015.976	773.41
1016.268	753.75
1016.56	754.88
1016.851	739.29
1017.143	746.07
1017.435	728.89
1017.727	748.1
1018.018	745.62
1018.31	739.06
1018.602	746.52
1018.893	719.4
1019.185	717.82
1019.476	742.45
1019.767	702
1020.058	713.75
1020.35	687.76
1020.641	714.88
1020.932	696.8
1021.223	698.39
1021.514	689.8
1021.804	700.42
1022.095	689.57
1022.386	688.89
1022.677	685.73
1022.967	694.77
1023.258	680.08
1023.548	679.4
1023.839	698.16
1024.129	687.76
1024.419	680.31
1024.709	684.15
1025	675.56
1025.29	670.36
1025.58	678.5
1025.87	660.87
1026.16	676.01
1026.449	654.54
1026.739	643.25
1027.029	646.64
1027.319	648.9
1027.608	644.83
1027.898	636.24
1028.187	624.26
1028.477	642.57
1028.766	640.99
1029.055	626.3
1029.344	626.75
1029.634	611.38
1029.923	627.43
1030.212	598.73
1030.501	624.26
1030.79	612.96
1031.078	600.76
1031.367	637.37
1031.656	598.5
1031.945	624.94
1032.233	601.89
1032.522	599.63
1032.81	597.6
1033.099	608.44
1033.387	577.71
1033.675	589.69
1033.963	562.57
1034.251	586.75
1034.54	583.36
1034.828	568.67
1035.116	575.68
1035.403	561.21
1035.691	566.41
1035.979	567.54
1036.267	580.65
1036.554	557.82
1036.842	560.76
1037.129	560.99
1037.417	568.45
1037.704	546.98
1037.992	554.66
1038.279	566.64
1038.566	572.51
1038.853	572.51
1039.14	572.51
