Data from foam_black_FLMS001491_00042.txt Node
Date: Wed Feb 08 10:43:56 GMT 2017
User: dcchb
Spectrometer: FLMS00149
Trigger mode: 0
Integration Time (sec): 2.000000E-2
Scans to average: 10
Electric dark correction enabled: true
Nonlinearity correction enabled: false
Boxcar width: 0
XAxis mode: Wavelengths
Number of Pixels in Spectrum: 2048
>>>>>Begin Spectral Data<<<<<
341.393	-2.71
341.776	-2.71
342.16	-2.71
342.543	-73.22
342.927	-70.51
343.31	-58.98
343.693	-75.25
344.077	-58.53
344.46	-67.12
344.843	-60.79
345.226	-38.87
345.61	-23.05
345.993	0.45
346.376	-1.13
346.759	-9.94
347.142	11.53
347.525	50.17
347.908	56.95
348.291	95.59
348.674	89.72
349.057	89.26
349.44	129.26
349.823	142.37
350.206	172.42
350.588	192.54
350.971	191.86
351.354	213.33
351.737	228.24
352.119	228.69
352.502	250.84
352.884	260.11
353.267	267.34
353.65	299.65
354.032	285.19
354.414	293.78
354.797	306.88
355.179	290.39
355.562	289.71
355.944	328.13
356.326	320.22
356.709	329.26
357.091	314.57
357.473	335.81
357.855	340.78
358.238	338.52
358.62	302.14
359.002	345.08
359.384	332.19
359.766	325.42
360.148	338.3
360.53	315.02
360.912	318.86
361.294	318.18
361.676	343.04
362.057	346.88
362.439	328.58
362.821	319.09
363.203	318.41
363.584	307.34
363.966	322.03
364.348	305.75
364.729	343.72
365.111	322.7
365.493	315.25
365.874	329.03
366.256	300.56
366.637	298.52
367.019	305.08
367.4	319.99
367.781	312.53
368.163	309.6
368.544	290.84
368.925	308.92
369.306	326.32
369.688	319.09
370.069	324.29
370.45	309.82
370.831	302.59
371.212	302.59
371.593	317.96
371.974	316.6
372.355	296.94
372.736	312.53
373.117	343.49
373.498	307.34
373.879	313.44
374.26	328.58
374.641	299.88
375.021	313.44
375.402	323.38
375.783	333.32
376.163	311.18
376.544	327.45
376.925	317.28
377.305	346.43
377.686	326.09
378.066	344.85
378.447	337.39
378.827	338.97
379.208	324.51
379.588	331.06
379.968	336.49
380.349	326.09
380.729	331.29
381.109	323.38
381.489	317.73
381.87	364.06
382.25	339.65
382.63	337.39
383.01	354.79
383.39	356.37
383.77	339.43
384.15	350.05
384.53	359.99
384.91	350.5
385.29	355.24
385.67	366.77
386.049	365.41
386.429	378.97
386.809	371.74
387.189	386.88
387.568	369.03
387.948	372.65
388.328	379.2
388.707	376.04
389.087	379.65
389.466	390.27
389.846	375.13
390.225	387.33
390.605	388.92
390.984	385.98
391.363	391.4
391.743	389.37
392.122	404.51
392.501	385.53
392.881	376.26
393.26	385.98
393.639	404.96
394.018	406.09
394.397	407.9
394.776	401.8
395.155	406.09
395.534	421.68
395.913	418.29
396.292	434.56
396.671	404.28
397.05	417.16
397.429	415.36
397.808	413.1
398.186	411.51
398.565	447.67
398.944	404.74
399.323	448.12
399.701	441.34
400.08	443.6
400.458	439.54
400.837	465.3
401.215	466.2
401.594	450.38
401.972	446.32
402.351	475.24
402.729	447.45
403.107	459.87
403.486	456.71
403.864	464.62
404.242	464.17
404.62	479.31
404.999	451.97
405.377	462.36
405.755	470.95
406.133	480.89
406.511	481.34
406.889	492.64
407.267	485.86
407.645	488.8
408.023	501
408.401	476.6
408.779	482.93
409.156	506.43
409.534	506.88
409.912	515.92
410.29	515.47
410.667	520.89
411.045	528.35
411.422	511.4
411.8	528.12
412.178	518.63
412.555	535.58
412.933	539.87
413.31	549.36
413.687	546.2
414.065	553.21
414.442	570.61
414.819	570.15
415.197	563.38
415.574	594.56
415.951	592.53
416.328	575.35
416.705	563.15
417.082	563.38
417.46	581.91
417.837	607.22
418.214	581.91
418.591	607.22
418.967	606.76
419.344	609.25
419.721	598.18
420.098	614.9
420.475	622.36
420.852	613.32
421.228	616.25
421.605	611.28
421.982	632.3
422.358	644.05
422.735	654.22
423.111	638.85
423.488	639.08
423.864	662.36
424.241	657.61
424.617	655.35
424.994	653.09
425.37	664.84
425.746	676.59
426.123	668.91
426.499	684.95
426.875	673.65
427.251	689.93
427.627	710.94
428.003	691.73
428.379	703.03
428.756	731.51
429.132	733.09
429.507	734.67
429.883	717.72
430.259	767.21
430.635	736.7
431.011	759.98
431.387	784.16
431.763	785.29
432.138	806.98
432.514	797.27
432.89	792.52
433.265	828.45
433.641	809.7
434.016	821.9
434.392	820.54
434.767	841.56
435.143	846.98
435.518	841.11
435.894	853.31
436.269	851.73
436.644	880.2
437.02	876.81
437.395	888.56
437.77	879.3
438.145	888.11
438.52	911.16
438.895	899.41
439.271	920.2
439.646	921.56
440.021	913.42
440.395	943.48
440.77	940.31
441.145	941.22
441.52	955.91
441.895	919.75
442.27	986.87
442.645	976.25
443.019	970.82
443.394	931.95
443.769	985.74
444.143	965.17
444.518	991.16
444.892	995.23
445.267	968.34
445.641	990.26
446.016	992.74
446.39	1034.32
446.764	1019.41
447.139	1015.57
447.513	1002.23
447.887	1008.56
448.262	1056.47
448.636	1039.97
449.01	1061.67
449.384	1067.09
449.758	1060.31
450.132	1071.16
450.506	1076.36
450.88	1082.23
451.254	1096.24
451.628	1089.69
452.002	1117.48
452.376	1107.32
452.75	1125.62
453.123	1145.51
453.497	1153.19
453.871	1154.55
454.244	1175.56
454.618	1163.59
454.992	1176.92
455.365	1172.4
455.739	1257.14
456.112	1228.67
456.486	1243.36
456.859	1265.05
457.232	1258.72
457.606	1260.08
457.979	1284.26
458.352	1293.3
458.725	1298.5
459.099	1326.52
459.472	1348.21
459.845	1340.08
460.218	1358.38
460.591	1383.01
460.964	1386.18
461.337	1421.66
461.71	1436.8
462.083	1453.75
462.456	1445.84
462.829	1460.98
463.201	1487.42
463.574	1470.92
463.947	1490.81
464.32	1516.8
464.692	1506.63
465.065	1538.49
465.438	1546.17
465.81	1574.87
466.183	1561.54
466.555	1622.56
466.928	1600.18
467.3	1609.9
467.672	1609
468.045	1643.57
468.417	1722.44
468.789	1702.78
469.161	1726.73
469.534	1740.29
469.906	1771.03
470.278	1776.22
470.65	1795.66
471.022	1820.07
471.394	1876.11
471.766	1874.75
472.138	1917.01
472.51	1929.21
472.882	1946.84
473.253	1989.55
473.625	2007.86
473.997	2038.59
474.369	2044.92
474.74	2053.96
475.112	2100.06
475.484	2075.2
475.855	2173.28
476.227	2174.63
476.598	2232.03
476.97	2266.61
477.341	2280.39
477.713	2316.78
478.084	2307.06
478.455	2376.43
478.827	2375.98
479.198	2441.07
479.569	2480.61
479.94	2519.03
480.311	2567.16
480.682	2588.86
481.053	2634.96
481.424	2688.29
481.795	2708.86
482.166	2754.05
482.537	2799.02
482.908	2832.24
483.279	2853.03
483.65	2909.98
484.021	2971.9
484.391	2985.46
484.762	3016.64
485.133	3048.51
485.503	3070.43
485.874	3157.43
486.244	3159.24
486.615	3193.14
486.985	3257.99
487.356	3312.91
487.726	3334.6
488.097	3402.4
488.467	3390.42
488.837	3435.39
489.207	3453.02
489.578	3562.17
489.948	3536.18
490.318	3619.34
490.688	3587.02
491.058	3643.07
491.428	3735.27
491.798	3767.58
492.168	3836.96
492.538	3801.71
492.908	3841.93
493.278	3891.88
493.648	3950.86
494.017	3959.22
494.387	4011.42
494.757	4070.4
495.126	4072.66
495.496	4151.53
495.866	4145.2
496.235	4168.03
496.605	4236.72
496.974	4248.25
497.344	4292.54
497.713	4288.93
498.082	4323.73
498.452	4414.57
498.821	4415.03
499.19	4425.65
499.559	4488.92
499.928	4507
500.298	4515.36
500.667	4569.6
501.036	4567.11
501.405	4655.24
501.774	4632.87
502.143	4686.43
502.512	4699.54
502.88	4766.43
503.249	4737.73
503.618	4820.89
503.987	4788.12
504.356	4834.45
504.724	4849.14
505.093	4895.46
505.462	4912.41
505.83	4921.45
506.199	4965.97
506.567	5036.93
506.936	4980.43
507.304	5082.35
507.672	5090.94
508.041	5100.88
508.409	5141.11
508.777	5179.07
509.145	5215.46
509.514	5275.79
509.882	5270.6
510.25	5271.95
510.618	5360.54
510.986	5357.6
511.354	5393.3
511.722	5443.47
512.09	5511.95
512.458	5519.63
512.826	5599.85
513.193	5591.27
513.561	5664.03
513.929	5673.75
514.297	5719.4
514.664	5750.36
515.032	5783.35
515.4	5872.39
515.767	5909
516.135	5929.34
516.502	5912.84
516.869	6052.95
517.237	6020.63
517.604	6060.18
517.972	6162.55
518.339	6125.26
518.706	6193.74
519.073	6301.76
519.44	6243.45
519.808	6331.58
520.175	6346.05
520.542	6437.34
520.909	6437.12
521.276	6415.2
521.643	6583.78
522.009	6573.39
522.376	6631.24
522.743	6671.69
523.11	6698.58
523.477	6768.18
523.843	6877.33
524.21	6900.38
524.577	6967.95
524.943	7057.89
525.31	6996.2
525.676	7127.72
526.043	7089.08
526.409	7207.95
526.776	7292.46
527.142	7277.32
527.508	7351.67
527.874	7459.46
528.241	7466.7
528.607	7485.23
528.973	7548.73
529.339	7520.48
529.705	7601.38
530.071	7705.56
530.437	7761.83
530.803	7728.61
531.169	7796.18
531.535	7796.63
531.901	7879.79
532.267	7894.03
532.632	7930.86
532.998	7923.41
533.364	7975.61
533.73	8040.47
534.095	8070.07
534.461	8143.51
534.826	8240.24
535.192	8199.56
535.557	8250.86
535.923	8206.34
536.288	8291.53
536.653	8320.23
537.019	8376.73
537.384	8413.11
537.749	8451.53
538.114	8460.12
538.479	8541.47
538.845	8616.27
539.21	8595.48
539.575	8685.65
539.94	8671.86
540.305	8696.27
540.67	8734.91
541.034	8774.01
541.399	8769.94
541.764	8837.73
542.129	8936.71
542.494	8924.96
542.858	9042.7
543.223	8997.28
543.587	9121.12
543.952	9072.08
544.316	9159.08
544.681	9144.17
545.045	9176.93
545.41	9150.72
545.774	9210.61
546.138	9271.17
546.503	9343.71
546.867	9288.34
547.231	9388.23
547.595	9346.42
547.959	9432.75
548.324	9515.46
548.688	9444.95
549.052	9519.98
549.416	9542.12
549.779	9527.89
550.143	9588.67
550.507	9683.14
550.871	9627.77
551.235	9679.52
551.599	9773.53
551.962	9839.06
552.326	9807.88
552.689	9928.55
553.053	9881.55
553.417	9892.62
553.78	10035.22
554.143	10045.84
554.507	10123.8
554.87	10112.95
555.234	10254.87
555.597	10213.29
555.96	10234.76
556.323	10336
556.686	10314.08
557.05	10460.06
557.413	10432.95
557.776	10512.72
558.139	10524.24
558.502	10580.29
558.865	10665.71
559.228	10749.32
559.59	10730.79
559.953	10790.68
560.316	10795.87
560.679	10824.35
561.041	10909.32
561.404	10970.11
561.767	11074.29
562.129	11060.95
562.492	11167.62
562.854	11123.1
563.217	11252.59
563.579	11248.29
563.941	11303.66
564.304	11331.68
564.666	11505.46
565.028	11493.94
565.39	11610.99
565.753	11626.36
566.115	11638.79
566.477	11768.96
566.839	11867.71
567.201	11912.68
567.563	11989.52
567.925	11958.56
568.287	12054.6
568.648	12088.95
569.01	12172.79
569.372	12276.29
569.734	12164.43
570.095	12382.5
570.457	12442.38
570.819	12406.68
571.18	12413.46
571.542	12535.72
571.903	12604.87
572.265	12739.78
572.626	12621.36
572.987	12620.46
573.349	12716.73
573.71	12772.09
574.071	12809.15
574.432	12874.24
574.794	12907.91
575.155	12869.94
575.516	12944.07
575.877	12915.59
576.238	12995.59
576.599	13043.05
576.96	13020.9
577.32	12989.94
577.681	13098.19
578.042	13113.1
578.403	13121.01
578.763	13074.23
579.124	13222.7
579.485	13186.09
579.845	13183.38
580.206	13243.27
580.566	13233.1
580.927	13235.36
581.287	13299.76
581.648	13228.58
582.008	13330.72
582.368	13238.52
582.728	13304.51
583.089	13275.13
583.449	13267.45
583.809	13296.15
584.169	13323.72
584.529	13345.41
584.889	13455.69
585.249	13292.31
585.609	13327.79
585.969	13406.43
586.329	13393.32
586.688	13380.67
587.048	13464.05
587.408	13505.41
587.768	13436.93
588.127	13378.18
588.487	13403.26
588.846	13543.82
589.206	13452.98
589.565	13495.46
589.925	13578.63
590.284	13516.93
590.643	13561
591.003	13587.67
591.362	13622.92
591.721	13553.54
592.08	13679.19
592.44	13684.16
592.799	13669.47
593.158	13732.97
593.517	13618.4
593.876	13692.52
594.235	13633.09
594.593	13678.51
594.952	13779.98
595.311	13664.05
595.67	13745.18
596.029	13863.36
596.387	13795.12
596.746	13764.16
597.104	13765.06
597.463	13841.22
597.822	13862.01
598.18	13849.58
598.538	13811.39
598.897	13809.13
599.255	13782.24
599.613	13940.88
599.972	13789.02
600.33	13822.46
600.688	13785.85
601.046	13909.46
601.404	13926.87
601.762	13865.17
602.12	14037.82
602.478	13947.88
602.836	13968.45
603.194	13831.05
603.552	13905.17
603.91	13864.49
604.268	13910.82
604.625	13870.14
604.983	13996.47
605.341	13923.48
605.698	14024.49
606.056	14022
606.413	14069.46
606.771	14100.65
607.128	14112.85
607.485	13964.83
607.843	14090.03
608.2	14077.6
608.557	14169.34
608.914	14046.64
609.272	14176.58
609.629	14346.29
609.986	14187.88
610.343	14186.75
610.7	14273.52
611.057	14324.14
611.414	14255.44
611.771	14308.55
612.127	14314.65
612.484	14356.23
612.841	14329.34
613.198	14414.76
613.554	14375.67
613.911	14429.45
614.267	14450.02
614.624	14457.47
614.98	14470.35
615.337	14539.73
615.693	14517.58
616.05	14504.25
616.406	14725.49
616.762	14553.97
617.118	14625.38
617.475	14602.1
617.831	14750.8
618.187	14760.29
618.543	14677.35
618.899	14780.18
619.255	14807.52
619.611	14748.54
619.967	14822.89
620.323	14850.91
620.678	14815.2
621.034	14693.85
621.39	14661.54
621.746	14718.71
622.101	14922.32
622.457	14750.12
622.812	14761.65
623.168	14819.5
623.523	14777.69
623.879	14938.59
624.234	14762.32
624.589	14855.65
624.945	14920.51
625.3	14821.98
625.655	14823.11
626.01	14838.93
626.365	14832.6
626.72	14789.44
627.075	14794.64
627.43	14802.32
627.785	14771.14
628.14	14841.87
628.495	14788.31
628.85	14839.38
629.205	14788.54
629.559	14747.18
629.914	14765.26
630.269	14760.97
630.623	14728.88
630.978	14683.91
631.332	14714.42
631.687	14724.58
632.041	14649.56
632.396	14685.26
632.75	14620.41
633.104	14714.42
633.459	14600.97
633.813	14538.83
634.167	14485.95
634.521	14484.59
634.875	14571.14
635.229	14548.09
635.583	14427.64
635.937	14544.7
636.291	14474.87
636.645	14571.59
636.999	14497.02
637.352	14501.54
637.706	14416.57
638.06	14460.41
638.413	14372.96
638.767	14379.51
639.121	14377.25
639.474	14338.15
639.828	14369.57
640.181	14396.91
640.534	14400.98
640.888	14342.22
641.241	14267.65
641.594	14326.4
641.947	14380.64
642.301	14269.46
642.654	14332.28
643.007	14277.59
643.36	14299.96
643.713	14269.46
644.066	14299.96
644.419	14222.45
644.771	14158.27
645.124	13941.1
645.477	13907.66
645.83	13848.45
646.182	13825.17
646.535	13845.74
646.888	13938.84
647.24	13832.18
647.593	13959.63
647.945	13830.6
648.298	13821.78
648.65	13751.05
649.002	13672.18
649.355	13773.42
649.707	13638.29
650.059	13701.56
650.411	13814.55
650.763	13895.91
651.115	13999.63
651.467	14001.67
651.819	13997.37
652.171	13898.84
652.523	13861.56
652.875	13918.96
653.227	13811.16
653.578	14004.15
653.93	13946.3
654.282	13847.09
654.633	13826.76
654.985	13841.44
655.337	13885.96
655.688	13760.99
656.039	13827.66
656.391	13742.01
656.742	13750.15
657.094	13782.91
657.445	13797.6
657.796	13760.32
658.147	13720.54
658.498	13766.64
658.849	13769.13
659.2	13721.9
659.551	13695.46
659.902	13757.15
660.253	13716.93
660.604	13756.47
660.955	13640.09
661.306	13762.35
661.656	13721.22
662.007	13647.55
662.358	13726.64
662.708	13694.78
663.059	13741.79
663.409	13633.54
663.76	13721.22
664.11	13784.5
664.461	13765.29
664.811	13753.08
665.161	13715.57
665.511	13709.92
665.862	13716.93
666.212	13796.7
666.562	13791.73
666.912	13671.28
667.262	13659.75
667.612	13736.14
667.962	13693.43
668.312	13680.77
668.662	13729.13
669.011	13640.77
669.361	13712.86
669.711	13628.57
670.06	13571.39
670.41	13564.39
670.76	13538.63
671.109	13714.67
671.459	13595.12
671.808	13595.12
672.157	13571.62
672.507	13505.63
672.856	13552.19
673.205	13586.99
673.554	13563.71
673.904	13487.1
674.253	13656.36
674.602	13522.58
674.951	13351.29
675.3	13165.53
675.649	13446.65
675.998	13441.91
676.346	13459.08
676.695	13473.09
677.044	13367.56
677.393	13374.56
677.741	13450.95
678.09	13360.1
678.438	13314.68
678.787	13394.22
679.135	13323.27
679.484	13145.64
679.832	13342.02
680.181	13266.32
680.529	13322.81
680.877	13266.77
681.225	13163.5
681.573	13363.94
681.922	13207.79
682.27	13121.69
682.618	13191.07
682.966	13135.7
683.314	13217.96
683.661	13187.9
684.009	13016.15
684.357	13035.14
684.705	13076.72
685.053	13099.99
685.4	13052.99
685.748	13046.44
686.095	12951.52
686.443	12844.86
686.79	12832.66
687.138	12911.98
687.485	12927.12
687.832	12821.13
688.18	12953.11
688.527	12786.56
688.874	12754.01
689.221	12805.31
689.568	12641.02
689.915	12658.2
690.262	12757.63
690.609	12614.36
690.956	12578.43
691.303	12549.05
691.65	12523.51
691.997	12521.7
692.344	12409.84
692.69	12486.45
693.037	12455.27
693.383	12314.48
693.73	12406
694.077	12307.02
694.423	12318.09
694.769	12250.07
695.116	12219.57
695.462	12203.97
695.808	12118.33
696.155	12150.87
696.501	12046.69
696.847	11995.84
697.193	11849.86
697.539	12009.85
697.885	11905.22
698.231	11971.89
698.577	11926.92
698.923	11883.98
699.269	11803.31
699.614	11775.96
699.96	11755.4
700.306	11719.24
700.651	11627.49
700.997	11685.34
701.342	11665.46
701.688	11702.07
702.033	11660.48
702.379	11694.38
702.724	11559.02
703.069	11637.21
703.415	11572.58
703.76	11600.82
704.105	11509.53
704.45	11518.12
704.795	11414.16
705.14	11465.91
705.485	11420.72
705.83	11387.95
706.175	11474.05
706.52	11390.21
706.865	11344.56
707.209	11336.43
707.554	11341.17
707.899	11410.55
708.243	11333.04
708.588	11316.54
708.932	11238.35
709.277	11241.51
709.621	11217.11
709.966	11257.33
710.31	11252.59
710.654	11124.23
710.998	11169.42
711.342	11133.27
711.687	11177.11
712.031	11060.5
712.375	11015.08
712.719	11066.38
713.063	11015.76
713.407	11048.07
713.75	10957.68
714.094	10931.24
714.438	10873.61
714.782	10935.31
715.125	10815.99
715.469	10841.07
715.812	10799.72
716.156	10756.33
716.499	10837.46
716.843	10788.42
717.186	10728.53
717.53	10697.35
717.873	10612.15
718.216	10670.45
718.559	10606.27
718.902	10508.88
719.246	10468.65
719.589	10506.16
719.932	10467.52
720.275	10434.3
720.617	10393.17
720.96	10439.73
721.303	10412.83
721.646	10400.4
721.989	10291.48
722.331	10331.03
722.674	10243.12
723.016	10196.57
723.359	10241.76
723.701	10208.32
724.044	10178.94
724.386	10024.82
724.729	10193.18
725.071	10103.46
725.413	10080.86
725.755	10051.26
726.097	10020.53
726.439	9974.88
726.782	10054.88
727.124	10033.18
727.465	9940.53
727.807	10030.24
728.149	9960.19
728.491	9943.24
728.833	9990.25
729.175	9863.47
729.516	9929.91
729.858	9864.83
730.199	9886.07
730.541	9952.96
730.882	9951.83
731.224	9919.97
731.565	9844.94
731.906	9849.01
732.248	9922.9
732.589	9840.42
732.93	9884.26
733.271	9816.92
733.612	9827.99
733.953	9859.63
734.294	9790.7
734.635	9832.74
734.976	9847.2
735.317	9833.87
735.658	9885.39
735.999	9834.09
736.339	9765.17
736.68	9788.9
737.021	9804.49
737.361	9731.72
737.702	9827.31
738.042	9791.15
738.383	9792.28
738.723	9791.61
739.063	9758.16
739.404	9773.75
739.744	9710.03
740.084	9689.46
740.424	9728.78
740.764	9732.17
741.104	9751.16
741.444	9622.35
741.784	9683.59
742.124	9624.15
742.464	9569.92
742.804	9669.8
743.143	9634.55
743.483	9533.53
743.823	9523.14
744.162	9520.2
744.502	9528.79
744.841	9454.89
745.181	9502.35
745.52	9472.29
745.86	9434.1
746.199	9427.32
746.538	9338.29
746.877	9431.84
747.216	9381
747.556	9378.96
747.895	9366.08
748.234	9318.4
748.573	9350.26
748.911	9271.62
749.25	9277.04
749.589	9250.15
749.928	9212.19
750.267	9249.93
750.605	9216.71
750.944	9249.47
751.283	9185.75
751.621	9185.97
751.96	9112.53
752.298	9105.07
752.636	9103.94
752.975	9054
753.313	9072.08
753.651	9063.49
753.989	8962.93
754.327	8905.75
754.666	8950.73
755.004	8906.66
755.342	8900.56
755.679	8880.22
756.017	8910.05
756.355	8896.72
756.693	8896.94
757.031	8859.43
757.368	8796.15
757.706	8774.68
758.044	8758.41
758.381	8811.52
758.719	8705.08
759.056	8734.01
759.394	8776.49
759.731	8797.51
760.068	8628.02
760.405	8642.94
760.743	8559.55
761.08	8664.18
761.417	8574.69
761.754	8566.78
762.091	8522.71
762.428	8495.6
762.765	8443.62
763.102	8479.55
763.438	8405.65
763.775	8458.53
764.112	8387.35
764.449	8471.42
764.785	8376.28
765.122	8365.88
765.458	8326.11
765.795	8301.93
766.131	8290.18
766.467	8228.26
766.804	8208.6
767.14	8148.94
767.476	8126.79
767.812	8200.91
768.148	8143.51
768.485	8132.89
768.821	8025.33
769.157	8042.5
769.492	7991.88
769.828	7976.06
770.164	7991.2
770.5	7949.62
770.836	7882.5
771.171	7873.01
771.507	7800.7
771.842	7760.7
772.178	7794.37
772.513	7777.42
772.849	7717.31
773.184	7658.56
773.519	7685.67
773.855	7686.13
774.19	7637.77
774.525	7538.33
774.86	7622.4
775.195	7545.79
775.53	7533.59
775.865	7464.66
776.2	7430.77
776.535	7444.32
776.87	7343.76
777.205	7331.11
777.539	7269.41
777.874	7304.67
778.209	7252.92
778.543	7249.98
778.878	7122.07
779.212	7193.94
779.547	7125.91
779.881	7125.24
780.215	7086.14
780.55	7067.84
780.884	7064.45
781.218	7021.51
781.552	7001.62
781.886	6909.87
782.22	6869.65
782.554	6965.69
782.888	6884.79
783.222	6860.16
783.556	6833.72
783.889	6785.36
784.223	6784.45
784.557	6789.43
784.89	6786.94
785.224	6754.62
785.557	6697.45
785.891	6712.37
786.224	6654.97
786.558	6666.49
786.891	6678.24
787.224	6657.23
787.557	6617.68
787.891	6610.45
788.224	6593.72
788.557	6626.04
788.89	6558.92
789.223	6562.31
789.556	6536.1
789.888	6514.18
790.221	6501.52
790.554	6441.19
790.887	6468.3
791.219	6482.77
791.552	6392.6
791.884	6362.54
792.217	6427.85
792.549	6410.45
792.882	6327.52
793.214	6315.54
793.546	6333.84
793.879	6325.71
794.211	6289.55
794.543	6327.29
794.875	6311.02
795.207	6266.28
795.539	6268.31
795.871	6256.11
796.203	6229.67
796.535	6180.18
796.867	6168.65
797.198	6125.26
797.53	6185.15
797.862	6094.98
798.193	6130.01
798.525	6072.61
798.856	6112.83
799.188	6030.35
799.519	6035.55
799.85	5996.68
800.182	5975.89
800.513	5978.15
800.844	5934.31
801.175	5944.93
801.506	5973.63
801.837	5956
802.168	5827.19
802.499	5921.2
802.83	5814.08
803.161	5806.85
803.491	5878.94
803.822	5852.73
804.153	5863.35
804.483	5792.62
804.814	5774.99
805.145	5767.76
805.475	5725.95
805.805	5746.06
806.136	5723.69
806.466	5704.71
806.796	5685.5
807.126	5639.85
807.457	5609.8
807.787	5603.69
808.117	5567.99
808.447	5558.72
808.777	5564.37
809.107	5526.41
809.436	5555.11
809.766	5485.73
810.096	5506.07
810.426	5447.77
810.755	5471.04
811.085	5421.33
811.414	5435.11
811.744	5389.01
812.073	5400.31
812.403	5387.43
812.732	5368.9
813.061	5311.72
813.39	5347.66
813.719	5266.53
814.049	5297.71
814.378	5256.36
814.707	5293.65
815.036	5252.97
815.365	5205.51
815.693	5175.23
816.022	5153.99
816.351	5197.38
816.68	5125.06
817.008	5168.9
817.337	5107.44
817.665	5092.3
817.994	5097.72
818.322	5093.65
818.651	5062.69
818.979	5094.1
819.307	5074.67
819.636	5068.79
819.964	5038.51
820.292	5078.51
820.62	5064.05
820.948	4966.65
821.276	5026.53
821.604	5001.68
821.932	5054.1
822.259	5053.2
822.587	4999.19
822.915	4970.49
823.243	5026.99
823.57	4970.49
823.898	4993.09
824.225	4958.29
824.553	4977.72
824.88	4959.42
825.207	5008.68
825.535	4926.42
825.862	4983.82
826.189	5013.43
826.516	5004.84
826.843	4977.95
827.17	4989.47
827.497	5014.56
827.824	4972.07
828.151	5004.84
828.478	5019.76
828.805	5030.15
829.131	5057.95
829.458	4991.73
829.785	4998.74
830.111	5040.55
830.438	4977.27
830.764	4989.7
831.09	4955.58
831.417	4984.05
831.743	4976.82
832.069	4999.64
832.395	4965.29
832.722	5015.01
833.048	4978.17
833.374	4971.17
833.7	4975.24
834.026	4982.24
834.351	5018.4
834.677	4968.91
835.003	4998.06
835.329	4966.42
835.654	4954.9
835.98	4984.28
836.306	4956.25
836.631	4993.99
836.956	4953.09
837.282	5001
837.607	4907.67
837.932	4978.63
838.258	4914.9
838.583	4932.53
838.908	4910.15
839.233	4936.37
839.558	4914.67
839.883	4865.41
840.208	4892.98
840.533	4862.02
840.858	4898.18
841.182	4891.85
841.507	4861.79
841.832	4873.77
842.156	4808.24
842.481	4839.87
842.805	4848.91
843.13	4842.81
843.454	4822.47
843.778	4822.92
844.103	4833.55
844.427	4819.99
844.751	4832.19
845.075	4823.83
845.399	4785.41
845.723	4775.69
846.047	4798.52
846.371	4748.8
846.695	4761.46
847.019	4711.06
847.343	4642.82
847.666	4655.24
847.99	4610.95
848.313	4663.83
848.637	4608.69
848.96	4542.03
849.284	4615.7
849.607	4574.79
849.931	4564.63
850.254	4549.94
850.577	4521.01
850.9	4483.95
851.223	4514.23
851.546	4455.02
851.869	4442.82
852.192	4452.31
852.515	4421.58
852.838	4420.45
853.161	4449.83
853.483	4405.99
853.806	4404.4
854.129	4343.39
854.451	4297.74
854.774	4302.94
855.096	4305.42
855.419	4314.01
855.741	4312.43
856.063	4280.11
856.385	4282.83
856.708	4251.87
857.03	4242.37
857.352	4230.85
857.674	4227.01
857.996	4230.4
858.318	4197.18
858.64	4208.93
858.961	4207.57
859.283	4179.1
859.605	4180
859.926	4167.57
860.248	4160.79
860.57	4168.93
860.891	4147.69
861.212	4119.21
861.534	4143.17
861.855	4131.42
862.176	4104.52
862.498	4101.36
862.819	4133.45
863.14	4102.72
863.461	4039.44
863.782	4066.11
864.103	4049.16
864.424	4050.74
864.745	4017.3
865.065	4004.41
865.386	3975.94
865.707	4020.46
866.027	4018.43
866.348	4028.14
866.668	3987.01
866.989	3973.23
867.309	3947.01
867.63	3921.25
867.95	3938.2
868.27	3924.64
868.59	3919.67
868.91	3949.95
869.23	3927.13
869.55	3900.91
869.87	3934.81
870.19	3899.33
870.51	3957.64
870.83	3953.57
871.15	3849.39
871.469	3887.58
871.789	3848.26
872.109	3868.15
872.428	3852.55
872.748	3824.31
873.067	3819.33
873.386	3831.31
873.706	3812.56
874.025	3787.25
874.344	3829.5
874.663	3798.77
874.982	3775.72
875.301	3802.39
875.62	3781.6
875.939	3751.54
876.258	3733.69
876.577	3752.67
876.896	3725.1
877.214	3715.16
877.533	3720.13
877.852	3739.11
878.17	3733.24
878.489	3730.75
878.807	3720.35
879.125	3689.39
879.444	3699.34
879.762	3642.62
880.08	3645.33
880.398	3642.62
880.716	3630.41
881.034	3605.55
881.352	3621.83
881.67	3631.09
881.988	3631.54
882.306	3625.44
882.624	3561.26
882.941	3613.01
883.259	3557.65
883.577	3577.08
883.894	3575.05
884.212	3516.07
884.529	3557.65
884.846	3514.26
885.164	3594.26
885.481	3490.08
885.798	3487.37
886.115	3488.95
886.432	3456.18
886.75	3471.77
887.067	3528.04
887.383	3445.33
887.7	3477.2
888.017	3480.36
888.334	3471.32
888.651	3382.51
888.967	3417.76
889.284	3443.75
889.6	3426.8
889.917	3393.58
890.233	3384.54
890.55	3412.11
890.866	3392.68
891.182	3352.45
891.498	3394.49
891.815	3394.71
892.131	3335.28
892.447	3356.3
892.763	3351.78
893.079	3330.76
893.395	3313.59
893.71	3320.14
894.026	3336.41
894.342	3303.19
894.657	3274.72
894.973	3311.55
895.289	3329.18
895.604	3316.52
895.92	3271.33
896.235	3285.11
896.55	3275.17
896.865	3260.03
897.181	3228.16
897.496	3297.54
897.811	3244.43
898.126	3225
898.441	3215.96
898.756	3204.89
899.071	3193.81
899.386	3226.13
899.7	3191.55
900.015	3178.9
900.33	3136.19
900.644	3183.87
900.959	3155.62
901.273	3152.69
901.588	3138
901.902	3094.38
902.216	3149.75
902.531	3090.54
902.845	3151.33
903.159	3114.49
903.473	3090.54
903.787	3035.17
904.101	3086.7
904.415	3086.47
904.729	3091.9
905.042	3061.39
905.356	3015.51
905.67	3027.72
905.984	2987.72
906.297	3022.75
906.611	2990.66
906.924	2996.76
907.237	2992.24
907.551	2976.87
907.864	2967.15
908.177	2990.66
908.491	2979.36
908.804	2936.87
909.117	2931.45
909.43	2920.83
909.743	2922.64
910.056	2907.72
910.368	2897.78
910.681	2909.08
910.994	2912.47
911.307	2890.09
911.619	2843.77
911.932	2829.08
912.244	2864.78
912.557	2825.01
912.869	2819.13
913.181	2810.55
913.494	2830.43
913.806	2790.66
914.118	2752.47
914.43	2770.55
914.742	2770.55
915.054	2756.09
915.366	2756.09
915.678	2701.62
915.99	2720.61
916.302	2700.04
916.613	2677.9
916.925	2726.71
917.236	2669.99
917.548	2696.65
917.859	2662.98
918.171	2663.21
918.482	2632.7
918.794	2622.3
919.105	2619.37
919.416	2621.4
919.727	2589.99
920.038	2584.56
920.349	2567.39
920.66	2578.24
920.971	2579.82
921.282	2561.74
921.593	2527.39
921.903	2537.56
922.214	2545.24
922.525	2536.43
922.835	2510.67
923.146	2507.73
923.456	2509.76
923.767	2465.47
924.077	2482.19
924.387	2455.53
924.697	2424.57
925.008	2407.39
925.318	2432.48
925.628	2394.74
925.938	2378.47
926.248	2366.72
926.558	2318.13
926.867	2375.76
927.177	2368.75
927.487	2348.19
927.796	2320.84
928.106	2335.76
928.416	2333.5
928.725	2321.29
929.034	2277.91
929.344	2288.08
929.653	2291.47
929.962	2236.55
930.271	2231.13
930.581	2232.03
930.89	2232.71
931.199	2217.12
931.508	2219.15
931.817	2229.55
932.125	2194.52
932.434	2208.53
932.743	2139.83
933.051	2145.48
933.36	2173.05
933.669	2136.67
933.977	2150
934.286	2131.02
934.594	2140.51
934.902	2096.89
935.21	2077.69
935.519	2100.06
935.827	2073.84
936.135	2071.81
936.443	2032.71
936.751	2037.46
937.059	2053.96
937.367	2029.78
937.674	2024.81
937.982	2021.42
938.29	2010.79
938.597	2015.09
938.905	1973.96
939.213	1977.35
939.52	1989.1
939.827	1988.65
940.135	1938.48
940.442	1929.67
940.749	1949.1
941.056	1922.89
941.363	1917.24
941.67	1909.55
941.977	1910.68
942.284	1900.06
942.591	1881.76
942.898	1876.79
943.205	1903
943.511	1869.78
943.818	1858.03
944.125	1872.04
944.431	1815.32
944.738	1823.91
945.044	1815.77
945.35	1825.94
945.657	1826.17
945.963	1813.51
946.269	1812.38
946.575	1793.85
946.881	1769.67
947.187	1768.54
947.493	1775.32
947.799	1768.54
948.105	1761.31
948.41	1725.6
948.716	1727.19
949.022	1723.12
949.327	1752.72
949.633	1736.68
949.938	1739.62
950.244	1724.7
950.549	1717.02
950.854	1721.08
951.16	1707.53
951.465	1703.01
951.77	1711.59
952.075	1655.1
952.38	1638.6
952.685	1706.85
952.99	1655.32
953.294	1649.67
953.599	1646.28
953.904	1644.48
954.209	1607.42
954.513	1642.89
954.818	1639.96
955.122	1604.7
955.426	1639.73
955.731	1596.79
956.035	1609.22
956.339	1601.09
956.643	1599.96
956.948	1587.08
957.252	1585.95
957.556	1580.3
957.86	1561.77
958.163	1585.27
958.467	1560.86
958.771	1577.13
959.075	1571.48
959.378	1574.2
959.682	1577.36
959.985	1529.45
960.289	1557.25
960.592	1573.07
960.896	1562.44
961.199	1515.44
961.502	1521.54
961.805	1507.53
962.108	1510.24
962.411	1489.68
962.714	1506.63
963.017	1485.61
963.32	1513.86
963.623	1512.05
963.926	1477.48
964.228	1471.6
964.531	1474.99
964.833	1484.71
965.136	1481.32
965.438	1461.43
965.741	1446.29
966.043	1473.41
966.345	1437.7
966.648	1430.7
966.95	1439.96
967.252	1436.35
967.554	1446.06
967.856	1444.93
968.158	1439.28
968.46	1438.15
968.761	1414.2
969.063	1422.34
969.365	1405.84
969.666	1420.98
969.968	1396.57
970.269	1373.75
970.571	1376.46
970.872	1376.69
971.174	1383.24
971.475	1388.66
971.776	1378.49
972.077	1371.04
972.378	1348.44
972.679	1362.68
972.98	1355.9
973.281	1334.65
973.582	1346.18
973.883	1354.31
974.183	1349.34
974.484	1328.55
974.785	1300.3
975.085	1309.34
975.386	1310.47
975.686	1331.94
975.986	1313.86
976.287	1286.97
976.587	1288.33
976.887	1287.88
977.187	1313.86
977.487	1283.81
977.787	1272.51
978.087	1276.58
978.387	1309.57
978.687	1310.47
978.987	1292.4
979.286	1264.83
979.586	1277.25
979.885	1244.71
980.185	1250.14
980.484	1213.53
980.784	1235.22
981.083	1225.05
981.382	1219.4
981.682	1213.08
981.981	1242.68
982.28	1229.12
982.579	1198.39
982.878	1225.96
983.177	1215.34
983.475	1205.39
983.774	1189.57
984.073	1192.51
984.372	1167.2
984.67	1157.94
984.969	1156.81
985.267	1179.86
985.566	1177.14
985.864	1169.01
986.162	1161.55
986.461	1160.2
986.759	1155.68
987.057	1156.81
987.355	1141.89
987.653	1138.5
987.951	1132.85
988.249	1122
988.547	1109.8
988.844	1129.01
989.142	1107.77
989.44	1094.89
989.737	1105.96
990.035	1126.3
990.332	1092.4
990.63	1103.7
990.927	1090.14
991.224	1086.75
991.521	1077.71
991.819	1074.1
992.116	1064.38
992.413	1064.6
992.71	1058.96
993.006	1044.94
993.303	1035.9
993.6	1054.89
993.897	1038.62
994.193	1035.23
994.49	1045.62
994.787	1027.09
995.083	997.49
995.379	1001.1
995.676	1020.99
995.972	1046.53
996.268	990.48
996.565	995.91
996.861	998.39
997.157	1027.54
997.453	1020.76
997.749	985.74
998.044	973.99
998.34	996.58
998.636	963.59
998.932	987.32
999.227	942.8
999.523	969.69
999.818	960.43
1000.114	929.02
1000.409	970.6
1000.704	933.31
1001	937.38
1001.295	952.74
1001.59	926.98
1001.885	922.46
1002.18	936.92
1002.475	923.37
1002.77	912.07
1003.065	920.65
1003.359	912.07
1003.654	914.1
1003.949	915.91
1004.243	868.45
1004.538	873.65
1004.832	915.23
1005.127	871.62
1005.421	893.08
1005.715	872.07
1006.009	851.95
1006.304	881.33
1006.598	851.5
1006.892	853.54
1007.186	861.67
1007.48	877.72
1007.773	839.75
1008.067	853.99
1008.361	844.5
1008.655	842.24
1008.948	845.85
1009.242	828.68
1009.535	844.5
1009.829	813.31
1010.122	813.54
1010.415	811.28
1010.708	796.36
1011.001	818.06
1011.295	756.59
1011.588	811.5
1011.881	802.46
1012.173	761.11
1012.466	795.01
1012.759	791.17
1013.052	809.02
1013.344	778.28
1013.637	764.73
1013.93	762.69
1014.222	763.82
1014.514	769.92
1014.807	761.11
1015.099	770.6
1015.391	769.92
1015.683	748.68
1015.976	762.24
1016.268	738.29
1016.56	748.45
1016.851	735.8
1017.143	721.34
1017.435	719.3
1017.727	724.27
1018.018	725.86
1018.31	707.78
1018.602	725.63
1018.893	714.56
1019.185	722.01
1019.476	710.26
1019.767	719.76
1020.058	696.93
1020.35	693.77
1020.641	706.2
1020.932	700.09
1021.223	696.48
1021.514	698.51
1021.804	684.95
1022.095	695.57
1022.386	680.21
1022.677	659.64
1022.967	691.51
1023.258	668.46
1023.548	683.37
1023.839	671.62
1024.129	673.43
1024.419	641.57
1024.709	628.68
1025	667.78
1025.29	641.11
1025.58	655.35
1025.87	637.95
1026.16	630.94
1026.449	637.27
1026.739	626.42
1027.029	605.41
1027.319	633.43
1027.608	612.64
1027.898	604.96
1028.187	621.9
1028.477	633.43
1028.766	626.42
1029.055	600.89
1029.344	599.98
1029.634	605.86
1029.923	597.05
1030.212	593.66
1030.501	610.83
1030.79	625.07
1031.078	589.14
1031.367	600.66
1031.656	586.43
1031.945	568.35
1032.233	582.36
1032.522	579.87
1032.81	580.1
1033.099	568.12
1033.387	589.82
1033.675	567.67
1033.963	539.19
1034.251	564.28
1034.54	537.39
1034.828	540.78
1035.116	540.1
1035.403	561.34
1035.691	552.98
1035.979	558.63
1036.267	541.45
1036.554	552.53
1036.842	538.52
1037.129	539.87
1037.417	549.82
1037.704	569.48
1037.992	528.35
1038.279	528.57
1038.566	535.13
1038.853	535.13
1039.14	535.13
