Data from foam_black_FLMS001491_00057.txt Node
Date: Wed Feb 08 10:44:08 GMT 2017
User: dcchb
Spectrometer: FLMS00149
Trigger mode: 0
Integration Time (sec): 2.000000E-2
Scans to average: 10
Electric dark correction enabled: true
Nonlinearity correction enabled: false
Boxcar width: 0
XAxis mode: Wavelengths
Number of Pixels in Spectrum: 2048
>>>>>Begin Spectral Data<<<<<
341.393	-15.4
341.776	-15.4
342.16	-15.4
342.543	-59.69
342.927	-58.78
343.31	-52.68
343.693	-70.08
344.077	-56.75
344.46	-45.9
344.843	-64.21
345.226	-40.71
345.61	-45
345.993	-13.36
346.376	-1.61
346.759	4.04
347.142	32.06
347.525	40.65
347.908	49.24
348.291	65.96
348.674	89.23
349.057	109.12
349.44	127.43
349.823	119.52
350.206	131.95
350.588	177.37
350.971	205.16
351.354	208.33
351.737	207.2
352.119	227.31
352.502	246.07
352.884	264.37
353.267	266.63
353.65	259.17
354.032	267.08
354.414	265.5
354.797	298.49
355.179	289.46
355.562	297.59
355.944	281.32
356.326	308.21
356.709	312.73
357.091	310.25
357.473	325.16
357.855	307.31
358.238	324.48
358.62	321.55
359.002	327.87
359.384	306.18
359.766	322.68
360.148	318.61
360.53	305.05
360.912	340.08
361.294	323.35
361.676	321.77
362.057	314.99
362.439	333.07
362.821	324.71
363.203	305.05
363.584	311.15
363.966	301.43
364.348	299.17
364.729	308.89
365.111	292.62
365.493	289.23
365.874	283.58
366.256	300.53
366.637	297.59
367.019	265.73
367.4	297.59
367.781	298.04
368.163	292.17
368.544	292.62
368.925	300.3
369.306	293.98
369.688	288.55
370.069	294.65
370.45	269.57
370.831	286.74
371.212	301.21
371.593	304.14
371.974	285.39
372.355	298.95
372.736	300.98
373.117	300.08
373.498	312.05
373.879	298.72
374.26	300.08
374.641	295.78
375.021	283.13
375.402	300.75
375.783	307.08
376.163	314.54
376.544	297.59
376.925	293.75
377.305	315.9
377.686	299.17
378.066	307.31
378.447	286.29
378.827	322.68
379.208	328.55
379.588	303.01
379.968	320.64
380.349	315.44
380.729	321.32
381.109	319.06
381.489	331.04
381.87	320.42
382.25	319.51
382.63	312.28
383.01	321.32
383.39	312.51
383.77	328.32
384.15	335.78
384.53	346.86
384.91	333.97
385.29	326.52
385.67	329
386.049	331.94
386.429	338.95
386.809	314.77
387.189	328.55
387.568	316.8
387.948	338.04
388.328	328.78
388.707	338.95
389.087	340.98
389.466	340.53
389.846	350.92
390.225	336.23
390.605	350.7
390.984	335.56
391.363	345.27
391.743	350.92
392.122	331.49
392.501	356.12
392.881	343.92
393.26	353.18
393.639	351.83
394.018	344.14
394.397	346.86
394.776	361.32
395.155	377.59
395.534	347.31
395.913	364.26
396.292	356.35
396.671	364.03
397.05	366.06
397.429	364.48
397.808	370.58
398.186	358.15
398.565	388.44
398.944	374.43
399.323	361.54
399.701	372.84
400.08	379.4
400.458	379.17
400.837	369.23
401.215	379.85
401.594	373.75
401.972	377.14
402.351	386.18
402.729	385.05
403.107	393.63
403.486	398.61
403.864	377.81
404.242	383.46
404.62	387.31
404.999	391.37
405.377	389.57
405.755	394.54
406.133	394.76
406.511	400.64
406.889	386.85
407.267	406.06
407.645	383.92
408.023	416.01
408.401	399.51
408.779	399.96
409.156	413.97
409.534	427.53
409.912	413.97
410.29	438.6
410.667	429.34
411.045	417.14
411.422	416.91
411.8	425.95
412.178	440.64
412.555	424.14
412.933	427.08
413.31	432.5
413.687	449.45
414.065	446.51
414.442	446.29
414.819	456.23
415.197	450.58
415.574	435.21
415.951	475.44
416.328	451.26
416.705	444.48
417.082	453.52
417.46	469.34
417.837	446.51
418.214	436.12
418.591	465.27
418.967	459.62
419.344	458.72
419.721	456
420.098	461.65
420.475	447.42
420.852	475.89
421.228	471.6
421.605	459.17
421.982	488.09
422.358	477.7
422.735	477.02
423.111	507.53
423.488	498.49
423.864	489.22
424.241	496.91
424.617	486.51
424.994	523.12
425.37	516.79
425.746	476.34
426.123	517.7
426.499	519.51
426.875	516.12
427.251	502.56
427.627	526.06
428.003	505.5
428.379	541.65
428.756	537.36
429.132	526.06
429.507	539.62
429.883	528.77
430.259	546.4
430.635	544.82
431.011	549.34
431.387	562.67
431.763	527.87
432.138	543.23
432.514	579.62
432.89	567.87
433.265	586.17
433.641	571.71
434.016	584.59
434.392	580.75
434.767	601.09
435.143	595.21
435.518	616.68
435.894	595.44
436.269	602.22
436.644	603.12
437.02	617.81
437.395	593.63
437.77	631.14
438.145	618.71
438.52	624.14
438.895	633.4
439.271	658.71
439.646	638.6
440.021	649.22
440.395	639.73
440.77	631.14
441.145	651.93
441.52	644.93
441.895	644.7
442.27	673.4
442.645	661.2
443.019	681.08
443.394	646.96
443.769	663.68
444.143	669.11
444.518	667.3
444.892	677.92
445.267	660.52
445.641	688.77
446.016	691.03
446.39	687.41
446.764	714.76
447.139	671.14
447.513	695.32
447.887	685.15
448.262	704.59
448.636	694.64
449.01	704.81
449.384	695.55
449.758	717.92
450.132	706.85
450.506	723.34
450.88	705.49
451.254	738.71
451.628	755.43
452.002	759.05
452.376	766.28
452.75	750.23
453.123	751.82
453.497	768.31
453.871	757.24
454.244	767.41
454.618	780.29
454.992	800.63
455.365	791.82
455.739	785.26
456.112	796.56
456.486	804.92
456.859	799.72
457.232	814.19
457.606	820.74
457.979	828.2
458.352	842.21
458.725	859.38
459.099	862.1
459.472	855.77
459.845	851.02
460.218	862.1
460.591	866.84
460.964	862.1
461.337	890.8
461.71	894.64
462.083	894.64
462.456	904.58
462.829	912.26
463.201	917.46
463.574	923.34
463.947	937.35
464.32	967.18
464.692	951.81
465.065	960.85
465.438	957.23
465.81	977.57
466.183	1004.24
466.555	1002.88
466.928	1039.72
467.3	1008.76
467.672	1039.49
468.045	1052.83
468.417	1061.64
468.789	1038.36
469.161	1062.77
469.534	1074.07
469.906	1073.16
470.278	1092.37
470.65	1102.09
471.022	1108.64
471.394	1145.93
471.766	1147.29
472.138	1134.63
472.51	1169.66
472.882	1181.86
473.253	1195.87
473.625	1189.09
473.997	1208.53
474.369	1226.15
474.74	1216.21
475.112	1262.99
475.484	1239.71
475.855	1289.43
476.227	1284.46
476.598	1326.49
476.97	1319.94
477.341	1355.87
477.713	1352.03
478.084	1387.05
478.455	1419.37
478.827	1419.14
479.198	1457.33
479.569	1441.06
479.94	1463.89
480.311	1510.67
480.682	1514.28
481.053	1536.43
481.424	1522.87
481.795	1541.17
482.166	1565.13
482.537	1593.15
482.908	1626.6
483.279	1600.16
483.65	1645.58
484.021	1683.09
484.391	1693.71
484.762	1719.7
485.133	1724.45
485.503	1749.98
485.874	1758.34
486.244	1796.76
486.615	1793.6
486.985	1827.04
487.356	1871.33
487.726	1878.79
488.097	1888.74
488.467	1900.03
488.837	1954.27
489.207	1969.41
489.578	1997.66
489.948	2029.07
490.318	2005.12
490.688	2034.04
491.058	2088.96
491.428	2081.05
491.798	2105.23
492.168	2109.75
492.538	2134.15
492.908	2154.94
493.278	2191.78
493.648	2166.47
494.017	2217.09
494.387	2245.34
494.757	2250.53
495.126	2205.11
495.496	2265.22
495.866	2276.3
496.235	2311.55
496.605	2293.47
496.974	2333.47
497.344	2324.2
497.713	2368.27
498.082	2391.1
498.452	2412.11
498.821	2392
499.19	2403.75
499.559	2448.27
499.928	2470.64
500.298	2424.77
500.667	2498.66
501.036	2483.97
501.405	2510.87
501.774	2485.1
502.143	2510.41
502.512	2560.13
502.88	2595.16
503.249	2567.81
503.618	2592.45
503.987	2637.19
504.356	2648.26
504.724	2653.24
505.093	2643.74
505.462	2648.94
505.83	2669.05
506.199	2693.01
506.567	2705.66
506.936	2740.92
507.304	2766.45
507.672	2740.69
508.041	2758.32
508.409	2781.14
508.777	2799.22
509.145	2828.15
509.514	2815.49
509.882	2875.38
510.25	2842.61
510.618	2869.95
510.986	2879.22
511.354	2911.99
511.722	2942.49
512.09	2959.89
512.458	2929.61
512.826	2986.79
513.193	3001.7
513.561	3001.25
513.929	3019.55
514.297	3081.92
514.664	3112.43
515.032	3057.97
515.4	3125.09
515.767	3128.7
516.135	3138.65
516.502	3148.59
516.869	3148.59
517.237	3207.8
517.604	3200.34
517.972	3210.51
518.339	3260
518.706	3257.06
519.073	3295.93
519.44	3304.07
519.808	3359.66
520.175	3323.5
520.542	3379.32
520.909	3388.81
521.276	3412.99
521.643	3447.79
522.009	3435.59
522.376	3467.68
522.743	3517.17
523.11	3528.92
523.477	3559.43
523.843	3569.6
524.21	3610.5
524.577	3652.76
524.943	3633.77
525.31	3679.42
525.676	3733.43
526.043	3740.89
526.409	3748.35
526.776	3782.7
527.142	3790.61
527.508	3770.04
527.874	3820.44
528.241	3880.1
528.607	3869.93
528.973	3909.25
529.339	3934.78
529.705	3969.36
530.071	3958.96
530.437	3990.38
530.803	4022.24
531.169	4102.69
531.535	4000.77
531.901	4031.96
532.267	4080.99
532.632	4142.46
532.998	4107.43
533.364	4155.12
533.73	4147.43
534.095	4190.14
534.461	4222.01
534.826	4222.69
535.192	4196.02
535.557	4262.46
535.923	4241.44
536.288	4252.52
536.653	4303.59
537.019	4296.13
537.384	4295.9
537.749	4296.81
538.114	4335.68
538.479	4332.97
538.845	4363.7
539.21	4405.28
539.575	4386.3
539.94	4383.36
540.305	4453.64
540.67	4435.79
541.034	4424.26
541.399	4479.85
541.764	4454.54
542.129	4545.84
542.494	4525.5
542.858	4552.39
543.223	4588.33
543.587	4590.36
543.952	4586.74
544.316	4650.7
544.681	4619.96
545.045	4664.26
545.41	4686.4
545.774	4708.1
546.138	4671.71
546.503	4713.97
546.867	4763.24
547.231	4803.01
547.595	4741.09
547.959	4823.12
548.324	4818.38
548.688	4801.88
549.052	4803.24
549.416	4793.97
549.779	4886.4
550.143	4879.39
550.507	4869.9
550.871	4956
551.235	4871.71
551.599	4953.74
551.962	4957.13
552.326	4911.93
552.689	5010.69
553.053	4963.68
553.417	4994.19
553.78	5051.59
554.143	4995.32
554.507	5043
554.87	5037.13
555.234	5116.45
555.597	5043
555.96	5121.42
556.323	5164.58
556.686	5184.24
557.05	5171.36
557.413	5212.04
557.776	5246.39
558.139	5233.96
558.502	5242.32
558.865	5259.04
559.228	5294.3
559.59	5363.22
559.953	5327.06
560.316	5400.51
560.679	5384.69
561.041	5426.04
561.404	5423.56
561.767	5473.95
562.129	5532.93
562.492	5491.8
562.854	5574.97
563.217	5590.33
563.579	5601.18
563.941	5624
564.304	5631.69
564.666	5683.66
565.028	5685.92
565.39	5738.13
565.753	5779.03
566.115	5809.76
566.477	5842.53
566.839	5856.99
567.201	5878.91
567.563	5892.47
567.925	5914.17
568.287	5896.77
568.648	5953.94
569.01	5970.89
569.372	5988.51
569.734	5994.16
570.095	6020.38
570.457	6045.01
570.819	6053.37
571.18	6096.08
571.542	6066.7
571.903	6141.96
572.265	6087.72
572.626	6127.95
572.987	6146.25
573.349	6149.19
573.71	6251.11
574.071	6268.28
574.432	6238
574.794	6305.57
575.155	6225.34
575.516	6258.11
575.877	6292.46
576.238	6254.95
576.599	6328.84
576.96	6295.63
577.32	6369.07
577.681	6343.76
578.042	6351.22
578.403	6378.56
578.763	6403.87
579.124	6431.67
579.485	6383.53
579.845	6430.99
580.206	6408.62
580.566	6442.97
580.927	6410.88
581.287	6485.68
581.648	6412.23
582.008	6493.81
582.368	6413.59
582.728	6504.89
583.089	6463.98
583.449	6471.89
583.809	6457.66
584.169	6498.56
584.529	6508.95
584.889	6500.59
585.249	6510.76
585.609	6545.79
585.969	6539.91
586.329	6513.25
586.688	6511.89
587.048	6506.47
587.408	6522.29
587.768	6477.09
588.127	6480.25
588.487	6504.43
588.846	6589.85
589.206	6493.59
589.565	6515.51
589.925	6530.2
590.284	6520.25
590.643	6494.26
591.003	6518.22
591.362	6554.38
591.721	6519.35
592.08	6535.62
592.44	6560.25
592.799	6595.05
593.158	6511.44
593.517	6561.83
593.876	6536.3
594.235	6516.18
594.593	6597.76
594.952	6536.3
595.311	6557.99
595.67	6501.95
596.029	6605.9
596.387	6544.21
596.746	6591.66
597.104	6566.8
597.463	6575.39
597.822	6582.4
598.18	6552.12
598.538	6549.4
598.897	6652.68
599.255	6520.25
599.613	6636.86
599.972	6621.04
600.33	6633.02
600.688	6613.81
601.046	6632.34
601.404	6646.35
601.762	6587.37
602.12	6709.63
602.478	6695.61
602.836	6670.98
603.194	6669.85
603.552	6720.25
603.91	6678.67
604.268	6672.11
604.625	6626.92
604.983	6721.38
605.341	6688.16
605.698	6719.12
606.056	6759.79
606.413	6745.78
606.771	6727.7
607.128	6692.9
607.485	6749.85
607.843	6749.17
608.2	6739.91
608.557	6814.26
608.914	6744.65
609.272	6776.52
609.629	6834.82
609.986	6806.12
610.343	6782.62
610.7	6862.16
611.057	6781.26
611.414	6779.68
611.771	6827.81
612.127	6777.19
612.484	6715.5
612.841	6827.59
613.198	6791.43
613.554	6807.02
613.911	6782.17
614.267	6809.51
614.624	6829.17
614.98	6779
615.337	6856.29
615.693	6890.41
616.05	6846.35
616.406	6870.53
616.762	6924.08
617.118	6794.82
617.475	6837.53
617.831	6892.9
618.187	6927.93
618.543	6917.53
618.899	6884.76
619.255	6903.07
619.611	6969.73
619.967	6902.84
620.323	6912.78
620.678	6917.98
621.034	6942.39
621.39	6962.27
621.746	6953.69
622.101	6947.13
622.457	7034.36
622.812	6966.57
623.168	6991.2
623.523	6946.91
623.879	6985.55
624.234	6971.31
624.589	6969.51
624.945	7013.12
625.3	7031.2
625.655	6980.58
626.01	7026
626.365	7066.9
626.72	6988.71
627.075	7024.42
627.43	6995.27
627.785	7028.04
628.14	7043.63
628.495	7030.97
628.85	6997.53
629.205	6920.69
629.559	7004.99
629.914	6989.84
630.269	6975.83
630.623	6996.62
630.978	6976.29
631.332	6998.88
631.687	6989.17
632.041	6967.47
632.396	6925.89
632.75	6898.32
633.104	6929.28
633.459	6884.08
633.813	6904.42
634.167	6862.16
634.521	6890.19
634.875	6858.32
635.229	6837.98
635.583	6787.59
635.937	6786.46
636.291	6813.35
636.645	6826.68
636.999	6759.57
637.352	6786.46
637.706	6782.62
638.06	6754.14
638.413	6740.36
638.767	6721.15
639.121	6700.36
639.474	6653.58
639.828	6653.58
640.181	6659.46
640.534	6703.07
640.888	6635.5
641.241	6606.13
641.594	6630.53
641.947	6644.54
642.301	6613.81
642.654	6648.84
643.007	6633.7
643.36	6591.44
643.713	6588.27
644.066	6627.82
644.419	6558.67
644.771	6547.82
645.124	6460.14
645.477	6423.53
645.83	6374.95
646.182	6456.3
646.535	6372.23
646.888	6424.66
647.24	6448.16
647.593	6482.74
647.945	6440.71
648.298	6420.82
648.65	6403.42
649.002	6401.16
649.355	6454.72
649.707	6373.14
650.059	6344.21
650.411	6462.85
650.763	6466.69
651.115	6529.29
651.467	6490.65
651.819	6500.59
652.171	6532.46
652.523	6517.99
652.875	6473.47
653.227	6442.29
653.578	6479.12
653.93	6511.21
654.282	6473.25
654.633	6454.49
654.985	6506.47
655.337	6494.04
655.688	6438.45
656.039	6453.81
656.391	6432.12
656.742	6447.94
657.094	6401.16
657.445	6404.78
657.796	6439.58
658.147	6360.48
658.498	6344.21
658.849	6384.66
659.2	6367.04
659.551	6316.19
659.902	6369.52
660.253	6399.13
660.604	6374.04
660.955	6336.75
661.306	6322.52
661.656	6296.08
662.007	6291.56
662.358	6239.13
662.708	6348.51
663.059	6285.46
663.409	6239.58
663.76	6315.06
664.11	6313.03
664.461	6278.68
664.811	6319.13
665.161	6328.17
665.511	6284.33
665.862	6257.89
666.212	6289.07
666.562	6311.9
666.912	6311.44
667.262	6287.72
667.612	6279.81
667.962	6310.31
668.312	6252.91
668.662	6252.24
669.011	6232.8
669.361	6273.48
669.711	6214.05
670.06	6254.5
670.41	6247.04
670.76	6268.06
671.109	6291.33
671.459	6269.64
671.808	6236.64
672.157	6331.33
672.507	6219.02
672.856	6228.28
673.205	6272.58
673.554	6221.05
673.904	6256.3
674.253	6281.39
674.602	6257.21
674.951	6216.31
675.3	6140.38
675.649	6294.72
675.998	6219.02
676.346	6199.13
676.695	6271.67
677.044	6178.57
677.393	6170.43
677.741	6209.98
678.09	6214.72
678.438	6172.69
678.787	6182.18
679.135	6218.11
679.484	6122.52
679.832	6174.95
680.181	6126.36
680.529	6143.77
680.877	6136.76
681.225	6122.07
681.573	6163.88
681.922	6127.49
682.27	6028.74
682.618	6105.35
682.966	6054.95
683.314	6051.79
683.661	6067.61
684.009	6015.18
684.357	6052.24
684.705	5988.29
685.053	6022.64
685.4	6013.6
685.748	5949.65
686.095	5983.09
686.443	5903.77
686.79	5921.4
687.138	5926.14
687.485	5929.31
687.832	5887.27
688.18	5856.99
688.527	5800.27
688.874	5867.61
689.221	5817.9
689.568	5836.43
689.915	5741.52
690.262	5807.5
690.609	5761.85
690.956	5732.25
691.303	5741.97
691.65	5772.02
691.997	5749.43
692.344	5637.11
692.69	5638.92
693.037	5689.99
693.383	5674.17
693.73	5676.88
694.077	5598.92
694.423	5614.51
694.769	5609.32
695.116	5570.22
695.462	5600.95
695.808	5579.49
696.155	5533.16
696.501	5561.63
696.847	5519.15
697.193	5508.53
697.539	5524.35
697.885	5482.77
698.231	5485.93
698.577	5487.06
698.923	5466.49
699.269	5441.41
699.614	5428.08
699.96	5391.02
700.306	5422.88
700.651	5407.51
700.997	5393.73
701.342	5397.34
701.688	5396.67
702.033	5380.17
702.379	5331.13
702.724	5342.88
703.069	5303.34
703.415	5254.07
703.76	5297.46
704.105	5296.56
704.45	5293.17
704.795	5283.22
705.14	5228.08
705.485	5251.13
705.83	5188.54
706.175	5235.77
706.52	5224.69
706.865	5214.52
707.209	5175.65
707.554	5157.8
707.899	5176.33
708.243	5119.61
708.588	5165.03
708.932	5103.34
709.277	5145.15
709.621	5106.28
709.966	5087.52
710.31	5054.75
710.654	5042.55
710.998	5005.26
711.342	5034.19
711.687	4963.46
712.031	5044.13
712.375	4986.73
712.719	5026.96
713.063	4984.25
713.407	5010.24
713.75	4991.48
714.094	4947.86
714.438	4923.01
714.782	4927.75
715.125	4877.58
715.469	4979.05
715.812	4878.49
716.156	4873.97
716.499	4904.02
716.843	4893.63
717.186	4907.41
717.53	4871.71
717.873	4851.37
718.216	4840.97
718.559	4816.57
718.902	4839.39
719.246	4789.9
719.589	4783.57
719.932	4766.85
720.275	4791.94
720.617	4761.2
720.96	4738.38
721.303	4798.72
721.646	4785.16
721.989	4709.45
722.331	4737.93
722.674	4699.28
723.016	4701.77
723.359	4711.71
723.701	4703.12
724.044	4685.5
724.386	4654.09
724.729	4700.87
725.071	4668.55
725.413	4643.69
725.755	4713.97
726.097	4575.67
726.439	4597.14
726.782	4598.72
727.124	4614.09
727.465	4589.46
727.807	4583.13
728.149	4525.73
728.491	4630.36
728.833	4601.88
729.175	4594.65
729.516	4560.3
729.858	4525.28
730.199	4503.36
730.541	4533.19
730.882	4557.14
731.224	4556.46
731.565	4520.53
731.906	4497.71
732.248	4533.64
732.589	4483.7
732.93	4516.01
733.271	4498.84
733.612	4476.92
733.953	4509.68
734.294	4506.07
734.635	4430.14
734.976	4499.74
735.317	4474.2
735.658	4442.57
735.999	4442.57
736.339	4414.54
736.68	4468.78
737.021	4423.81
737.361	4409.57
737.702	4422.91
738.042	4426.52
738.383	4422.23
738.723	4389.23
739.063	4371.83
739.404	4411.83
739.744	4370.25
740.084	4362.57
740.424	4369.8
740.764	4341.55
741.104	4352.85
741.444	4307.2
741.784	4317.6
742.124	4289.8
742.464	4314.43
742.804	4252.29
743.143	4294.77
743.483	4306.98
743.823	4272.85
744.162	4292.74
744.502	4252.29
744.841	4243.02
745.181	4245.06
745.52	4236.7
745.86	4293.64
746.199	4231.95
746.538	4249.35
746.877	4237.6
747.216	4246.64
747.556	4172.29
747.895	4213.19
748.234	4204.83
748.573	4203.93
748.911	4150.6
749.25	4142.24
749.589	4162.8
749.928	4138.17
750.267	4151.5
750.605	4154.89
750.944	4158.73
751.283	4136.13
751.621	4169.58
751.96	4118.28
752.298	4118.28
752.636	4097.72
752.975	4111.28
753.313	4085.74
753.651	4073.08
753.989	4064.05
754.327	4088
754.666	4030.83
755.004	4015.91
755.342	4028.79
755.679	4032.18
756.017	4021.11
756.355	4015.01
756.693	4023.59
757.031	3960.09
757.368	4008.23
757.706	3972.52
758.044	4001.45
758.381	3958.06
758.719	3923.48
759.056	3954.44
759.394	3928.68
759.731	3911.06
760.068	3875.12
760.405	3837.38
760.743	3908.12
761.08	3902.02
761.417	3890.26
761.754	3856.14
762.091	3870.83
762.428	3842.36
762.765	3804.17
763.102	3835.35
763.438	3831.06
763.775	3776.82
764.112	3771.17
764.449	3768.91
764.785	3749.48
765.122	3758.97
765.458	3716.26
765.795	3715.58
766.131	3689.59
766.467	3706.54
766.804	3704.28
767.14	3645.75
767.476	3671.06
767.812	3685.75
768.148	3683.72
768.485	3625.41
768.821	3601.68
769.157	3612.53
769.492	3581.35
769.828	3597.62
770.164	3594.45
770.5	3555.81
770.836	3576.83
771.171	3532.76
771.507	3556.04
771.842	3533.66
772.178	3497.05
772.513	3515.81
772.849	3482.59
773.184	3472.87
773.519	3432.88
773.855	3487.11
774.19	3457.06
774.525	3450.28
774.86	3427
775.195	3462.48
775.53	3426.32
775.865	3388.36
776.2	3401.46
776.535	3373.22
776.87	3384.06
777.205	3312.43
777.539	3348.58
777.874	3298.64
778.209	3340.45
778.543	3326.66
778.878	3303.16
779.212	3258.42
779.547	3252.32
779.881	3292.54
780.215	3264.52
780.55	3291.86
780.884	3252.09
781.218	3278.08
781.552	3248.25
781.886	3218.64
782.22	3225.2
782.554	3198.53
782.888	3151.53
783.222	3196.5
783.556	3149.27
783.889	3146.33
784.223	3152.66
784.557	3109.04
784.89	3140.91
785.224	3121.7
785.557	3108.14
785.891	3078.53
786.224	3095.94
786.558	3061.81
786.891	3041.93
787.224	3043.28
787.557	3032.43
787.891	3026.56
788.224	3017.52
788.557	2992.89
788.89	3003.96
789.223	2996.05
789.556	2940.91
789.888	2952.66
790.221	2978.2
790.554	2947.01
790.887	2941.82
791.219	2928.93
791.552	2946.79
791.884	2910.63
792.217	2929.16
792.549	2900.46
792.882	2894.36
793.214	2860.91
793.546	2902.95
793.879	2885.55
794.211	2869.05
794.543	2847.58
794.875	2842.83
795.207	2848.26
795.539	2826.11
795.871	2800.58
796.203	2830.18
796.535	2788.37
796.867	2749.28
797.198	2785.66
797.53	2784.31
797.862	2799.22
798.193	2765.55
798.525	2768.26
798.856	2738.2
799.188	2709.05
799.519	2736.4
799.85	2743.63
800.182	2723.97
800.513	2713.57
800.844	2719.67
801.175	2736.4
801.506	2686
801.837	2664.08
802.168	2671.77
802.499	2674.7
802.83	2654.59
803.161	2653.24
803.491	2681.03
803.822	2674.93
804.153	2636.51
804.483	2622.5
804.814	2601.94
805.145	2622.95
805.475	2613.46
805.805	2621.6
806.136	2617.3
806.466	2604.2
806.796	2606.68
807.126	2576.63
807.457	2582.5
807.787	2557.42
808.117	2558.1
808.447	2537.53
808.777	2534.14
809.107	2564.42
809.436	2538.66
809.766	2526.91
810.096	2511.54
810.426	2519.23
810.755	2522.39
811.085	2529.17
811.414	2527.36
811.744	2469.74
812.073	2468.38
812.403	2493.92
812.732	2445.56
813.061	2474.26
813.39	2498.21
813.719	2438.1
814.049	2428.38
814.378	2470.42
814.707	2462.73
815.036	2432.45
815.365	2433.81
815.693	2396.07
816.022	2425.9
816.351	2433.35
816.68	2418.67
817.008	2411.66
817.337	2416.63
817.665	2416.63
817.994	2358.78
818.322	2367.37
818.651	2378.21
818.979	2373.47
819.307	2383.86
819.636	2380.93
819.964	2350.87
820.292	2354.71
820.62	2357.65
820.948	2363.53
821.276	2362.62
821.604	2328.27
821.932	2337.31
822.259	2340.7
822.587	2321.72
822.915	2363.07
823.243	2363.07
823.57	2334.83
823.898	2374.6
824.225	2343.19
824.553	2347.93
824.88	2321.04
825.207	2336.18
825.535	2329.4
825.862	2326.69
826.189	2330.98
826.516	2332.34
826.843	2341.15
827.17	2334.83
827.497	2358.55
827.824	2341.38
828.151	2349.74
828.478	2357.2
828.805	2342.51
829.131	2349.74
829.458	2339.12
829.785	2293.47
830.111	2358.33
830.438	2336.86
830.764	2319.91
831.09	2331.89
831.417	2321.72
831.743	2342.96
832.069	2317.88
832.395	2294.37
832.722	2307.71
833.048	2315.62
833.374	2331.44
833.7	2311.55
834.026	2303.64
834.351	2301.61
834.677	2299.12
835.003	2299.35
835.329	2311.78
835.654	2299.12
835.98	2300.25
836.306	2274.71
836.631	2280.14
836.956	2322.85
837.282	2285.56
837.607	2285.56
837.932	2282.62
838.258	2260.93
838.583	2278.1
838.908	2260.25
839.233	2283.75
839.558	2277.2
839.883	2262.06
840.208	2272
840.533	2273.81
840.858	2246.92
841.182	2250.08
841.507	2244.88
841.832	2251.89
842.156	2210.31
842.481	2217.09
842.805	2232.23
843.13	2198.78
843.454	2237.65
843.778	2194.26
844.103	2185.68
844.427	2203.76
844.751	2204.21
845.075	2193.36
845.399	2208.5
845.723	2174.15
846.047	2181.84
846.371	2140.25
846.695	2191.55
847.019	2164.43
847.343	2135.06
847.666	2117.2
847.99	2140.25
848.313	2111.78
848.637	2124.21
848.96	2121.95
849.284	2133.7
849.607	2114.04
849.931	2097.32
850.254	2060.71
850.577	2071.56
850.9	2067.71
851.223	2041.05
851.546	2039.69
851.869	2056.87
852.192	2036.53
852.515	2039.01
852.838	2031.78
853.161	1992.46
853.483	2025.23
853.806	1979.35
854.129	2013.25
854.451	2067.49
854.774	2002.4
855.096	1957.21
855.419	1981.16
855.741	1992.46
856.063	1979.35
856.385	1985.23
856.708	1979.35
857.03	1978
857.352	1990.2
857.674	1961.95
857.996	1931.45
858.318	1901.16
858.64	1939.58
858.961	1959.24
859.283	1906.81
859.605	1927.38
859.926	1903.42
860.248	1886.7
860.57	1912.46
860.891	1886.93
861.212	1910.88
861.534	1904.78
861.855	1900.94
862.176	1872.01
862.498	1915.4
862.819	1891
863.14	1866.59
863.461	1887.83
863.782	1879.7
864.103	1885.57
864.424	1880.15
864.745	1872.69
865.065	1863.43
865.386	1845.8
865.707	1865.46
866.027	1832.92
866.348	1870.88
866.668	1877.44
866.989	1845.57
867.309	1873.14
867.63	1841.73
867.95	1836.53
868.27	1819.36
868.59	1820.04
868.91	1854.84
869.23	1822.3
869.55	1830.21
869.87	1829.53
870.19	1811.45
870.51	1812.35
870.83	1825.46
871.15	1787.5
871.469	1833.14
871.789	1815.29
872.109	1816.42
872.428	1783.88
872.748	1816.42
873.067	1778.68
873.386	1837.89
873.706	1778.68
874.025	1771.22
874.344	1792.92
874.663	1815.07
874.982	1810.55
875.301	1801.05
875.62	1763.99
875.939	1772.81
876.258	1815.29
876.577	1756.54
876.896	1760.38
877.214	1787.04
877.533	1759.7
877.852	1790.21
878.17	1779.81
878.489	1749.53
878.807	1748.4
879.125	1779.81
879.444	1743.2
879.762	1736.2
880.08	1769.64
880.398	1729.42
880.716	1756.99
881.034	1756.08
881.352	1718.57
881.67	1741.62
881.988	1716.54
882.306	1744.11
882.624	1717.44
882.941	1701.4
883.259	1702.75
883.577	1692.36
883.894	1690.1
884.212	1680.61
884.529	1716.99
884.846	1711.11
885.164	1699.81
885.481	1688.29
885.798	1708.63
886.115	1698.46
886.432	1685.35
886.75	1667.27
887.067	1685.13
887.383	1667.5
887.7	1666.82
888.017	1661.4
888.334	1655.97
888.651	1663.66
888.967	1648.06
889.284	1642.19
889.6	1629.08
889.917	1615.97
890.233	1626.37
890.55	1629.99
890.866	1613.94
891.182	1634.73
891.498	1624.11
891.815	1620.04
892.131	1598.8
892.447	1595.18
892.763	1576.2
893.079	1605.35
893.395	1589.76
893.71	1619.14
894.026	1579.37
894.342	1583.43
894.657	1574.62
894.973	1573.04
895.289	1592.47
895.604	1568.74
895.92	1552.7
896.235	1553.6
896.55	1567.16
896.865	1521.74
897.181	1566.03
897.496	1564.22
897.811	1558.57
898.126	1540.04
898.441	1551.12
898.756	1497.11
899.071	1505.24
899.386	1518.12
899.7	1527.16
900.015	1504.34
900.33	1515.41
900.644	1514.06
900.959	1470.89
901.273	1497.79
901.588	1489.88
901.902	1480.61
902.216	1494.17
902.531	1444.45
902.845	1500.95
903.159	1467.05
903.473	1456.88
903.787	1464.57
904.101	1439.71
904.415	1473.15
904.729	1467.73
905.042	1441.52
905.356	1423.66
905.67	1457.56
905.984	1444.91
906.297	1455.75
906.611	1419.37
906.924	1451.68
907.237	1429.09
907.551	1410.1
907.864	1404.23
908.177	1416.88
908.491	1414.85
908.804	1407.17
909.117	1402.42
909.43	1402.65
909.743	1398.35
910.056	1372.14
910.368	1377.79
910.681	1380.5
910.994	1392.7
911.307	1361.74
911.619	1378.01
911.932	1375.3
912.244	1344.8
912.557	1359.71
912.869	1343.44
913.181	1331.46
913.494	1300.5
913.806	1311.12
914.118	1349.09
914.43	1316.77
914.742	1298.47
915.054	1299.82
915.366	1314.51
915.678	1315.42
915.99	1288.53
916.302	1273.16
916.613	1268.41
916.925	1250.11
917.236	1276.32
917.548	1297.79
917.859	1272.48
918.171	1249.88
918.482	1267.06
918.794	1256.21
919.105	1236.32
919.416	1254.4
919.727	1262.54
920.038	1256.66
920.349	1225.7
920.66	1214.63
920.971	1207.62
921.282	1221.18
921.593	1194.97
921.903	1189.54
922.214	1213.95
922.525	1185.7
922.835	1192.71
923.146	1167.17
923.456	1168.3
923.767	1170.56
924.077	1188.19
924.387	1164.23
924.697	1203.78
925.008	1180.28
925.318	1136.67
925.628	1162.43
925.938	1161.07
926.248	1139.83
926.558	1146.16
926.867	1157
927.177	1126.95
927.487	1148.42
927.796	1123.33
928.106	1113.61
928.416	1106.16
928.725	1114.97
929.034	1114.07
929.344	1112.03
929.653	1124.46
929.962	1125.59
930.271	1110.23
930.581	1095.99
930.89	1102.09
931.199	1081.07
931.508	1098.47
931.817	1118.36
932.125	1053.05
932.434	1065.48
932.743	1078.59
933.051	1095.99
933.36	1059.83
933.669	1072.49
933.977	1053.28
934.286	1065.25
934.594	1057.8
934.902	1037.01
935.21	1030.68
935.519	1040.17
935.827	1030
936.135	1014.18
936.443	1010.11
936.751	1018.93
937.059	1017.35
937.367	1012.37
937.674	1015.09
937.982	1013.96
938.29	1008.08
938.597	1025.03
938.905	1014.63
939.213	1006.05
939.52	988.87
939.827	998.82
940.135	988.19
940.442	982.32
940.749	980.51
941.056	993.39
941.363	988.19
941.67	967.63
941.977	975.99
942.284	996.56
942.591	976.44
942.898	971.02
943.205	979.61
943.511	949.78
943.818	958.59
944.125	948.2
944.431	950.68
944.738	958.82
945.044	957.46
945.35	923.34
945.657	939.83
945.963	941.19
946.269	932.38
946.575	947.74
946.881	931.7
947.187	929.89
947.493	916.78
947.799	935.31
948.105	913.85
948.41	915.43
948.716	904.13
949.022	910
949.327	880.17
949.633	892.6
949.938	895.09
950.244	906.61
950.549	908.2
950.854	885.6
951.16	884.92
951.465	901.42
951.77	888.31
952.075	877.46
952.38	877.24
952.685	845.15
952.99	859.16
953.294	870.68
953.599	870.01
953.904	854.41
954.209	847.63
954.513	884.92
954.818	875.65
955.122	857.8
955.426	839.72
955.731	848.09
956.035	855.99
956.339	844.47
956.643	843.34
956.948	858.93
957.252	834.07
957.556	815.32
957.86	824.36
958.163	829.33
958.467	838.37
958.771	816.45
959.075	801.53
959.378	827.29
959.682	811.48
959.985	827.29
960.289	803.57
960.592	814.64
960.896	803.11
961.199	811.25
961.502	796.33
961.805	804.24
962.108	805.37
962.411	809.44
962.714	805.37
963.017	795.21
963.32	801.98
963.623	778.03
963.926	797.69
964.228	801.31
964.531	798.82
964.833	794.75
965.136	776.45
965.438	783.91
965.741	754.08
966.043	792.49
966.345	766.96
966.648	766.96
966.95	764.02
967.252	760.63
967.554	771.7
967.856	767.41
968.158	768.09
968.46	732.83
968.761	746.62
969.063	747.97
969.365	728.77
969.666	747.75
969.968	740.07
970.269	744.13
970.571	743.68
970.872	740.97
971.174	714.98
971.475	725.15
971.776	747.52
972.077	736.22
972.378	731.7
972.679	727.86
972.98	725.6
973.281	709.33
973.582	716.79
973.883	696
974.183	715.21
974.484	706.62
974.785	712.5
975.085	700.52
975.386	737.13
975.686	700.29
975.986	701.87
976.287	693.96
976.587	701.65
976.887	696.45
977.187	708.2
977.487	679.28
977.787	673.63
978.087	713.63
978.387	671.82
978.687	696
978.987	677.69
979.286	673.63
979.586	681.31
979.885	685.83
980.185	665.94
980.484	687.19
980.784	664.36
981.083	687.64
981.382	665.94
981.682	663.68
981.981	665.49
982.28	667.07
982.579	641.31
982.878	642.44
983.177	654.42
983.475	654.42
983.774	656.9
984.073	663.23
984.372	632.95
984.67	648.54
984.969	656
985.267	627.53
985.566	639.73
985.864	649.45
986.162	641.54
986.461	616
986.759	632.72
987.057	621.88
987.355	635.21
987.653	616
987.951	618.71
988.249	618.03
988.547	648.54
988.844	638.37
989.142	616.23
989.44	642.67
989.737	601.09
990.035	611.48
990.332	625.94
990.63	581.43
990.927	604.48
991.224	582.33
991.521	599.28
991.819	621.42
992.116	582.33
992.413	587.75
992.71	602.44
993.006	604.02
993.303	613.29
993.6	600.86
993.897	602.22
994.193	596.11
994.49	546.4
994.787	578.94
995.083	596.11
995.379	597.7
995.676	591.59
995.972	555.89
996.268	561.99
996.565	585.04
996.861	582.1
997.157	576.91
997.453	561.09
997.749	591.37
998.044	580.97
998.34	554.76
998.636	539.17
998.932	567.41
999.227	579.84
999.523	566.74
999.818	543.46
1000.114	576
1000.409	561.76
1000.704	545.04
1001	553.4
1001.295	538.49
1001.59	553.18
1001.885	567.87
1002.18	553.18
1002.475	544.59
1002.77	539.62
1003.065	530.81
1003.359	530.58
1003.654	548.66
1003.949	517.02
1004.243	551.14
1004.538	525.16
1004.832	521.09
1005.127	521.31
1005.421	553.63
1005.715	528.55
1006.009	540.52
1006.304	524.25
1006.598	548.88
1006.892	539.62
1007.186	543.46
1007.48	518.38
1007.773	512.73
1008.067	525.61
1008.361	519.28
1008.655	547.08
1008.948	537.81
1009.242	518.6
1009.535	507.3
1009.829	493.52
1010.122	496.68
1010.415	497.81
1010.708	520.41
1011.001	498.94
1011.295	501.2
1011.588	528.32
1011.881	503.01
1012.173	492.39
1012.466	511.37
1012.759	511.14
1013.052	498.94
1013.344	493.52
1013.637	489.68
1013.93	480.64
1014.222	511.37
1014.514	486.51
1014.807	505.72
1015.099	486.74
1015.391	483.57
1015.683	465.72
1015.976	467.76
1016.268	474.99
1016.56	479.28
1016.851	489.45
1017.143	489.22
1017.435	470.92
1017.727	497.36
1018.018	481.54
1018.31	470.02
1018.602	483.8
1018.893	478.83
1019.185	476.8
1019.476	465.27
1019.767	467.53
1020.058	464.82
1020.35	460.3
1020.641	484.25
1020.932	464.59
1021.223	457.13
1021.514	473.41
1021.804	456.23
1022.095	446.74
1022.386	458.26
1022.677	469.56
1022.967	438.83
1023.258	445.61
1023.548	460.3
1023.839	453.97
1024.129	441.32
1024.419	445.61
1024.709	448.32
1025	459.62
1025.29	439.28
1025.58	454.2
1025.87	410.81
1026.16	437.02
1026.449	432.73
1026.739	430.69
1027.029	424.37
1027.319	445.38
1027.608	440.19
1027.898	442.9
1028.187	442.22
1028.477	426.63
1028.766	416.46
1029.055	436.34
1029.344	427.31
1029.634	449.23
1029.923	417.81
1030.212	434.54
1030.501	430.02
1030.79	427.31
1031.078	440.41
1031.367	416.91
1031.656	394.09
1031.945	417.14
1032.233	409.9
1032.522	413.07
1032.81	413.29
1033.099	417.59
1033.387	420.75
1033.675	413.52
1033.963	405.84
1034.251	415.33
1034.54	399.51
1034.828	403.12
1035.116	392.5
1035.403	390.92
1035.691	385.72
1035.979	402.9
1036.267	416.68
1036.554	402.67
1036.842	416.01
1037.129	394.09
1037.417	376.01
1037.704	396.8
1037.992	392.5
1038.279	402
1038.566	410.13
1038.853	410.13
1039.14	410.13
