Data from foam_black_FLMS001491_00005.txt Node
Date: Wed Feb 08 10:43:25 GMT 2017
User: dcchb
Spectrometer: FLMS00149
Trigger mode: 0
Integration Time (sec): 2.000000E-2
Scans to average: 10
Electric dark correction enabled: true
Nonlinearity correction enabled: false
Boxcar width: 0
XAxis mode: Wavelengths
Number of Pixels in Spectrum: 2048
>>>>>Begin Spectral Data<<<<<
341.393	-20.64
341.776	-20.64
342.16	-20.64
342.543	-67.41
342.927	-83.91
343.31	-50.24
343.693	-54.08
344.077	-49.33
344.46	-55.21
344.843	-57.47
345.226	-50.46
345.61	-44.82
345.993	-31.03
346.376	1.74
346.759	-7.3
347.142	25.24
347.525	38.8
347.908	54.39
348.291	71.57
348.674	102.53
349.057	105.69
349.44	123.09
349.823	139.36
350.206	155.63
350.588	195.4
350.971	216.87
351.354	221.17
351.737	259.81
352.119	248.06
352.502	252.58
352.884	273.14
353.267	283.76
353.65	292.35
354.032	295.74
354.414	296.87
354.797	295.51
355.179	348.17
355.562	313.14
355.944	334.16
356.326	353.37
356.709	323.99
357.091	350.88
357.473	338.45
357.855	327.83
358.238	343.42
358.62	347.49
359.002	358.56
359.384	325.8
359.766	333.25
360.148	344.78
360.53	337.32
360.912	337.1
361.294	346.59
361.676	343.65
362.057	351.33
362.439	335.51
362.821	336.42
363.203	342.29
363.584	309.75
363.966	327.38
364.348	356.98
364.729	349.3
365.111	322.86
365.493	330.99
365.874	355.4
366.256	315.85
366.637	324.44
367.019	333.25
367.4	338.23
367.781	333.25
368.163	331.67
368.544	333.48
368.925	316.76
369.306	348.39
369.688	363.54
370.069	332.8
370.45	326.25
370.831	319.47
371.212	337.77
371.593	321.5
371.974	344.55
372.355	329.19
372.736	341.62
373.117	327.15
373.498	356.3
373.879	336.19
374.26	350.65
374.641	326.7
375.021	331.67
375.402	342.29
375.783	346.59
376.163	366.47
376.544	366.47
376.925	349.75
377.305	361.05
377.686	358.56
378.066	349.3
378.447	349.3
378.827	368.06
379.208	361.95
379.588	362.63
379.968	382.74
380.349	382.74
380.729	379.35
381.109	359.69
381.489	366.02
381.87	384.33
382.25	392.46
382.63	396.98
383.01	379.58
383.39	378.45
383.77	388.17
384.15	404.66
384.53	396.08
384.91	391.33
385.29	410.54
385.67	410.99
386.049	403.08
386.429	410.09
386.809	396.08
387.189	404.66
387.568	410.99
387.948	406.25
388.328	433.82
388.707	416.42
389.087	429.97
389.466	431.33
389.846	432.23
390.225	437.66
390.605	424.33
390.984	431.1
391.363	418.9
391.743	440.82
392.122	434.72
392.501	446.92
392.881	458
393.26	477.43
393.639	467.49
394.018	473.36
394.397	464.32
394.776	476.53
395.155	466.58
395.534	492.57
395.913	460.71
396.292	480.82
396.671	465.45
397.05	502.29
397.429	481.72
397.808	483.08
398.186	495.06
398.565	477.88
398.944	511.1
399.323	493.48
399.701	486.7
400.08	508.39
400.458	505.45
400.837	505.45
401.215	529.86
401.594	529.18
401.972	512.46
402.351	515.4
402.729	531.67
403.107	541.61
403.486	520.82
403.864	543.19
404.242	553.81
404.62	524.66
404.999	566.02
405.377	554.27
405.755	561.04
406.133	587.26
406.511	570.54
406.889	570.31
407.267	593.59
407.645	577.99
408.023	594.26
408.401	598.56
408.779	607.37
409.156	601.04
409.534	604.21
409.912	602.4
410.29	629.52
410.667	610.76
411.045	623.19
411.422	637.2
411.8	646.47
412.178	648.5
412.555	646.92
412.933	647.6
413.31	667.48
413.687	661.38
414.065	657.09
414.442	674.94
414.819	692.57
415.197	684.66
415.574	697.54
415.951	687.82
416.328	702.96
416.705	704.77
417.082	715.16
417.46	736.86
417.837	706.35
418.214	753.13
418.591	739.12
418.967	747.03
419.344	748.61
419.721	759.01
420.098	764.88
420.475	778.44
420.852	782.28
421.228	801.72
421.605	787.48
421.982	777.54
422.358	803.3
422.735	836.97
423.111	814.15
423.488	838.55
423.864	821.38
424.241	823.41
424.617	851.43
424.994	851.21
425.37	849.62
425.746	864.77
426.123	871.77
426.499	887.36
426.875	870.19
427.251	876.52
427.627	905.44
428.003	910.41
428.379	921.94
428.756	943.41
429.132	935.5
429.507	956.29
429.883	960.13
430.259	969.4
430.635	978.43
431.011	987.93
431.387	1000.81
431.763	1035.61
432.138	1025.44
432.514	1026.34
432.89	1027.25
433.265	1043.29
433.641	1053.24
434.016	1099.56
434.392	1104.08
434.767	1113.12
435.143	1113.8
435.518	1113.57
435.894	1106.57
436.269	1134.59
436.644	1139.33
437.02	1146.34
437.395	1160.12
437.77	1197.86
438.145	1177.53
438.52	1215.94
438.895	1204.19
439.271	1216.17
439.646	1238.31
440.021	1233.34
440.395	1248.94
440.77	1236.06
441.145	1233.8
441.52	1250.97
441.895	1255.94
442.27	1267.01
442.645	1294.81
443.019	1313.34
443.394	1312.89
443.769	1309.5
444.143	1302.04
444.518	1336.17
444.892	1347.46
445.267	1341.59
445.641	1333.23
446.016	1345.88
446.39	1352.89
446.764	1356.28
447.139	1389.95
447.513	1372.1
447.887	1409.61
448.262	1384.75
448.636	1448.03
449.01	1409.84
449.384	1416.16
449.758	1433.11
450.132	1442.83
450.506	1478.31
450.88	1484.86
451.254	1499.78
451.628	1462.49
452.002	1499.55
452.376	1502.04
452.75	1539.32
453.123	1544.07
453.497	1580.9
453.871	1570.51
454.244	1586.33
454.618	1638.53
454.992	1633.11
455.365	1617.97
455.739	1681.69
456.112	1692.31
456.486	1683.05
456.859	1730.73
457.232	1726.89
457.606	1767.11
457.979	1762.82
458.352	1791.75
458.725	1812.31
459.099	1826.77
459.472	1857.73
459.845	1882.14
460.218	1859.32
460.591	1890.28
460.964	1895.25
461.337	1946.09
461.71	1984.51
462.083	2012.76
462.456	2016.15
462.829	1984.96
463.201	2045.98
463.574	2043.49
463.947	2095.69
464.32	2097.73
464.692	2111.29
465.065	2121.46
465.438	2169.36
465.81	2185.41
466.183	2213.43
466.555	2261.11
466.928	2243.26
467.3	2274.67
467.672	2302.92
468.045	2329.36
468.417	2341.79
468.789	2361.22
469.161	2388.79
469.534	2424.95
469.906	2496.13
470.278	2490.03
470.65	2518.06
471.022	2565.96
471.394	2606.41
471.766	2621.78
472.138	2682.57
472.51	2695
472.882	2722.8
473.253	2779.29
473.625	2812.06
473.997	2857.03
474.369	2926.86
474.74	2913.07
475.112	2968.66
475.484	3010.02
475.855	3056.12
476.227	3089.11
476.598	3159.17
476.97	3199.62
477.341	3219.73
477.713	3300.86
478.084	3318.71
478.455	3403
478.827	3447.75
479.198	3534.75
479.569	3528.42
479.94	3622.43
480.311	3656.56
480.682	3734.75
481.053	3803.67
481.424	3881.64
481.795	3899.71
482.166	3911.92
482.537	3981.29
482.908	4053.16
483.279	4116.21
483.65	4192.14
484.021	4246.15
484.391	4331.57
484.762	4354.84
485.133	4341.96
485.503	4458.34
485.874	4506.93
486.244	4557.55
486.615	4607.72
486.985	4700.6
487.356	4804.55
487.726	4785.79
488.097	4885.22
488.467	4864.43
488.837	5004.54
489.207	5054.49
489.578	5141.72
489.948	5173.35
490.318	5201.6
490.688	5263.97
491.058	5334.03
491.428	5381.26
491.798	5458.32
492.168	5503.29
492.538	5594.81
492.908	5596.39
493.278	5671.87
493.648	5703.28
494.017	5747.57
494.387	5834.13
494.757	5874.58
495.126	5908.02
495.496	5980.34
495.866	5949.83
496.235	6048.58
496.605	6115.02
496.974	6178.52
497.344	6234.79
497.713	6246.54
498.082	6294
498.452	6336.49
498.821	6339.65
499.19	6412.87
499.559	6477.5
499.928	6522.02
500.298	6527.67
500.667	6606.76
501.036	6623.48
501.405	6705.97
501.774	6634.56
502.143	6737.38
502.512	6754.33
502.88	6870.94
503.249	6862.8
503.618	6967.43
503.987	6962.91
504.356	7002.91
504.724	7055.34
505.093	7095.11
505.462	7128.56
505.83	7155.67
506.199	7234.09
506.567	7301.66
506.936	7303.92
507.304	7398.83
507.672	7431.82
508.041	7402.22
508.409	7516.79
508.777	7589.56
509.145	7692.83
509.514	7643.12
509.882	7747.97
510.25	7735.55
510.618	7816.9
510.986	7857.58
511.354	7931.92
511.722	7937.35
512.09	8082.88
512.458	8060.96
512.826	8197.68
513.193	8173.73
513.561	8183.44
513.929	8275.64
514.297	8349.54
514.664	8404.45
515.032	8437.45
515.4	8524.9
515.767	8540.5
516.135	8652.81
516.502	8616.43
516.869	8744.33
517.237	8743.88
517.604	8741.85
517.972	8879.24
518.339	8927.6
518.706	8962.41
519.073	9046.47
519.44	9158.56
519.808	9222.74
520.175	9225
520.542	9296.41
520.909	9388.84
521.276	9376.63
521.643	9530.3
522.009	9561.71
522.376	9635.61
522.743	9700.69
523.11	9725.1
523.477	9869.27
523.843	9908.6
524.21	10082.83
524.577	10135.26
524.943	10188.81
525.31	10198.08
525.676	10332.77
526.043	10336.38
526.409	10405.98
526.776	10492.53
527.142	10515.59
527.508	10541.8
527.874	10773.66
528.241	10740.21
528.607	10825.63
528.973	10930.72
529.339	10891.85
529.705	11063.59
530.071	11176.58
530.437	11103.59
530.803	11284.38
531.169	11378.16
531.535	11355.34
531.901	11365.73
532.267	11435.56
532.632	11532.28
532.998	11548.33
533.364	11585.39
533.73	11672.62
534.095	11755.1
534.461	11808.66
534.826	11834.19
535.192	11876.68
535.557	11989.67
535.923	11951.48
536.288	12006.62
536.653	12156.67
537.019	12122.55
537.384	12151.93
537.749	12256.78
538.114	12321.19
538.479	12268.53
538.845	12404.57
539.21	12415.65
539.575	12516.44
539.94	12554.85
540.305	12590.56
540.67	12649.09
541.034	12733.38
541.399	12750.78
541.764	12692.93
542.129	12785.58
542.494	12854.51
542.858	12951
543.223	12892.02
543.587	13002.07
543.952	13041.39
544.316	13045.01
544.681	13094.73
545.045	13167.04
545.41	13248.85
545.774	13290.43
546.138	13346.02
546.503	13365.23
546.867	13304.21
547.231	13525.22
547.595	13484.77
547.959	13580.59
548.324	13571.32
548.688	13629.4
549.052	13753.01
549.416	13685.9
549.779	13736.74
550.143	13779.45
550.507	13873.01
550.871	13941.03
551.235	13961.6
551.599	14066.45
551.962	14044.53
552.326	14067.81
552.689	14186.45
553.053	14216.73
553.417	14270.51
553.78	14474.35
554.143	14310.74
554.507	14499.89
554.87	14554.12
555.234	14669.83
555.597	14606.55
555.96	14677.96
556.323	14748.69
556.686	14777.62
557.05	14884.06
557.413	14950.95
557.776	14946.43
558.139	15075.69
558.502	15137.84
558.865	15200.66
559.228	15356.14
559.59	15343.48
559.953	15424.38
560.316	15552.29
560.679	15591.84
561.041	15715.45
561.404	15833.64
561.767	15823.02
562.129	15872.73
562.492	16029.79
562.854	16004.48
563.217	16025.27
563.579	16068.43
563.941	16166.06
564.304	16302.78
564.666	16303.68
565.028	16409.67
565.39	16355.21
565.753	16610.57
566.115	16688.08
566.477	16775.53
566.839	16773.27
567.201	16965.36
567.563	16934.85
567.925	17074.06
568.287	17038.8
568.648	17130.78
569.01	17115.19
569.372	17222.08
569.734	17207.16
570.095	17316.76
570.457	17479.47
570.819	17428.17
571.18	17471.11
571.542	17596.75
571.903	17574.16
572.265	17695.51
572.626	17708.39
572.987	17752
573.349	17830.2
573.71	17876.75
574.071	17872.23
574.432	18006.01
574.794	18110.41
575.155	18022.51
575.516	17991.77
575.877	18172.11
576.238	18211.88
576.599	18234.48
576.96	18254.14
577.32	18271.54
577.681	18312.89
578.042	18409.61
578.403	18457.75
578.763	18378.43
579.124	18499.78
579.485	18534.58
579.845	18620.23
580.206	18564.41
580.566	18523.51
580.927	18531.42
581.287	18643.73
581.648	18563.51
582.008	18686.22
582.368	18576.84
582.728	18609.84
583.089	18662.94
583.449	18658.87
583.809	18527.8
584.169	18734.58
584.529	18642.83
584.889	18925.08
585.249	18736.39
585.609	18709.04
585.969	18750.4
586.329	18740.45
586.688	18753.56
587.048	18775.48
587.408	18710.62
587.768	18758.08
588.127	18854.8
588.487	18758.76
588.846	18940
589.206	18845.08
589.565	18770.06
589.925	18848.7
590.284	18828.59
590.643	18937.28
591.003	18927.79
591.362	18996.04
591.721	18940.45
592.08	19050.73
592.44	19064.74
592.799	19177.05
593.158	19001.24
593.517	19033.55
593.876	19108.58
594.235	19095.25
594.593	19160.1
594.952	19187.22
595.311	19055.47
595.67	19184.74
596.029	19208.01
596.387	19239.65
596.746	19358.52
597.104	19224.73
597.463	19271.06
597.822	19363.71
598.18	19195.36
598.538	19299.08
598.897	19431.96
599.255	19269.48
599.613	19597.38
599.972	19345.18
600.33	19423.83
600.688	19331.4
601.046	19469.25
601.404	19633.09
601.762	19478.74
602.12	19514.67
602.478	19581.56
602.836	19540.88
603.194	19505.63
603.552	19521.22
603.91	19443.71
604.268	19613.42
604.625	19562.35
604.983	19633.99
605.341	19628.34
605.698	19704.27
606.056	19744.72
606.413	19694.1
606.771	19761.9
607.128	19800.76
607.485	19634.44
607.843	19629.92
608.2	19741.33
608.557	19891.84
608.914	19810.03
609.272	19820.65
609.629	19885.28
609.986	19951.95
610.343	19887.09
610.7	19945.62
611.057	19955.79
611.414	19990.36
611.771	19930.48
612.127	20006.18
612.484	20045.28
612.841	19996.01
613.198	19967.99
613.554	19966.64
613.911	20039.4
614.267	20062.68
614.624	19880.99
614.98	20070.14
615.337	20127.54
615.693	19993.3
616.05	20030.59
616.406	20142.22
616.762	20085.28
617.118	20068.55
617.475	20125.95
617.831	20179.96
618.187	20175.44
618.543	20191.94
618.899	20292.28
619.255	20180.64
619.611	20238.49
619.967	20232.17
620.323	20312.16
620.678	20211.6
621.034	20109.23
621.39	20146.97
621.746	20084.6
622.101	20271.94
622.457	20181.55
622.812	20223.35
623.168	20299.06
623.523	20224.93
623.879	20223.13
624.234	20098.38
624.589	20221.77
624.945	20250.47
625.3	20244.59
625.655	20271.03
626.01	20167.99
626.365	20194.88
626.72	20214.09
627.075	20210.47
627.43	20069.23
627.785	20097.25
628.14	20162.79
628.495	20206.86
628.85	20086.86
629.205	20049.12
629.559	20144.71
629.914	20057.93
630.269	20099.74
630.623	20176.8
630.978	20107.65
631.332	20142.9
631.687	20103.36
632.041	20023.13
632.396	20052.06
632.75	20059.06
633.104	19998.05
633.459	19858.16
633.813	19913.98
634.167	19884.83
634.521	19890.25
634.875	19924.15
635.229	19941.33
635.583	19757.15
635.937	19717.38
636.291	19761.22
636.645	19691.39
636.999	19713.31
637.352	19693.87
637.706	19577.95
638.06	19687.77
638.413	19561.67
638.767	19541.79
639.121	19635.57
639.474	19491.39
639.828	19570.71
640.181	19633.09
640.534	19728.45
640.888	19579.08
641.241	19498.85
641.594	19561.22
641.947	19578.62
642.301	19533.2
642.654	19479.64
643.007	19624.95
643.36	19524.39
643.713	19448.91
644.066	19584.95
644.419	19475.58
644.771	19247.56
645.124	19081.69
645.477	19010.28
645.83	18940
646.182	18935.48
646.535	18857.96
646.888	19059.77
647.24	18808.02
647.593	18995.36
647.945	18921.92
648.298	18967.57
648.65	18944.97
649.002	18855.25
649.355	18869.72
649.707	18833.56
650.059	18746.33
650.411	19085.08
650.763	19069.71
651.115	19355.35
651.467	19280.1
651.819	19158.75
652.171	19122.36
652.523	19042.59
652.875	19161.01
653.227	18993.33
653.578	19166.88
653.93	19115.81
654.282	18942.03
654.633	19006.21
654.985	19035.59
655.337	18998.07
655.688	18975.02
656.039	19107.45
656.391	18926.44
656.742	18974.35
657.094	18991.52
657.445	18977.96
657.796	18923.95
658.147	18827
658.498	18940
658.849	18941.8
659.2	18751.98
659.551	18806.89
659.902	18902.03
660.253	18852.32
660.604	18868.36
660.955	18719.89
661.306	18816.38
661.656	18782.03
662.007	18735.71
662.358	18825.2
662.708	18780.45
663.059	18767.12
663.409	18625.65
663.76	18742.71
664.11	18768.7
664.461	18722.15
664.811	18710.4
665.161	18728.7
665.511	18586.11
665.862	18618.87
666.212	18642.38
666.562	18596.05
666.912	18582.72
667.262	18624.07
667.612	18579.55
667.962	18513.57
668.312	18433.57
668.662	18655.48
669.011	18483.96
669.361	18381.59
669.711	18486.9
670.06	18390.86
670.41	18390.41
670.76	18339.33
671.109	18365.1
671.459	18350.18
671.808	18387.69
672.157	18372.78
672.507	18187.47
672.856	18244.42
673.205	18236.51
673.554	18279.67
673.904	18196.29
674.253	18247.81
674.602	18207.13
674.951	17919.01
675.3	17829.07
675.649	18131.2
675.998	18049.62
676.346	18109.06
676.695	18122.39
677.044	17965.78
677.393	18019.57
677.741	18068.83
678.09	17905.9
678.438	17914.03
678.787	17869.06
679.135	17912
679.484	17866.8
679.832	17935.5
680.181	17758.78
680.529	17811.21
680.877	17694.83
681.225	17679.69
681.573	17833.58
681.922	17710.88
682.27	17660.48
682.618	17659.58
682.966	17589.52
683.314	17665.68
683.661	17491.67
684.009	17527.6
684.357	17446.25
684.705	17386.59
685.053	17388.62
685.4	17368.51
685.748	17351.79
686.095	17215.75
686.443	17232.24
686.79	17223.88
687.138	17266.37
687.485	17254.84
687.832	17234.05
688.18	17244.45
688.527	17161.51
688.874	17100.27
689.221	17058.01
689.568	17029.09
689.915	16962.65
690.262	16982.76
690.609	16994.74
690.956	16964.46
691.303	16935.53
691.65	16728.76
691.997	16804.91
692.344	16722.65
692.69	16752.94
693.037	16729.21
693.383	16536.67
693.73	16607.85
694.077	16615.09
694.423	16502.32
694.769	16407.86
695.116	16444.47
695.462	16388.65
695.808	16355.21
696.155	16388.2
696.501	16329.67
696.847	16218.71
697.193	16192.27
697.539	16285.15
697.885	16187.53
698.231	16133.97
698.577	16130.8
698.923	16113.86
699.269	16034.31
699.614	16057.13
699.96	15976.23
700.306	15940.75
700.651	15883.81
700.997	15725.17
701.342	15801.32
701.688	15725.17
702.033	15843.81
702.379	15708.44
702.724	15725.62
703.069	15834.54
703.415	15479.3
703.76	15557.03
704.105	15548
704.45	15539.18
704.795	15403.82
705.14	15445.4
705.485	15416.25
705.83	15331.73
706.175	15304.39
706.52	15255.8
706.865	15229.81
707.209	15257.16
707.554	15230.26
707.899	15221.45
708.243	15110.94
708.588	15137.61
708.932	14969.93
709.277	14961.57
709.621	14960.44
709.966	14945.98
710.31	14893.78
710.654	14734.46
710.998	14843.61
711.342	14896.49
711.687	14821.91
712.031	14797.73
712.375	14632.54
712.719	14637.96
713.063	14718.41
713.407	14703.27
713.75	14587.34
714.094	14561.58
714.438	14526.55
714.782	14524.75
715.125	14521.13
715.469	14503.05
715.812	14456.05
716.156	14367.24
716.499	14346.22
716.843	14414.92
717.186	14236.17
717.53	14297.63
717.873	14324.75
718.216	14219.44
718.559	14142.38
718.902	14092.89
719.246	14182.16
719.589	14043.4
719.932	14025.1
720.275	14028.71
720.617	14056.06
720.96	13937.19
721.303	13978.09
721.646	13944.65
721.989	13860.58
722.331	13842.28
722.674	13849.51
723.016	13853.35
723.359	13828.94
723.701	13831.43
724.044	13708.27
724.386	13597.54
724.729	13744.43
725.071	13769.96
725.413	13633.92
725.755	13647.71
726.097	13630.76
726.439	13559.57
726.782	13535.39
727.124	13632.34
727.465	13497.2
727.807	13533.58
728.149	13472.34
728.491	13390.31
728.833	13416.75
729.175	13475.28
729.516	13397.54
729.858	13252.46
730.199	13338.79
730.541	13326.36
730.882	13256.98
731.224	13353.48
731.565	13203.42
731.906	13248.17
732.248	13153.03
732.589	13074.84
732.93	13158
733.271	13077.33
733.612	13091.79
733.953	13050.43
734.294	13072.58
734.635	13026.03
734.976	13020.38
735.317	13015.41
735.658	12972.47
735.999	12984.9
736.339	12795.53
736.68	12924.79
737.021	12900.61
737.361	12793.27
737.702	12934.96
738.042	12802.3
738.383	12813.38
738.723	12823.1
739.063	12749.65
739.404	12771.57
739.744	12700.16
740.084	12570.9
740.424	12653.16
740.764	12658.13
741.104	12685.7
741.444	12581.52
741.784	12524.8
742.124	12433.5
742.464	12568.19
742.804	12538.81
743.143	12434.86
743.483	12419.94
743.823	12384.24
744.162	12391.02
744.502	12358.47
744.841	12250.23
745.181	12352.6
745.52	12296.1
745.86	12333.62
746.199	12298.82
746.538	12283.9
746.877	12257.69
747.216	12204.13
747.556	12190.8
747.895	12198.7
748.234	12125.94
748.573	12150.34
748.911	12098.14
749.25	12124.58
749.589	12034.19
749.928	12057.47
750.267	12165.71
750.605	11977.24
750.944	11981.31
751.283	11939.28
751.621	11910.8
751.96	11870.13
752.298	11952.61
752.636	11838.04
752.975	11847.53
753.313	11750.58
753.651	11816.34
753.989	11757.59
754.327	11740.86
754.666	11683.24
755.004	11626.97
755.342	11652.96
755.679	11668.1
756.017	11553.98
756.355	11582.9
756.693	11537.03
757.031	11552.39
757.368	11501.77
757.706	11431.72
758.044	11451.15
758.381	11443.24
758.719	11297.03
759.056	11354.89
759.394	11255
759.731	11283.7
760.068	11229.69
760.405	11208
760.743	11108.56
761.08	11197.6
761.417	11118.96
761.754	11127.77
762.091	11090.26
762.428	11010.94
762.765	11007.1
763.102	11004.39
763.438	10903.6
763.775	10864.5
764.112	10948.12
764.449	10950.6
764.785	10890.49
765.122	10775.92
765.458	10746.99
765.795	10741.34
766.131	10755.58
766.467	10699.54
766.804	10671.74
767.14	10616.6
767.476	10642.59
767.812	10625.86
768.148	10608.01
768.485	10529.6
768.821	10504.29
769.157	10424.06
769.492	10445.76
769.828	10373.22
770.164	10302.71
770.5	10283.27
770.836	10316.04
771.171	10249.15
771.507	10288.02
771.842	10248.47
772.178	10199.89
772.513	10109.72
772.849	10123.05
773.184	10081.7
773.519	10030.17
773.855	10023.85
774.19	9989.05
774.525	9963.06
774.86	9930.29
775.195	9918.76
775.53	9913.57
775.865	9922.15
776.2	9767.58
776.535	9754.93
776.87	9767.81
777.205	9733.23
777.539	9709.96
777.874	9708.6
778.209	9661.14
778.543	9601.48
778.878	9549.96
779.212	9588.83
779.547	9516.29
779.881	9571.2
780.215	9373.69
780.55	9432.45
780.884	9405.11
781.218	9367.82
781.552	9313.81
781.886	9223.19
782.22	9263.64
782.554	9225.45
782.888	9197.43
783.222	9163.3
783.556	9147.26
783.889	9148.39
784.223	9116.98
784.557	8999.24
784.89	9071.78
785.224	9015.06
785.557	9001.27
785.891	9018.68
786.224	8919.69
786.558	8954.5
786.891	8895.51
787.224	8847.38
787.557	8796.31
787.891	8804.67
788.224	8838.12
788.557	8771.45
788.89	8725.58
789.223	8714.28
789.556	8693.49
789.888	8625.69
790.221	8606.93
790.554	8539.59
790.887	8562.64
791.219	8561.96
791.552	8508.63
791.884	8476.54
792.217	8434.06
792.549	8406.94
792.882	8385.7
793.214	8291.24
793.546	8376.88
793.879	8267.28
794.211	8197.68
794.543	8234.97
794.875	8190.22
795.207	8235.42
795.539	8116.33
795.871	8149.09
796.203	8124.24
796.535	8022.54
796.867	8068.87
797.198	8039.72
797.53	8049.89
797.862	7966.27
798.193	7947.74
798.525	7872.26
798.856	7927.86
799.188	7866.84
799.519	7809.67
799.85	7726.51
800.182	7775.32
800.513	7782.1
800.844	7710.01
801.175	7685.83
801.506	7696.22
801.837	7681.76
802.168	7657.58
802.499	7574.87
802.83	7605.15
803.161	7513.18
803.491	7559.73
803.822	7526.51
804.153	7476.79
804.483	7389.34
804.814	7386.4
805.145	7432.73
805.475	7352.96
805.805	7326.06
806.136	7302.11
806.466	7274.09
806.796	7320.87
807.126	7220.08
807.457	7245.39
807.787	7194.09
808.117	7091.27
808.447	7119.06
808.777	7116.35
809.107	7154.09
809.436	7099.86
809.766	7099.86
810.096	7058.27
810.426	6995.45
810.755	7004.04
811.085	6959.97
811.414	6938.5
811.744	6956.36
812.073	6973.98
812.403	6882.01
812.732	6827.77
813.061	6858.96
813.39	6839.75
813.719	6759.07
814.049	6842.69
814.378	6777.6
814.707	6764.5
815.036	6741.9
815.365	6764.27
815.693	6595.46
816.022	6615.57
816.351	6645.86
816.68	6595.01
817.008	6578.74
817.337	6589.36
817.665	6504.84
817.994	6570.83
818.322	6566.99
818.651	6471.85
818.979	6425.52
819.307	6499.87
819.636	6451.96
819.964	6427.78
820.292	6421
820.62	6360.89
820.948	6484.96
821.276	6442.47
821.604	6399.31
821.932	6366.99
822.259	6398.63
822.587	6410.61
822.915	6363.83
823.243	6400.67
823.57	6368.35
823.898	6409.03
824.225	6381.68
824.553	6292.87
824.88	6365.86
825.207	6364.51
825.535	6342.81
825.862	6351.17
826.189	6418.74
826.516	6398.86
826.843	6448.8
827.17	6389.59
827.497	6350.5
827.824	6380.78
828.151	6380.78
828.478	6382.59
828.805	6399.08
829.131	6362.93
829.458	6303.72
829.785	6343.94
830.111	6348.46
830.438	6405.18
830.764	6341.01
831.09	6386.43
831.417	6331.74
831.743	6351.17
832.069	6351.85
832.395	6345.3
832.722	6323.38
833.048	6335.58
833.374	6285.19
833.7	6273.89
834.026	6318.18
834.351	6321.12
834.677	6301.46
835.003	6304.85
835.329	6331.06
835.654	6289.26
835.98	6323.83
836.306	6270.95
836.631	6214.46
836.956	6265.75
837.282	6277.96
837.607	6238.41
837.932	6256.04
838.258	6294.23
838.583	6201.8
838.908	6181.91
839.233	6221.23
839.558	6203.83
839.883	6170.16
840.208	6193.89
840.533	6126.1
840.858	6215.81
841.182	6200.9
841.507	6168.35
841.832	6140.56
842.156	6125.87
842.481	6119.32
842.805	6116.15
843.13	6110.73
843.454	6088.58
843.778	6058.08
844.103	6027.79
844.427	6049.49
844.751	5995.93
845.075	6012.88
845.399	6016.27
845.723	6002.71
846.047	6014.91
846.371	5992.09
846.695	6018.75
847.019	5937.63
847.343	5896.27
847.666	5891.07
847.99	5890.17
848.313	5851.53
848.637	5802.71
848.96	5785.54
849.284	5795.26
849.607	5733.11
849.931	5753.68
850.254	5712.77
850.577	5709.38
850.9	5593.91
851.223	5622.38
851.546	5611.08
851.869	5628.26
852.192	5615.83
852.515	5588.48
852.838	5600.01
853.161	5563.17
853.483	5541.48
853.806	5521.59
854.129	5494.7
854.451	5490.18
854.774	5487.69
855.096	5509.16
855.419	5434.59
855.741	5435.72
856.063	5387.36
856.385	5399.56
856.708	5384.42
857.03	5381.93
857.352	5417.64
857.674	5381.93
857.996	5331.77
858.318	5327.47
858.64	5353.01
858.961	5311.2
859.283	5358.88
859.605	5262.84
859.926	5275.72
860.248	5266.23
860.57	5261.49
860.891	5207.93
861.212	5239.11
861.534	5194.37
861.855	5230.75
862.176	5221.71
862.498	5180.58
862.819	5204.54
863.14	5216.52
863.461	5180.81
863.782	5198.89
864.103	5143.97
864.424	5171.09
864.745	5214.26
865.065	5135.39
865.386	5089.97
865.707	5087.93
866.027	5119.79
866.348	5083.19
866.668	5084.99
866.989	5123.41
867.309	5082.96
867.63	5063.53
867.95	5034.6
868.27	5013.81
868.59	5034.37
868.91	5052.45
869.23	5064.2
869.55	5015.39
869.87	5062.62
870.19	4986.46
870.51	5030.31
870.83	5024.88
871.15	4944.88
871.469	4939.91
871.789	4955.96
872.109	4992.57
872.428	4911.89
872.748	4966.58
873.067	4965.22
873.386	4945.11
873.706	4956.64
874.025	4877.77
874.344	4889.74
874.663	4890.65
874.982	4940.82
875.301	4905.34
875.62	4852.23
875.939	4876.64
876.258	4874.38
876.577	4854.27
876.896	4806.58
877.214	4824.44
877.533	4843.87
877.852	4826.02
878.17	4825.34
878.489	4869.63
878.807	4821.05
879.125	4790.31
879.444	4791.89
879.762	4802.51
880.08	4748.28
880.398	4770.88
880.716	4752.12
881.034	4758.22
881.352	4771.33
881.67	4743.08
881.988	4699.47
882.306	4738.34
882.624	4668.51
882.941	4683.42
883.259	4659.24
883.577	4634.84
883.894	4659.92
884.212	4638
884.529	4654.5
884.846	4636.42
885.164	4610.66
885.481	4574.05
885.798	4596.19
886.115	4539.92
886.432	4570.43
886.75	4574.5
887.067	4533.37
887.383	4497.89
887.7	4530.43
888.017	4514.39
888.334	4464.67
888.651	4515.29
888.967	4460.6
889.284	4423.09
889.6	4436.2
889.917	4419.25
890.233	4406.37
890.55	4421.51
890.866	4378.8
891.182	4373.83
891.498	4333.83
891.815	4328.63
892.131	4357.78
892.447	4355.3
892.763	4328.63
893.079	4288.63
893.395	4286.6
893.71	4284.79
894.026	4212.7
894.342	4223.1
894.657	4159.82
894.973	4176.32
895.289	4164.79
895.604	4150.78
895.92	4125.24
896.235	4132.02
896.55	4191.68
896.865	4115.53
897.181	4095.87
897.496	4090.22
897.811	4054.06
898.126	4090.44
898.441	4064.23
898.756	3993.27
899.071	4024.23
899.386	4039.6
899.7	3981.07
900.015	3944.46
900.33	3920.5
900.644	3932.71
900.959	3962.99
901.273	3901.3
901.588	3869.21
901.902	3885.93
902.216	3845.03
902.531	3867.62
902.845	3837.79
903.159	3798.7
903.473	3836.21
903.787	3784.69
904.101	3729.77
904.415	3753.95
904.729	3722.09
905.042	3715.76
905.356	3721.41
905.67	3678.48
905.984	3686.61
906.297	3682.54
906.611	3650.23
906.924	3677.57
907.237	3626.5
907.551	3629.89
907.864	3598.7
908.177	3574.52
908.491	3583.11
908.804	3520.29
909.117	3526.16
909.43	3548.31
909.743	3486.84
910.056	3465.6
910.368	3496.79
910.681	3484.13
910.994	3475.09
911.307	3459.95
911.619	3414.98
911.932	3417.47
912.244	3399.84
912.557	3397.35
912.869	3396
913.181	3381.31
913.494	3384.7
913.806	3334.76
914.118	3345.6
914.43	3321.65
914.742	3295.66
915.054	3297.7
915.366	3283.46
915.678	3279.39
915.99	3233.52
916.302	3221.31
916.613	3234.42
916.925	3215.89
917.236	3204.59
917.548	3179.73
917.859	3183.35
918.171	3220.64
918.482	3139.96
918.794	3100.41
919.105	3126.85
919.416	3119.62
919.727	3100.41
920.038	3096.57
920.349	3096.57
920.66	3062.45
920.971	3063.13
921.282	3057.93
921.593	3027.19
921.903	3012.96
922.214	3026.29
922.525	2969.57
922.835	2965.5
923.146	2960.3
923.456	2979.29
923.767	2947.87
924.077	2987.65
924.387	2936.12
924.697	2899.51
925.008	2921.43
925.318	2877.37
925.628	2891.15
925.938	2886.63
926.248	2867.42
926.558	2858.84
926.867	2843.47
927.177	2805.96
927.487	2798.27
927.796	2753.08
928.106	2769.57
928.416	2758.95
928.725	2745.85
929.034	2758.5
929.344	2763.7
929.653	2757.15
929.962	2690.25
930.271	2701.33
930.581	2707.88
930.89	2699.07
931.199	2636.7
931.508	2681.21
931.817	2653.42
932.125	2613.87
932.434	2614.1
932.743	2617.94
933.051	2571.84
933.36	2600.09
933.669	2587.43
933.977	2598.05
934.286	2589.01
934.594	2580.43
934.902	2571.61
935.21	2573.65
935.519	2519.41
935.827	2541.33
936.135	2534.1
936.443	2498.62
936.751	2465.63
937.059	2500.88
937.367	2498.62
937.674	2495.23
937.982	2442.13
938.29	2428.11
938.597	2450.71
938.905	2386.31
939.213	2417.04
939.52	2428.34
939.827	2419.98
940.135	2396.02
940.442	2388.12
940.749	2401.45
941.056	2390.83
941.363	2325.29
941.67	2367.32
941.977	2328.23
942.284	2329.59
942.591	2330.94
942.898	2318.06
943.205	2310.15
943.511	2332.52
943.818	2315.8
944.125	2291.62
944.431	2313.99
944.738	2279.42
945.044	2257.72
945.35	2281
945.657	2263.37
945.963	2271.51
946.269	2232.19
946.575	2241.68
946.881	2210.49
947.187	2245.07
947.493	2215.24
947.799	2213.2
948.105	2140.21
948.41	2168.91
948.716	2151.74
949.022	2149.03
949.327	2171.62
949.633	2132.3
949.938	2146.54
950.244	2151.74
950.549	2103.6
950.854	2126.65
951.16	2090.95
951.465	2083.49
951.77	2108.12
952.075	2102.7
952.38	2094.34
952.685	2074.9
952.99	2078.29
953.294	2074.23
953.599	2070.16
953.904	2046.43
954.209	2045.07
954.513	2045.75
954.818	2013.21
955.122	1984.96
955.426	1988.35
955.731	2017.96
956.035	1975.7
956.339	1971.18
956.643	1989.93
956.948	1963.49
957.252	1950.61
957.556	1940.9
957.86	1940.22
958.163	1951.52
958.467	1949.48
958.771	1909.71
959.075	1947.67
959.378	1925.75
959.682	1935.92
959.985	1918.07
960.289	1896.38
960.592	1900.44
960.896	1889.15
961.199	1872.65
961.502	1862.93
961.805	1852.76
962.108	1847.79
962.411	1868.81
962.714	1842.59
963.017	1815.7
963.32	1806.21
963.623	1802.14
963.926	1804.63
964.228	1815.02
964.531	1783.84
964.833	1776.83
965.136	1767.34
965.438	1763.5
965.741	1779.32
966.043	1761.69
966.345	1770.05
966.648	1749.49
966.95	1774.57
967.252	1740.9
967.554	1743.84
967.856	1714.69
968.158	1713.1
968.46	1722.82
968.761	1684.18
969.063	1679.21
969.365	1723.73
969.666	1705.87
969.968	1670.85
970.269	1702.48
970.571	1671.3
970.872	1658.19
971.174	1663.61
971.475	1640.11
971.776	1622.94
972.077	1638.53
972.378	1653.22
972.679	1622.49
972.98	1616.61
973.281	1606.44
973.582	1595.82
973.883	1627.46
974.183	1624.75
974.484	1575.93
974.785	1584.97
975.085	1589.04
975.386	1580.45
975.686	1568.93
975.986	1597.85
976.287	1582.49
976.587	1558.76
976.887	1544.07
977.187	1561.47
977.487	1516.05
977.787	1552.66
978.087	1557.63
978.387	1522.38
978.687	1528.48
978.987	1525.09
979.286	1535.93
979.586	1503.62
979.885	1488.7
980.185	1463.17
980.484	1485.31
980.784	1476.05
981.083	1497.07
981.382	1485.31
981.682	1475.37
981.981	1474.01
982.28	1448.48
982.579	1456.16
982.878	1458.42
983.177	1422.26
983.475	1415.26
983.774	1426.33
984.073	1425.43
984.372	1412.55
984.67	1398.76
984.969	1388.14
985.267	1393.79
985.566	1399.89
985.864	1403.06
986.162	1393.57
986.461	1388.82
986.759	1370.51
987.057	1331.42
987.355	1339.78
987.653	1366
987.951	1330.74
988.249	1339.1
988.547	1316.28
988.844	1335.94
989.142	1332.78
989.44	1313.79
989.737	1313.57
990.035	1299.33
990.332	1286.9
990.63	1301.82
990.927	1283.74
991.224	1281.03
991.521	1289.39
991.819	1281.7
992.116	1266.79
992.413	1278.31
992.71	1253.23
993.006	1258.2
993.303	1235.83
993.6	1235.6
993.897	1235.6
994.193	1259.33
994.49	1215.72
994.787	1240.57
995.083	1183.85
995.379	1198.99
995.676	1216.39
995.972	1227.02
996.268	1182.27
996.565	1191.99
996.861	1201.25
997.157	1187.47
997.453	1152.44
997.749	1138.66
998.044	1131.65
998.34	1159.67
998.636	1149.73
998.932	1150.18
999.227	1144.08
999.523	1133.23
999.818	1145.89
1000.114	1093.46
1000.409	1129.62
1000.704	1105.21
1001	1077.64
1001.295	1099.34
1001.59	1083.97
1001.885	1085.32
1002.18	1052.56
1002.475	1075.16
1002.77	1078.55
1003.065	1083.06
1003.359	1058.66
1003.654	1089.62
1003.949	1039
1004.243	1048.49
1004.538	1039
1004.832	1050.07
1005.127	1038.55
1005.421	1024.31
1005.715	1033.12
1006.009	1023.18
1006.304	1023.63
1006.598	1003.97
1006.892	1015.72
1007.186	1010.3
1007.48	1001.26
1007.773	991.32
1008.067	1000.36
1008.361	1003.97
1008.655	983.86
1008.948	954.03
1009.242	978.66
1009.535	960.81
1009.829	970.75
1010.122	946.35
1010.415	950.41
1010.708	973.92
1011.001	945.67
1011.295	925.55
1011.588	915.84
1011.881	916.97
1012.173	907.48
1012.466	903.18
1012.759	903.41
1013.052	898.89
1013.344	896.63
1013.637	892.11
1013.93	894.14
1014.222	878.32
1014.514	872.9
1014.807	886.91
1015.099	860.92
1015.391	852.34
1015.683	846.69
1015.976	861.6
1016.268	872.45
1016.56	867.7
1016.851	867.03
1017.143	851.66
1017.435	845.1
1017.727	829.96
1018.018	832.9
1018.31	807.59
1018.602	824.54
1018.893	806.91
1019.185	822.73
1019.476	813.24
1019.767	812.56
1020.058	808.27
1020.35	807.59
1020.641	792.22
1020.932	779.57
1021.223	763.07
1021.514	792.68
1021.804	780.02
1022.095	779.34
1022.386	759.23
1022.677	755.62
1022.967	752
1023.258	733.24
1023.548	746.35
1023.839	758.1
1024.129	759.46
1024.419	747.03
1024.709	713.81
1025	740.47
1025.29	730.76
1025.58	721.27
1025.87	697.09
1026.16	683.75
1026.449	693.47
1026.739	716.75
1027.029	701.61
1027.319	698.22
1027.608	711.32
1027.898	721.49
1028.187	703.87
1028.477	688.95
1028.766	675.84
1029.055	680.36
1029.344	684.21
1029.634	662.51
1029.923	684.66
1030.212	674.26
1030.501	666.8
1030.79	674.26
1031.078	659.57
1031.367	645.11
1031.656	642.85
1031.945	648.05
1032.233	641.95
1032.522	662.74
1032.81	644.88
1033.099	624.55
1033.387	636.75
1033.675	606.47
1033.963	626.13
1034.251	631.55
1034.54	593.36
1034.828	622.29
1035.116	609.4
1035.403	602.63
1035.691	588.39
1035.979	594.26
1036.267	600.59
1036.554	601.72
1036.842	596.98
1037.129	597.65
1037.417	576.19
1037.704	622.96
1037.992	593.36
1038.279	595.17
1038.566	599.01
1038.853	599.01
1039.14	599.01
