Data from foam1_polythene_foam_FLMS001491_00003.txt Node
Date: Wed Feb 08 10:54:17 GMT 2017
User: dcchb
Spectrometer: FLMS00149
Trigger mode: 0
Integration Time (sec): 2.000000E-2
Scans to average: 10
Electric dark correction enabled: true
Nonlinearity correction enabled: false
Boxcar width: 0
XAxis mode: Wavelengths
Number of Pixels in Spectrum: 2048
>>>>>Begin Spectral Data<<<<<
341.393	-4.53
341.776	-4.53
342.16	-4.53
342.543	-56.28
342.927	-57.19
343.31	-56.06
343.693	-69.16
344.077	-53.57
344.46	-61.93
344.843	-59.67
345.226	-51.09
345.61	-51.99
345.993	-11.99
346.376	13.77
346.759	10.61
347.142	27.33
347.525	32.98
347.908	58.74
348.291	70.04
348.674	87.44
349.057	114.56
349.44	125.41
349.823	144.39
350.206	142.81
350.588	185.07
350.971	198.4
351.354	214.44
351.737	194.33
352.119	235.01
352.502	238.85
352.884	253.76
353.267	250.15
353.65	273.43
354.032	282.69
354.414	296.93
354.797	315.91
355.179	302.8
355.562	302.58
355.944	316.36
356.326	331.73
356.709	311.39
357.091	321.33
357.473	348.45
357.855	333.08
358.238	321.56
358.62	312.29
359.002	323.37
359.384	309.58
359.766	301.45
360.148	324.95
360.53	317.49
360.912	324.72
361.294	327.21
361.676	303.25
362.057	312.75
362.439	303.03
362.821	293.76
363.203	316.59
363.584	322.24
363.966	309.58
364.348	289.47
364.729	314.78
365.111	321.79
365.493	297.61
365.874	298.51
366.256	309.81
366.637	296.02
367.019	294.89
367.4	287.89
367.781	282.01
368.163	279.07
368.544	288.34
368.925	298.28
369.306	289.7
369.688	296.7
370.069	279.3
370.45	286.98
370.831	289.7
371.212	293.54
371.593	295.12
371.974	283.37
372.355	295.35
372.736	292.18
373.117	278.85
373.498	295.8
373.879	298.06
374.26	311.16
374.641	292.86
375.021	299.64
375.402	320.66
375.783	265.29
376.163	301.67
376.544	291.28
376.925	303.93
377.305	293.54
377.686	285.18
378.066	310.03
378.447	302.12
378.827	303.03
379.208	288.79
379.588	323.14
379.968	331.95
380.349	298.96
380.729	310.26
381.109	293.31
381.489	318.85
381.87	308
382.25	304.84
382.63	311.39
383.01	335.34
383.39	311.84
383.77	307.55
384.15	325.63
384.53	319.98
384.91	322.01
385.29	340.32
385.67	314.33
386.049	319.53
386.429	333.54
386.809	330.15
387.189	327.21
387.568	317.04
387.948	327.66
388.328	335.12
388.707	334.44
389.087	329.02
389.466	332.18
389.846	324.72
390.225	336.93
390.605	351.62
390.984	326.3
391.363	312.29
391.743	331.28
392.122	333.54
392.501	338.51
392.881	350.03
393.26	355
393.639	332.63
394.018	335.8
394.397	329.02
394.776	348.68
395.155	340.54
395.534	358.17
395.913	333.08
396.292	368.34
396.671	363.37
397.05	356.13
397.429	358.17
397.808	349.36
398.186	353.42
398.565	371.05
398.944	360.43
399.323	353.87
399.701	368.34
400.08	370.37
400.458	392.52
400.837	354.1
401.215	375.57
401.594	372.86
401.972	364.04
402.351	368.34
402.729	404.95
403.107	370.15
403.486	377.38
403.864	385.06
404.242	370.6
404.62	377.83
404.999	385.96
405.377	387.55
405.755	392.74
406.133	390.26
406.511	386.19
406.889	388.22
407.267	380.99
407.645	394.33
408.023	374.89
408.401	402.91
408.779	398.17
409.156	410.37
409.534	380.09
409.912	414.89
410.29	408.34
410.667	405.17
411.045	426.87
411.422	428.45
411.8	427.32
412.178	383.48
412.555	421.44
412.933	415.57
413.31	423.7
413.687	414.89
414.065	430.48
414.442	422.57
414.819	425.96
415.197	416.47
415.574	448.34
415.951	416.47
416.328	428.45
416.705	442.46
417.082	444.72
417.46	438.39
417.837	434.32
418.214	438.62
418.591	429.35
418.967	463.25
419.344	442.91
419.721	480.43
420.098	474.32
420.475	446.3
420.852	467.32
421.228	461.22
421.605	445.85
421.982	457.83
422.358	450.82
422.735	481.33
423.111	478.62
423.488	466.19
423.864	482.46
424.241	463.93
424.617	481.78
424.994	485.62
425.37	510.25
425.746	482.46
426.123	509.58
426.499	508
426.875	491.5
427.251	519.07
427.627	534.66
428.003	515.45
428.379	499.41
428.756	534.21
429.132	530.82
429.507	546.19
429.883	543.93
430.259	517.71
430.635	537.6
431.011	537.37
431.387	532.18
431.763	542.57
432.138	565.39
432.514	554.55
432.89	549.12
433.265	595.45
433.641	559.97
434.016	575.34
434.392	580.08
434.767	575.11
435.143	569.69
435.518	580.54
435.894	617.6
436.269	587.77
436.644	608.33
437.02	617.14
437.395	603.13
437.77	631.38
438.145	651.72
438.52	630.7
438.895	632.96
439.271	649.46
439.646	677.71
440.021	631.61
440.395	659.63
440.77	664.38
441.145	672.96
441.52	672.96
441.895	657.37
442.27	687.2
442.645	684.49
443.019	686.97
443.394	697.37
443.769	731.49
444.143	687.2
444.518	712.96
444.892	706.86
445.267	707.99
445.641	722.45
446.016	725.62
446.39	733.07
446.764	755.9
447.139	742.57
447.513	750.47
447.887	771.27
448.262	746.41
448.636	774.2
449.01	773.3
449.384	788.67
449.758	770.59
450.132	798.16
450.506	788.67
450.88	785.95
451.254	796.8
451.628	768.78
452.002	812.39
452.376	803.58
452.75	806.29
453.123	821.66
453.497	806.07
453.871	837.25
454.244	832.96
454.618	859.17
454.992	866.63
455.365	849.68
455.739	860.53
456.112	869.79
456.486	870.92
456.859	875.44
457.232	864.14
457.606	890.36
457.979	886.97
458.352	865.27
458.725	900.08
459.099	904.14
459.472	901.43
459.845	912.28
460.218	926.97
460.591	908.66
460.964	921.77
461.337	936.01
461.71	912.5
462.083	940.98
462.456	947.53
462.829	937.36
463.201	973.75
463.574	937.59
463.947	971.94
464.32	973.75
464.692	971.94
465.065	1029.34
465.438	987.08
465.81	1019.85
466.183	1013.74
466.555	1000.19
466.928	1019.17
467.3	1015.33
467.672	1037.47
468.045	1064.59
468.417	1038.15
468.789	1061.43
469.161	1084.48
469.534	1112.5
469.906	1111.37
470.278	1129.45
470.65	1098.71
471.022	1122.89
471.394	1142.55
471.766	1159.05
472.138	1141.65
472.51	1158.15
472.882	1169.9
473.253	1178.94
473.625	1213.06
473.997	1236.34
474.369	1226.62
474.74	1231.82
475.112	1235.21
475.484	1306.17
475.855	1274.08
476.227	1293.06
476.598	1322.89
476.97	1313.17
477.341	1339.39
477.713	1360.4
478.084	1345.49
478.455	1401.08
478.827	1404.24
479.198	1431.81
479.569	1409.44
479.94	1463
480.311	1487.4
480.682	1505.93
481.053	1537.8
481.424	1538.93
481.795	1577.8
482.166	1568.53
482.537	1590
482.908	1640.62
483.279	1615.31
483.65	1638.59
484.021	1714.74
484.391	1696.44
484.762	1705.03
485.133	1717
485.503	1745.93
485.874	1792.71
486.244	1806.49
486.615	1834.51
486.985	1825.7
487.356	1858.24
487.726	1891.91
488.097	1903.89
488.467	1911.57
488.837	1924.91
489.207	1971.01
489.578	1963.55
489.948	1999.26
490.318	2047.16
490.688	2053.49
491.058	2094.17
491.428	2079.93
491.798	2128.29
492.168	2157.44
492.538	2118.35
492.908	2153.38
493.278	2199.48
493.648	2225.92
494.017	2239.25
494.387	2260.49
494.757	2288.06
495.126	2311.11
495.496	2306.82
495.866	2346.36
496.235	2337.33
496.605	2377.1
496.974	2438.57
497.344	2425.23
497.713	2436.31
498.082	2427.49
498.452	2446.02
498.821	2477.89
499.19	2491.9
499.559	2473.14
499.928	2505.23
500.298	2519.47
500.667	2545.23
501.036	2545.91
501.405	2563.76
501.774	2598.56
502.143	2630.65
502.512	2617.09
502.88	2626.81
503.249	2653.7
503.618	2667.94
503.987	2681.72
504.356	2725.11
504.724	2708.62
505.093	2750.87
505.462	2747.48
505.83	2771.21
506.199	2744.77
506.567	2843.07
506.936	2845.79
507.304	2858.22
507.672	2908.61
508.041	2907.03
508.409	2908.61
508.777	2912
509.145	2912.68
509.514	2959.23
509.882	2993.13
510.25	2978.44
510.618	2973.69
510.986	3029.96
511.354	3062.28
511.722	3062.05
512.09	3106.34
512.458	3111.09
512.826	3132.78
513.193	3143.18
513.561	3179.56
513.929	3215.72
514.297	3213.91
514.664	3274.48
515.032	3239
515.4	3240.8
515.767	3289.16
516.135	3346.79
516.502	3309.73
516.869	3371.65
517.237	3360.35
517.604	3393.12
517.972	3407.35
518.339	3422.27
518.706	3469.05
519.073	3509.5
519.44	3482.38
519.808	3572.77
520.175	3515.15
520.542	3576.16
520.909	3620.68
521.276	3611.64
521.643	3647.35
522.009	3683.96
522.376	3766.21
522.743	3734.35
523.11	3780.23
523.477	3766.21
523.843	3762.15
524.21	3845.76
524.577	3869.26
524.943	3865.19
525.31	3916.04
525.676	3977.73
526.043	3982.03
526.409	3993.33
526.776	4062.93
527.142	4035.81
527.508	4073.78
527.874	4073.1
528.241	4122.82
528.607	4134.11
528.973	4176.83
529.339	4186.09
529.705	4243.49
530.071	4311.96
530.437	4288.46
530.803	4306.31
531.169	4314.67
531.535	4298.4
531.901	4333.43
532.267	4386.54
532.632	4439.87
532.998	4407.33
533.364	4471.28
533.73	4469.25
534.095	4504.73
534.461	4546.53
534.826	4579.75
535.192	4518.96
535.557	4544.27
535.923	4557.61
536.288	4586.98
536.653	4677.83
537.019	4647.1
537.384	4632.86
537.749	4729.13
538.114	4703.82
538.479	4678.73
538.845	4726.87
539.21	4712.4
539.575	4718.73
539.94	4728.68
540.305	4777.49
540.67	4803.25
541.034	4814.32
541.399	4866.75
541.764	4890.03
542.129	4841.44
542.494	4902.46
542.858	4906.07
543.223	4929.57
543.587	4940.19
543.952	4928.9
544.316	4972.96
544.681	4955.34
545.045	5014.77
545.41	4953.98
545.774	4985.62
546.138	5052.96
546.503	5090.02
546.867	5071.72
547.231	5153.07
547.595	5124.82
547.959	5171.6
548.324	5184.71
548.688	5196.46
549.052	5169.12
549.416	5195.33
549.779	5196.01
550.143	5264.25
550.507	5266.51
550.871	5266.29
551.235	5276.01
551.599	5300.64
551.962	5332.28
552.326	5353.74
552.689	5414.98
553.053	5398.49
553.417	5431.03
553.78	5482.55
554.143	5513.06
554.507	5492.04
554.87	5487.3
555.234	5557.35
555.597	5519.61
555.96	5568.43
556.323	5578.82
556.686	5659.95
557.05	5619.73
557.413	5661.31
557.776	5677.35
558.139	5690.23
558.502	5660.4
558.865	5751.25
559.228	5755.99
559.59	5841.19
559.953	5795.77
560.316	5858.59
560.679	5872.15
561.041	5913.95
561.404	5976.55
561.767	5957.8
562.129	5935.2
562.492	6061.52
562.854	6004.35
563.217	6035.31
563.579	6066.49
563.941	6102.42
564.304	6096.55
564.666	6200.05
565.028	6137.23
565.39	6194.63
565.753	6224
566.115	6276.66
566.477	6249.09
566.839	6340.16
567.201	6352.36
567.563	6369.31
567.925	6425.13
568.287	6419.93
568.648	6442.3
569.01	6457.67
569.372	6497.22
569.734	6479.36
570.095	6522.98
570.457	6534.73
570.819	6526.14
571.18	6576.54
571.542	6626.93
571.903	6663.99
572.265	6668.29
572.626	6636.2
572.987	6686.14
573.349	6689.3
573.71	6738.11
574.071	6755.06
574.432	6774.05
574.794	6747.61
575.155	6750.99
575.516	6801.84
575.877	6793.71
576.238	6891.56
576.599	6848.62
576.96	6841.61
577.32	6875.51
577.681	6842.07
578.042	6893.82
578.403	6890.43
578.763	6907.37
579.124	6934.94
579.485	6959.12
579.845	6922.06
580.206	6936.53
580.566	6981.95
580.927	6994.83
581.287	7028.5
581.648	6994.15
582.008	7020.82
582.368	7030.31
582.728	7034.6
583.089	7005.68
583.449	6992.34
583.809	7007.49
584.169	7009.75
584.529	7027.6
584.889	7051.33
585.249	7012.23
585.609	7021.27
585.969	7087.26
586.329	7034.15
586.688	7054.26
587.048	6989.41
587.408	7021.95
587.768	7057.88
588.127	6996.86
588.487	7077.31
588.846	7092.91
589.206	6942.63
589.565	7072.57
589.925	7037.09
590.284	7077.09
590.643	7124.77
591.003	7087.26
591.362	7129.52
591.721	7069.86
592.08	7038.67
592.44	7100.59
592.799	7055.39
593.158	7122.96
593.517	7078.9
593.876	7059.24
594.235	7064.21
594.593	7048.16
594.952	7125.22
595.311	7111.44
595.67	7092
596.029	7142.85
596.387	7127.03
596.746	7144.2
597.104	7097.43
597.463	7085.9
597.822	7151.44
598.18	7078.22
598.538	7088.16
598.897	7110.08
599.255	7148.05
599.613	7183.53
599.972	7155.96
600.33	7108.73
600.688	7101.49
601.046	7133.36
601.404	7238.44
601.762	7163.64
602.12	7247.48
602.478	7123.64
602.836	7138.56
603.194	7184.88
603.552	7187.82
603.91	7122.74
604.268	7165
604.625	7168.16
604.983	7236.41
605.341	7144.43
605.698	7207.25
606.056	7238.21
606.413	7228.5
606.771	7173.13
607.128	7195.28
607.485	7204.09
607.843	7214.26
608.2	7309.4
608.557	7236.86
608.914	7211.77
609.272	7227.59
609.629	7263.07
609.986	7347.14
610.343	7282.73
610.7	7332.22
611.057	7319.57
611.414	7313.01
611.771	7301.71
612.127	7312.56
612.484	7332.67
612.841	7371.54
613.198	7363.41
613.554	7259
613.911	7382.62
614.267	7406.57
614.624	7318.21
614.98	7404.76
615.337	7411.99
615.693	7441.37
616.05	7405.44
616.406	7402.28
616.762	7363.86
617.118	7333.8
617.475	7360.47
617.831	7446.12
618.187	7408.83
618.543	7428.27
618.899	7433.24
619.255	7488.38
619.611	7406.34
619.967	7437.53
620.323	7447.02
620.678	7445.67
621.034	7386.46
621.39	7414.25
621.746	7329.96
622.101	7425.78
622.457	7391.2
622.812	7490.18
623.168	7433.69
623.523	7535.61
623.879	7500.81
624.234	7461.94
624.589	7495.83
624.945	7464.65
625.3	7456.51
625.655	7384.88
626.01	7436.4
626.365	7452.67
626.72	7379.23
627.075	7492.44
627.43	7375.61
627.785	7379.68
628.14	7427.14
628.495	7373.13
628.85	7401.6
629.205	7403.18
629.559	7430.98
629.914	7365.89
630.269	7427.36
630.623	7356.18
630.978	7310.53
631.332	7425.33
631.687	7361.6
632.041	7372.45
632.396	7357.31
632.75	7308.04
633.104	7303.52
633.459	7302.84
633.813	7267.59
634.167	7267.59
634.521	7269.4
634.875	7223.98
635.229	7268.95
635.583	7313.01
635.937	7241.38
636.291	7253.58
636.645	7233.24
636.999	7223.52
637.352	7201.83
637.706	7161.61
638.06	7174.94
638.413	7085.9
638.767	7146.01
639.121	7174.94
639.474	7130.87
639.828	7114.6
640.181	7141.04
640.534	7193.02
640.888	7134.26
641.241	7128.39
641.594	7148.27
641.947	7099.46
642.301	7076.18
642.654	7051.55
643.007	6955.51
643.36	7015.85
643.713	6969.29
644.066	7014.26
644.419	6986.02
644.771	6947.6
645.124	6923.65
645.477	6897.43
645.83	6804.78
646.182	6829.64
646.535	6788.06
646.888	6860.6
647.24	6829.18
647.593	6813.82
647.945	6798.68
648.298	6817.89
648.65	6723.42
649.002	6671.67
649.355	6714.16
649.707	6661.73
650.059	6690.88
650.411	6767.04
650.763	6792.58
651.115	6837.77
651.467	6831.22
651.819	6840.26
652.171	6875.51
652.523	6878.22
652.875	6831.9
653.227	6851.11
653.578	6829.86
653.93	6781.95
654.282	6773.82
654.633	6703.09
654.985	6678.45
655.337	6758.45
655.688	6742.63
656.039	6759.81
656.391	6658.12
656.742	6715.06
657.094	6747.38
657.445	6746.93
657.796	6768.62
658.147	6695.18
658.498	6685.01
658.849	6702.41
659.2	6701.5
659.551	6743.31
659.902	6678.68
660.253	6674.39
660.604	6661.05
660.955	6606.14
661.306	6636.87
661.656	6655.63
662.007	6631
662.358	6657.89
662.708	6579.02
663.059	6571.79
663.409	6575.63
663.76	6635.52
664.11	6560.94
664.461	6596.65
664.811	6615.86
665.161	6547.16
665.511	6573.82
665.862	6648.85
666.212	6663.99
666.562	6637.55
666.912	6626.93
667.262	6572.69
667.612	6555.29
667.962	6526.59
668.312	6545.58
668.662	6566.59
669.011	6593.48
669.361	6538.35
669.711	6596.2
670.06	6508.29
670.41	6546.71
670.76	6508.97
671.109	6562.75
671.459	6515.29
671.808	6597.55
672.157	6575.18
672.507	6484.79
672.856	6524.11
673.205	6520.49
673.554	6550.1
673.904	6483.88
674.253	6571.34
674.602	6487.95
674.951	6397.78
675.3	6382.42
675.649	6438.46
675.998	6430.78
676.346	6422.64
676.695	6464.22
677.044	6467.39
677.393	6462.64
677.741	6432.36
678.09	6430.55
678.438	6424.45
678.787	6471.23
679.135	6440.95
679.484	6435.75
679.832	6412.47
680.181	6418.8
680.529	6394.85
680.877	6367.95
681.225	6374.51
681.573	6334.51
681.922	6295.41
682.27	6299.93
682.618	6318.46
682.966	6313.72
683.314	6270.56
683.661	6300.61
684.009	6237.79
684.357	6244.12
684.705	6261.74
685.053	6231.23
685.4	6227.62
685.748	6247.05
686.095	6227.62
686.443	6215.64
686.79	6211.57
687.138	6223.33
687.485	6205.7
687.832	6159.6
688.18	6171.12
688.527	6028.3
688.874	6091.8
689.221	6059.04
689.568	6101.07
689.915	6044.35
690.262	6055.87
690.609	6002.54
690.956	5997.79
691.303	6022.88
691.65	5984.69
691.997	5990.34
692.344	5937.68
692.69	6020.17
693.037	6025.59
693.383	5926.61
693.73	5982.88
694.077	5921.64
694.423	5908.98
694.769	5883.67
695.116	5850.45
695.462	5858.14
695.808	5807.29
696.155	5829.44
696.501	5774.52
696.847	5745.15
697.193	5719.84
697.539	5718.03
697.885	5777.24
698.231	5715.77
698.577	5771.81
698.923	5713.96
699.269	5714.19
699.614	5703.79
699.96	5682.1
700.306	5708.76
700.651	5680.06
700.997	5651.36
701.342	5597.58
701.688	5581.08
702.033	5587.41
702.379	5561.87
702.724	5497.69
703.069	5531.14
703.415	5421.54
703.76	5447.07
704.105	5447.3
704.45	5452.95
704.795	5459.73
705.14	5419.28
705.485	5468.99
705.83	5399.84
706.175	5454.53
706.52	5464.47
706.865	5405.95
707.209	5380.64
707.554	5370.24
707.899	5372.73
708.243	5417.24
708.588	5327.98
708.932	5253.86
709.277	5287.3
709.621	5282.56
709.966	5199.17
710.31	5217.48
710.654	5190.36
710.998	5170.47
711.342	5186.06
711.687	5153.75
712.031	5147.42
712.375	5188.32
712.719	5208.21
713.063	5239.62
713.407	5254.54
713.75	5193.3
714.094	5164.82
714.438	5141.09
714.782	5157.82
715.125	5087.31
715.469	5089.57
715.812	5084.82
716.156	5073.3
716.499	5006.18
716.843	4983.36
717.186	5002.34
717.53	4947.88
717.873	5038.05
718.216	5010.7
718.559	4953.08
718.902	4967.09
719.246	4998.95
719.589	4988.1
719.932	4951.04
720.275	5006.41
720.617	5004.83
720.96	4984.26
721.303	5022.45
721.646	4972.06
721.989	4913.98
722.331	4983.81
722.674	4939.07
723.016	4918.05
723.359	4960.76
723.701	4861.1
724.044	4818.39
724.386	4819.29
724.729	4837.6
725.071	4800.54
725.413	4822.68
725.755	4843.7
726.097	4797.15
726.439	4779.3
726.782	4809.58
727.124	4784.94
727.465	4745.62
727.807	4815.23
728.149	4831.72
728.491	4834.21
728.833	4812.97
729.175	4808.45
729.516	4792.18
729.858	4765.51
730.199	4800.99
730.541	4772.97
730.882	4732.29
731.224	4729.81
731.565	4666.98
731.906	4696.59
732.248	4680.31
732.589	4640.77
732.93	4618.62
733.271	4692.74
733.612	4659.75
733.953	4672.63
734.294	4661.11
734.635	4693.42
734.976	4711.27
735.317	4671.05
735.658	4664.72
735.999	4645.51
736.339	4673.54
736.68	4675.12
737.021	4665.85
737.361	4612.97
737.702	4629.02
738.042	4639.86
738.383	4544.5
738.723	4537.27
739.063	4515.57
739.404	4532.52
739.744	4605.97
740.084	4526.19
740.424	4567.55
740.764	4487.55
741.104	4508.57
741.444	4492.98
741.784	4528.45
742.124	4543.14
742.464	4486.2
742.804	4517.61
743.143	4506.08
743.483	4533.65
743.823	4523.71
744.162	4498.62
744.502	4506.31
744.841	4490.94
745.181	4500.88
745.52	4451.85
745.86	4480.32
746.199	4407.78
746.538	4413.2
746.877	4412.98
747.216	4397.38
747.556	4351.51
747.895	4381.34
748.234	4348.57
748.573	4366.2
748.911	4363.03
749.25	4314.9
749.589	4333.43
749.928	4373.88
750.267	4365.29
750.605	4346.31
750.944	4354.45
751.283	4392.64
751.621	4375.01
751.96	4365.97
752.298	4333.43
752.636	4311.51
752.975	4313.09
753.313	4272.87
753.651	4293.43
753.989	4262.02
754.327	4270.83
754.666	4231.06
755.004	4204.62
755.342	4211.17
755.679	4194.45
756.017	4158.97
756.355	4128.69
756.693	4137.73
757.031	4165.75
757.368	4155.58
757.706	4133.21
758.044	4185.64
758.381	4139.31
758.719	4147.22
759.056	4117.84
759.394	4102.02
759.731	4139.76
760.068	4152.65
760.405	4108.13
760.743	4115.36
761.08	4123.95
761.417	4074.23
761.754	4101.12
762.091	4057.05
762.428	4052.53
762.765	3965.31
763.102	3963.5
763.438	3930.96
763.775	3920.33
764.112	3935.7
764.449	3948.58
764.785	3935.7
765.122	3875.82
765.458	3926.44
765.795	3891.63
766.131	3911.97
766.467	3898.87
766.804	3884.63
767.14	3874.69
767.476	3867.23
767.812	3820.45
768.148	3872.65
768.485	3814.12
768.821	3860.45
769.157	3847.57
769.492	3831.52
769.828	3818.87
770.164	3780.23
770.5	3728.02
770.836	3727.12
771.171	3712.43
771.507	3712.88
771.842	3662.04
772.178	3661.13
772.513	3640.12
772.849	3665.2
773.184	3650.51
773.519	3666.1
773.855	3657.97
774.19	3595.82
774.525	3615.71
774.86	3610.96
775.195	3599.67
775.53	3582.26
775.865	3591.3
776.2	3600.34
776.535	3554.69
776.87	3584.98
777.205	3572.1
777.539	3579.33
777.874	3557.18
778.209	3507.92
778.543	3511.53
778.878	3457.07
779.212	3496.62
779.547	3405.09
779.881	3416.62
780.215	3373.68
780.55	3410.97
780.884	3364.87
781.218	3403.06
781.552	3358.32
781.886	3340.91
782.22	3310.86
782.554	3323.74
782.888	3285.55
783.222	3263.63
783.556	3293.46
783.889	3353.8
784.223	3322.16
784.557	3322.84
784.89	3301.14
785.224	3342.72
785.557	3287.81
785.891	3257.53
786.224	3285.78
786.558	3224.53
786.891	3274.93
787.224	3202.16
787.557	3222.27
787.891	3226.79
788.224	3161.94
788.557	3131.43
788.89	3134.82
789.223	3120.13
789.556	3120.13
789.888	3090.53
790.221	3086.46
790.554	3052.56
790.887	3072.22
791.219	3064.54
791.552	3052.11
791.884	3038.78
792.217	3055.27
792.549	2996.52
792.882	3001.49
793.214	2983.41
793.546	3035.61
793.879	3051.88
794.211	3023.18
794.543	3086.23
794.875	3012.11
795.207	2995.61
795.539	2953.35
795.871	3002.17
796.203	2992.45
796.535	2922.39
796.867	2954.26
797.198	2937.54
797.53	2930.53
797.862	2867.71
798.193	2880.81
798.525	2865
798.856	2886.46
799.188	2820.48
799.519	2810.31
799.85	2814.6
800.182	2818.44
800.513	2797.43
800.844	2813.02
801.175	2820.7
801.506	2836.75
801.837	2820.48
802.168	2820.02
802.499	2810.53
802.83	2795.62
803.161	2824.54
803.491	2802.4
803.822	2815.28
804.153	2765.34
804.483	2780.93
804.814	2786.58
805.145	2765.56
805.475	2728.05
805.805	2733.25
806.136	2705.9
806.466	2688.73
806.796	2677.66
807.126	2652.8
807.457	2660.71
807.787	2645.34
808.117	2651.22
808.447	2658.67
808.777	2656.87
809.107	2625
809.436	2637.2
809.766	2632.01
810.096	2598.56
810.426	2608.5
810.755	2602.63
811.085	2650.76
811.414	2634.27
811.744	2626.81
812.073	2589.75
812.403	2642.63
812.732	2646.92
813.061	2613.93
813.39	2596.75
813.719	2589.97
814.049	2590.88
814.378	2602.4
814.707	2569.18
815.036	2581.16
815.365	2568.96
815.693	2535.06
816.022	2496.64
816.351	2523.54
816.68	2531.9
817.008	2516.3
817.337	2447.38
817.665	2470.43
817.994	2490.99
818.322	2502.97
818.651	2454.84
818.979	2427.04
819.307	2445.35
819.636	2476.3
819.964	2462.29
820.292	2462.75
820.62	2452.8
820.948	2471.56
821.276	2488.28
821.604	2480.82
821.932	2472.92
822.259	2458.23
822.587	2464.33
822.915	2467.27
823.243	2492.8
823.57	2509.3
823.898	2468.85
824.225	2501.62
824.553	2476.76
824.88	2457.55
825.207	2450.77
825.535	2445.8
825.862	2413.03
826.189	2441.96
826.516	2450.99
826.843	2460.94
827.17	2428.62
827.497	2434.72
827.824	2405.57
828.151	2399.47
828.478	2415.29
828.805	2436.76
829.131	2424.1
829.458	2439.7
829.785	2410.32
830.111	2448.28
830.438	2483.08
830.764	2457.32
831.09	2454.16
831.417	2442.86
831.743	2465.23
832.069	2467.04
832.395	2448.28
832.722	2451.9
833.048	2463.2
833.374	2502.97
833.7	2456.42
834.026	2442.63
834.351	2428.85
834.677	2426.36
835.003	2416.19
835.329	2428.85
835.654	2420.04
835.98	2386.14
836.306	2372.35
836.631	2415.52
836.956	2376.42
837.282	2369.19
837.607	2387.04
837.932	2359.47
838.258	2366.7
838.583	2358.12
838.908	2325.8
839.233	2382.75
839.558	2373.93
839.883	2345.23
840.208	2329.42
840.533	2340.04
840.858	2353.6
841.182	2359.25
841.507	2368.96
841.832	2354.73
842.156	2356.99
842.481	2378.91
842.805	2348.62
843.13	2341.17
843.454	2355.86
843.778	2338.23
844.103	2342.07
844.427	2316.99
844.751	2323.31
845.075	2308.63
845.399	2299.13
845.723	2247.38
846.047	2274.28
846.371	2240.83
846.695	2248.74
847.019	2245.12
847.343	2199.48
847.666	2228.4
847.99	2213.71
848.313	2203.09
848.637	2202.19
848.96	2170.32
849.284	2172.81
849.607	2188.18
849.931	2211.45
850.254	2175.52
850.577	2170.55
850.9	2164.22
851.223	2174.62
851.546	2171.45
851.869	2170.55
852.192	2153.38
852.515	2135.07
852.838	2123.09
853.161	2139.36
853.483	2164.22
853.806	2150.21
854.129	2146.82
854.451	2135.97
854.774	2130.33
855.096	2078.58
855.419	2069.76
855.741	2086.48
856.063	2053.49
856.385	2068.41
856.708	2069.76
857.03	2035.41
857.352	2058.91
857.674	2021.85
857.996	1985.92
858.318	2013.72
858.64	2038.58
858.961	1969.88
859.283	1996.09
859.605	1975.08
859.926	1990.22
860.248	1999.71
860.57	1982.31
860.891	1975.3
861.212	2004
861.534	1966.49
861.855	1975.75
862.176	2010.55
862.498	2001.29
862.819	1980.27
863.14	1988.63
863.461	1989.31
863.782	1995.19
864.103	1994.74
864.424	1958.13
864.745	1987.96
865.065	1945.25
865.386	1957.67
865.707	1974.4
866.027	1959.26
866.348	1958.58
866.668	1917.22
866.989	1930.56
867.309	1908.41
867.63	1919.26
867.95	1936.88
868.27	1916.77
868.59	1912.48
868.91	1904.34
869.23	1919.48
869.55	1887.62
869.87	1905.7
870.19	1897.79
870.51	1896.89
870.83	1888.52
871.15	1923.55
871.469	1865.02
871.789	1920.61
872.109	1907.73
872.428	1889.43
872.748	1931.91
873.067	1901.63
873.386	1887.17
873.706	1910.9
874.025	1901.86
874.344	1897.11
874.663	1894.63
874.982	1889.88
875.301	1880.61
875.62	1870.45
875.939	1885.81
876.258	1895.3
876.577	1897.11
876.896	1856.89
877.214	1854.17
877.533	1855.3
877.852	1835.64
878.17	1840.16
878.489	1837.23
878.807	1845.59
879.125	1831.58
879.444	1814.85
879.762	1791.35
880.08	1836.32
880.398	1796.77
880.716	1806.94
881.034	1802.88
881.352	1817.57
881.67	1805.36
881.988	1834.51
882.306	1818.7
882.624	1782.09
882.941	1786.38
883.259	1825.02
883.577	1788.19
883.894	1796.77
884.212	1827.51
884.529	1822.31
884.846	1820.28
885.164	1808.98
885.481	1777.34
885.798	1783.67
886.115	1777.34
886.432	1774.85
886.75	1791.8
887.067	1796.1
887.383	1787.74
887.7	1767.17
888.017	1772.82
888.334	1724.91
888.651	1743.67
888.967	1757.45
889.284	1738.25
889.6	1742.31
889.917	1714.74
890.233	1729.88
890.55	1686.27
890.866	1738.92
891.182	1711.58
891.498	1711.13
891.815	1712.71
892.131	1704.12
892.447	1711.58
892.763	1678.36
893.079	1694.18
893.395	1678.59
893.71	1665.25
894.026	1680.39
894.342	1676.33
894.657	1661.86
894.973	1650.56
895.289	1659.83
895.604	1688.76
895.92	1656.67
896.235	1651.02
896.55	1667.96
896.865	1666.38
897.181	1638.36
897.496	1662.54
897.811	1626.16
898.126	1660.51
898.441	1631.81
898.756	1613.73
899.071	1612.6
899.386	1610.56
899.7	1636.33
900.015	1568.08
900.33	1571.7
900.644	1577.57
900.959	1582.32
901.273	1578.02
901.588	1598.59
901.902	1551.36
902.216	1535.31
902.531	1547.97
902.845	1528.08
903.159	1547.97
903.473	1556.33
903.787	1532.15
904.101	1513.84
904.415	1524.24
904.729	1506.61
905.042	1500.29
905.356	1511.13
905.67	1514.07
905.984	1523.34
906.297	1470.91
906.611	1498.93
906.924	1514.52
907.237	1506.61
907.551	1511.58
907.864	1505.93
908.177	1480.85
908.491	1479.72
908.804	1449.44
909.117	1465.26
909.43	1467.29
909.743	1471.13
910.056	1464.13
910.368	1455.31
910.681	1460.96
910.994	1446.73
911.307	1444.24
911.619	1444.92
911.932	1431.13
912.244	1454.18
912.557	1418.25
912.869	1449.67
913.181	1391.36
913.494	1402.89
913.806	1376.22
914.118	1395.43
914.43	1393.17
914.742	1390.01
915.054	1361.53
915.366	1383
915.678	1375.54
915.99	1357.69
916.302	1352.27
916.613	1334.87
916.925	1345.94
917.236	1359.95
917.548	1342.32
917.859	1341.42
918.171	1346.84
918.482	1330.12
918.794	1348.65
919.105	1339.39
919.416	1296.9
919.727	1322.21
920.038	1313.62
920.349	1334.41
920.66	1334.19
920.971	1339.39
921.282	1277.69
921.593	1322.44
921.903	1263
922.214	1286.73
922.525	1304.13
922.835	1270.46
923.146	1289.67
923.456	1258.03
923.767	1256.68
924.077	1258.94
924.387	1293.96
924.697	1259.39
925.008	1286.96
925.318	1242.21
925.628	1246.73
925.938	1244.25
926.248	1214.42
926.558	1216.68
926.867	1196.56
927.177	1239.05
927.487	1208.54
927.796	1200.63
928.106	1196.34
928.416	1211.03
928.725	1173.97
929.034	1197.02
929.344	1189.11
929.653	1191.37
929.962	1191.37
930.271	1176.23
930.581	1174.19
930.89	1178.49
931.199	1143.01
931.508	1154.53
931.817	1152.72
932.125	1163.35
932.434	1174.42
932.743	1152.5
933.051	1180.07
933.36	1157.47
933.669	1150.24
933.977	1138.49
934.286	1151.37
934.594	1157.24
934.902	1122.67
935.21	1154.76
935.519	1138.26
935.827	1134.87
936.135	1115.89
936.443	1110.01
936.751	1132.16
937.059	1110.92
937.367	1095.32
937.674	1106.4
937.982	1091.48
938.29	1096.45
938.597	1098.49
938.905	1076.79
939.213	1077.25
939.52	1063.46
939.827	1083.12
940.135	1072.05
940.442	1054.2
940.749	1050.58
941.056	1058.49
941.363	1021.43
941.67	1056.46
941.977	1046.29
942.284	1046.51
942.591	1036.57
942.898	1042.44
943.205	1048.55
943.511	1030.69
943.818	1038.83
944.125	1009.22
944.431	1039.28
944.738	1041.54
945.044	1021.43
945.35	1004.25
945.657	1006.97
945.963	1008.77
946.269	1039.96
946.575	1011.71
946.881	997.02
947.187	1005.61
947.493	988.21
947.799	979.62
948.105	993.86
948.41	980.53
948.716	990.47
949.022	970.81
949.327	963.8
949.633	967.64
949.938	972.16
950.244	973.75
950.549	960.19
950.854	959.73
951.16	947.53
951.465	973.75
951.77	961.54
952.075	956.8
952.38	937.36
952.685	951.6
952.99	922.67
953.294	967.19
953.599	931.71
953.904	950.24
954.209	930.81
954.513	906.63
954.818	901.43
955.122	909.11
955.426	936.68
955.731	917.25
956.035	942.11
956.339	914.31
956.643	902.79
956.948	925.39
957.252	894.88
957.556	901.66
957.86	905.95
958.163	900.08
958.467	911.83
958.771	888.55
959.075	874.54
959.378	898.27
959.682	907.53
959.985	878.38
960.289	878.38
960.592	872.05
960.896	881.32
961.199	902.11
961.502	835.44
961.805	860.75
962.108	873.18
962.411	896.01
962.714	866.63
963.017	850.58
963.32	818.72
963.623	848.1
963.926	850.81
964.228	838.83
964.531	852.62
964.833	828.44
965.136	848.33
965.438	822.56
965.741	832.51
966.043	820.98
966.345	810.59
966.648	840.19
966.95	835.44
967.252	835.67
967.554	799.51
967.856	832.05
968.158	825.05
968.46	797.71
968.761	807.87
969.063	812.39
969.365	792.06
969.666	782.56
969.968	813.75
970.269	789.34
970.571	795.9
970.872	780.98
971.174	795.22
971.475	791.38
971.776	797.03
972.077	765.16
972.378	789.34
972.679	796.35
972.98	771.49
973.281	763.58
973.582	764.94
973.883	766.07
974.183	753.19
974.484	782.79
974.785	776.46
975.085	739.18
975.386	775.11
975.686	756.8
975.986	760.64
976.287	740.53
976.587	767.65
976.887	731.49
977.187	755.22
977.487	719.97
977.787	735.56
978.087	737.82
978.387	723.13
978.687	730.36
978.987	716.8
979.286	743.47
979.586	729.23
979.885	708.89
980.185	726.75
980.484	730.14
980.784	729.23
981.083	694.66
981.382	700.76
981.682	713.87
981.981	694.43
982.28	703.24
982.579	717.26
982.878	717.71
983.177	695.33
983.475	670.7
983.774	710.02
984.073	703.7
984.372	680.87
984.67	723.58
984.969	703.92
985.267	714.54
985.566	691.49
985.864	705.73
986.162	705.5
986.461	690.14
986.759	689.46
987.057	679.52
987.355	670.93
987.653	652.85
987.951	714.32
988.249	663.25
988.547	667.99
988.844	678.84
989.142	684.71
989.44	674.77
989.737	653.08
990.035	653.3
990.332	672.28
990.63	656.24
990.927	656.24
991.224	655.11
991.521	631.38
991.819	656.69
992.116	644.26
992.413	650.14
992.71	643.36
993.006	668.67
993.303	641.55
993.6	648.56
993.897	677.03
994.193	642.91
994.49	614.43
994.787	628.9
995.083	635.9
995.379	635.45
995.676	655.34
995.972	623.47
996.268	634.32
996.565	609.24
996.861	625.05
997.157	618.5
997.453	607.43
997.749	621.21
998.044	630.7
998.34	617.14
998.636	622.12
998.932	626.41
999.227	611.95
999.523	590.93
999.818	585.96
1000.114	596.58
1000.409	595.68
1000.704	602.68
1001	611.04
1001.295	587.99
1001.59	602
1001.885	590.25
1002.18	568.56
1002.475	603.36
1002.77	578.95
1003.065	599.52
1003.359	587.99
1003.654	613.98
1003.949	576.02
1004.243	595.22
1004.538	574.66
1004.832	590.7
1005.127	580.08
1005.421	585.73
1005.715	583.47
1006.009	560.2
1006.304	595.22
1006.598	553.42
1006.892	562.68
1007.186	580.54
1007.48	554.77
1007.773	556.13
1008.067	544.15
1008.361	581.44
1008.655	558.39
1008.948	540.76
1009.242	557.03
1009.535	530.14
1009.829	564.26
1010.122	536.02
1010.415	567.43
1010.708	533.53
1011.001	544.38
1011.295	540.99
1011.588	566.75
1011.881	513.87
1012.173	522.68
1012.466	546.64
1012.759	551.16
1013.052	527.43
1013.344	513.42
1013.637	550.03
1013.93	525.85
1014.222	516.13
1014.514	532.85
1014.807	503.7
1015.099	547.09
1015.391	513.42
1015.683	516.81
1015.976	531.05
1016.268	529.92
1016.56	496.24
1016.851	500.76
1017.143	513.64
1017.435	516.58
1017.727	505.28
1018.018	513.87
1018.31	501.22
1018.602	522.46
1018.893	524.27
1019.185	505.28
1019.476	501.67
1019.767	501.67
1020.058	484.49
1020.35	488.11
1020.641	493.31
1020.932	481.56
1021.223	476.58
1021.514	496.7
1021.804	487.88
1022.095	481.1
1022.386	486.3
1022.677	495.34
1022.967	493.98
1023.258	495.57
1023.548	468.45
1023.839	477.49
1024.129	472.97
1024.419	478.62
1024.709	499.18
1025	469.35
1025.29	461.67
1025.58	457.15
1025.87	475.68
1026.16	482.91
1026.449	476.58
1026.739	444.04
1027.029	464.61
1027.319	444.72
1027.608	453.76
1027.898	477.71
1028.187	463.93
1028.477	448.56
1028.766	474.78
1029.055	470.03
1029.344	466.87
1029.634	437.49
1029.923	460.09
1030.212	446.53
1030.501	431.39
1030.79	434.78
1031.078	447.66
1031.367	461.22
1031.656	429.81
1031.945	443.14
1032.233	423.7
1032.522	426.42
1032.81	420.54
1033.099	430.93
1033.387	454.66
1033.675	445.17
1033.963	440.2
1034.251	431.84
1034.54	433.87
1034.828	419.86
1035.116	419.86
1035.403	446.08
1035.691	434.32
1035.979	451.05
1036.267	420.09
1036.554	420.99
1036.842	437.94
1037.129	435
1037.417	425.74
1037.704	426.42
1037.992	436.81
1038.279	395.23
1038.566	415.12
1038.853	415.12
1039.14	415.12
