Data from foam_black_FLMS001491_00030.txt Node
Date: Wed Feb 08 10:43:40 GMT 2017
User: dcchb
Spectrometer: FLMS00149
Trigger mode: 0
Integration Time (sec): 2.000000E-2
Scans to average: 10
Electric dark correction enabled: true
Nonlinearity correction enabled: false
Boxcar width: 0
XAxis mode: Wavelengths
Number of Pixels in Spectrum: 2048
>>>>>Begin Spectral Data<<<<<
341.393	8.11
341.776	8.11
342.16	8.11
342.543	-50.87
342.927	-62.4
343.31	-86.35
343.693	-64.43
344.077	-46.81
344.46	-59.69
344.843	-43.19
345.226	-22.4
345.61	-32.57
345.993	-14.49
346.376	-19.69
346.759	-2.74
347.142	18.05
347.525	24.83
347.908	53.76
348.291	82.23
348.674	88.56
349.057	124.94
349.44	121.1
349.823	138.95
350.206	173.75
350.588	199.51
350.971	195.45
351.354	218.95
351.737	226.63
352.119	230.47
352.502	260.53
352.884	281.55
353.267	258.95
353.65	287.42
354.032	286.97
354.414	304.37
354.797	293.75
355.179	299.62
355.562	333.97
355.944	330.58
356.326	325.84
356.709	325.84
357.091	328.55
357.473	327.42
357.855	340.3
358.238	327.87
358.62	335.33
359.002	343.69
359.384	327.19
359.766	329.45
360.148	336.23
360.53	317.48
360.912	339.85
361.294	340.08
361.676	350.7
362.057	326.97
362.439	342.11
362.821	338.27
363.203	323.13
363.584	333.97
363.966	323.35
364.348	303.01
364.729	324.48
365.111	328.55
365.493	332.84
365.874	307.53
366.256	316.35
366.637	335.56
367.019	324.26
367.4	312.96
367.781	318.38
368.163	313.18
368.544	328.32
368.925	326.97
369.306	316.8
369.688	316.57
370.069	313.86
370.45	322.45
370.831	299.4
371.212	321.55
371.593	321.09
371.974	333.07
372.355	326.74
372.736	323.81
373.117	313.64
373.498	320.19
373.879	326.74
374.26	309.34
374.641	325.39
375.021	308.66
375.402	305.05
375.783	353.63
376.163	333.07
376.544	338.27
376.925	334.43
377.305	308.66
377.686	327.65
378.066	329.45
378.447	348.44
378.827	359.06
379.208	353.86
379.588	343.92
379.968	347.08
380.349	328.32
380.729	350.92
381.109	342.56
381.489	349.79
381.87	361.32
382.25	363.58
382.63	350.92
383.01	346.86
383.39	364.71
383.77	370.36
384.15	375.33
384.53	368.32
384.91	388.89
385.29	361.77
385.67	373.3
386.049	382.56
386.429	361.09
386.809	368.78
387.189	369.91
387.568	391.37
387.948	378.27
388.328	388.89
388.707	353.63
389.087	384.82
389.466	390.47
389.846	387.98
390.225	398.61
390.605	389.34
390.984	396.12
391.363	390.02
391.743	406.51
392.122	414.42
392.501	387.31
392.881	371.04
393.26	402.22
393.639	415.33
394.018	430.69
394.397	427.98
394.776	424.59
395.155	416.23
395.534	410.36
395.913	407.19
396.292	421.66
396.671	436.57
397.05	428.66
397.429	439.06
397.808	431.37
398.186	437.02
398.565	449.45
398.944	439.06
399.323	430.24
399.701	441.54
400.08	423.01
400.458	416.91
400.837	427.08
401.215	463.91
401.594	451.03
401.972	448.77
402.351	454.2
402.729	466.85
403.107	479.73
403.486	446.97
403.864	483.57
404.242	494.65
404.62	470.02
404.999	467.76
405.377	486.51
405.755	492.39
406.133	470.69
406.511	474.76
406.889	482.67
407.267	504.37
407.645	498.94
408.023	502.33
408.401	507.76
408.779	521.77
409.156	513.86
409.534	500.52
409.912	505.04
410.29	536
410.667	529.9
411.045	502.56
411.422	536.23
411.8	555.89
412.178	543.69
412.555	548.21
412.933	551.82
413.31	552.27
413.687	567.64
414.065	571.03
414.442	597.7
414.819	573.97
415.197	581.43
415.574	599.5
415.951	585.04
416.328	604.48
416.705	600.86
417.082	586.85
417.46	603.12
417.837	613.29
418.214	615.55
418.591	629.11
418.967	594.31
419.344	614.42
419.721	610.35
420.098	621.65
420.475	664.81
420.852	624.36
421.228	634.08
421.605	642.21
421.982	630.46
422.358	642.89
422.735	652.84
423.111	655.77
423.488	673.4
423.864	679.73
424.241	662.78
424.617	676.11
424.994	687.86
425.37	687.41
425.746	692.38
426.123	711.59
426.499	710.69
426.875	684.93
427.251	707.3
427.627	717.02
428.003	746.84
428.379	715.21
428.756	730.12
429.132	749.78
429.507	752.27
429.883	766.96
430.259	773.06
430.635	775.77
431.011	771.7
431.387	798.14
431.763	804.7
432.138	831.36
432.514	825.03
432.89	843.34
433.265	823.9
433.641	836.79
434.016	843.34
434.392	868.42
434.767	864.36
435.143	858.48
435.518	852.15
435.894	867.75
436.269	890.34
436.644	884.69
437.02	884.02
437.395	902.77
437.77	919.72
438.145	917.24
438.52	914.52
438.895	951.81
439.271	929.89
439.646	966.05
440.021	970.34
440.395	967.18
440.77	955.65
441.145	984.58
441.52	997.23
441.895	974.86
442.27	980.28
442.645	994.52
443.019	993.39
443.394	1018.02
443.769	1019.15
444.143	999.95
444.518	1044.24
444.892	1026.39
445.267	1047.18
445.641	1028.42
446.016	1055.99
446.39	1068.64
446.764	1062.54
447.139	1077.46
447.513	1077.46
447.887	1065.71
448.262	1072.49
448.636	1072.71
449.01	1087.85
449.384	1101.64
449.758	1071.81
450.132	1083.56
450.506	1082.66
450.88	1123.11
451.254	1160.62
451.628	1136.44
452.002	1122.88
452.376	1145.03
452.75	1160.17
453.123	1184.57
453.497	1181.64
453.871	1189.54
454.244	1203.33
454.618	1229.09
454.992	1225.93
455.365	1192.03
455.739	1261.18
456.112	1219.37
456.486	1272.71
456.859	1255.76
457.232	1282.65
457.606	1302.31
457.979	1305.25
458.352	1340.73
458.725	1342.76
459.099	1355.19
459.472	1401.29
459.845	1401.52
460.218	1420.73
460.591	1402.65
460.964	1412.59
461.337	1443.78
461.71	1454.4
462.083	1481.97
462.456	1478.58
462.829	1503.66
463.201	1521.51
463.574	1509.99
463.947	1541.17
464.32	1549.08
464.692	1601.96
465.065	1595.86
465.438	1606.71
465.81	1609.19
466.183	1632.7
466.555	1647.61
466.928	1689.64
467.3	1676.99
467.672	1707.05
468.045	1747.27
468.417	1730.55
468.789	1757.67
469.161	1772.35
469.534	1822.75
469.906	1828.4
470.278	1872.24
470.65	1886.02
471.022	1911.33
471.394	1919.24
471.766	1948.62
472.138	1938.45
472.51	1991.33
472.882	2021.84
473.253	2070.43
473.625	2044.44
473.997	2056.87
474.369	2100.48
474.74	2120.37
475.112	2161.27
475.484	2193.81
475.855	2224.32
476.227	2250.08
476.598	2297.54
476.97	2322.17
477.341	2371.66
477.713	2370.08
478.084	2440.36
478.455	2465.9
478.827	2528.72
479.198	2527.14
479.569	2566.68
479.94	2606.68
480.311	2626.34
480.682	2679.9
481.053	2755.15
481.424	2740.24
481.795	2808.26
482.166	2806
482.537	2851.65
482.908	2926.9
483.279	2972.55
483.65	2975.94
484.021	3014.58
484.391	3117.86
484.762	3126.9
485.133	3090.29
485.503	3210.28
485.874	3230.4
486.244	3257.51
486.615	3354.69
486.985	3344.97
487.356	3405.08
487.726	3428.13
488.097	3525.98
488.467	3532.76
488.837	3562.14
489.207	3582.02
489.578	3647.33
489.948	3713.77
490.318	3773.21
490.688	3758.74
491.058	3837.38
491.428	3835.13
491.798	3866.99
492.168	3948.79
492.538	3982.47
492.908	4009.81
493.278	4035.8
493.648	4017.27
494.017	4091.16
494.387	4144.5
494.757	4157.83
495.126	4240.09
495.496	4249.58
495.866	4255.91
496.235	4359.41
496.605	4322.8
496.974	4358.5
497.344	4439.63
497.713	4422.68
498.082	4491.38
498.452	4542.68
498.821	4558.27
499.19	4571.38
499.559	4599.17
499.928	4627.42
500.298	4631.49
500.667	4700.87
501.036	4672.39
501.405	4733.18
501.774	4690.02
502.143	4761.88
502.512	4800.52
502.88	4795.33
503.249	4812.27
503.618	4843.01
503.987	4938.15
504.356	4993.29
504.724	4987.86
505.093	5040.29
505.462	5037.35
505.83	5051.14
506.199	5067.86
506.567	5160.51
506.936	5184.02
507.304	5274.41
507.672	5207.07
508.041	5304.69
508.409	5344.92
508.777	5400.06
509.145	5441.86
509.514	5452.03
509.882	5487.29
510.25	5549.66
510.618	5551.46
510.986	5606.6
511.354	5571.12
511.722	5641.41
512.09	5700.61
512.458	5727.5
512.826	5713.49
513.193	5719.14
513.561	5780.84
513.929	5762.08
514.297	5856.09
514.664	5913.71
515.032	5932.47
515.4	5936.99
515.767	6009.31
516.135	6017.44
516.502	6047.27
516.869	6158.91
517.237	6180.83
517.604	6202.29
517.972	6297.66
518.339	6311.9
518.706	6400.26
519.073	6398
519.44	6479.12
519.808	6595.96
520.175	6561.16
520.542	6665.11
520.909	6708.72
521.276	6693.58
521.643	6711.66
522.009	6767.03
522.376	6839.57
522.743	6829.62
523.11	6957.08
523.477	6945.33
523.843	6940.13
524.21	7062.38
524.577	7054.7
524.943	7090.41
525.31	7110.07
525.676	7229.61
526.043	7301.93
526.409	7283.85
526.776	7420.34
527.142	7428.48
527.508	7467.35
527.874	7540.11
528.241	7592.99
528.607	7642.93
528.973	7732.42
529.339	7741.69
529.705	7898.52
530.071	7948.69
530.437	8037.73
530.803	8010.61
531.169	8115.24
531.535	8100.1
531.901	8125.18
532.267	8193.2
532.632	8264.61
532.998	8180.32
533.364	8291.96
533.73	8262.35
534.095	8344.61
534.461	8353.42
534.826	8448.56
535.192	8362.24
535.557	8436.36
535.923	8420.09
536.288	8445.4
536.653	8506.64
537.019	8486.3
537.384	8543.93
537.749	8643.13
538.114	8656.24
538.479	8730.14
538.845	8802
539.21	8766.52
539.575	8848.55
539.94	8878.61
540.305	8954.54
540.67	8938.95
541.034	8984.14
541.399	9063.01
541.764	9106.62
542.129	9158.83
542.494	9145.95
542.858	9234.08
543.223	9190.69
543.587	9242.44
543.952	9257.13
544.316	9307.3
544.681	9282.67
545.045	9315.21
545.41	9367.41
545.774	9382.32
546.138	9339.39
546.503	9376.45
546.867	9399.27
547.231	9509.33
547.595	9504.35
547.959	9564.69
548.324	9545.94
548.688	9586.16
549.052	9628.87
549.416	9640.85
549.779	9710
550.143	9738.25
550.507	9841.29
550.871	9902.08
551.235	10029.76
551.599	10009.43
551.962	10029.99
552.326	10060.27
552.689	10128.52
553.053	10162.19
553.417	10213.49
553.78	10295.97
554.143	10248.52
554.507	10335.97
554.87	10362.86
555.234	10475.63
555.597	10408.29
555.96	10477.89
556.323	10462.07
556.686	10514.5
557.05	10576.87
557.413	10577.32
557.776	10623.42
558.139	10692.12
558.502	10700.93
558.865	10740.48
559.228	10908.61
559.59	10918.55
559.953	10872.91
560.316	10960.36
560.679	11039.91
561.041	11112.22
561.404	11224.08
561.767	11324.19
562.129	11270.64
562.492	11455.49
562.854	11374.59
563.217	11446.68
563.579	11463.17
563.941	11572.32
564.304	11699.55
564.666	11661.13
565.028	11747.91
565.39	11763.73
565.753	11889.83
566.115	11916.95
566.477	11959.21
566.839	12118.07
567.201	12115.36
567.563	12042.82
567.925	12148.35
568.287	12175.7
568.648	12205.07
569.01	12267.45
569.372	12365.52
569.734	12359.42
570.095	12393.54
570.457	12476.93
570.819	12605.52
571.18	12478.51
571.542	12638.74
571.903	12645.29
572.265	12629.02
572.626	12720.54
572.987	12709.47
573.349	12782.46
573.71	12888.67
574.071	12884.6
574.432	12916.02
574.794	13007.09
575.155	13064.49
575.516	12985.84
575.877	13027.88
576.238	13108.55
576.599	13135.45
576.96	13179.51
577.32	13161.66
577.681	13250.92
578.042	13245.27
578.403	13273.97
578.763	13287.98
579.124	13271.94
579.485	13349.23
579.845	13407.08
580.206	13420.18
580.566	13353.29
580.927	13402.11
581.287	13541.99
581.648	13460.41
582.008	13539.28
582.368	13588.09
582.728	13557.58
583.089	13567.52
583.449	13591.25
583.809	13532.72
584.169	13690.23
584.529	13568.43
584.889	13656.34
585.249	13591.7
585.609	13576.34
585.969	13626.51
586.329	13571.82
586.688	13536.34
587.048	13596.45
587.408	13590.35
587.768	13521.2
588.127	13573.4
588.487	13548.09
588.846	13619.5
589.206	13501.31
589.565	13482.56
589.925	13599.39
590.284	13508.77
590.643	13535.89
591.003	13633.29
591.362	13643
591.721	13606.39
592.08	13618.82
592.44	13651.82
592.799	13684.36
593.158	13618.6
593.517	13784.69
593.876	13793.51
594.235	13776.78
594.593	13830.79
594.952	13884.13
595.311	13834.64
595.67	13952.83
596.029	13908.31
596.387	13908.53
596.746	13945.14
597.104	13927.52
597.463	13935.42
597.822	14038.25
598.18	13939.27
598.538	13973.84
598.897	13996.44
599.255	13920.96
599.613	14065.59
599.972	13953.05
600.33	13928.87
600.688	13970.45
601.046	13961.86
601.404	14067.4
601.762	13959.6
602.12	13965.25
602.478	13894.75
602.836	14001.19
603.194	13853.17
603.552	13876.22
603.91	13937.01
604.268	13967.74
604.625	13948.98
604.983	13992.15
605.341	13887.74
605.698	14090.45
606.056	14083.22
606.413	14011.35
606.771	14031.02
607.128	14092.03
607.485	14090.45
607.843	14066.95
608.2	14240.73
608.557	14177.45
608.914	14257.45
609.272	14302.19
609.629	14354.4
609.986	14510.55
610.343	14426.71
610.7	14551.45
611.057	14408.18
611.414	14447.95
611.771	14438.46
612.127	14593.71
612.484	14531.57
612.841	14579.02
613.198	14487.27
613.554	14508.52
613.911	14630.32
614.267	14566.14
614.624	14546.26
614.98	14501.06
615.337	14580.83
615.693	14584.22
616.05	14591.23
616.406	14668.29
616.762	14529.53
617.118	14466.48
617.475	14476.2
617.831	14505.81
618.187	14578.8
618.543	14622.86
618.899	14664.67
619.255	14674.84
619.611	14645.91
619.967	14677.78
620.323	14688.4
620.678	14679.81
621.034	14588.74
621.39	14712.35
621.746	14717.1
622.101	14975.17
622.457	14766.36
622.812	14889.07
623.168	14812.46
623.523	14875.96
623.879	14922.74
624.234	14908.28
624.589	14927.04
624.945	14966.36
625.3	14978.56
625.655	15032.12
626.01	14975.17
626.365	15047.49
626.72	15040.25
627.075	15041.61
627.43	15011.1
627.785	14923.42
628.14	15009.29
628.495	14991.67
628.85	14855.17
629.205	14785.12
629.559	15020.37
629.914	14795.51
630.269	14787.61
630.623	14696.76
630.978	14682.98
631.332	14702.18
631.687	14717.1
632.041	14594.84
632.396	14635.52
632.75	14591.45
633.104	14595.52
633.459	14585.12
633.813	14456.77
634.167	14538.12
634.521	14482.75
634.875	14426.26
635.229	14549.87
635.583	14433.72
635.937	14380.84
636.291	14387.84
636.645	14501.29
636.999	14401.85
637.352	14383.1
637.706	14326.37
638.06	14435.52
638.413	14458.8
638.767	14364.34
639.121	14389.65
639.474	14344.91
639.828	14353.94
640.181	14334.74
640.534	14386.03
640.888	14363.66
641.241	14327.96
641.594	14340.39
641.947	14386.03
642.301	14284.57
642.654	14442.76
643.007	14343.55
643.36	14317.56
643.713	14230.33
644.066	14373.15
644.419	14189.2
644.771	14054.97
645.124	13903.56
645.477	13946.27
645.83	13769.33
646.182	13886.39
646.535	13873.05
646.888	13992.6
647.24	13848.2
647.593	13944.46
647.945	13863.34
648.298	13831.02
648.65	13762.1
649.002	13711.25
649.355	13699.05
649.707	13609.33
650.059	13645.26
650.411	13780.17
650.763	13838.7
651.115	13957.57
651.467	13911.92
651.819	13969.55
652.171	13841.42
652.523	13859.49
652.875	13834.64
653.227	13751.25
653.578	13873.05
653.93	13915.99
654.282	13795.32
654.633	13766.84
654.985	13731.81
655.337	13767.75
655.688	13660.63
656.039	13742.89
656.391	13717.8
656.742	13685.71
657.094	13687.75
657.445	13825.6
657.796	13729.33
658.147	13723.68
658.498	13707.86
658.849	13733.4
659.2	13672.61
659.551	13651.36
659.902	13674.64
660.253	13720.74
660.604	13703.79
660.955	13693.85
661.306	13756.45
661.656	13691.36
662.007	13668.99
662.358	13685.04
662.708	13640.52
663.059	13691.82
663.409	13603.68
663.76	13700.63
664.11	13629.67
664.461	13814.98
664.811	13724.81
665.161	13720.97
665.511	13659.5
665.862	13699.72
666.212	13663.12
666.562	13717.58
666.912	13669.22
667.262	13704.92
667.612	13689.56
667.962	13601.2
668.312	13537.69
668.662	13693.85
669.011	13679.61
669.361	13552.38
669.711	13596.45
670.06	13495.66
670.41	13540.18
670.76	13469.67
671.109	13538.6
671.459	13540.41
671.808	13511.71
672.157	13519.84
672.507	13382.44
672.856	13407.98
673.205	13395.78
673.554	13469.67
673.904	13416.12
674.253	13429
674.602	13436.68
674.951	13162.34
675.3	13144.03
675.649	13285.72
675.998	13251.15
676.346	13267.65
676.695	13269.45
677.044	13238.72
677.393	13281.2
677.741	13292.28
678.09	13253.41
678.438	13262.22
678.787	13287.76
679.135	13325.5
679.484	13258.38
679.832	13246.86
680.181	13226.52
680.529	13221.09
680.877	13226.06
681.225	13200.08
681.573	13233.07
681.922	13246.86
682.27	13148.1
682.618	13160.53
682.966	13178.16
683.314	13182
683.661	13127.54
684.009	13148.78
684.357	13142.23
684.705	13115.33
685.053	13064.49
685.4	13060.19
685.748	12937.26
686.095	12979.97
686.443	12879.18
686.79	12824.27
687.138	12855.9
687.485	12919.63
687.832	12866.53
688.18	12792.18
688.527	12769.35
688.874	12672.41
689.221	12689.13
689.568	12596.25
689.915	12579.53
690.262	12585.18
690.609	12489.13
690.956	12496.82
691.303	12489.13
691.65	12420.44
691.997	12470.6
692.344	12267.22
692.69	12374.11
693.037	12324.85
693.383	12202.14
693.73	12331.4
694.077	12225.86
694.423	12280.78
694.769	12159.88
695.116	12204.17
695.462	12067.23
695.808	12104.06
696.155	12107.45
696.501	11973.67
696.847	11969.83
697.193	11918.3
697.539	11941.13
697.885	11844.63
698.231	11869.94
698.577	11825.65
698.923	11881.02
699.269	11790.4
699.614	11773.67
699.96	11759.21
700.306	11740
700.651	11635.15
700.997	11684.18
701.342	11656.39
701.688	11606.9
702.033	11608.71
702.379	11612.1
702.724	11651.64
703.069	11534.36
703.415	11380.69
703.76	11397.19
704.105	11438.32
704.45	11392.21
704.795	11235.16
705.14	11277.87
705.485	11310.86
705.83	11238.09
706.175	11210.75
706.52	11236.96
706.865	11130.98
707.209	11158.55
707.554	11151.09
707.899	11109.06
708.243	11086.91
708.588	11118.78
708.932	10899.57
709.277	10945.9
709.621	10953.81
709.966	10877.43
710.31	10904.54
710.654	10863.19
710.998	10839.91
711.342	10856.18
711.687	10883.98
712.031	10789.52
712.375	10712.23
712.719	10771.67
713.063	10698.9
713.407	10749.75
713.75	10780.03
714.094	10633.59
714.438	10589.07
714.782	10667.94
715.125	10690.76
715.469	10697.32
715.812	10641.73
716.156	10558.11
716.499	10598.79
716.843	10592.24
717.186	10477.89
717.53	10504.55
717.873	10565.34
718.216	10502.52
718.559	10491
718.902	10350.43
719.246	10418.68
719.589	10397.66
719.932	10315.86
720.275	10359.25
720.617	10420.71
720.96	10271.79
721.303	10385.01
721.646	10325.35
721.989	10252.13
722.331	10306.14
722.674	10233.15
723.016	10234.5
723.359	10143.43
723.701	10229.53
724.044	10091.01
724.386	10150.44
724.729	10210.1
725.071	10190.21
725.413	10098.92
725.755	10098.46
726.097	10068.86
726.439	9965.13
726.782	9952.03
727.124	10077.22
727.465	9912.71
727.807	9914.06
728.149	9920.61
728.491	9922.65
728.833	9950.44
729.175	9917
729.516	9894.17
729.858	9807.4
730.199	9859.15
730.541	9884.01
730.882	9855.08
731.224	9832.48
731.565	9769.43
731.906	9729.66
732.248	9766.04
732.589	9739.15
732.93	9726.27
733.271	9774.63
733.612	9711.58
733.953	9758.36
734.294	9651.7
734.635	9643.33
734.976	9671.13
735.317	9676.55
735.658	9616.67
735.999	9682.88
736.339	9638.81
736.68	9625.03
737.021	9577.12
737.361	9557.01
737.702	9662.99
738.042	9632.03
738.383	9532.15
738.723	9576.67
739.063	9558.82
739.404	9592.71
739.744	9475.88
740.084	9487.18
740.424	9513.17
740.764	9441.08
741.104	9507.07
741.444	9451.02
741.784	9420.29
742.124	9420.74
742.464	9419.39
742.804	9427.52
743.143	9399.5
743.483	9395.88
743.823	9309.33
744.162	9332.38
744.502	9423.45
744.841	9311.82
745.181	9304.59
745.52	9307.52
745.86	9334.87
746.199	9298.71
746.538	9221.88
746.877	9292.83
747.216	9252.61
747.556	9221.2
747.895	9191.14
748.234	9147.3
748.573	9197.02
748.911	9148.43
749.25	9095.33
749.589	9112.5
749.928	9131.94
750.267	9115.21
750.605	9021.66
750.944	9042.9
751.283	8997.93
751.621	9062.11
751.96	9003.58
752.298	8983.01
752.636	8958.61
752.975	8906.18
753.313	8943.47
753.651	8896.01
753.989	8883.58
754.327	8856.24
754.666	8816.46
755.004	8749.35
755.342	8737.82
755.679	8737.82
756.017	8697.82
756.355	8709.12
756.693	8657.37
757.031	8629.35
757.368	8674.77
757.706	8632.51
758.044	8570.14
758.381	8608.56
758.719	8507.54
759.056	8511.61
759.394	8508.22
759.731	8499.64
760.068	8483.36
760.405	8470.03
760.743	8450.6
761.08	8425.74
761.417	8403.82
761.754	8355.01
762.091	8319.75
762.428	8361.33
762.765	8218.51
763.102	8315.69
763.438	8246.99
763.775	8244.05
764.112	8233.43
764.449	8215.12
764.785	8204.5
765.122	8112.3
765.458	8135.8
765.795	8102.13
766.131	8131.96
766.467	8055.13
766.804	8074.79
767.14	7990.95
767.476	8007.22
767.812	7963.83
768.148	8008.57
768.485	7912.76
768.821	7890.61
769.157	7901.01
769.492	7852.19
769.828	7840.22
770.164	7795.02
770.5	7835.25
770.836	7786.43
771.171	7725.64
771.507	7715.93
771.842	7685.87
772.178	7627.57
772.513	7696.04
772.849	7637.51
773.184	7586.89
773.519	7604.52
773.855	7536.27
774.19	7536.27
774.525	7488.14
774.86	7471.87
775.195	7395.26
775.53	7382.38
775.865	7413.11
776.2	7337.63
776.535	7296.05
776.87	7265.77
777.205	7289.5
777.539	7214.02
777.874	7261.48
778.209	7173.57
778.543	7142.16
778.878	7083.18
779.212	7090.63
779.547	7083.63
779.881	7036.17
780.215	6976.96
780.55	6979.68
780.884	6960.47
781.218	6884.76
781.552	6945.33
781.886	6850.64
782.22	6814.93
782.554	6822.84
782.888	6789.4
783.222	6684.09
783.556	6690.64
783.889	6682.28
784.223	6631.66
784.557	6644.54
784.89	6668.95
785.224	6652.23
785.557	6643.19
785.891	6589.18
786.224	6582.62
786.558	6592.57
786.891	6499.91
787.224	6526.81
787.557	6468.73
787.891	6460.82
788.224	6488.16
788.557	6485.68
788.89	6469.41
789.223	6482.51
789.556	6418.56
789.888	6336.53
790.221	6387.37
790.554	6319.13
790.887	6370.65
791.219	6311.67
791.552	6284.1
791.884	6277.77
792.217	6244.55
792.549	6276.19
792.882	6230.32
793.214	6223.31
793.546	6191
793.879	6162.97
794.211	6162.75
794.543	6175.85
794.875	6154.39
795.207	6146.02
795.539	6113.48
795.871	6039.36
796.203	6047.72
796.535	6038.01
796.867	6009.98
797.198	5964.56
797.53	6015.86
797.862	5972.24
798.193	5949.42
798.525	5929.08
798.856	5922.75
799.188	5848.63
799.519	5835.07
799.85	5771.35
800.182	5782.87
800.513	5775.19
800.844	5708.52
801.175	5750.33
801.506	5727.73
801.837	5708.97
802.168	5734.96
802.499	5694.29
802.83	5701.52
803.161	5618.58
803.491	5629.88
803.822	5630.11
804.153	5619.71
804.483	5574.06
804.814	5539.26
805.145	5542.2
805.475	5511.01
805.805	5527.06
806.136	5535.87
806.466	5511.69
806.796	5468.75
807.126	5423.11
807.457	5395.31
807.787	5440.05
808.117	5383.33
808.447	5337.23
808.777	5358.02
809.107	5325.48
809.436	5316.44
809.766	5313.28
810.096	5273.73
810.426	5286.84
810.755	5290.45
811.085	5292.94
811.414	5278.7
811.744	5251.59
812.073	5242.32
812.403	5252.94
812.732	5236.67
813.061	5213.39
813.39	5180.85
813.719	5144.47
814.049	5190.8
814.378	5215.43
814.707	5134.53
815.036	5187.41
815.365	5162.77
815.693	5102.89
816.022	5130.01
816.351	5071.02
816.68	5089.56
817.008	5076.9
817.337	5129.55
817.665	5050.46
817.994	5059.05
818.322	5072.61
818.651	5020.86
818.979	5079.16
819.307	5078.26
819.636	5090.46
819.964	5004.13
820.292	5019.5
820.62	5024.7
820.948	5039.39
821.276	5086.84
821.604	5019.73
821.932	4988.32
822.259	5005.26
822.587	4993.51
822.915	4977.47
823.243	5011.82
823.57	4956.68
823.898	4991.7
824.225	5025.15
824.553	4957.36
824.88	4990.8
825.207	4977.69
825.535	4924.59
825.862	4972.27
826.189	4929.79
826.516	4956.9
826.843	4950.35
827.17	4939.95
827.497	4929.56
827.824	4944.25
828.151	4988.32
828.478	4912.84
828.805	4951.25
829.131	4937.24
829.458	4940.63
829.785	4940.41
830.111	4910.58
830.438	4987.64
830.764	4912.16
831.09	4927.07
831.417	4869.22
831.743	4931.14
832.069	4932.27
832.395	4902.89
832.722	4918.03
833.048	4905.61
833.374	4967.07
833.7	4892.27
834.026	4862.89
834.351	4906.28
834.677	4850.69
835.003	4871.03
835.329	4882.1
835.654	4862.22
835.98	4847.98
836.306	4913.74
836.631	4793.29
836.956	4864.93
837.282	4859.96
837.607	4790.81
837.932	4809.11
838.258	4843.46
838.583	4830.58
838.908	4798.94
839.233	4785.61
839.558	4798.72
839.883	4751.03
840.208	4755.1
840.533	4729.34
840.858	4751.03
841.182	4747.64
841.507	4779.28
841.832	4704.93
842.156	4689.11
842.481	4697.93
842.805	4686.63
843.13	4718.49
843.454	4688.66
843.778	4628.78
844.103	4656.8
844.427	4671.04
844.751	4640.08
845.075	4612.05
845.399	4617.03
845.723	4584.26
846.047	4584.03
846.371	4574.31
846.695	4589.46
847.019	4555.78
847.343	4513.98
847.666	4490.48
847.99	4469.01
848.313	4442.57
848.637	4481.89
848.96	4475.79
849.284	4448.44
849.607	4401.66
849.931	4373.87
850.254	4369.57
850.577	4332.29
850.9	4299.52
851.223	4301.1
851.546	4283.25
851.869	4271.5
852.192	4292.74
852.515	4288.45
852.838	4272.18
853.161	4195.12
853.483	4202.57
853.806	4184.04
854.129	4253.19
854.451	4178.62
854.774	4139.98
855.096	4182.46
855.419	4175.68
855.741	4158.51
856.063	4168.9
856.385	4152.63
856.708	4157.38
857.03	4132.07
857.352	4118.96
857.674	4071.05
857.996	4099.07
858.318	4014.1
858.64	4066.53
858.961	4064.5
859.283	4039.41
859.605	4038.51
859.926	3986.99
860.248	4035.57
860.57	4008.91
860.891	3996.7
861.212	3971.17
861.534	3998.96
861.855	3972.07
862.176	3991.05
862.498	3967.1
862.819	4004.39
863.14	3948.34
863.461	4020.21
863.782	3925.52
864.103	3911.96
864.424	3932.75
864.745	3961
865.065	3915.35
865.386	3890.49
865.707	3865.63
866.027	3852.75
866.348	3902.69
866.668	3864.28
866.989	3859.98
867.309	3835.58
867.63	3859.08
867.95	3853.66
868.27	3817.05
868.59	3828.12
868.91	3822.92
869.23	3778.86
869.55	3784.51
869.87	3793.54
870.19	3742.92
870.51	3817.05
870.83	3789.02
871.15	3753.32
871.469	3767.33
871.789	3771.85
872.109	3751.51
872.428	3734.79
872.748	3765.75
873.067	3723.49
873.386	3751.29
873.706	3708.35
874.025	3686.65
874.344	3697.73
874.663	3711.74
874.982	3691.63
875.301	3677.62
875.62	3712.64
875.939	3696.6
876.258	3662.93
876.577	3696.82
876.896	3657.73
877.214	3653.44
877.533	3631.06
877.852	3645.07
878.17	3618.41
878.489	3614.79
878.807	3643.27
879.125	3588.13
879.444	3629.25
879.762	3633.1
880.08	3625.64
880.398	3624.96
880.716	3603.04
881.034	3572.08
881.352	3594.23
881.67	3594.68
881.988	3609.82
882.306	3578.41
882.624	3584.96
882.941	3562.36
883.259	3573.89
883.577	3629.25
883.894	3560.56
884.212	3579.99
884.529	3605.53
884.846	3534.34
885.164	3589.26
885.481	3577.73
885.798	3550.61
886.115	3523.04
886.432	3510.39
886.75	3524.62
887.067	3535.7
887.383	3511.52
887.7	3486.66
888.017	3467.68
888.334	3474.68
888.651	3483.5
888.967	3454.12
889.284	3476.49
889.6	3433.78
889.917	3435.36
890.233	3448.92
890.55	3425.87
890.866	3398.75
891.182	3439.66
891.498	3375.02
891.815	3409.6
892.131	3400.33
892.447	3356.95
892.763	3353.1
893.079	3362.82
893.395	3329.15
893.71	3307.23
894.026	3318.3
894.342	3275.14
894.657	3275.37
894.973	3247.57
895.289	3267.91
895.604	3268.13
895.92	3235.14
896.235	3250.06
896.55	3239.66
896.865	3179.78
897.181	3209.38
897.496	3197.4
897.811	3163.73
898.126	3154.47
898.441	3132.32
898.756	3138.42
899.071	3131.64
899.386	3074.24
899.7	3049.38
900.015	3021.81
900.33	3039.67
900.644	3030.63
900.959	2992.66
901.273	3023.4
901.588	3025.2
901.902	3034.24
902.216	2985.2
902.531	2989.27
902.845	2989.5
903.159	2951.53
903.473	2896.17
903.787	2928.93
904.101	2929.61
904.415	2899.56
904.729	2923.96
905.042	2858.88
905.356	2903.85
905.67	2893.45
905.984	2840.35
906.297	2846.22
906.611	2838.32
906.924	2856.85
907.237	2831.76
907.551	2811.42
907.864	2782.5
908.177	2802.16
908.491	2827.47
908.804	2799.9
909.117	2786.11
909.43	2763.06
909.743	2740.69
910.056	2741.82
910.368	2693.23
910.681	2747.02
910.994	2698.43
911.307	2723.74
911.619	2734.36
911.932	2722.84
912.244	2702.95
912.557	2712.44
912.869	2693.69
913.181	2703.86
913.494	2689.17
913.806	2701.6
914.118	2629.96
914.43	2637.87
914.742	2667.25
915.054	2635.61
915.366	2614.37
915.678	2620.24
915.99	2610.75
916.302	2602.62
916.613	2573.92
916.925	2593.35
917.236	2605.33
917.548	2598.32
917.859	2569.85
918.171	2558.77
918.482	2580.69
918.794	2568.04
919.105	2539.57
919.416	2532.56
919.727	2551.09
920.038	2509.74
920.349	2512.67
920.66	2519.45
920.971	2481.04
921.282	2481.49
921.593	2472.68
921.903	2443.98
922.214	2427.48
922.525	2453.69
922.835	2419.8
923.146	2431.09
923.456	2420.47
923.767	2426.35
924.077	2354.71
924.387	2367.82
924.697	2390.87
925.008	2389.97
925.318	2383.19
925.628	2356.52
925.938	2336.41
926.248	2285.79
926.558	2307.48
926.867	2345.22
927.177	2294.15
927.487	2280.59
927.796	2267.71
928.106	2273.36
928.416	2256.41
928.725	2267.93
929.034	2232.46
929.344	2242.17
929.653	2196.3
929.962	2169.86
930.271	2153.36
930.581	2139.8
930.89	2173.93
931.199	2159.69
931.508	2133.47
931.817	2107.49
932.125	2159.46
932.434	2094.38
932.743	2105.45
933.051	2066.13
933.36	2093.7
933.669	2062.06
933.977	2046.7
934.286	2048.51
934.594	2052.12
934.902	2030.2
935.21	2025.91
935.519	2015.96
935.827	2015.96
936.135	1997.89
936.443	1997.89
936.751	1984.33
937.059	1978
937.367	1944.78
937.674	1952.01
937.982	1960.6
938.29	1952.46
938.597	1946.14
938.905	1930.09
939.213	1896.65
939.52	1924.67
939.827	1901.16
940.135	1874.5
940.442	1900.49
940.749	1909.53
941.056	1913.14
941.363	1905.46
941.67	1865.01
941.977	1856.19
942.284	1873.37
942.591	1851.9
942.898	1858.45
943.205	1843.99
943.511	1848.96
943.818	1847.61
944.125	1829.75
944.431	1831.56
944.738	1837.89
945.044	1810.09
945.35	1834.95
945.657	1836.53
945.963	1799.02
946.269	1775.52
946.575	1801.05
946.881	1762.64
947.187	1780.94
947.493	1764.22
947.799	1768.29
948.105	1738.23
948.41	1763.32
948.716	1733.71
949.022	1730.1
949.327	1760.38
949.633	1723.32
949.938	1732.81
950.244	1728.51
950.549	1707.95
950.854	1704.11
951.16	1725.8
951.465	1703.66
951.77	1698.23
952.075	1672.02
952.38	1679.48
952.685	1657.56
952.99	1653.49
953.294	1686.93
953.599	1658.46
953.904	1656.43
954.209	1647.16
954.513	1658.01
954.818	1609.65
955.122	1635.63
955.426	1655.75
955.731	1627.95
956.035	1634.05
956.339	1573.72
956.643	1610.32
956.948	1571.68
957.252	1624.79
957.556	1583.43
957.86	1614.39
958.163	1583.43
958.467	1563.32
958.771	1545.24
959.075	1557.22
959.378	1550.67
959.682	1552.47
959.985	1523.77
960.289	1533.04
960.592	1536.43
960.896	1520.38
961.199	1498.69
961.502	1498.92
961.805	1506.15
962.108	1487.39
962.411	1463.66
962.714	1453.27
963.017	1457.79
963.32	1465.7
963.623	1434.06
963.926	1469.31
964.228	1438.8
964.531	1429.31
964.833	1455.53
965.136	1421.18
965.438	1406.94
965.741	1414.17
966.043	1402.42
966.345	1414.17
966.648	1379.37
966.95	1368.98
967.252	1378.69
967.554	1362.42
967.856	1371.24
968.158	1343.21
968.46	1362.87
968.761	1327.85
969.063	1340.5
969.365	1350.9
969.666	1333.5
969.968	1331.69
970.269	1311.35
970.571	1312.25
970.872	1300.05
971.174	1294.63
971.475	1302.76
971.776	1307.06
972.077	1307.28
972.378	1265.7
972.679	1300.05
972.98	1281.29
973.281	1271.35
973.582	1279.03
973.883	1249.88
974.183	1241.3
974.484	1258.7
974.785	1262.99
975.085	1232.03
975.386	1244.23
975.686	1244.23
975.986	1244.91
976.287	1248.98
976.587	1237.68
976.887	1238.13
977.187	1240.62
977.487	1217.57
977.787	1220.28
978.087	1214.86
978.387	1203.78
978.687	1212.14
978.987	1210.79
979.286	1194.74
979.586	1211.47
979.885	1203.33
980.185	1182.54
980.484	1186.16
980.784	1180.73
981.083	1161.07
981.382	1168.75
981.682	1189.32
981.981	1175.53
982.28	1166.72
982.579	1166.27
982.878	1185.7
983.177	1157.68
983.475	1158.36
983.774	1143.67
984.073	1135.08
984.372	1134.63
984.67	1144.35
984.969	1153.61
985.267	1148.87
985.566	1137.12
985.864	1099.6
986.162	1112.48
986.461	1126.04
986.759	1134.86
987.057	1100.96
987.355	1114.07
987.653	1126.04
987.951	1084.91
988.249	1083.79
988.547	1083.33
988.844	1092.15
989.142	1061.19
989.44	1084.46
989.737	1070.68
990.035	1075.88
990.332	1064.8
990.63	1051.24
990.927	1047.85
991.224	1053.28
991.521	1038.59
991.819	1044.24
992.116	1034.97
992.413	1023.9
992.71	1011.7
993.006	1029.32
993.303	1020.96
993.6	991.81
993.897	993.17
994.193	995.88
994.49	1002.66
994.787	973.51
995.083	981.87
995.379	991.58
995.676	993.84
995.972	971.02
996.268	968.31
996.565	980.51
996.861	962.43
997.157	942.32
997.453	966.73
997.749	952.94
998.044	931.92
998.34	947.74
998.636	914.07
998.932	958.36
999.227	929.21
999.523	919.5
999.818	925.37
1000.114	908.87
1000.409	905.71
1000.704	918.14
1001	911.13
1001.295	914.07
1001.59	901.64
1001.885	899.61
1002.18	897.12
1002.475	910.68
1002.77	886.5
1003.065	860.29
1003.359	859.16
1003.654	867.07
1003.949	853.06
1004.243	878.59
1004.538	834.3
1004.832	846.5
1005.127	860.06
1005.421	848.54
1005.715	832.94
1006.009	861.87
1006.304	833.85
1006.598	839.72
1006.892	863.45
1007.186	821.65
1007.48	824.36
1007.773	839.95
1008.067	812.38
1008.361	823.23
1008.655	811.48
1008.948	819.39
1009.242	784.58
1009.535	791.59
1009.829	793.62
1010.122	803.11
1010.415	774.64
1010.708	755.21
1011.001	783.45
1011.295	789.78
1011.588	763.34
1011.881	776.22
1012.173	743.91
1012.466	771.93
1012.759	775.77
1013.052	771.93
1013.344	757.69
1013.637	746.17
1013.93	777.8
1014.222	770.57
1014.514	786.62
1014.807	754.53
1015.099	773.28
1015.391	742.78
1015.683	721.08
1015.976	749.33
1016.268	736.68
1016.56	752.04
1016.851	741.87
1017.143	729.44
1017.435	709.78
1017.727	702.1
1018.018	714.53
1018.31	718.6
1018.602	690.35
1018.893	714.98
1019.185	700.52
1019.476	686.06
1019.767	693.96
1020.058	698.03
1020.35	678.82
1020.641	688.54
1020.932	680.41
1021.223	690.35
1021.514	706.39
1021.804	676.56
1022.095	690.12
1022.386	681.99
1022.677	668.2
1022.967	677.24
1023.258	658.26
1023.548	663.01
1023.839	668.2
1024.129	670.24
1024.419	654.87
1024.709	654.64
1025	643.57
1025.29	648.09
1025.58	638.15
1025.87	648.32
1026.16	632.05
1026.449	653.74
1026.739	634.53
1027.029	626.4
1027.319	620.97
1027.608	616.23
1027.898	618.03
1028.187	634.31
1028.477	592.72
1028.766	615.1
1029.055	599.96
1029.344	621.65
1029.634	608.54
1029.923	607.19
1030.212	581.65
1030.501	599.5
1030.79	574.87
1031.078	578.94
1031.367	586.62
1031.656	598.37
1031.945	578.26
1032.233	597.7
1032.522	575.1
1032.81	574.19
1033.099	580.52
1033.387	566.51
1033.675	580.97
1033.963	572.39
1034.251	571.48
1034.54	565.15
1034.828	546.85
1035.116	563.8
1035.403	571.71
1035.691	526.51
1035.979	540.75
1036.267	573.97
1036.554	553.4
1036.842	521.09
1037.129	538.04
1037.417	538.26
1037.704	527.64
1037.992	520.18
1038.279	554.76
1038.566	555.66
1038.853	555.66
1039.14	555.66
