Data from foam1_polythene_foam_FLMS001491_00013.txt Node
Date: Wed Feb 08 10:54:27 GMT 2017
User: dcchb
Spectrometer: FLMS00149
Trigger mode: 0
Integration Time (sec): 2.000000E-2
Scans to average: 10
Electric dark correction enabled: true
Nonlinearity correction enabled: false
Boxcar width: 0
XAxis mode: Wavelengths
Number of Pixels in Spectrum: 2048
>>>>>Begin Spectral Data<<<<<
341.393	-16.98
341.776	-16.98
342.16	-16.98
342.543	-61.27
342.927	-53.13
343.31	-69.4
343.693	-72.57
344.077	-54.94
344.46	-60.14
344.843	-54.04
345.226	-35.51
345.61	-20.59
345.993	-16.75
346.376	-5.45
346.759	18.05
347.142	25.28
347.525	33.42
347.908	52.63
348.291	68.9
348.674	77.03
349.057	114.09
349.44	131.27
349.823	150.25
350.206	154.09
350.588	178.27
350.971	200.42
351.354	206.52
351.737	244.03
352.119	227.08
352.502	246.07
352.884	269.8
353.267	252.85
353.65	270.02
354.032	283.81
354.414	287.87
354.797	295.56
355.179	307.31
355.562	312.96
355.944	303.47
356.326	300.53
356.709	318.61
357.091	320.42
357.473	335.56
357.855	329.23
358.238	311.15
358.62	299.62
359.002	326.52
359.384	334.65
359.766	326.97
360.148	314.54
360.53	348.66
360.912	324.03
361.294	322.45
361.676	311.15
362.057	319.29
362.439	294.88
362.821	303.24
363.203	334.43
363.584	319.74
363.966	302.34
364.348	317.25
364.729	311.6
365.111	307.31
365.493	309.57
365.874	296.46
366.256	289.68
366.637	310.02
367.019	313.64
367.4	301.66
367.781	289
368.163	305.05
368.544	294.2
368.925	286.74
369.306	289.68
369.688	283.81
370.069	299.4
370.45	298.27
370.831	315.67
371.212	281.09
371.593	317.25
371.974	302.56
372.355	297.14
372.736	312.96
373.117	301.21
373.498	322
373.879	309.79
374.26	298.27
374.641	298.95
375.021	286.29
375.402	316.57
375.783	304.14
376.163	283.35
376.544	311.15
376.925	303.69
377.305	302.56
377.686	302.56
378.066	303.92
378.447	314.77
378.827	316.12
379.208	331.26
379.588	318.16
379.968	297.59
380.349	319.74
380.729	303.24
381.109	309.12
381.489	325.61
381.87	315.67
382.25	320.19
382.63	324.93
383.01	336.01
383.39	326.52
383.77	329.91
384.15	334.43
384.53	323.58
384.91	336.91
385.29	336.46
385.67	330.36
386.049	351.37
386.429	355.22
386.809	350.47
387.189	337.82
387.568	340.75
387.948	359.28
388.328	320.64
388.707	359.28
389.087	321.55
389.466	336.69
389.846	326.06
390.225	337.14
390.605	346.18
390.984	331.71
391.363	363.58
391.743	348.21
392.122	363.58
392.501	356.57
392.881	357.93
393.26	365.16
393.639	364.71
394.018	363.13
394.397	354.54
394.776	364.71
395.155	352.05
395.534	358.61
395.913	373.52
396.292	357.02
396.671	347.31
397.05	383.92
397.429	393.63
397.808	381.43
398.186	354.76
398.565	377.81
398.944	379.4
399.323	368.78
399.701	372.84
400.08	382.79
400.458	377.81
400.837	368.78
401.215	369.23
401.594	387.76
401.972	394.31
402.351	392.28
402.729	376.91
403.107	383.92
403.486	401.32
403.864	378.04
404.242	387.76
404.62	397.48
404.999	383.46
405.377	391.15
405.755	378.94
406.133	370.58
406.511	392.28
406.889	398.38
407.267	412.62
407.645	404.25
408.023	417.81
408.401	422.56
408.779	422.33
409.156	420.07
409.534	417.36
409.912	395.67
410.29	416.68
410.667	423.24
411.045	420.53
411.422	444.03
411.8	415.55
412.178	427.98
412.555	449.23
412.933	446.97
413.31	442.22
413.687	436.12
414.065	427.31
414.442	443.35
414.819	438.38
415.197	448.55
415.574	442.22
415.951	460.98
416.328	453.07
416.705	472.05
417.082	461.65
417.46	446.74
417.837	474.99
418.214	463.46
418.591	491.26
418.967	497.81
419.344	444.48
419.721	467.76
420.098	488.77
420.475	490.35
420.852	478.6
421.228	479.06
421.605	483.57
421.982	493.29
422.358	481.77
422.735	487.64
423.111	497.81
423.488	482.9
423.864	514.76
424.241	481.09
424.617	500.98
424.994	490.58
425.37	506.17
425.746	496.91
426.123	503.46
426.499	502.78
426.875	510.24
427.251	515.21
427.627	523.57
428.003	525.38
428.379	531.71
428.756	544.59
429.132	535.78
429.507	544.14
429.883	533.97
430.259	569.45
430.635	538.04
431.011	554.31
431.387	565.15
431.763	593.85
432.138	549.79
432.514	595.89
432.89	591.37
433.265	575.78
433.641	601.54
434.016	563.35
434.392	582.1
434.767	604.7
435.143	614.19
435.518	618.94
435.894	612.16
436.269	623.23
436.644	626.4
437.02	628.66
437.395	644.7
437.77	626.85
438.145	662.55
438.52	639.05
438.895	662.55
439.271	664.14
439.646	662.1
440.021	653.06
440.395	650.12
440.77	672.27
441.145	658.49
441.52	690.12
441.895	679.28
442.27	676.34
442.645	703.91
443.019	677.69
443.394	701.42
443.769	727.64
444.143	736.68
444.518	703.46
444.892	710.91
445.267	716.79
445.641	727.64
446.016	698.94
446.39	754.08
446.764	747.52
447.139	760.86
447.513	741.65
447.887	737.35
448.262	777.58
448.636	764.02
449.01	767.86
449.384	774.41
449.758	777.35
450.132	785.94
450.506	787.75
450.88	795.88
451.254	814.41
451.628	793.62
452.002	812.15
452.376	811.7
452.75	812.15
453.123	828.65
453.497	843.11
453.871	808.54
454.244	864.58
454.618	855.99
454.992	843.57
455.365	835.88
455.739	857.8
456.112	848.31
456.486	871.14
456.859	852.38
457.232	873.17
457.606	841.76
457.979	852.38
458.352	900.51
458.725	878.59
459.099	874.3
459.472	894.19
459.845	896.45
460.218	891.02
460.591	886.5
460.964	902.32
461.337	924.69
461.71	912.94
462.083	936.67
462.456	949.1
462.829	915.2
463.201	950.46
463.574	945.94
463.947	947.97
464.32	971.25
464.692	941.19
465.065	971.92
465.438	971.02
465.81	994.97
466.183	991.81
466.555	1027.29
466.928	1016.44
467.3	1010.11
467.672	1026.61
468.045	1022.77
468.417	1036.55
468.789	1022.54
469.161	1051.92
469.534	1070.68
469.906	1075.2
470.278	1077.23
470.65	1058.7
471.022	1116.1
471.394	1110.45
471.766	1123.33
472.138	1136.21
472.51	1147.74
472.882	1138.92
473.253	1168.98
473.625	1171.47
473.997	1185.25
474.369	1174.4
474.74	1191.8
475.112	1212.14
475.484	1231.13
475.855	1249.2
476.227	1244.01
476.598	1287.17
476.97	1305.02
477.341	1299.37
477.713	1324.23
478.084	1334.63
478.455	1352.03
478.827	1387.96
479.198	1375.75
479.569	1367.17
479.94	1421.63
480.311	1417.79
480.682	1469.76
481.053	1427.73
481.424	1495.53
481.795	1503.21
482.166	1533.04
482.537	1532.36
482.908	1564.9
483.279	1539.82
483.65	1587.27
484.021	1583.43
484.391	1608.07
484.762	1639.93
485.133	1653.26
485.503	1673.6
485.874	1711.34
486.244	1704.33
486.615	1722.86
486.985	1691.45
487.356	1762.86
487.726	1775.74
488.097	1786.59
488.467	1784.56
488.837	1836.99
489.207	1892.8
489.578	1854.61
489.948	1894.39
490.318	1901.16
490.688	1942.07
491.058	1956.08
491.428	1970.32
491.798	1981.39
492.168	2000.6
492.538	2021.84
492.908	2043.31
493.278	2062.74
493.648	2075.17
494.017	2078.79
494.387	2101.84
494.757	2098.22
495.126	2140.25
495.496	2127.83
495.866	2165.11
496.235	2176.19
496.605	2198.56
496.974	2214.6
497.344	2242.4
497.713	2238.78
498.082	2241.95
498.452	2287.37
498.821	2297.76
499.19	2290.98
499.559	2325.56
499.928	2325.11
500.298	2314.49
500.667	2329.63
501.036	2352.68
501.405	2376.86
501.774	2367.59
502.143	2389.06
502.512	2424.31
502.88	2429.51
503.249	2437.65
503.618	2459.57
503.987	2471.55
504.356	2494.82
504.724	2490.3
505.093	2529.62
505.462	2497.99
505.83	2505.89
506.199	2563.07
506.567	2559
506.936	2582.5
507.304	2605.1
507.672	2611.43
508.041	2612.33
508.409	2644.65
508.777	2678.09
509.145	2697.08
509.514	2687.13
509.882	2714.7
510.25	2739.33
510.618	2735.49
510.986	2735.49
511.354	2778.2
511.722	2791.54
512.09	2817.3
512.458	2828.82
512.826	2832.67
513.193	2847.81
513.561	2852.55
513.929	2874.47
514.297	2928.03
514.664	2926.67
515.032	2960.35
515.4	2985.43
515.767	2984.98
516.135	3021.14
516.502	3005.99
516.869	3013.23
517.237	3033.11
517.604	3045.54
517.972	3049.16
518.339	3124.41
518.706	3131.41
519.073	3151.3
519.44	3142.71
519.808	3149.95
520.175	3179.78
520.542	3268.81
520.909	3228.14
521.276	3241.92
521.643	3232.43
522.009	3295.25
522.376	3312.88
522.743	3364.18
523.11	3384.52
523.477	3349.26
523.843	3396.72
524.21	3409.15
524.577	3467.9
524.943	3528.92
525.31	3517.17
525.676	3518.07
526.043	3539.77
526.409	3544.51
526.776	3599.2
527.142	3593.32
527.508	3604.85
527.874	3643.94
528.241	3649.37
528.607	3695.92
528.973	3733.88
529.339	3726.43
529.705	3759.42
530.071	3738.63
530.437	3794
530.803	3802.36
531.169	3866.08
531.535	3797.39
531.901	3890.72
532.267	3890.04
532.632	3885.52
532.998	3889.59
533.364	3916.03
533.73	3940.43
534.095	3990.6
534.461	3994.89
534.826	3946.99
535.192	4006.19
535.557	4034.67
535.923	4039.87
536.288	4052.52
536.653	4066.76
537.019	4065.63
537.384	4116.02
537.749	4161.67
538.114	4161.67
538.479	4153.53
538.845	4186.75
539.21	4152.86
539.575	4204.15
539.94	4217.26
540.305	4197.6
540.67	4211.16
541.034	4246.19
541.399	4215
541.764	4302.68
542.129	4280.99
542.494	4318.5
542.858	4320.76
543.223	4353.76
543.587	4366.64
543.952	4356.02
544.316	4374.55
544.681	4329.58
545.045	4397.37
545.41	4447.31
545.774	4439.4
546.138	4451.38
546.503	4505.84
546.867	4481.66
547.231	4512.4
547.595	4531.15
547.959	4511.04
548.324	4531.6
548.688	4531.38
549.052	4554.2
549.416	4619.51
549.779	4614.99
550.143	4636.91
550.507	4664.93
550.871	4688.89
551.235	4684.82
551.599	4720.75
551.962	4681.2
552.326	4704.25
552.689	4713.29
553.053	4708.1
553.417	4764.82
553.78	4830.81
554.143	4842.33
554.507	4854.53
554.87	4864.02
555.234	4889.56
555.597	4898.6
555.96	4943.8
556.323	4950.35
556.686	4932.72
557.05	4972.04
557.413	4994.19
557.776	5064.92
558.139	5086.17
558.502	5088.65
558.865	5101.31
559.228	5093.4
559.59	5066.51
559.953	5068.99
560.316	5211.81
560.679	5218.82
561.041	5264.01
561.404	5299.04
561.767	5315.76
562.129	5282.77
562.492	5359.83
562.854	5315.99
563.217	5374.75
563.579	5388.3
563.941	5411.81
564.304	5419.49
564.666	5500.39
565.028	5464.23
565.39	5578.81
565.753	5567.28
566.115	5537
566.477	5577
566.839	5601.18
567.201	5642.54
567.563	5628.52
567.925	5675.75
568.287	5708.07
568.648	5712.14
569.01	5768.86
569.372	5900.61
569.734	5796.88
570.095	5771.57
570.457	5801.85
570.819	5853.38
571.18	5824
571.542	5851.8
571.903	5884.34
572.265	5882.53
572.626	5899.25
572.987	5942.64
573.349	6010.66
573.71	6028.06
574.071	6036.2
574.432	6061.06
574.794	6088.17
575.155	6093.82
575.516	6097.21
575.877	6074.61
576.238	6126.59
576.599	6181.73
576.96	6173.59
577.32	6177.66
577.681	6196.42
578.042	6171.33
578.403	6195.06
578.763	6181.73
579.124	6233.25
579.485	6195.06
579.845	6134.95
580.206	6252.91
580.566	6254.04
580.927	6266.25
581.287	6286.36
581.648	6221.96
582.008	6319.13
582.368	6293.59
582.728	6300.6
583.089	6290.43
583.449	6231.45
583.809	6245.46
584.169	6297.66
584.529	6268.96
584.889	6350.31
585.249	6321.84
585.609	6303.53
585.969	6357.54
586.329	6327.94
586.688	6321.16
587.048	6356.64
587.408	6263.08
587.768	6316.19
588.127	6287.26
588.487	6275.06
588.846	6270.54
589.206	6305.12
589.565	6289.75
589.925	6353.48
590.284	6336.75
590.643	6353.03
591.003	6372.23
591.362	6349.18
591.721	6392.35
592.08	6365.68
592.44	6399.13
592.799	6356.64
593.158	6387.15
593.517	6382.63
593.876	6378.79
594.235	6314.38
594.593	6359.8
594.952	6327.26
595.311	6357.32
595.67	6364.32
596.029	6400.71
596.387	6392.57
596.746	6406.36
597.104	6424.66
597.463	6377.21
597.822	6424.21
598.18	6399.58
598.538	6395.51
598.897	6434.6
599.255	6349.64
599.613	6447.49
599.972	6422.4
600.33	6453.14
600.688	6390.99
601.046	6441.84
601.404	6468.5
601.762	6435.28
602.12	6482.29
602.478	6482.51
602.836	6448.84
603.194	6405.45
603.552	6466.02
603.91	6468.5
604.268	6463.3
604.625	6426.24
604.983	6486.35
605.341	6423.08
605.698	6539.01
606.056	6479.35
606.413	6500.59
606.771	6499.91
607.128	6539.91
607.485	6509.86
607.843	6482.74
608.2	6559.12
608.557	6587.14
608.914	6496.3
609.272	6547.82
609.629	6590.76
609.986	6568.39
610.343	6529.74
610.7	6627.37
611.057	6575.84
611.414	6534.49
611.771	6605.45
612.127	6598.44
612.484	6572.68
612.841	6585.56
613.198	6594.37
613.554	6588.73
613.911	6624.88
614.267	6653.81
614.624	6604.09
614.98	6629.18
615.337	6696.74
615.693	6645.45
616.05	6666.46
616.406	6642.73
616.762	6654.03
617.118	6630.53
617.475	6589.4
617.831	6619.91
618.187	6593.02
618.543	6617.88
618.899	6725.22
619.255	6677.76
619.611	6716.63
619.967	6617.88
620.323	6660.14
620.678	6621.04
621.034	6667.59
621.39	6676.86
621.746	6661.27
622.101	6740.59
622.457	6686.58
622.812	6655.62
623.168	6692
623.523	6694.94
623.879	6728.38
624.234	6588.27
624.589	6623.75
624.945	6678.67
625.3	6704.2
625.655	6696.74
626.01	6671.66
626.365	6642.73
626.72	6682.96
627.075	6669.17
627.43	6637.09
627.785	6593.24
628.14	6616.52
628.495	6658.78
628.85	6618.78
629.205	6652.68
629.559	6672.56
629.914	6647.48
630.269	6626.24
630.623	6586.92
630.978	6589.63
631.332	6577.88
631.687	6588.05
632.041	6572.45
632.396	6534.49
632.75	6560.03
633.104	6605
633.459	6558.44
633.813	6554.38
634.167	6510.31
634.521	6485.68
634.875	6529.52
635.229	6509.63
635.583	6435.06
635.937	6558.44
636.291	6529.29
636.645	6497.43
636.999	6428.05
637.352	6463.08
637.706	6475.73
638.06	6450.88
638.413	6435.06
638.767	6393.25
639.121	6412.68
639.474	6384.44
639.828	6394.61
640.181	6406.81
640.534	6415.85
640.888	6396.87
641.241	6334.95
641.594	6370.88
641.947	6336.08
642.301	6329.07
642.654	6329.52
643.007	6289.98
643.36	6374.72
643.713	6348.96
644.066	6340.14
644.419	6296.08
644.771	6176.08
645.124	6144.89
645.477	6096.31
645.83	6070.32
646.182	6028.51
646.535	6045.01
646.888	6140.83
647.24	6115.29
647.593	6147.83
647.945	6215.63
648.298	6159.81
648.65	6146.02
649.002	6099.47
649.355	6082.52
649.707	6059.93
650.059	6019.02
650.411	6140.83
650.763	6052.92
651.115	6155.06
651.467	6169.53
651.819	6153.71
652.171	6118
652.523	6088.4
652.875	6071.9
653.227	6067.83
653.578	6137.89
653.93	6129.08
654.282	6066.25
654.633	6080.04
654.985	6069.64
655.337	6069.42
655.688	6087.5
656.039	6087.04
656.391	6018.12
656.742	6104.44
657.094	6041.62
657.445	6063.99
657.796	6085.46
658.147	6018.57
658.498	6073.03
658.849	5986.48
659.2	6018.34
659.551	5984.22
659.902	6005.01
660.253	6035.07
660.604	5970.66
660.955	5987.38
661.306	5980.83
661.656	5941.96
662.007	5967.27
662.358	5955.3
662.708	5931.57
663.059	5933.15
663.409	5899.93
663.76	6002.07
664.11	5984.9
664.461	6000.72
664.811	6005.69
665.161	6006.14
665.511	5929.99
665.862	5957.56
666.212	5957.56
666.562	5944.9
666.912	5925.24
667.262	5957.78
667.612	5968.85
667.962	5921.4
668.312	5892.47
668.662	5941.28
669.011	5946.26
669.361	5898.57
669.711	5892.25
670.06	5910.78
670.41	5913.26
670.76	5885.01
671.109	5896.77
671.459	5915.97
671.808	5919.82
672.157	5896.99
672.507	5850.89
672.856	5854.96
673.205	5899.93
673.554	5861.96
673.904	5804.11
674.253	5868.97
674.602	5847.05
674.951	5803.66
675.3	5759.59
675.649	5859.25
675.998	5821.74
676.346	5854.96
676.695	5857.22
677.044	5786.49
677.393	5867.84
677.741	5831.68
678.09	5834.85
678.438	5797.56
678.787	5799.37
679.135	5835.07
679.484	5745.58
679.832	5754.4
680.181	5777.67
680.529	5781.51
680.877	5761.63
681.225	5752.14
681.573	5755.75
681.922	5709.2
682.27	5732.48
682.618	5742.87
682.966	5682.76
683.314	5684.12
683.661	5657
684.009	5653.38
684.357	5635.08
684.705	5645.7
685.053	5611.58
685.4	5595.3
685.748	5607.28
686.095	5602.54
686.443	5578.13
686.79	5561.86
687.138	5567.51
687.485	5542.42
687.832	5519.15
688.18	5539.71
688.527	5520.96
688.874	5528.87
689.221	5544.46
689.568	5503.33
689.915	5508.53
690.262	5511.69
690.609	5479.6
690.956	5428.3
691.303	5456.78
691.65	5402.09
691.997	5424.01
692.344	5405.71
692.69	5424.46
693.037	5363.22
693.383	5364.58
693.73	5387.63
694.077	5318.93
694.423	5311.92
694.769	5311.02
695.116	5319.83
695.462	5316.89
695.808	5241.87
696.155	5238.7
696.501	5256.78
696.847	5225.15
697.193	5194.19
697.539	5200.96
697.885	5205.26
698.231	5203
698.577	5177.69
698.923	5149.21
699.269	5158.25
699.614	5153.73
699.96	5163.45
700.306	5137.46
700.651	5093.62
700.997	5083
701.342	5075.09
701.688	5014.3
702.033	5008.2
702.379	5074.19
702.724	5009.78
703.069	5004.36
703.415	4941.08
703.76	4986.06
704.105	4932.5
704.45	4938.82
704.795	4935.44
705.14	4896.11
705.485	4939.73
705.83	4959.84
706.175	4945.38
706.52	4933.85
706.865	4917.58
707.209	4910.8
707.554	4865.38
707.899	4908.54
708.243	4873.29
708.588	4828.09
708.932	4789.68
709.277	4804.37
709.621	4785.83
709.966	4786.96
710.31	4795.55
710.654	4721.2
710.998	4741.09
711.342	4758.72
711.687	4696.12
712.031	4710.13
712.375	4692.96
712.719	4752.84
713.063	4704.25
713.407	4716.46
713.75	4676.68
714.094	4651.37
714.438	4675.56
714.782	4655.22
715.125	4611.83
715.469	4657.7
715.812	4600.75
716.156	4566.63
716.499	4575.9
716.843	4644.82
717.186	4628.1
717.53	4621.09
717.873	4623.13
718.216	4603.01
718.559	4587.87
718.902	4553.98
719.246	4569.8
719.589	4576.57
719.932	4533.64
720.275	4544.49
720.617	4532.51
720.96	4525.28
721.303	4483.47
721.646	4483.24
721.989	4439.18
722.331	4433.3
722.674	4424.26
723.016	4424.26
723.359	4419.74
723.701	4478.72
724.044	4407.31
724.386	4383.59
724.729	4446.18
725.071	4491.38
725.413	4466.52
725.755	4424.26
726.097	4443.7
726.439	4395.56
726.782	4398.5
727.124	4403.7
727.465	4355.79
727.807	4383.81
728.149	4389.01
728.491	4326.19
728.833	4380.65
729.175	4331.84
729.516	4318.95
729.858	4301.55
730.199	4306.75
730.541	4306.98
730.882	4303.81
731.224	4320.31
731.565	4308.56
731.906	4320.08
732.248	4316.02
732.589	4284.83
732.93	4232.63
733.271	4303.59
733.612	4270.59
733.953	4287.54
734.294	4262.68
734.635	4209.58
734.976	4235.57
735.317	4191.05
735.658	4179.75
735.999	4202.35
736.339	4225.62
736.68	4211.84
737.021	4146.53
737.361	4194.44
737.702	4179.75
738.042	4235.79
738.383	4193.08
738.723	4203.03
739.063	4186.98
739.404	4205.28
739.744	4196.47
740.084	4160.31
740.424	4133.2
740.764	4148.11
741.104	4176.59
741.444	4145.4
741.784	4093.42
742.124	4109.92
742.464	4118.51
742.804	4106.08
743.143	4065.18
743.483	4079.86
743.823	4081.67
744.162	4079.19
744.502	4064.05
744.841	4075.12
745.181	4097.72
745.52	4068.11
745.86	4068.79
746.199	4109.24
746.538	4061.56
746.877	4058.85
747.216	4040.54
747.556	4062.92
747.895	4054.1
748.234	4021.33
748.573	3974.78
748.911	3983.82
749.25	3963.03
749.589	3978.17
749.928	4012.07
750.267	3962.13
750.605	3935.01
750.944	3953.77
751.283	3941.34
751.621	3978.85
751.96	3942.69
752.298	3909.47
752.636	3950.38
752.975	3895.69
753.313	3948.57
753.651	3945.63
753.989	3890.94
754.327	3890.26
754.666	3877.61
755.004	3885.29
755.342	3915.35
755.679	3851.17
756.017	3824.73
756.355	3808.69
756.693	3807.56
757.031	3824.96
757.368	3815.01
757.706	3799.87
758.044	3782.47
758.381	3787.22
758.719	3789.48
759.056	3789.93
759.394	3789.25
759.731	3768.46
760.068	3766.43
760.405	3717.16
760.743	3729.14
761.08	3768.46
761.417	3755.35
761.754	3734.34
762.091	3714.68
762.428	3713.32
762.765	3667.67
763.102	3703.83
763.438	3634.9
763.775	3672.87
764.112	3599.43
764.449	3688.91
764.785	3605.53
765.122	3615.47
765.458	3582.93
765.795	3607.11
766.131	3577.05
766.467	3604.4
766.804	3564.17
767.14	3544.74
767.476	3588.8
767.812	3529.37
768.148	3549.93
768.485	3479.65
768.821	3507.68
769.157	3489.15
769.492	3468.58
769.828	3509.26
770.164	3416.38
770.5	3426.1
770.836	3415.02
771.171	3427.68
771.507	3419.77
771.842	3367.11
772.178	3371.41
772.513	3373.89
772.849	3424.97
773.184	3322.82
773.519	3400.33
773.855	3360.34
774.19	3373.22
774.525	3347.68
774.86	3335.48
775.195	3361.01
775.53	3301.58
775.865	3288.92
776.2	3300.45
776.535	3216.61
776.87	3276.72
777.205	3276.72
777.539	3217.29
777.874	3256.61
778.209	3195.37
778.543	3176.61
778.878	3166.67
779.212	3212.77
779.547	3126.67
779.881	3189.49
780.215	3152.21
780.55	3160.57
780.884	3150.62
781.218	3121.92
781.552	3113.11
781.886	3128.93
782.22	3122.83
782.554	3122.38
782.888	3040.57
783.222	3093.9
783.556	3054.13
783.889	3087.12
784.223	3054.13
784.557	3061.13
784.89	3008.71
785.224	3010.97
785.557	3013.45
785.891	3001.7
786.224	2965.09
786.558	2988.82
786.891	2924.64
787.224	2981.14
787.557	2945.66
787.891	2953.79
788.224	2918.99
788.557	2931.65
788.89	2915.83
789.223	2939.78
789.556	2900.01
789.888	2895.71
790.221	2920.57
790.554	2898.2
790.887	2874.25
791.219	2872.44
791.552	2859.78
791.884	2817.98
792.217	2808.03
792.549	2807.13
792.882	2775.94
793.214	2776.85
793.546	2761.48
793.879	2769.62
794.211	2748.83
794.543	2747.92
794.875	2774.59
795.207	2736.62
795.539	2715.83
795.871	2780.24
796.203	2704.31
796.535	2713.8
796.867	2715.15
797.198	2761.03
797.53	2681.48
797.862	2705.66
798.193	2789.95
798.525	2692.33
798.856	2695.27
799.188	2653.46
799.519	2649.85
799.85	2634.93
800.182	2679
800.513	2646.91
800.844	2614.37
801.175	2648.26
801.506	2599.45
801.837	2608.04
802.168	2595.84
802.499	2594.48
802.83	2610.3
803.161	2570.75
803.491	2563.52
803.822	2596.97
804.153	2553.8
804.483	2558.55
804.814	2546.35
805.145	2567.36
805.475	2558.32
805.805	2575.5
806.136	2537.98
806.466	2553.8
806.796	2540.7
807.126	2523.3
807.457	2508.83
807.787	2483.07
808.117	2499.79
808.447	2482.84
808.777	2477.87
809.107	2457.99
809.436	2455.27
809.766	2422.28
810.096	2448.04
810.426	2446.46
810.755	2443.3
811.085	2461.83
811.414	2432
811.744	2404.65
812.073	2455.27
812.403	2428.16
812.732	2419.8
813.061	2389.06
813.39	2428.16
813.719	2400.59
814.049	2414.6
814.378	2408.95
814.707	2420.7
815.036	2381.83
815.365	2359.01
815.693	2342.51
816.022	2325.79
816.351	2328.5
816.68	2357.65
817.008	2347.71
817.337	2314.26
817.665	2338.44
817.994	2330.31
818.322	2303.64
818.651	2315.62
818.979	2300.02
819.307	2308.16
819.636	2300.02
819.964	2296.41
820.292	2285.11
820.62	2315.62
820.948	2313.13
821.276	2342.51
821.604	2323.07
821.932	2330.31
822.259	2323.07
822.587	2308.16
822.915	2283.53
823.243	2330.53
823.57	2284.66
823.898	2273.81
824.225	2300.93
824.553	2271.55
824.88	2272
825.207	2288.27
825.535	2276.07
825.862	2276.52
826.189	2285.79
826.516	2267.71
826.843	2296.86
827.17	2268.16
827.497	2269.52
827.824	2294.6
828.151	2334.6
828.478	2278.1
828.805	2308.16
829.131	2274.94
829.458	2253.7
829.785	2258.67
830.111	2273.81
830.438	2317.2
830.764	2288.5
831.09	2318.1
831.417	2290.08
831.743	2301.15
832.069	2305.22
832.395	2295.28
832.722	2243.75
833.048	2247.82
833.374	2257.54
833.7	2257.09
834.026	2228.84
834.351	2252.79
834.677	2236.07
835.003	2286.24
835.329	2248.27
835.654	2245.11
835.98	2215.73
836.306	2219.8
836.631	2260.93
836.956	2228.16
837.282	2245.79
837.607	2237.65
837.932	2255.96
838.258	2255.96
838.583	2254.15
838.908	2241.49
839.233	2220.48
839.558	2231.33
839.883	2269.52
840.208	2232.46
840.533	2250.76
840.858	2234.49
841.182	2218.9
841.507	2206.92
841.832	2201.04
842.156	2177.32
842.481	2186.35
842.805	2182.29
843.13	2166.02
843.454	2174.15
843.778	2168.73
844.103	2159.01
844.427	2150.42
844.751	2127.37
845.075	2157.2
845.399	2167.15
845.723	2150.88
846.047	2153.36
846.371	2146.81
846.695	2112.01
847.019	2128.96
847.343	2123.31
847.666	2155.62
847.99	2137.32
848.313	2126.24
848.637	2102.74
848.96	2084.21
849.284	2115.85
849.607	2068.62
849.931	2112.91
850.254	2069.75
850.577	2020.48
850.9	2023.65
851.223	2064.55
851.546	2000.82
851.869	1998.11
852.192	2001.05
852.515	1986.13
852.838	1972.12
853.161	1964.67
853.483	1997.89
853.806	1971.22
854.129	1966.25
854.451	1961.28
854.774	1988.17
855.096	1982.29
855.419	1975.51
855.741	1970.32
856.063	1970.54
856.385	1980.71
856.708	1989.98
857.03	1946.59
857.352	1955.4
857.674	1973.25
857.996	1952.91
858.318	1913.14
858.64	1928.96
858.961	1896.42
859.283	1881.5
859.605	1908.62
859.926	1895.97
860.248	1895.97
860.57	1879.47
860.891	1907.04
861.212	1876.53
861.534	1873.14
861.855	1857.1
862.176	1871.11
862.498	1858
862.819	1887.38
863.14	1870.43
863.461	1887.38
863.782	1869.75
864.103	1854.16
864.424	1895.29
864.745	1861.39
865.065	1828.85
865.386	1852.58
865.707	1872.24
866.027	1882.63
866.348	1869.98
866.668	1835.18
866.989	1852.35
867.309	1845.12
867.63	1823.2
867.95	1815.07
868.27	1822.52
868.59	1824.33
868.91	1820.49
869.23	1799.47
869.55	1782.07
869.87	1774.61
870.19	1780.26
870.51	1774.16
870.83	1779.59
871.15	1773.26
871.469	1805.12
871.789	1815.52
872.109	1762.86
872.428	1760.83
872.748	1773.26
873.067	1779.59
873.386	1792.92
873.706	1784.11
874.025	1785.91
874.344	1795.4
874.663	1756.31
874.982	1782.07
875.301	1788.17
875.62	1772.58
875.939	1801.28
876.258	1781.85
876.577	1778.91
876.896	1761.73
877.214	1790.21
877.533	1763.99
877.852	1757.44
878.17	1754.05
878.489	1746.37
878.807	1732.81
879.125	1722.64
879.444	1730.32
879.762	1720.6
880.08	1719.93
880.398	1747.5
880.716	1721.28
881.034	1728.97
881.352	1745.01
881.67	1708.4
881.988	1715.18
882.306	1741.62
882.624	1742.98
882.941	1737.78
883.259	1703.2
883.577	1713.15
883.894	1683.09
884.212	1740.94
884.529	1750.21
884.846	1739.59
885.164	1713.6
885.481	1718.57
885.798	1707.5
886.115	1701.17
886.432	1674.05
886.75	1708.18
887.067	1697.78
887.383	1657.1
887.7	1636.09
888.017	1630.44
888.334	1634.73
888.651	1621.62
888.967	1639.7
889.284	1659.59
889.6	1612.13
889.917	1617.78
890.233	1609.65
890.55	1601.51
890.866	1648.52
891.182	1622.98
891.498	1600.16
891.815	1593.38
892.131	1615.75
892.447	1613.71
892.763	1582.53
893.079	1600.38
893.395	1612.58
893.71	1580.5
894.026	1592.25
894.342	1589.08
894.657	1590.44
894.973	1588.86
895.289	1592.7
895.604	1594.73
895.92	1585.01
896.235	1567.61
896.55	1569.87
896.865	1552.93
897.181	1565.13
897.496	1558.8
897.811	1530.55
898.126	1539.37
898.441	1507.05
898.756	1541.4
899.071	1506.15
899.386	1523.77
899.7	1505.69
900.015	1519.25
900.33	1505.02
900.644	1459.37
900.959	1512.93
901.273	1482.19
901.588	1479.03
901.902	1458.92
902.216	1469.54
902.531	1495.98
902.845	1520.38
903.159	1451.23
903.473	1452.36
903.787	1470.44
904.101	1487.84
904.415	1479.71
904.729	1477.45
905.042	1463.66
905.356	1442.65
905.67	1452.36
905.984	1484.23
906.297	1441.97
906.611	1435.19
906.924	1438.8
907.237	1420.05
907.551	1406.94
907.864	1433.38
908.177	1387.51
908.491	1400.61
908.804	1370.33
909.117	1351.57
909.43	1379.37
909.743	1356.09
910.056	1359.48
910.368	1317.45
910.681	1352.7
910.994	1352.48
911.307	1362.2
911.619	1340.5
911.932	1332.37
912.244	1345.25
912.557	1328.3
912.869	1337.34
913.181	1367.62
913.494	1319.03
913.806	1306.6
914.118	1309.32
914.43	1337.34
914.742	1340.73
915.054	1320.84
915.366	1331.69
915.678	1304.34
915.99	1303.44
916.302	1279.26
916.613	1268.64
916.925	1297.56
917.236	1295.08
917.548	1257.79
917.859	1266.38
918.171	1238.13
918.482	1252.14
918.794	1252.37
919.105	1231.58
919.416	1240.39
919.727	1242.2
920.038	1219.83
920.349	1251.92
920.66	1226.83
920.971	1237.68
921.282	1209.88
921.593	1217.11
921.903	1184.12
922.214	1223.44
922.525	1199.04
922.835	1199.94
923.146	1192.93
923.456	1200.62
923.767	1216.44
924.077	1195.19
924.387	1181.18
924.697	1202.88
925.008	1176.66
925.318	1180.51
925.628	1199.26
925.938	1179.6
926.248	1190.67
926.558	1163.78
926.867	1152.71
927.177	1165.14
927.487	1167.17
927.796	1146.16
928.106	1120.62
928.416	1152.48
928.725	1128.53
929.034	1099.83
929.344	1098.47
929.653	1133.28
929.962	1103.67
930.271	1084.69
930.581	1097.34
930.89	1087.17
931.199	1070.45
931.508	1082.2
931.817	1097.12
932.125	1087.85
932.434	1083.11
932.743	1095.08
933.051	1075.2
933.36	1057.57
933.669	1064.35
933.977	1069.77
934.286	1108.19
934.594	1033.16
934.902	1053.05
935.21	1041.75
935.519	1070
935.827	1062.77
936.135	1043.56
936.443	1021.41
936.751	1044.01
937.059	1026.84
937.367	1041.75
937.674	1006.05
937.982	1049.89
938.29	1031.36
938.597	1028.42
938.905	1054.86
939.213	997.69
939.52	1009.66
939.827	998.14
940.135	983.45
940.442	1014.41
940.749	993.62
941.056	981.41
941.363	1002.66
941.67	979.61
941.977	991.36
942.284	974.86
942.591	982.54
942.898	966.5
943.205	987.97
943.511	968.53
943.818	966.05
944.125	971.02
944.431	966.95
944.738	954.75
945.044	965.14
945.35	928.76
945.657	957.46
945.963	936.44
946.269	946.39
946.575	950.91
946.881	953.62
947.187	947.29
947.493	961.08
947.799	923.34
948.105	951.59
948.41	932.15
948.716	918.59
949.022	928.31
949.327	946.39
949.633	899.61
949.938	922.66
950.244	891.93
950.549	895.09
950.854	910.68
951.16	906.61
951.465	903.68
951.77	885.6
952.075	898.03
952.38	873.85
952.685	890.34
952.99	852.15
953.294	876.33
953.599	867.07
953.904	859.84
954.209	866.84
954.513	848.99
954.818	881.3
955.122	855.77
955.426	849.67
955.731	832.04
956.035	850.57
956.339	837.69
956.643	847.86
956.948	869.55
957.252	837.24
957.556	839.27
957.86	826.62
958.163	823.23
958.467	837.01
958.771	842.66
959.075	827.75
959.378	841.98
959.682	822.1
959.985	820.74
960.289	814.41
960.592	828.65
960.896	818.71
961.199	820.06
961.502	799.05
961.805	797.69
962.108	809.89
962.411	781.19
962.714	776
963.017	779.16
963.32	799.72
963.623	804.7
963.926	785.26
964.228	812.38
964.531	773.51
964.833	789.78
965.136	784.81
965.438	757.92
965.741	757.24
966.043	771.7
966.345	766.96
966.648	773.74
966.95	762.66
967.252	754.75
967.554	751.59
967.856	752.95
968.158	764.7
968.46	757.47
968.761	754.75
969.063	745.71
969.365	752.27
969.666	743.23
969.968	755.88
970.269	765.6
970.571	744.81
970.872	759.5
971.174	748.65
971.475	743.23
971.776	749.1
972.077	723.12
972.378	731.93
972.679	751.36
972.98	730.57
973.281	737.58
973.582	730.12
973.883	706.62
974.183	745.49
974.484	728.54
974.785	697.13
975.085	686.28
975.386	708.88
975.686	687.64
975.986	683.8
976.287	711.82
976.587	682.44
976.887	701.87
977.187	677.47
977.487	688.99
977.787	682.89
978.087	689.67
978.387	660.52
978.687	665.72
978.987	688.09
979.286	681.31
979.586	675.21
979.885	659.39
980.185	675.89
980.484	682.21
980.784	684.25
981.083	676.11
981.382	651.48
981.682	687.64
981.981	650.8
982.28	671.37
982.579	666.62
982.878	665.26
983.177	684.25
983.475	665.04
983.774	660.97
984.073	657.13
984.372	640.63
984.67	663.23
984.969	668.2
985.267	657.81
985.566	654.42
985.864	654.19
986.162	639.73
986.461	632.27
986.759	626.17
987.057	639.5
987.355	645.6
987.653	634.98
987.951	647.86
988.249	624.14
988.547	646.96
988.844	627.98
989.142	625.94
989.44	610.8
989.737	610.13
990.035	630.92
990.332	615.55
990.63	631.14
990.927	614.42
991.224	601.76
991.521	625.49
991.819	617.58
992.116	592.05
992.413	615.32
992.71	608.54
993.006	610.35
993.303	621.65
993.6	624.14
993.897	596.57
994.193	588.43
994.49	582.1
994.787	601.54
995.083	583.46
995.379	601.76
995.676	587.75
995.972	606.28
996.268	585.72
996.565	605.83
996.861	584.36
997.157	549.11
997.453	591.14
997.749	574.42
998.044	555.89
998.34	574.65
998.636	549.11
998.932	578.04
999.227	577.81
999.523	569.45
999.818	564.25
1000.114	565.83
1000.409	558.15
1000.704	569.9
1001	552.95
1001.295	580.97
1001.59	552.5
1001.885	559.05
1002.18	536
1002.475	564.48
1002.77	556.79
1003.065	542.56
1003.359	558.6
1003.654	553.86
1003.949	559.96
1004.243	545.72
1004.538	542.1
1004.832	551.37
1005.127	547.08
1005.421	529
1005.715	528.09
1006.009	534.87
1006.304	538.26
1006.598	538.26
1006.892	543.91
1007.186	548.21
1007.48	520.18
1007.773	531.48
1008.067	519.73
1008.361	534.19
1008.655	524.25
1008.948	516.57
1009.242	510.92
1009.535	537.81
1009.829	513.18
1010.122	517.02
1010.415	531.48
1010.708	516.57
1011.001	519.51
1011.295	519.51
1011.588	501.43
1011.881	512.27
1012.173	503.01
1012.466	496.91
1012.759	500.3
1013.052	518.83
1013.344	525.83
1013.637	491.48
1013.93	479.73
1014.222	478.6
1014.514	515.89
1014.807	501.88
1015.099	490.58
1015.391	478.38
1015.683	495.78
1015.976	486.06
1016.268	489.9
1016.56	509.79
1016.851	474.31
1017.143	484.48
1017.435	484.03
1017.727	504.82
1018.018	472.73
1018.31	491.48
1018.602	499.85
1018.893	485.61
1019.185	476.8
1019.476	505.04
1019.767	473.41
1020.058	497.59
1020.35	454.65
1020.641	490.35
1020.932	474.76
1021.223	465.27
1021.514	447.42
1021.804	456.23
1022.095	455.1
1022.386	471.6
1022.677	441.99
1022.967	464.82
1023.258	453.97
1023.548	447.64
1023.839	437.25
1024.129	453.29
1024.419	460.75
1024.709	440.64
1025	458.94
1025.29	430.69
1025.58	456.91
1025.87	461.43
1026.16	447.19
1026.449	453.97
1026.739	437.02
1027.029	421.2
1027.319	458.72
1027.608	417.14
1027.898	432.28
1028.187	439.51
1028.477	419.85
1028.766	405.84
1029.055	421.66
1029.344	418.49
1029.634	416.91
1029.923	426.63
1030.212	403.8
1030.501	414.42
1030.79	438.6
1031.078	426.18
1031.367	403.58
1031.656	412.16
1031.945	399.74
1032.233	420.75
1032.522	411.26
1032.81	421.66
1033.099	402.9
1033.387	408.1
1033.675	413.52
1033.963	401.09
1034.251	380.98
1034.54	399.96
1034.828	425.05
1035.116	404.03
1035.403	396.8
1035.691	406.51
1035.979	417.59
1036.267	421.43
1036.554	421.66
1036.842	415.33
1037.129	399.06
1037.417	409.9
1037.704	412.39
1037.992	399.51
1038.279	395.89
1038.566	394.31
1038.853	394.31
1039.14	394.31
