Data from foam1_polythene_foam_FLMS001491_00044.txt Node
Date: Wed Feb 08 10:54:53 GMT 2017
User: dcchb
Spectrometer: FLMS00149
Trigger mode: 0
Integration Time (sec): 2.000000E-2
Scans to average: 10
Electric dark correction enabled: true
Nonlinearity correction enabled: false
Boxcar width: 0
XAxis mode: Wavelengths
Number of Pixels in Spectrum: 2048
>>>>>Begin Spectral Data<<<<<
341.393	-15.96
341.776	-15.96
342.16	-15.96
342.543	-53.25
342.927	-51.67
343.31	-57.99
343.693	-72.46
344.077	-56.86
344.46	-54.83
344.843	-58.22
345.226	-44.89
345.61	-50.08
345.993	-15.28
346.376	-6.02
346.759	9.35
347.142	21.33
347.525	40.08
347.908	55.22
348.291	91.83
348.674	94.09
349.057	104.71
349.44	125.73
349.823	140.87
350.206	165.28
350.588	182
350.971	201.44
351.354	211.6
351.737	207.99
352.119	219.97
352.502	258.38
352.884	255.9
353.267	265.16
353.65	280.08
354.032	305.39
354.414	292.51
354.797	297.48
355.179	315.33
355.562	282.11
355.944	313.3
356.326	299.96
356.709	320.08
357.091	313.07
357.473	325.27
357.855	333.18
358.238	347.42
358.62	335.9
359.002	333.86
359.384	328.66
359.766	335.22
360.148	335.22
360.53	343.13
360.912	319.4
361.294	317.82
361.676	320.98
362.057	306.97
362.439	319.85
362.821	319.85
363.203	296.35
363.584	300.19
363.966	305.16
364.348	310.13
364.729	311.04
365.111	316.91
365.493	330.7
365.874	314.65
366.256	286.63
366.637	325.05
367.019	307.2
367.4	319.4
367.781	307.65
368.163	302.68
368.544	287.53
368.925	307.42
369.306	311.04
369.688	302.68
370.069	309.68
370.45	295.9
370.831	316.23
371.212	294.54
371.593	299.06
371.974	293.18
372.355	318.04
372.736	319.4
373.117	293.86
373.498	307.42
373.879	300.42
374.26	304.26
374.641	302.45
375.021	298.61
375.402	322.11
375.783	324.37
376.163	313.97
376.544	300.19
376.925	307.65
377.305	312.62
377.686	313.97
378.066	295.44
378.447	316.91
378.827	337.48
379.208	321.88
379.588	342
379.968	340.41
380.349	294.31
380.729	320.98
381.109	315.56
381.489	322.11
381.87	333.41
382.25	337.7
382.63	344.03
383.01	334.09
383.39	323.24
383.77	326.18
384.15	355.1
384.53	334.99
384.91	334.77
385.29	334.54
385.67	332.73
386.049	327.53
386.429	336.8
386.809	342.9
387.189	355.78
387.568	321.21
387.948	350.13
388.328	368.66
388.707	349
389.087	339.28
389.466	356.23
389.846	341.09
390.225	352.39
390.605	370.7
390.984	337.48
391.363	379.96
391.743	366.63
392.122	362.79
392.501	382.67
392.881	380.19
393.26	381.54
393.639	350.58
394.018	367.08
394.397	387.42
394.776	366.18
395.155	360.53
395.534	402.56
395.913	393.97
396.292	378.83
396.671	394.42
397.05	385.84
397.429	376.57
397.808	390.81
398.186	390.36
398.565	403.69
398.944	397.36
399.323	404.59
399.701	405.5
400.08	400.53
400.458	414.54
400.837	429.45
401.215	404.59
401.594	405.72
401.972	412.28
402.351	404.14
402.729	422.67
403.107	444.14
403.486	437.36
403.864	424.25
404.242	414.31
404.62	425.61
404.999	418.6
405.377	431.71
405.755	454.76
406.133	413.18
406.511	424.48
406.889	442.11
407.267	432.39
407.645	459.51
408.023	454.31
408.401	457.47
408.779	458.83
409.156	458.83
409.534	457.93
409.912	476.23
410.29	476
410.667	474.65
411.045	484.37
411.422	486.17
411.8	496.57
412.178	484.82
412.555	481.43
412.933	471.94
413.31	479.39
413.687	506.06
414.065	516
414.442	518.04
414.819	532.95
415.197	527.08
415.574	521.43
415.951	521.88
416.328	555.55
416.705	533.18
417.082	541.31
417.46	550.58
417.837	562.33
418.214	557.58
418.591	566.4
418.967	577.24
419.344	577.24
419.721	584.25
420.098	573.4
420.475	586.74
420.852	573.4
421.228	584.25
421.605	606.62
421.982	596
422.358	602.33
422.735	602.33
423.111	614.08
423.488	615.44
423.864	618.6
424.241	620.41
424.617	633.29
424.994	645.04
425.37	629.22
425.746	628.77
426.123	642.1
426.499	641.42
426.875	651.82
427.251	657.69
427.627	667.86
428.003	671.48
428.379	678.26
428.756	677.58
429.132	668.09
429.507	695.21
429.883	707.86
430.259	692.04
430.635	737.24
431.011	707.64
431.387	728.2
431.763	757.13
432.138	765.26
432.514	744.47
432.89	737.47
433.265	754.64
433.641	767.75
434.016	779.27
434.392	813.85
434.767	806.39
435.143	807.3
435.518	821.08
435.894	830.12
436.269	831.93
436.644	850.01
437.02	850.46
437.395	826.96
437.77	873.51
438.145	861.08
438.52	885.49
438.895	921.19
439.271	902.89
439.646	910.34
440.021	922.09
440.395	916.9
440.77	910.8
441.145	928.65
441.52	935.43
441.895	951.25
442.27	955.31
442.645	948.31
443.019	955.77
443.394	962.32
443.769	971.36
444.143	977.91
444.518	1027.18
444.892	1012.04
445.267	997.12
445.641	1006.16
446.016	1033.73
446.39	1034.41
446.764	1035.76
447.139	1054.75
447.513	1077.34
447.887	1050.45
448.262	1085.71
448.636	1096.55
449.01	1101.98
449.384	1100.85
449.758	1107.85
450.132	1152.82
450.506	1142.65
450.88	1138.81
451.254	1154.86
451.628	1185.36
452.002	1172.94
452.376	1205.93
452.75	1215.19
453.123	1186.49
453.497	1221.97
453.871	1231.92
454.244	1217.68
454.618	1214.29
454.992	1268.53
455.365	1259.49
455.739	1273.27
456.112	1306.94
456.486	1320.95
456.859	1326.38
457.232	1355.53
457.606	1340.84
457.979	1342.87
458.352	1358.02
458.725	1386.49
459.099	1391.91
459.472	1423.1
459.845	1397.34
460.218	1437.11
460.591	1421.06
460.964	1442.76
461.337	1459.03
461.71	1484.57
462.083	1504.68
462.456	1515.53
462.829	1508.75
463.201	1531.34
463.574	1508.52
463.947	1552.36
464.32	1557.56
464.692	1590.55
465.065	1607.05
465.438	1618.8
465.81	1629.42
466.183	1692.47
466.555	1693.37
466.928	1718.01
467.3	1691.11
467.672	1687.27
468.045	1729.76
468.417	1751.9
468.789	1768.85
469.161	1782.41
469.534	1814.05
469.906	1843.43
470.278	1854.05
470.65	1881.17
471.022	1903.99
471.394	1943.54
471.766	1954.61
472.138	1974.04
472.51	1996.42
472.882	2059.47
473.253	2085
473.625	2101.5
473.997	2134.72
474.369	2130.2
474.74	2164.55
475.112	2179.91
475.484	2252.68
475.855	2228.95
476.227	2306.01
476.598	2357.31
476.97	2339.23
477.341	2391.66
477.713	2423.3
478.084	2430.76
478.455	2504.65
478.827	2509.62
479.198	2594.37
479.569	2623.74
479.94	2668.26
480.311	2675.27
480.682	2774.25
481.053	2807.24
481.424	2851.76
481.795	2904.19
482.166	2914.13
482.537	2952.32
482.908	3000.46
483.279	3029.61
483.65	3080.23
484.021	3135.6
484.391	3174.69
484.762	3202.49
485.133	3216.27
485.503	3276.16
485.874	3343.27
486.244	3348.47
486.615	3455.36
486.985	3459.43
487.356	3541.23
487.726	3580.78
488.097	3617.62
488.467	3649.25
488.837	3745.07
489.207	3800.89
489.578	3820.78
489.948	3796.82
490.318	3919.3
490.688	3941
491.058	3970.15
491.428	4053.54
491.798	4090.37
492.168	4144.61
492.538	4160.43
492.908	4232.52
493.278	4256.47
493.648	4279.52
494.017	4390.25
494.387	4339.63
494.757	4455.79
495.126	4465.96
495.496	4481.1
495.866	4550.7
496.235	4601.09
496.605	4629.12
496.974	4683.58
497.344	4684.48
497.713	4772.61
498.082	4726.06
498.452	4879.5
498.821	4845.61
499.19	4881.54
499.559	4945.94
499.928	4985.04
500.298	5000.18
500.667	5064.58
501.036	5062.32
501.405	5094.41
501.774	5138.71
502.143	5177.35
502.512	5211.7
502.88	5240.17
503.249	5258.93
503.618	5297.12
503.987	5322.88
504.356	5336.44
504.724	5406.72
505.093	5410.11
505.462	5476.32
505.83	5506.61
506.199	5533.5
506.567	5620.5
506.936	5613.72
507.304	5684.46
507.672	5685.36
508.041	5733.95
508.409	5825.24
508.777	5865.92
509.145	5928.52
509.514	5925.58
509.882	5994.96
510.25	5980.27
510.618	6052.58
510.986	6086.03
511.354	6114.5
511.722	6179.36
512.09	6292.35
512.458	6233.37
512.826	6296.64
513.193	6355.62
513.561	6391.56
513.929	6432.01
514.297	6473.59
514.664	6554.04
515.032	6563.98
515.4	6622.28
515.767	6684.43
516.135	6690.53
516.502	6679.46
516.869	6836.74
517.237	6906.34
517.604	6863.63
517.972	6942.05
518.339	6955.61
518.706	6993.8
519.073	7118.77
519.44	7118.54
519.808	7190.63
520.175	7175.26
520.542	7304.3
520.909	7356.05
521.276	7449.83
521.643	7484.63
522.009	7513.33
522.376	7562.37
522.743	7665.65
523.11	7621.13
523.477	7782.93
523.843	7827.9
524.21	7929.37
524.577	7965.3
524.943	7961.46
525.31	8047.1
525.676	8185.86
526.043	8107.89
526.409	8199.64
526.776	8309.92
527.142	8364.16
527.508	8430.82
527.874	8452.07
528.241	8488.45
528.607	8542.68
528.973	8651.61
529.339	8632.85
529.705	8757.37
530.071	8848.67
530.437	8836.46
530.803	8894.99
531.169	8962.79
531.535	8929.57
531.901	9005.95
532.267	9029.45
532.632	9078.04
532.998	9145.38
533.364	9195.55
533.73	9201.2
534.095	9341.31
534.461	9297.69
534.826	9404.81
535.192	9436.22
535.557	9567.97
535.923	9554.41
536.288	9509.89
536.653	9635.31
537.019	9620.4
537.384	9669.21
537.749	9720.51
538.114	9745.37
538.479	9731.58
538.845	9896.55
539.21	9796.21
539.575	9869.66
539.94	9868.53
540.305	9956.66
540.67	9924.12
541.034	9991.91
541.399	10083.21
541.764	10048.41
542.129	10085.92
542.494	10197.78
542.858	10218.35
543.223	10186.03
543.587	10292.24
543.952	10322.53
544.316	10337.44
544.681	10280.49
545.045	10444.1
545.41	10422.64
545.774	10410.43
546.138	10503.09
546.503	10504.67
546.867	10501.73
547.231	10635.51
547.595	10651.78
547.959	10678.67
548.324	10790.76
548.688	10788.28
549.052	10744.66
549.416	10857.65
549.779	10775.39
550.143	10883.41
550.507	10902.17
550.871	10991.43
551.235	11027.37
551.599	11080.47
551.962	11133.58
552.326	11162.28
552.689	11287.92
553.053	11195.27
553.417	11178.77
553.78	11342.84
554.143	11348.26
554.507	11422.38
554.87	11443.85
555.234	11461.93
555.597	11362.72
555.96	11546.67
556.323	11563.85
556.686	11596.62
557.05	11741.7
557.413	11634.58
557.776	11708.48
558.139	11847.46
558.502	11904.63
558.865	11924.29
559.228	11996.83
559.59	12069.6
559.953	12120.67
560.316	12241.34
560.679	12251.06
561.041	12298.74
561.404	12295.13
561.767	12449.25
562.129	12390.95
562.492	12573.77
562.854	12504.84
563.217	12550.04
563.579	12559.75
563.941	12639.98
564.304	12730.82
564.666	12818.96
565.028	12810.37
565.39	12845.17
565.753	12943.25
566.115	13032.96
566.477	12965.39
566.839	13068.89
567.201	13139.4
567.563	13239.96
567.925	13207.65
568.287	13229.12
568.648	13285.39
569.01	13381.43
569.372	13502.55
569.734	13452.61
570.095	13609.67
570.457	13518.6
570.819	13663.45
571.18	13648.54
571.542	13689.67
571.903	13783.68
572.265	13750.23
572.626	13790.68
572.987	13829.33
573.349	13833.39
573.71	13905.26
574.071	13999.49
574.432	13926.05
574.794	14058.47
575.155	14067.74
575.516	14012.15
575.877	14187.73
576.238	14156.77
576.599	14255.3
576.96	14232.7
577.32	14200.84
577.681	14312.02
578.042	14390.67
578.403	14335.3
578.763	14307.73
579.124	14344.11
579.485	14401.74
579.845	14486.03
580.206	14425.47
580.566	14455.98
580.927	14481.51
581.287	14494.17
581.648	14420.27
582.008	14474.05
582.368	14547.5
582.728	14576.42
583.089	14661.85
583.449	14550.89
583.809	14616.2
584.169	14613.94
584.529	14588.18
584.889	14675.18
585.249	14644.45
585.609	14530.55
585.969	14700.49
586.329	14623.66
586.688	14691.45
587.048	14691.22
587.408	14661.39
587.768	14636.76
588.127	14608.51
588.487	14548.85
588.846	14656.42
589.206	14599.47
589.565	14670.43
589.925	14675.18
590.284	14693.94
590.643	14659.36
591.003	14610.55
591.362	14793.59
591.721	14699.36
592.08	14750.43
592.44	14759.24
592.799	14773.26
593.158	14761.5
593.517	14708.17
593.876	14762.18
594.235	14710.21
594.593	14763.99
594.952	14747.95
595.311	14697.33
595.67	14799.7
596.029	14941.16
596.387	14946.58
596.746	14985.68
597.104	14845.8
597.463	14831.79
597.822	14834.72
598.18	14789.3
598.538	14802.18
598.897	14888.73
599.255	14783.65
599.613	15094.6
599.972	14907.04
600.33	14955.17
600.688	14918.79
601.046	14992.01
601.404	14962.86
601.762	14904.33
602.12	15040.82
602.478	15044.43
602.836	15033.59
603.194	15045.34
603.552	14979.13
603.91	14954.49
604.268	15064.77
604.625	14940.93
604.983	15000.37
605.341	14948.39
605.698	15065.45
606.056	15188.39
606.413	15167.82
606.771	15207.14
607.128	15220.25
607.485	15131.89
607.843	15157.88
608.2	15218.44
608.557	15152.68
608.914	15187.48
609.272	15329.85
609.629	15323.52
609.986	15438.32
610.343	15378.89
610.7	15432
611.057	15408.04
611.414	15352.22
611.771	15330.3
612.127	15430.64
612.484	15410.98
612.841	15470.19
613.198	15409.62
613.554	15398.32
613.911	15503.86
614.267	15519
614.624	15581.37
614.98	15577.75
615.337	15543.4
615.693	15570.75
616.05	15554.03
616.406	15697.75
616.762	15540.69
617.118	15682.16
617.475	15643.97
617.831	15608.26
618.187	15751.76
618.543	15604.19
618.899	15693.23
619.255	15646.68
619.611	15610.07
619.967	15728.94
620.323	15718.99
620.678	15679.9
621.034	15678.09
621.39	15695.04
621.746	15711.08
622.101	15851.42
622.457	15633.57
622.812	15766.68
623.168	15657.53
623.523	15724.19
623.879	15740.01
624.234	15698.88
624.589	15758.09
624.945	15833.11
625.3	15755.15
625.655	15702.5
626.01	15653.91
626.365	15766.45
626.72	15725.77
627.075	15720.12
627.43	15716.73
627.785	15668.37
628.14	15693.23
628.495	15708.82
628.85	15704.3
629.205	15627.7
629.559	15733
629.914	15613.01
630.269	15742.04
630.623	15552.67
630.978	15597.87
631.332	15636.96
631.687	15780.46
632.041	15636.51
632.396	15479.9
632.75	15592.44
633.104	15542.5
633.459	15499.34
633.813	15445.33
634.167	15426.12
634.521	15461.15
634.875	15484.2
635.229	15410.75
635.583	15382.73
635.937	15364.43
636.291	15383.86
636.645	15420.47
636.999	15362.84
637.352	15362.62
637.706	15231.32
638.06	15384.99
638.413	15225.9
638.767	15318.78
639.121	15381.6
639.474	15192.91
639.828	15223.87
640.181	15155.62
640.534	15221.38
640.888	15218.22
641.241	15137.77
641.594	15130.76
641.947	15048.95
642.301	15106.35
642.654	15147.71
643.007	15094.83
643.36	15084.21
643.713	15074.94
644.066	15073.36
644.419	14976.19
644.771	15003.76
645.124	14863.87
645.477	14906.13
645.83	14754.5
646.182	14532.81
646.535	14457.78
646.888	14464.56
647.24	14387.05
647.593	14466.15
647.945	14427.28
648.298	14353.15
648.65	14230.9
649.002	14230.9
649.355	14298.24
649.707	14308.64
650.059	14395.41
650.411	14558.57
650.763	14548.18
651.115	14735.06
651.467	14653.26
651.819	14762.86
652.171	14655.52
652.523	14692.81
652.875	14657.1
653.227	14581.85
653.578	14654.84
653.93	14653.03
654.282	14521.28
654.633	14504.79
654.985	14532.81
655.337	14548.18
655.688	14396.77
656.039	14514.96
656.391	14408.52
656.742	14482.64
657.094	14493.94
657.445	14579.59
657.796	14507.73
658.147	14458.91
658.498	14458.91
658.849	14493.94
659.2	14473.6
659.551	14396.09
659.902	14396.99
660.253	14374.62
660.604	14427.28
660.955	14330.1
661.306	14341.4
661.656	14315.64
662.007	14306.6
662.358	14335.53
662.708	14348.63
663.059	14255.3
663.409	14250.11
663.76	14295.53
664.11	14247.39
664.461	14303.44
664.811	14275.64
665.161	14318.13
665.511	14224.57
665.862	14241.74
666.212	14342.76
666.562	14264.79
666.912	14203.78
667.262	14147.06
667.612	14202.42
667.962	14222.54
668.312	14150.22
668.662	14274.96
669.011	14258.92
669.361	14152.48
669.711	14242.87
670.06	14124.91
670.41	14133.05
670.76	14133.72
671.109	14186.83
671.459	14037
671.808	14069.09
672.157	14181.86
672.507	14056.66
672.856	14030.68
673.205	14054.18
673.554	14099.6
673.904	14080.84
674.253	14074.29
674.602	14117.23
674.951	13904.35
675.3	13785.03
675.649	14047.4
675.998	14022.31
676.346	13968.76
676.695	14086.27
677.044	13939.61
677.393	14024.12
677.741	13989.1
678.09	13982.54
678.438	13874.3
678.787	13887.63
679.135	13863.9
679.484	13798.59
679.832	13836.56
680.181	13781.19
680.529	13842.88
680.877	13816.9
681.225	13777.35
681.573	13882.21
681.922	13754.98
682.27	13658.93
682.618	13752.72
682.966	13696.45
683.314	13679.95
683.661	13596.11
684.009	13558.82
684.357	13545.04
684.705	13635.43
685.053	13523.12
685.4	13550.46
685.748	13467.75
686.095	13468.43
686.443	13371.26
686.79	13404.7
687.138	13431.82
687.485	13436.12
687.832	13386.85
688.18	13425.27
688.527	13290.36
688.874	13296.68
689.221	13274.31
689.568	13084.03
689.915	13201.09
690.262	13166.52
690.609	13165.16
690.956	13091.94
691.303	13063.47
691.65	12956.35
691.997	13039.06
692.344	12934.89
692.69	12935.34
693.037	12882.91
693.383	12872.51
693.73	12929.91
694.077	12717.72
694.423	12808.11
694.769	12759.98
695.116	12694.67
695.462	12584.39
695.808	12701.45
696.155	12675.23
696.501	12579.42
696.847	12524.05
697.193	12447.44
697.539	12485.86
697.885	12445.18
698.231	12345.75
698.577	12393.21
698.923	12323.38
699.269	12304.85
699.614	12328.8
699.96	12291.96
700.306	12269.37
700.651	12254.9
700.997	12155.25
701.342	12093.33
701.688	12158.18
702.033	12083.61
702.379	12083.38
702.724	12061.69
703.069	12009.71
703.415	11838.64
703.76	11939.66
704.105	11931.07
704.45	11881.13
704.795	11786.89
705.14	11761.58
705.485	11862.6
705.83	11650.4
706.175	11733.56
706.52	11747.8
706.865	11527.69
707.209	11637.97
707.554	11540.8
707.899	11597.75
708.243	11423.74
708.588	11454.47
708.932	11424.19
709.277	11451.54
709.621	11474.36
709.966	11396.4
710.31	11407.92
710.654	11316.17
710.998	11267.36
711.342	11358.43
711.687	11310.97
712.031	11211.54
712.375	11191.65
712.719	11216.06
713.063	11223.29
713.407	11259
713.75	11141.49
714.094	11224.2
714.438	11188.27
714.782	11173.8
715.125	11096.74
715.469	11159.57
715.812	11013.58
716.156	10957.54
716.499	11020.81
716.843	10962.73
717.186	10922.28
717.53	10959.12
717.873	10915.28
718.216	10880.25
718.559	10852
718.902	10813.13
719.246	10772.46
719.589	10745.34
719.932	10726.13
720.275	10723.87
720.617	10730.2
720.96	10697.2
721.303	10727.03
721.646	10695.85
721.989	10599.81
722.331	10616.53
722.674	10645.68
723.016	10599.81
723.359	10586.25
723.701	10555.29
724.044	10481.62
724.386	10513.48
724.729	10501.05
725.071	10533.82
725.413	10459.02
725.755	10421.51
726.097	10495.63
726.439	10420.15
726.782	10358.46
727.124	10407.04
727.465	10358.91
727.807	10315.52
728.149	10284.33
728.491	10286.82
728.833	10336.99
729.175	10288.18
729.516	10356.2
729.858	10245.01
730.199	10239.82
730.541	10303.54
730.882	10299.93
731.224	10276.88
731.565	10184.45
731.906	10245.24
732.248	10151.68
732.589	10100.84
732.93	10139.71
733.271	10119.59
733.612	10157.33
733.953	10181.51
734.294	10089.99
734.635	10062.65
734.976	10072.36
735.317	9914.85
735.658	9942.65
735.999	10041.18
736.339	9996.88
736.68	10002.31
737.021	9917.79
737.361	9883.89
737.702	9997.56
738.042	9918.24
738.383	9868.98
738.723	9913.95
739.063	9878.92
739.404	9915.76
739.744	9789.21
740.084	9806.83
740.424	9866.72
740.764	9794.63
741.104	9820.84
741.444	9671.02
741.784	9701.75
742.124	9727.96
742.464	9625.37
742.804	9671.02
743.143	9687.74
743.483	9690.68
743.823	9645.25
744.162	9641.41
744.502	9662.66
744.841	9586.27
745.181	9584.69
745.52	9534.75
745.86	9548.31
746.199	9571.81
746.538	9445.26
746.877	9502.89
747.216	9545.14
747.556	9580.17
747.895	9516.44
748.234	9468.76
748.573	9447.97
748.911	9424.92
749.25	9439.16
749.589	9432.38
749.928	9428.99
750.267	9416.33
750.605	9400.06
750.944	9329.33
751.283	9333.62
751.621	9417.92
751.96	9276.23
752.298	9279.61
752.636	9295.43
752.975	9210.24
753.313	9234.64
753.651	9235.32
753.989	9194.87
754.327	9206.4
754.666	9159.62
755.004	9087.98
755.342	9119.84
755.679	9125.27
756.017	9024.71
756.355	9075.33
756.693	9066.74
757.031	9016.57
757.368	8913.75
757.706	8977.25
758.044	8834.88
758.381	8942
758.719	8877.14
759.056	8855.67
759.394	8845.28
759.731	8820.87
760.068	8759.63
760.405	8729.8
760.743	8755.79
761.08	8699.97
761.417	8649.8
761.754	8604.38
762.091	8577.26
762.428	8563.25
762.765	8531.61
763.102	8602.34
763.438	8582.01
763.775	8475.57
764.112	8525.74
764.449	8480.31
764.785	8478.28
765.122	8413.87
765.458	8412.52
765.795	8385.18
766.131	8384.72
766.467	8318.51
766.804	8287.78
767.14	8269.02
767.476	8249.59
767.812	8263.14
768.148	8210.94
768.485	8131.4
768.821	8150.38
769.157	8139.98
769.492	8132.53
769.828	8107.22
770.164	8038.74
770.5	8074.22
770.836	8006.43
771.171	8032.87
771.507	7958.52
771.842	7922.59
772.178	7929.82
772.513	7872.65
772.849	7880.1
773.184	7824.06
773.519	7758.75
773.855	7729.6
774.19	7684.18
774.525	7716.04
774.86	7742.03
775.195	7727.11
775.53	7659.77
775.865	7570.73
776.2	7570.28
776.535	7482.37
776.87	7465.43
777.205	7481.7
777.539	7404.18
777.874	7421.36
778.209	7354.02
778.543	7283.51
778.878	7299.33
779.212	7256.17
779.547	7201.7
779.881	7254.58
780.215	7204.87
780.55	7261.36
780.884	7145.21
781.218	7125.32
781.552	7152.21
781.886	7141.82
782.22	7055.49
782.554	7048.49
782.888	7018.88
783.222	6992.9
783.556	6954.93
783.889	6988.6
784.223	6881.26
784.557	6875.38
784.89	6867.25
785.224	6831.32
785.557	6785.67
785.891	6799
786.224	6775.95
786.558	6820.92
786.891	6739.79
787.224	6700.02
787.557	6693.47
787.891	6649.4
788.224	6642.17
788.557	6643.98
788.89	6626.13
789.223	6589.52
789.556	6611.66
789.888	6577.76
790.221	6544.09
790.554	6439.92
790.887	6486.69
791.219	6473.59
791.552	6461.38
791.884	6413.48
792.217	6406.92
792.549	6350.43
792.882	6319.69
793.214	6269.75
793.546	6347.26
793.879	6282.86
794.211	6252.58
794.543	6281.95
794.875	6252.12
795.207	6272.46
795.539	6218.23
795.871	6227.49
796.203	6114.95
796.535	6156.99
796.867	6101.39
797.198	6121.51
797.53	6151.11
797.862	5997.22
798.193	6065.69
798.525	5957.89
798.856	6019.59
799.188	5940.72
799.519	5925.13
799.85	5928.29
800.182	5946.37
800.513	5923.32
800.844	5895.97
801.175	5890.33
801.506	5942.53
801.837	5807.62
802.168	5809.2
802.499	5848.07
802.83	5836.77
803.161	5716.32
803.491	5747.5
803.822	5759.26
804.153	5773.94
804.483	5667.51
804.814	5592.25
805.145	5646.72
805.475	5661.63
805.805	5639.03
806.136	5640.84
806.466	5641.74
806.796	5670.22
807.126	5575.53
807.457	5580.73
807.787	5578.7
808.117	5532.82
808.447	5528.53
808.777	5497.12
809.107	5513.39
809.436	5455.08
809.766	5484.23
810.096	5430.22
810.426	5432.03
810.755	5444.24
811.085	5433.39
811.414	5367.85
811.744	5420.06
812.073	5391.81
812.403	5396.78
812.732	5350
813.061	5372.82
813.39	5328.76
813.719	5292.15
814.049	5367.63
814.378	5303.67
814.707	5336.89
815.036	5289.21
815.365	5301.87
815.693	5168.08
816.022	5217.8
816.351	5199.5
816.68	5187.52
817.008	5191.59
817.337	5182.77
817.665	5123.57
817.994	5188.87
818.322	5154.75
818.651	5129.89
818.979	5087.63
819.307	5110.46
819.636	5081.53
819.964	5062.1
820.292	5086.05
820.62	5117.01
820.948	5079.73
821.276	5081.76
821.604	5059.61
821.932	5085.6
822.259	5056.45
822.587	5002.44
822.915	4997.69
823.243	5021.87
823.57	5006.28
823.898	5027.75
824.225	5032.72
824.553	4966.73
824.88	5018.48
825.207	5001.99
825.535	4993.4
825.862	5070.23
826.189	5016
826.516	5025.94
826.843	5035.43
827.17	5029.78
827.497	5027.3
827.824	5017.58
828.151	5036.34
828.478	5045.6
828.805	5036.79
829.131	5057.58
829.458	5024.59
829.785	4983.23
830.111	4988.2
830.438	5000.41
830.764	5002.21
831.09	5036.11
831.417	5022.33
831.743	5064.58
832.069	4964.7
832.395	5021.42
832.722	5038.6
833.048	4980.52
833.374	5006.05
833.7	4974.87
834.026	4997.92
834.351	5025.26
834.677	5006.96
835.003	5026.62
835.329	4948.43
835.654	4983.23
835.98	4947.53
836.306	4982.55
836.631	4935.32
836.956	4978.26
837.282	4929.45
837.607	4903.23
837.932	4930.12
838.258	4907.53
838.583	4897.81
838.908	4920.18
839.233	4870.92
839.558	4926.06
839.883	4878.83
840.208	4868.66
840.533	4906.17
840.858	4884.93
841.182	4811.03
841.507	4857.13
841.832	4841.54
842.156	4792.95
842.481	4778.26
842.805	4755.44
843.13	4815.33
843.454	4780.3
843.778	4760.19
844.103	4701.88
844.427	4736.46
844.751	4720.41
845.075	4670.92
845.399	4734.65
845.723	4659.4
846.047	4697.81
846.371	4642.67
846.695	4633.86
847.019	4615.33
847.343	4597.93
847.666	4558.61
847.99	4553.41
848.313	4534.88
848.637	4543.02
848.96	4531.49
849.284	4509.8
849.607	4510.02
849.931	4442.23
850.254	4425.05
850.577	4418.27
850.9	4408.78
851.223	4386.41
851.546	4333.53
851.869	4324.04
852.192	4347.32
852.515	4326.75
852.838	4338.5
853.161	4305.28
853.483	4282.68
853.806	4267.32
854.129	4283.59
854.451	4272.51
854.774	4243.81
855.096	4300.54
855.419	4244.27
855.741	4237.04
856.063	4156.13
856.385	4190.03
856.708	4152.29
857.03	4153.87
857.352	4123.59
857.674	4132.86
857.996	4117.94
858.318	4055.35
858.64	4077.04
858.961	4070.26
859.283	4074.33
859.605	4036.59
859.926	4061.45
860.248	4026.19
860.57	4016.02
860.891	4011.5
861.212	4022.13
861.534	4053.54
861.855	4034.33
862.176	3996.14
862.498	3972.64
862.819	4008.57
863.14	3992.07
863.461	3941.68
863.782	3968.57
864.103	3994.56
864.424	3965.18
864.745	3989.13
865.065	3977.61
865.386	3933.09
865.707	3920.66
866.027	3873.66
866.348	3882.02
866.668	3920.21
866.989	3860.55
867.309	3891.73
867.63	3918.4
867.95	3875.92
868.27	3886.99
868.59	3862.13
868.91	3805.86
869.23	3870.04
869.55	3871.62
869.87	3878.4
870.19	3846.76
870.51	3890.38
870.83	3868.68
871.15	3842.02
871.469	3849.48
871.789	3845.18
872.109	3779.65
872.428	3771.29
872.748	3799.53
873.067	3815.13
873.386	3836.82
873.706	3788.46
874.025	3816.93
874.344	3772.87
874.663	3766.31
874.982	3781.23
875.301	3761.57
875.62	3725.41
875.939	3715.69
876.258	3722.7
876.577	3711.17
876.896	3730.38
877.214	3774.67
877.533	3705.07
877.852	3717.28
878.17	3705.98
878.489	3661.23
878.807	3679.08
879.125	3665.07
879.444	3667.78
879.762	3627.56
880.08	3632.76
880.398	3625.75
880.716	3640.89
881.034	3637.96
881.352	3670.72
881.67	3585.53
881.988	3591.4
882.306	3605.41
882.624	3604.74
882.941	3575.13
883.259	3579.2
883.577	3562.7
883.894	3588.01
884.212	3605.41
884.529	3552.76
884.846	3530.39
885.164	3566.54
885.481	3583.27
885.798	3544.17
886.115	3546.88
886.432	3519.31
886.75	3566.09
887.067	3545.53
887.383	3491.52
887.7	3541.46
888.017	3495.36
888.334	3491.29
888.651	3496.72
888.967	3476.15
889.284	3492.2
889.6	3483.16
889.917	3461.24
890.233	3447.68
890.55	3476.6
890.866	3456.94
891.182	3452.2
891.498	3423.27
891.815	3417.17
892.131	3425.53
892.447	3362.93
892.763	3397.28
893.079	3331.75
893.395	3359.77
893.71	3389.6
894.026	3317.06
894.342	3301.47
894.657	3288.81
894.973	3303.5
895.289	3296.95
895.604	3306.66
895.92	3250.39
896.235	3224.41
896.55	3256.04
896.865	3230.28
897.181	3183.5
897.496	3193.9
897.811	3210.17
898.126	3200
898.441	3222.15
898.756	3181.02
899.071	3188.25
899.386	3191.64
899.7	3129.49
900.015	3149.61
900.33	3154.8
900.644	3122.71
900.959	3086.33
901.273	3116.84
901.588	3096.95
901.902	3091.98
902.216	3065.77
902.531	3057.86
902.845	3064.18
903.159	3015.82
903.473	3040.46
903.787	2976.05
904.101	2976.5
904.415	2977.86
904.729	2964.75
905.042	2952.1
905.356	2942.61
905.67	2925.88
905.984	2952.78
906.297	2928.6
906.611	2936.5
906.924	2932.66
907.237	2922.72
907.551	2900.8
907.864	2920.23
908.177	2859.22
908.491	2876.85
908.804	2861.25
909.117	2886.79
909.43	2841.37
909.743	2858.09
910.056	2835.04
910.368	2811.08
910.681	2804.08
910.994	2804.98
911.307	2790.29
911.619	2758.43
911.932	2775.6
912.244	2764.31
912.557	2797.75
912.869	2771.31
913.181	2758.43
913.494	2751.42
913.806	2712.1
914.118	2702.84
914.43	2699.67
914.742	2688.6
915.054	2689.51
915.366	2687.02
915.678	2630.75
915.99	2630.07
916.302	2632.11
916.613	2632.33
916.925	2610.41
917.236	2591.2
917.548	2595.95
917.859	2609.51
918.171	2583.07
918.482	2585.78
918.794	2559.57
919.105	2558.89
919.416	2541.03
919.727	2509.62
920.038	2552.33
920.349	2490.64
920.66	2512.11
920.971	2464.2
921.282	2472.56
921.593	2439.34
921.903	2460.36
922.214	2436.63
922.525	2433.92
922.835	2418.33
923.146	2419.68
923.456	2402.51
923.767	2429.63
924.077	2402.51
924.387	2383.52
924.697	2376.52
925.008	2359.34
925.318	2391.21
925.628	2379.01
925.938	2375.39
926.248	2348.05
926.558	2301.27
926.867	2299.91
927.177	2324.32
927.487	2306.24
927.796	2280.7
928.106	2283.41
928.416	2281.15
928.725	2259.23
929.034	2239.8
929.344	2246.81
929.653	2247.71
929.962	2200.93
930.271	2217.65
930.581	2216.98
930.89	2212.46
931.199	2193.93
931.508	2195.96
931.817	2199.12
932.125	2185.34
932.434	2197.32
932.743	2133.59
933.051	2146.69
933.36	2141.05
933.669	2117.09
933.977	2132.68
934.286	2137.88
934.594	2137.2
934.902	2103.76
935.21	2111.44
935.519	2118.22
935.827	2093.36
936.135	2079.58
936.443	2026.47
936.751	2080.48
937.059	2053.59
937.367	2025.34
937.674	2035.96
937.982	2019.69
938.29	2043.19
938.597	2026.02
938.905	2008.17
939.213	2011.78
939.52	2000.94
939.827	1998.9
940.135	1975.4
940.442	1998.45
940.749	1961.62
941.056	1951.22
941.363	1961.84
941.67	1971.11
941.977	1926.59
942.284	1924.55
942.591	1913.71
942.898	1915.29
943.205	1914.61
943.511	1925.68
943.818	1868.74
944.125	1897.66
944.431	1901.28
944.738	1885.23
945.044	1866.02
945.35	1861.73
945.657	1883.65
945.963	1858.79
946.269	1866.02
946.575	1870.09
946.881	1806.36
947.187	1814.95
947.493	1782.86
947.799	1785.12
948.105	1783.54
948.41	1791.68
948.716	1785.12
949.022	1758.46
949.327	1750.55
949.633	1757.78
949.938	1773.15
950.244	1753.94
950.549	1739.7
950.854	1723.2
951.16	1752.81
951.465	1704.22
951.77	1698.12
952.075	1697.89
952.38	1716.88
952.685	1687.27
952.99	1694.73
953.294	1664.67
953.599	1658.8
953.904	1671.91
954.209	1664.22
954.513	1661.06
954.818	1648.18
955.122	1648.63
955.426	1663.77
955.731	1631.45
956.035	1603.66
956.339	1604.79
956.643	1642.3
956.948	1608.4
957.252	1596.43
957.556	1612.47
957.86	1596.65
958.163	1591.68
958.467	1595.3
958.771	1585.81
959.075	1577.44
959.378	1593.26
959.682	1568.41
959.985	1573.6
960.289	1553.04
960.592	1574.51
960.896	1541.29
961.199	1547.16
961.502	1547.39
961.805	1517.11
962.108	1518.69
962.411	1506.49
962.714	1504.45
963.017	1519.82
963.32	1498.8
963.623	1491.34
963.926	1474.17
964.228	1482.08
964.531	1487.96
964.833	1489.99
965.136	1450.44
965.438	1445.02
965.741	1447.96
966.043	1454.28
966.345	1419.03
966.648	1452.93
966.95	1411.57
967.252	1431.23
967.554	1416.77
967.856	1415.19
968.158	1410.22
968.46	1412.7
968.761	1405.25
969.063	1372.48
969.365	1390.78
969.666	1396.43
969.968	1388.07
970.269	1359.15
970.571	1351.46
970.872	1372.25
971.174	1341.29
971.475	1348.75
971.776	1365.92
972.077	1349.2
972.378	1330.67
972.679	1347.17
972.98	1365.7
973.281	1360.5
973.582	1344.46
973.883	1340.61
974.183	1333.38
974.484	1304.46
974.785	1308.75
975.085	1329.32
975.386	1302.65
975.686	1302.88
975.986	1310.56
976.287	1264.46
976.587	1268.98
976.887	1302.2
977.187	1278.47
977.487	1288.64
977.787	1252.71
978.087	1275.08
978.387	1252.03
978.687	1260.84
978.987	1244.35
979.286	1211.13
979.586	1222.88
979.885	1253.84
980.185	1229.43
980.484	1225.59
980.784	1228.98
981.083	1225.59
981.382	1228.75
981.682	1224.01
981.981	1207.28
982.28	1220.84
982.579	1183.56
982.878	1198.02
983.177	1176.55
983.475	1223.33
983.774	1188.75
984.073	1170.45
984.372	1171.35
984.67	1163.22
984.969	1158.47
985.267	1158.02
985.566	1155.31
985.864	1142.88
986.162	1169.32
986.461	1121.86
986.759	1121.19
987.057	1136.33
987.355	1132.71
987.653	1149.66
987.951	1106.5
988.249	1112.37
988.547	1109.43
988.844	1090
989.142	1099.04
989.44	1099.04
989.737	1102.43
990.035	1089.77
990.332	1073.73
990.63	1079.15
990.927	1058.59
991.224	1079.6
991.521	1069.21
991.819	1054.29
992.116	1086.38
992.413	1060.17
992.71	1024.69
993.006	1051.36
993.303	1036.89
993.6	1067.63
993.897	1054.97
994.193	1010.23
994.49	1037.35
994.787	1020.62
995.083	1021.98
995.379	1009.55
995.676	1004.58
995.972	1015.2
996.268	1005.93
996.565	993.28
996.861	1017.01
997.157	1014.52
997.453	1005.26
997.749	984.92
998.044	961.87
998.34	965.26
998.636	981.3
998.932	960.06
999.227	965.71
999.523	969.32
999.818	967.97
1000.114	968.65
1000.409	943.79
1000.704	951.92
1001	953.28
1001.295	927.97
1001.59	942.88
1001.885	947.18
1002.18	939.04
1002.475	918.03
1002.77	931.59
1003.065	918.93
1003.359	914.86
1003.654	927.52
1003.949	925.03
1004.243	900.85
1004.538	899.72
1004.832	913.73
1005.127	914.86
1005.421	880.06
1005.715	876.9
1006.009	897.01
1006.304	873.51
1006.598	889.33
1006.892	902.89
1007.186	898.37
1007.48	877.8
1007.773	831.25
1008.067	838.93
1008.361	891.13
1008.655	837.8
1008.948	852.94
1009.242	878.03
1009.535	838.25
1009.829	826.28
1010.122	826.28
1010.415	823.79
1010.708	819.05
1011.001	832.83
1011.295	811.81
1011.588	821.31
1011.881	809.78
1012.173	811.14
1012.466	832.38
1012.759	840.51
1013.052	822.44
1013.344	806.84
1013.637	801.87
1013.93	798.03
1014.222	786.73
1014.514	781.76
1014.807	795.32
1015.099	773.17
1015.391	756.22
1015.683	810.46
1015.976	784.24
1016.268	778.37
1016.56	758.26
1016.851	749.44
1017.143	752.16
1017.435	743.34
1017.727	768.65
1018.018	753.51
1018.31	731.36
1018.602	741.53
1018.893	737.01
1019.185	732.72
1019.476	736.79
1019.767	727.07
1020.058	713.51
1020.35	725.04
1020.641	711.7
1020.932	714.42
1021.223	695.21
1021.514	697.92
1021.804	689.56
1022.095	683.23
1022.386	706.73
1022.677	665.38
1022.967	685.94
1023.258	694.3
1023.548	670.35
1023.839	678.03
1024.129	699.95
1024.419	678.48
1024.709	669.67
1025	672.16
1025.29	677.81
1025.58	641.42
1025.87	661.54
1026.16	663.57
1026.449	649.33
1026.739	654.53
1027.029	649.56
1027.319	651.37
1027.608	645.49
1027.898	657.47
1028.187	626.51
1028.477	625.38
1028.766	604.59
1029.055	657.92
1029.344	630.12
1029.634	614.08
1029.923	613.4
1030.212	602.78
1030.501	625.83
1030.79	589.9
1031.078	574.76
1031.367	601.88
1031.656	610.46
1031.945	617.24
1032.233	604.59
1032.522	597.81
1032.81	605.49
1033.099	606.85
1033.387	597.58
1033.675	600.97
1033.963	597.58
1034.251	594.19
1034.54	589.9
1034.828	594.19
1035.116	573.63
1035.403	587.87
1035.691	565.72
1035.979	571.82
1036.267	586.51
1036.554	561.65
1036.842	565.95
1037.129	590.8
1037.417	564.14
1037.704	569.11
1037.992	553.52
1038.279	565.04
1038.566	557.36
1038.853	557.36
1039.14	557.36
