Data from foam1_polythene_foam_FLMS001491_00042.txt Node
Date: Wed Feb 08 10:54:52 GMT 2017
User: dcchb
Spectrometer: FLMS00149
Trigger mode: 0
Integration Time (sec): 2.000000E-2
Scans to average: 10
Electric dark correction enabled: true
Nonlinearity correction enabled: false
Boxcar width: 0
XAxis mode: Wavelengths
Number of Pixels in Spectrum: 2048
>>>>>Begin Spectral Data<<<<<
341.393	-9.79
341.776	-9.79
342.16	-9.79
342.543	-66.51
342.927	-72.16
343.31	-63.35
343.693	-46.85
344.077	-65.15
344.46	-55.89
344.843	-46.17
345.226	-54.31
345.61	-35.32
345.993	-17.25
346.376	-10.69
346.759	25.24
347.142	18.69
347.525	37.22
347.908	66.14
348.291	56.2
348.674	83.99
349.057	107.5
349.44	101.17
349.823	108.18
350.206	159.93
350.588	185.91
350.971	202.64
351.354	216.19
351.737	208.06
352.119	211.68
352.502	260.04
352.884	262.3
353.267	265.46
353.65	253.93
354.032	292.13
354.414	295.06
354.797	284.44
355.179	291.9
355.562	290.32
355.944	308.62
356.326	310.2
356.709	334.38
357.091	332.35
357.473	330.09
357.855	312.01
358.238	331.9
358.62	317.66
359.002	299.81
359.384	304.55
359.766	316.53
360.148	349.3
360.53	330.32
360.912	306.81
361.294	314.5
361.676	314.5
362.057	306.14
362.439	328.06
362.821	320.6
363.203	326.02
363.584	316.08
363.966	320.15
364.348	288.96
364.729	328.28
365.111	299.36
365.493	299.36
365.874	302.75
366.256	307.49
366.637	272.92
367.019	292.13
367.4	299.58
367.781	304.78
368.163	300.71
368.544	291.22
368.925	284.67
369.306	302.52
369.688	289.64
370.069	304.55
370.45	290.32
370.831	277.44
371.212	294.84
371.593	297.32
371.974	298.45
372.355	296.87
372.736	303.2
373.117	308.62
373.498	299.58
373.879	298.68
374.26	307.94
374.641	288.74
375.021	305.23
375.402	311.11
375.783	296.19
376.163	291.22
376.544	299.13
376.925	312.01
377.305	298.45
377.686	301.84
378.066	287.15
378.447	329.86
378.827	309.53
379.208	323.99
379.588	302.07
379.968	316.53
380.349	311.11
380.729	304.78
381.109	313.14
381.489	294.84
381.87	328.96
382.25	307.72
382.63	334.16
383.01	336.64
383.39	317.89
383.77	326.25
384.15	330.99
384.53	315.85
384.91	340.03
385.29	334.84
385.67	361.05
386.049	334.38
386.429	330.77
386.809	349.98
387.189	372.8
387.568	337.32
387.948	348.62
388.328	351.78
388.707	353.59
389.087	346.59
389.466	355.4
389.846	338.45
390.225	384.78
390.605	360.6
390.984	364.67
391.363	352.01
391.743	352.24
392.122	357.21
392.501	359.47
392.881	373.93
393.26	360.82
393.639	354.95
394.018	379.58
394.397	354.95
394.776	360.15
395.155	369.41
395.534	361.05
395.913	382.97
396.292	388.62
396.671	396.53
397.05	393.14
397.429	390.2
397.808	386.81
398.186	399.24
398.565	418.22
398.944	353.59
399.323	393.14
399.701	394.27
400.08	396.53
400.458	397.43
400.837	394.72
401.215	408.05
401.594	426.13
401.972	394.04
402.351	383.87
402.729	411.22
403.107	405.57
403.486	398.79
403.864	431.33
404.242	415.06
404.62	424.1
404.999	415.06
405.377	426.81
405.755	430.43
406.133	420.94
406.511	440.82
406.889	430.65
407.267	426.81
407.645	455.28
408.023	453.7
408.401	444.21
408.779	452.12
409.156	438.34
409.534	456.19
409.912	466.58
410.29	496.41
410.667	476.98
411.045	477.2
411.422	487.37
411.8	469.97
412.178	478.79
412.555	482.18
412.933	506.58
413.31	488.05
413.687	499.8
414.065	507.94
414.442	515.62
414.819	516.07
415.197	523.53
415.574	533.7
415.951	529.18
416.328	524.21
416.705	533.47
417.082	527.37
417.46	531.89
417.837	532.57
418.214	556.3
418.591	545.23
418.967	557.65
419.344	534.38
419.721	560.82
420.098	567.82
420.475	561.04
420.852	564.21
421.228	563.08
421.605	562.85
421.982	588.84
422.358	588.84
422.735	597.43
423.111	603.76
423.488	591.33
423.864	591.55
424.241	588.84
424.617	579.12
424.994	623.87
425.37	597.88
425.746	630.42
426.123	633.59
426.499	636.3
426.875	646.47
427.251	632.91
427.627	657.31
428.003	660.48
428.379	679.46
428.756	680.59
429.132	698.44
429.507	702.96
429.883	678.33
430.259	703.87
430.635	707.71
431.011	712
431.387	714.94
431.763	749.97
432.138	733.47
432.514	754.71
432.89	782.73
433.265	771.21
433.641	778.21
434.016	768.04
434.392	797.87
434.767	803.07
435.143	797.42
435.518	819.57
435.894	812.34
436.269	806.24
436.644	851.88
437.02	842.62
437.395	834.26
437.77	865.44
438.145	862.28
438.52	855.95
438.895	906.35
439.271	913.13
439.646	872.9
440.021	909.51
440.395	902.28
440.77	913.8
441.145	910.41
441.52	942.96
441.895	931.88
442.27	930.3
442.645	941.83
443.019	967.14
443.394	965.78
443.769	973.92
444.143	975.5
444.518	979.11
444.892	1004.87
445.267	1017.3
445.641	1038.09
446.016	1030.86
446.39	1055.95
446.764	1062.05
447.139	1016.63
447.513	1062.27
447.887	1076.74
448.262	1055.72
448.636	1061.6
449.01	1103.86
449.384	1114.48
449.758	1128.49
450.132	1127.13
450.506	1129.84
450.88	1143.18
451.254	1148.37
451.628	1153.57
452.002	1192.21
452.376	1175.27
452.75	1182.5
453.123	1191.54
453.497	1189.73
453.871	1220.46
454.244	1214.59
454.618	1252.55
454.992	1257.75
455.365	1263.4
455.739	1257.3
456.112	1268.37
456.486	1288.71
456.859	1302.72
457.232	1325.54
457.606	1333.23
457.979	1321.93
458.352	1349.27
458.725	1373.9
459.099	1393.11
459.472	1380.68
459.845	1430.17
460.218	1394.02
460.591	1394.47
460.964	1421.81
461.337	1468.14
461.71	1443.96
462.083	1509.95
462.456	1475.14
462.829	1506.78
463.201	1497.97
463.574	1523.51
463.947	1541.81
464.32	1581.13
464.692	1593.56
465.065	1573.9
465.438	1602.83
465.81	1597.4
466.183	1652.09
466.555	1691.41
466.928	1673.56
467.3	1709.94
467.672	1731.18
468.045	1741.13
468.417	1775.25
468.789	1774.12
469.161	1829.26
469.534	1818.64
469.906	1854.12
470.278	1868.35
470.65	1873.55
471.022	1901.8
471.394	1931.4
471.766	1946.54
472.138	1997.84
472.51	2005.75
472.882	2050.5
473.253	2056.37
473.625	2071.29
473.997	2108.12
474.369	2149.03
474.74	2161.23
475.112	2176.82
475.484	2216.37
475.855	2271.96
476.227	2264.05
476.598	2341.34
476.97	2361
477.341	2379.53
477.713	2412.97
478.084	2431.96
478.455	2504.95
478.827	2528.45
479.198	2571.84
479.569	2586.3
479.94	2629.69
480.311	2682.12
480.682	2731.83
481.053	2816.13
481.424	2820.87
481.795	2836.01
482.166	2939.74
482.537	2933.64
482.908	2957.59
483.279	3009.57
483.65	3048.89
484.021	3116.23
484.391	3143.35
484.762	3224.03
485.133	3213.4
485.503	3272.84
485.874	3338.82
486.244	3361.65
486.615	3422.44
486.985	3437.81
487.356	3533.62
487.726	3532.49
488.097	3599.38
488.467	3617.46
488.837	3701.53
489.207	3797.12
489.578	3814.97
489.948	3815.2
490.318	3903.33
490.688	3911.92
491.058	3970.9
491.428	4053.38
491.798	4085.25
492.168	4162.53
492.538	4195.98
492.908	4226.48
493.278	4266.48
493.648	4315.07
494.017	4383.54
494.387	4405.69
494.757	4388.51
495.126	4479.36
495.496	4455.63
495.866	4506.7
496.235	4569.98
496.605	4611.56
496.974	4642.07
497.344	4707.83
497.713	4703.99
498.082	4763.87
498.452	4841.84
498.821	4857.43
499.19	4837.54
499.559	4896.98
499.928	4958.67
500.298	4965.22
500.667	5049.06
501.036	5029.63
501.405	5073.69
501.774	5106.91
502.143	5178.32
502.512	5203.41
502.88	5267.81
503.249	5277.98
503.618	5297.19
503.987	5339.68
504.356	5383.52
504.724	5395.04
505.093	5387.13
505.462	5460.12
505.83	5458.54
506.199	5486.11
506.567	5567.01
506.936	5638.43
507.304	5710.06
507.672	5689.72
508.041	5714.58
508.409	5773.11
508.777	5841.81
509.145	5890.4
509.514	5911.19
509.882	5978.98
510.25	5992.99
510.618	6026.44
510.986	6060.79
511.354	6164.97
511.722	6192.08
512.09	6230.27
512.458	6233.66
512.826	6282.48
513.193	6303.04
513.561	6395.47
513.929	6472.75
514.297	6493.32
514.664	6566.31
515.032	6548.46
515.4	6671.17
515.767	6698.28
516.135	6740.32
516.502	6733.09
516.869	6863.25
517.237	6855.79
517.604	6810.82
517.972	6921.56
518.339	6980.08
518.706	7032.96
519.073	7064.6
519.44	7143.02
519.808	7231.6
520.175	7163.13
520.542	7265.28
520.909	7319.06
521.276	7339.85
521.643	7476.79
522.009	7543.69
522.376	7623.23
522.743	7617.81
523.11	7665.04
523.477	7763.12
523.843	7786.39
524.21	7856.22
524.577	7936.9
524.943	7954.97
525.31	8057.8
525.676	8077.01
526.043	8166.49
526.409	8181.41
526.776	8283.33
527.142	8279.26
527.508	8415.3
527.874	8444.23
528.241	8527.16
528.607	8505.69
528.973	8614.17
529.339	8652.81
529.705	8725.58
530.071	8832.24
530.437	8839.47
530.803	8821.39
531.169	8989.75
531.535	8953.59
531.901	8951.56
532.267	9000.37
532.632	9123.08
532.998	9067.26
533.364	9206.02
533.73	9215.96
534.095	9259.35
534.461	9274.94
534.826	9316.52
535.192	9364.88
535.557	9463.86
535.923	9449.62
536.288	9492.79
536.653	9520.13
537.019	9635.38
537.384	9655.72
537.749	9736.85
538.114	9762.61
538.479	9765.55
538.845	9786.79
539.21	9786.11
539.575	9843.96
539.94	9937.3
540.305	9961.93
540.67	9952.66
541.034	9979.33
541.399	9980.68
541.764	9998.08
542.129	10084.18
542.494	10175.26
542.858	10116.95
543.223	10229.94
543.587	10225.2
543.952	10212.77
544.316	10330.51
544.681	10290.05
545.045	10436.72
545.41	10376.38
545.774	10434.68
546.138	10468.13
546.503	10580.44
546.867	10535.92
547.231	10683.49
547.595	10636.26
547.959	10726.43
548.324	10689.37
548.688	10759.65
549.052	10812.3
549.416	10828.8
549.779	10798.06
550.143	10876.93
550.507	10911.51
550.871	10975.91
551.235	10874.45
551.599	11064.27
551.962	11036.02
552.326	11125.74
552.689	11233.31
553.053	11154.21
553.417	11207.54
553.78	11294.55
554.143	11307.43
554.507	11379.74
554.87	11395.79
555.234	11532.51
555.597	11365.28
555.96	11472.85
556.323	11588.78
556.686	11525.05
557.05	11676.01
557.413	11622.9
557.776	11680.98
558.139	11842.78
558.502	11836.45
558.865	11959.16
559.228	11978.15
559.59	12038.03
559.953	12051.59
560.316	12216.56
560.679	12169.55
561.041	12287.74
561.404	12358.47
561.767	12460.84
562.129	12334.52
562.492	12489.09
562.854	12472.37
563.217	12498.13
563.579	12535.19
563.941	12627.62
564.304	12650.67
564.666	12771.8
565.028	12759.14
565.39	12779.93
565.753	12892.25
566.115	12977.22
566.477	12964.33
566.839	13085.46
567.201	13161.84
567.563	13143.54
567.925	13263.99
568.287	13279.81
568.648	13318
569.01	13387.37
569.372	13440.03
569.734	13405.9
570.095	13583.53
570.457	13525.45
570.819	13640.93
571.18	13594.6
571.542	13693.58
571.903	13684.32
572.265	13727.25
572.626	13890.41
572.987	13841.37
573.349	13874.37
573.71	13870.53
574.071	14011.09
574.432	13962.5
574.794	14072.1
575.155	14073.46
575.516	14093.34
575.877	14070.97
576.238	14196.17
576.599	14253.57
576.96	14175.38
577.32	14253.79
577.681	14282.72
578.042	14212.44
578.403	14259.44
578.763	14316.39
579.124	14352.77
579.485	14431.64
579.845	14427.12
580.206	14417.86
580.566	14424.18
580.927	14402.04
581.287	14369.04
581.648	14440.23
582.008	14579.66
582.368	14516.16
582.728	14602.94
583.089	14589.38
583.449	14538.08
583.809	14556.16
584.169	14604.07
584.529	14547.57
584.889	14682.48
585.249	14571.07
585.609	14522.71
585.969	14630.05
586.329	14619.88
586.688	14599.09
587.048	14608.58
587.408	14577.63
587.768	14645.42
588.127	14592.54
588.487	14565.2
588.846	14662.82
589.206	14528.81
589.565	14648.36
589.925	14609.71
590.284	14617.17
590.643	14627.34
591.003	14713.89
591.362	14714.8
591.721	14653.78
592.08	14730.16
592.44	14694.68
592.799	14805.64
593.158	14725.87
593.517	14763.83
593.876	14692.42
594.235	14707.34
594.593	14648.13
594.952	14731.97
595.311	14741.91
595.67	14778.07
596.029	14840.9
596.387	14819.65
596.746	14895.13
597.104	14840.22
597.463	14799.99
597.822	14821.01
598.18	14771.74
598.538	14830.95
598.897	14933.55
599.255	14738.07
599.613	14972.87
599.972	14851.52
600.33	14889.71
600.688	14886.77
601.046	14853.55
601.404	14920.67
601.762	14854.91
602.12	14960.89
602.478	15056.26
602.836	15025.3
603.194	14856.26
603.552	15041.12
603.91	14878.18
604.268	15012.42
604.625	15018.74
604.983	15010.38
605.341	14965.64
605.698	15066.65
606.056	15095.35
606.413	15118.4
606.771	15198.17
607.128	15209.25
607.485	15040.89
607.843	15076.37
608.2	15162.69
608.557	15233.2
608.914	15193.43
609.272	15266.19
609.629	15242.24
609.986	15407.21
610.343	15300.77
610.7	15453.08
611.057	15309.13
611.414	15301.9
611.771	15328.57
612.127	15419.41
612.484	15352.97
612.841	15500.31
613.198	15402.69
613.554	15436.81
613.911	15514.1
614.267	15496.47
614.624	15531.27
614.98	15485.17
615.337	15577.15
615.693	15544.15
616.05	15533.98
616.406	15563.14
616.762	15596.36
617.118	15539.86
617.475	15604.49
617.831	15640.65
618.187	15662.12
618.543	15706.86
618.899	15745.5
619.255	15596.13
619.611	15632.74
619.967	15726.52
620.323	15741.44
620.678	15685.84
621.034	15631.61
621.39	15700.53
621.746	15745.28
622.101	15818.5
622.457	15646.07
622.812	15774.88
623.168	15765.62
623.523	15658.5
623.879	15749.12
624.234	15669.12
624.589	15707.76
624.945	15824.15
625.3	15789.12
625.655	15781.21
626.01	15688.78
626.365	15794.09
626.72	15749.12
627.075	15650.59
627.43	15627.99
627.785	15699.86
628.14	15658.5
628.495	15720.42
628.85	15783.02
629.205	15642.68
629.559	15746.18
629.914	15651.72
630.269	15626.86
630.623	15594.77
630.978	15519.97
631.332	15616.92
631.687	15703.02
632.041	15611.95
632.396	15613.08
632.75	15516.81
633.104	15546.41
633.459	15527.43
633.813	15421.67
634.167	15502.35
634.521	15324.72
634.875	15507.09
635.229	15406.3
635.583	15372.18
635.937	15443.37
636.291	15314.55
636.645	15416.47
636.999	15260.55
637.352	15449.92
637.706	15226.42
638.06	15246.08
638.413	15287.66
638.767	15268.91
639.121	15251.51
639.474	15154.11
639.828	15228.23
640.181	15183.48
640.534	15201.79
640.888	15086.09
641.241	15116.59
641.594	15088.57
641.947	15143.71
642.301	15160.89
642.654	15070.72
643.007	15141.9
643.36	15114.56
643.713	15080.21
644.066	15145.75
644.419	14997.05
644.771	14998.18
645.124	14913.66
645.477	14905.98
645.83	14745.76
646.182	14591.18
646.535	14457.4
646.888	14492.2
647.24	14356.84
647.593	14418.08
647.945	14420.57
648.298	14249.72
648.65	14260.57
649.002	14218.31
649.355	14288.14
649.707	14334.24
650.059	14425.76
650.411	14590.51
650.763	14577.63
651.115	14722.48
651.467	14709.6
651.819	14618.98
652.171	14649.94
652.523	14731.97
652.875	14539.89
653.227	14552.54
653.578	14666.89
653.93	14558.87
654.282	14493.33
654.633	14471.87
654.985	14410.17
655.337	14491.3
655.688	14505.99
656.039	14611.97
656.391	14367.69
656.742	14449.49
657.094	14427.12
657.445	14548.7
657.796	14515.71
658.147	14444.3
658.498	14445.43
658.849	14462.6
659.2	14388.93
659.551	14359.1
659.902	14364.52
660.253	14371.75
660.604	14349.38
660.955	14275.49
661.306	14339.44
661.656	14296.5
662.007	14326.33
662.358	14209.5
662.708	14271.19
663.059	14246.56
663.409	14174.25
663.76	14273.68
664.11	14221.7
664.461	14318.2
664.811	14279.33
665.161	14229.84
665.511	14225.32
665.862	14234.58
666.212	14240.68
666.562	14324.3
666.912	14219.44
667.262	14168.6
667.612	14222.83
667.962	14159.56
668.312	14208.14
668.662	14236.84
669.011	14198.2
669.361	14181.7
669.711	14180.12
670.06	14160.24
670.41	14119.33
670.76	14120.46
671.109	14155.04
671.459	14138.99
671.808	14022.61
672.157	14160.69
672.507	14010.18
672.856	14023.97
673.205	14068.49
673.554	14094.47
673.904	13943.97
674.253	14127.47
674.602	14030.07
674.951	13851.09
675.3	13875.04
675.649	14003.4
675.998	14037.75
676.346	13981.93
676.695	14040.46
677.044	13901.26
677.393	13931.54
677.741	13944.87
678.09	13954.36
678.438	13870.75
678.787	13971.77
679.135	13902.16
679.484	13838.44
679.832	13894.03
680.181	13751.43
680.529	13882.95
680.877	13844.54
681.225	13726.8
681.573	13826.01
681.922	13771.09
682.27	13603.87
682.618	13731.32
682.966	13561.83
683.314	13659.23
683.661	13610.87
684.009	13501.72
684.357	13566.58
684.705	13516.41
685.053	13543.3
685.4	13459.69
685.748	13397.77
686.095	13521.61
686.443	13380.59
686.79	13380.59
687.138	13456.98
687.485	13471.67
687.832	13357.54
688.18	13433.93
688.527	13318.22
688.874	13218.34
689.221	13248.85
689.568	13253.59
689.915	13173.37
690.262	13208.85
690.609	13143.54
690.956	13080.49
691.303	13111.68
691.65	12967.27
691.997	13026.93
692.344	12864.68
692.69	12875.52
693.037	12911.45
693.383	12765.02
693.73	12793.72
694.077	12704.23
694.423	12756.2
694.769	12664.91
695.116	12624
695.462	12582.65
695.808	12569.09
696.155	12618.13
696.501	12519.83
696.847	12512.37
697.193	12440.28
697.539	12576.1
697.885	12510.56
698.231	12332.49
698.577	12380.85
698.923	12353.5
699.269	12285.26
699.614	12275.99
699.96	12266.05
700.306	12208.42
700.651	12206.39
700.997	12171.59
701.342	12184.92
701.688	12058.6
702.033	12089.78
702.379	12027.18
702.724	12073.06
703.069	11936.34
703.415	11931.82
703.76	11935.43
704.105	11902.89
704.45	11908.99
704.795	11795.1
705.14	11816.34
705.485	11825.16
705.83	11735.89
706.175	11731.15
706.52	11676.23
706.865	11591.26
707.209	11539.51
707.554	11558.27
707.899	11589.23
708.243	11477.59
708.588	11456.35
708.932	11417.03
709.277	11424.71
709.621	11443.24
709.966	11383.13
710.31	11395.79
710.654	11278.95
710.998	11348.33
711.342	11377.48
711.687	11295.9
712.031	11221.1
712.375	11193.08
712.719	11155.57
713.063	11205.74
713.407	11176.13
713.75	11131.16
714.094	11153.31
714.438	11111.95
714.782	11081.22
715.125	11086.19
715.469	11137.04
715.812	11011.17
716.156	10968
716.499	10993.54
716.843	11012.52
717.186	10875.58
717.53	10959.64
717.873	11002.13
718.216	10864.95
718.559	10908.57
718.902	10813.43
719.246	10755.13
719.589	10732.98
719.932	10748.12
720.275	10689.14
720.617	10703.83
720.96	10753.77
721.303	10613.44
721.646	10642.81
721.989	10620.22
722.331	10634.9
722.674	10580.67
723.016	10579.76
723.359	10521.23
723.701	10593.78
724.044	10548.13
724.386	10473.78
724.729	10521.46
725.071	10452.99
725.413	10438.07
725.755	10448.24
726.097	10436.72
726.439	10425.19
726.782	10337.74
727.124	10420.22
727.465	10375.93
727.807	10384.29
728.149	10297.74
728.491	10226.33
728.833	10350.62
729.175	10309.71
729.516	10253.9
729.858	10212.77
730.199	10267.46
730.541	10260.68
730.882	10173.9
731.224	10250.06
731.565	10189.04
731.906	10253.67
732.248	10210.73
732.589	10220.45
732.93	10114.47
733.271	10073.79
733.612	10093.68
733.953	9994.92
734.294	10056.39
734.635	9984.07
734.976	10003.28
735.317	9982.04
735.658	9958.54
735.999	9985.2
736.339	9992.21
736.68	10023.39
737.021	9923.28
737.361	9944.98
737.702	9982.27
738.042	9925.09
738.383	9930.06
738.723	9906.34
739.063	9943.85
739.404	9913.57
739.744	9839.67
740.084	9810.07
740.424	9761.93
740.764	9734.36
741.104	9756.28
741.444	9669.51
741.784	9659.11
742.124	9659.56
742.464	9657.3
742.804	9696.17
743.143	9623.86
743.483	9681.48
743.823	9622.5
744.162	9489.17
744.502	9652.1
744.841	9537.98
745.181	9566.68
745.52	9526.01
745.86	9577.53
746.199	9519.23
746.538	9573.24
746.877	9581.37
747.216	9529.85
747.556	9526.46
747.895	9514.48
748.234	9387.25
748.573	9426.12
748.911	9411.43
749.25	9414.6
749.589	9378.21
749.928	9380.93
750.267	9405.78
750.605	9418.44
750.944	9442.17
751.283	9335.73
751.621	9314.49
751.96	9272.45
752.298	9303.19
752.636	9310.65
752.975	9241.27
753.313	9228.84
753.651	9272
753.989	9236.07
754.327	9106.36
754.666	9112.68
755.004	9175.51
755.342	9150.88
755.679	9037.66
756.017	9036.08
756.355	9027.04
756.693	8959.02
757.031	8985
757.368	8933.25
757.706	8889.41
758.044	8904.55
758.381	8936.87
758.719	8864.78
759.056	8888.74
759.394	8817.55
759.731	8714.73
760.068	8727.61
760.405	8693.94
760.743	8708.17
761.08	8727.16
761.417	8653.04
761.754	8638.8
762.091	8520.16
762.428	8549.31
762.765	8531.46
763.102	8551.12
763.438	8489.42
763.775	8528.97
764.112	8531.23
764.449	8493.27
764.785	8480.38
765.122	8401.06
765.458	8353.16
765.795	8323.78
766.131	8393.61
766.467	8304.34
766.804	8293.95
767.14	8278.13
767.476	8230.9
767.812	8218.7
768.148	8204.23
768.485	8156.55
768.821	8152.71
769.157	8140.96
769.492	8122.2
769.828	8130.56
770.164	7986.39
770.5	8030.23
770.836	8041.07
771.171	7980.06
771.507	7955.43
771.842	7921.3
772.178	7984.13
772.513	7869.55
772.849	7825.71
773.184	7811.02
773.519	7726.05
773.855	7697.81
774.19	7743
774.525	7707.52
774.86	7688.54
775.195	7632.5
775.53	7596.34
775.865	7532.61
776.2	7526.06
776.535	7491.71
776.87	7489.45
777.205	7477.25
777.539	7409.45
777.874	7426.85
778.209	7316.8
778.543	7294.2
778.878	7256.01
779.212	7249
779.547	7215.56
779.881	7246.29
780.215	7187.31
780.55	7185.28
780.884	7161.1
781.218	7173.07
781.552	7177.82
781.886	7131.95
782.22	7062.12
782.554	7045.85
782.888	7023.93
783.222	6969.69
783.556	6960.42
783.889	6966.75
784.223	6882.23
784.557	6839.98
784.89	6881.56
785.224	6869.13
785.557	6842.24
785.891	6764.95
786.224	6802.91
786.558	6772.63
786.891	6749.58
787.224	6706.87
787.557	6729.92
787.891	6669.58
788.224	6614.22
788.557	6616.48
788.89	6635.01
789.223	6635.46
789.556	6575.35
789.888	6601.34
790.221	6607.67
790.554	6496.26
790.887	6472.98
791.219	6432.08
791.552	6451.96
791.884	6457.84
792.217	6368.8
792.549	6333.32
792.882	6332.87
793.214	6270.05
793.546	6321.35
793.879	6289.93
794.211	6271.4
794.543	6249.93
794.875	6220.56
795.207	6235.25
795.539	6136.27
795.871	6252.42
796.203	6112.54
796.535	6132.65
796.867	6118.64
797.198	6064.18
797.53	6074.12
797.862	6026.44
798.193	6011.52
798.525	5973.78
798.856	6012.88
799.188	5934.01
799.519	5924.75
799.85	5898.76
800.182	5885.2
800.513	5933.56
800.844	5889.72
801.175	5837.06
801.506	5847.91
801.837	5800.91
802.168	5830.06
802.499	5863.73
802.83	5767.69
803.161	5728.82
803.491	5734.69
803.822	5687.01
804.153	5716.84
804.483	5638.2
804.814	5626.67
805.145	5627.35
805.475	5589.61
805.805	5657.18
806.136	5596.62
806.466	5573.34
806.796	5562.49
807.126	5570.63
807.457	5532.89
807.787	5505.55
808.117	5533.8
808.447	5506
808.777	5480.24
809.107	5481.59
809.436	5478.88
809.766	5471.88
810.096	5443.18
810.426	5435.27
810.755	5406.11
811.085	5369.05
811.414	5404.31
811.744	5348.72
812.073	5336.96
812.403	5346.23
812.732	5355.04
813.061	5327.92
813.39	5306.91
813.719	5335.83
814.049	5313.46
814.378	5284.08
814.707	5282.28
815.036	5313.24
815.365	5284.08
815.693	5195.5
816.022	5210.19
816.351	5172.9
816.68	5153.69
817.008	5203.63
817.337	5152.79
817.665	5108.27
817.994	5120.02
818.322	5110.76
818.651	5088.84
818.979	5103.07
819.307	5127.93
819.636	5088.84
819.964	5100.36
820.292	5076.41
820.62	5145.56
820.948	5071.66
821.276	5062.4
821.604	5057.2
821.932	5059.46
822.259	5057.2
822.587	5036.18
822.915	4977.88
823.243	5013.58
823.57	4992.79
823.898	5028.72
824.225	4955.05
824.553	4971.32
824.88	4998.89
825.207	5018.1
825.535	4984.21
825.862	5003.19
826.189	4985.34
826.516	5023.98
826.843	5032.11
827.17	5001.83
827.497	5014.94
827.824	5038.67
828.151	5040.47
828.478	5017.2
828.805	5066.69
829.131	5019.91
829.458	5005.67
829.785	5034.6
830.111	4984.88
830.438	5010.19
830.764	4975.62
831.09	5048.61
831.417	4985.34
831.743	5014.26
832.069	5025.33
832.395	5017.88
832.722	5030.08
833.048	5020.14
833.374	5002.96
833.7	4989.63
834.026	5038.89
834.351	5060.36
834.677	4967.03
835.003	4988.5
835.329	4955.96
835.654	4971.55
835.98	4936.75
836.306	4974.04
836.631	4906.24
836.956	4975.62
837.282	4940.14
837.607	4941.72
837.932	4941.95
838.258	4953.47
838.583	4915.96
838.908	4847.49
839.233	4896.3
839.558	4853.14
839.883	4865.34
840.208	4887.26
840.533	4848.16
840.858	4875.06
841.182	4824.44
841.507	4858.11
841.832	4814.27
842.156	4803.19
842.481	4752.35
842.805	4829.63
843.13	4779.24
843.454	4751.89
843.778	4689.75
844.103	4754.15
844.427	4712.12
844.751	4705.57
845.075	4658.11
845.399	4667.6
845.723	4636.19
846.047	4640.71
846.371	4645.91
846.695	4618.11
847.019	4645
847.343	4591.9
847.666	4578.79
847.99	4541.96
848.313	4535.4
848.637	4560.26
848.96	4494.95
849.284	4496.53
849.607	4432.36
849.931	4410.66
850.254	4436.42
850.577	4408.85
850.9	4397.33
851.223	4336.76
851.546	4304
851.869	4287.27
852.192	4327.27
852.515	4314.17
852.838	4320.04
853.161	4279.82
853.483	4278.23
853.806	4279.59
854.129	4268.07
854.451	4228.74
854.774	4231.23
855.096	4259.7
855.419	4222.19
855.741	4195.53
856.063	4197.33
856.385	4171.12
856.708	4116.43
857.03	4151.46
857.352	4121.85
857.674	4123.21
857.996	4060.16
858.318	4050.67
858.64	4076.66
858.961	4115.75
859.283	4040.5
859.605	4062.87
859.926	4013.16
860.248	4013.84
860.57	4009.54
860.891	4009.99
861.212	3980.39
861.534	4024
861.855	3991.69
862.176	3999.15
862.498	4007.28
862.819	3985.81
863.14	3957.34
863.461	3972.71
863.782	3979.49
864.103	3928.64
864.424	3956.44
864.745	3927.51
865.065	3906.72
865.386	3919.15
865.707	3907.62
866.027	3937.9
866.348	3878.92
866.668	3907.4
866.989	3869.66
867.309	3875.99
867.63	3873.27
867.95	3856.1
868.27	3864.69
868.59	3867.85
868.91	3887.51
869.23	3869.43
869.55	3868.3
869.87	3816.33
870.19	3858.13
870.51	3835.08
870.83	3853.84
871.15	3807.96
871.469	3811.35
871.789	3836.66
872.109	3806.61
872.428	3792.6
872.748	3786.04
873.067	3804.12
873.386	3801.86
873.706	3753.28
874.025	3746.27
874.344	3732.49
874.663	3810.68
874.982	3766.16
875.301	3743.11
875.62	3730
875.939	3707.18
876.258	3749.66
876.577	3747.63
876.896	3744.24
877.214	3699.27
877.533	3698.59
877.852	3724.13
878.17	3735.42
878.489	3719.38
878.807	3637.8
879.125	3642.77
879.444	3659.27
879.762	3648.65
880.08	3642.55
880.398	3615.43
880.716	3623.11
881.034	3601.19
881.352	3638.48
881.67	3583.11
881.988	3591.25
882.306	3599.16
882.624	3565.71
882.941	3587.86
883.259	3556.67
883.577	3583.11
883.894	3577.69
884.212	3543.57
884.529	3541.76
884.846	3534.53
885.164	3576.33
885.481	3516.67
885.798	3560.97
886.115	3519.84
886.432	3504.92
886.75	3536.56
887.067	3499.72
887.383	3520.29
887.7	3530.46
888.017	3469.44
888.334	3507.63
888.651	3502.89
888.967	3508.99
889.284	3445.26
889.6	3480.74
889.917	3462.66
890.233	3423.12
890.55	3432.38
890.866	3441.87
891.182	3403.23
891.498	3434.19
891.815	3418.37
892.131	3374.08
892.447	3369.56
892.763	3398.03
893.079	3371.14
893.395	3362.1
893.71	3354.42
894.026	3355.1
894.342	3318.71
894.657	3303.57
894.973	3311.93
895.289	3299.28
895.604	3277.13
895.92	3256.11
896.235	3206.17
896.55	3225.16
896.865	3236.23
897.181	3225.61
897.496	3245.49
897.811	3212.05
898.126	3141.99
898.441	3220.18
898.756	3157.81
899.071	3160.3
899.386	3142.9
899.7	3132.05
900.015	3163.01
900.33	3134.08
900.644	3111.49
900.959	3105.61
901.273	3094.54
901.588	3069.45
901.902	3067.19
902.216	3052.5
902.531	3041.88
902.845	3080.75
903.159	3020.87
903.473	3001.88
903.787	3000.53
904.101	2960.76
904.415	2988.33
904.729	2933.41
905.042	2936.35
905.356	2923.24
905.67	2908.78
905.984	2970.92
906.297	2931.83
906.611	2917.37
906.924	2905.62
907.237	2893.19
907.551	2894.09
907.864	2856.35
908.177	2904.94
908.491	2904.26
908.804	2860.87
909.117	2821.1
909.43	2840.53
909.743	2850.48
910.056	2834.66
910.368	2810.93
910.681	2824.49
910.994	2788.56
911.307	2782.68
911.619	2794.21
911.932	2784.04
912.244	2736.58
912.557	2768.44
912.869	2753.53
913.181	2742.46
913.494	2741.55
913.806	2723.7
914.118	2674.44
914.43	2678.5
914.742	2661.1
915.054	2679.63
915.366	2655.45
915.678	2633.08
915.99	2666.3
916.302	2630.82
916.613	2596.47
916.925	2612.29
917.236	2608
917.548	2578.62
917.859	2607.32
918.171	2558.73
918.482	2564.38
918.794	2533.65
919.105	2545.85
919.416	2515.57
919.727	2504.04
920.038	2495.68
920.349	2483.25
920.66	2488.9
920.971	2452.07
921.282	2469.24
921.593	2460.66
921.903	2467.44
922.214	2433.31
922.525	2416.14
922.835	2444.84
923.146	2382.01
923.456	2418.4
923.767	2386.99
924.077	2423.14
924.387	2391.96
924.697	2388.57
925.008	2360.09
925.318	2383.37
925.628	2365.52
925.938	2333.65
926.248	2296.82
926.558	2292.52
926.867	2269.7
927.177	2321.45
927.487	2299.76
927.796	2255.46
928.106	2248.91
928.416	2277.61
928.725	2245.75
929.034	2216.59
929.344	2239.64
929.653	2233.54
929.962	2213.88
930.271	2211.4
930.581	2206.88
930.89	2191.51
931.199	2198.06
931.508	2170.95
931.817	2206.2
932.125	2141.34
932.434	2179.76
932.743	2151.06
933.051	2170.04
933.36	2081
933.669	2155.13
933.977	2132.98
934.286	2114.22
934.594	2131.62
934.902	2099.54
935.21	2080.33
935.519	2078.29
935.827	2077.84
936.135	2078.97
936.443	2033.77
936.751	2028.35
937.059	2063.83
937.367	2017.5
937.674	2040.33
937.982	2029.03
938.29	2029.48
938.597	2006.43
938.905	1997.39
939.213	2015.92
939.52	2002.14
939.827	1974.34
940.135	1975.24
940.442	1979.54
940.749	1986.32
941.056	1960.78
941.363	1920.33
941.67	1926.66
941.977	1911.74
942.284	1926.66
942.591	1881.46
942.898	1876.49
943.205	1890.73
943.511	1883.5
943.818	1888.02
944.125	1860.22
944.431	1861.35
944.738	1885.08
945.044	1858.64
945.35	1849.82
945.657	1870.61
945.963	1880.56
946.269	1834.68
946.575	1806.44
946.881	1810.5
947.187	1825.42
947.493	1807.11
947.799	1781.58
948.105	1770.28
948.41	1790.62
948.716	1767.34
949.022	1762.14
949.327	1751.3
949.633	1749.94
949.938	1709.04
950.244	1748.36
950.549	1710.84
950.854	1734.35
951.16	1726.89
951.465	1729.83
951.77	1720.34
952.075	1701.35
952.38	1703.39
952.685	1730.28
952.99	1711.3
953.294	1670.39
953.599	1688.47
953.904	1659.32
954.209	1661.13
954.513	1673.56
954.818	1664.97
955.122	1664.29
955.426	1646.21
955.731	1637.85
956.035	1647.34
956.339	1635.37
956.643	1626.78
956.948	1573.45
957.252	1580.23
957.556	1607.57
957.86	1605.08
958.163	1603.96
958.467	1600.34
958.771	1563.96
959.075	1572.09
959.378	1571.87
959.682	1538.42
959.985	1537.06
960.289	1526.89
960.592	1510.4
960.896	1500.68
961.199	1523.05
961.502	1542.71
961.805	1525.31
962.108	1520.57
962.411	1526.67
962.714	1490.29
963.017	1504.52
963.32	1470.85
963.623	1492.09
963.926	1450.29
964.228	1460.46
964.531	1465.2
964.833	1469.5
965.136	1460.68
965.438	1469.27
965.741	1427.46
966.043	1428.59
966.345	1440.12
966.648	1414.36
966.95	1412.55
967.252	1416.84
967.554	1397.18
967.856	1391.31
968.158	1422.49
968.46	1365.54
968.761	1380.91
969.063	1369.61
969.365	1375.94
969.666	1379.1
969.968	1372.32
970.269	1369.38
970.571	1369.38
970.872	1358.09
971.174	1362.38
971.475	1357.41
971.776	1338.43
972.077	1353.57
972.378	1323.74
972.679	1344.98
972.98	1328.03
973.281	1345.88
973.582	1334.81
973.883	1322.61
974.183	1284.87
974.484	1316.05
974.785	1296.39
975.085	1301.14
975.386	1282.16
975.686	1260.91
975.986	1286.68
976.287	1267.69
976.587	1280.8
976.887	1270.18
977.187	1281.93
977.487	1240.35
977.787	1252.1
978.087	1260.69
978.387	1261.59
978.687	1249.39
978.987	1247.13
979.286	1235.38
979.586	1234.93
979.885	1240.12
980.185	1237.18
980.484	1221.59
980.784	1204.42
981.083	1219.11
981.382	1205.77
981.682	1195.83
981.981	1213.46
982.28	1193.8
982.579	1177.75
982.878	1190.86
983.177	1168.26
983.475	1168.03
983.774	1157.64
984.073	1144.98
984.372	1183.63
984.67	1171.42
984.969	1156.06
985.267	1141.59
985.566	1162.84
985.864	1142.5
986.162	1145.21
986.461	1162.61
986.759	1155.15
987.057	1117.87
987.355	1151.99
987.653	1107.7
987.951	1119.45
988.249	1109.5
988.547	1120.13
988.844	1084.42
989.142	1094.59
989.44	1095.95
989.737	1075.83
990.035	1087.13
990.332	1059.56
990.63	1054.14
990.927	1090.75
991.224	1054.59
991.521	1054.14
991.819	1068.38
992.116	1069.73
992.413	1041.26
992.71	1055.27
993.006	1033.35
993.303	1039.45
993.6	994.93
993.897	1055.49
994.193	1020.02
994.49	1020.69
994.787	1033.12
995.083	1046.46
995.379	997.64
995.676	991.54
995.972	1008.04
996.268	998.32
996.565	983.63
996.861	1005.33
997.157	1007.36
997.453	984.31
997.749	968.04
998.044	983.41
998.34	959.23
998.636	965.1
998.932	921.71
999.227	951.77
999.523	959.23
999.818	961.26
1000.114	975.5
1000.409	963.07
1000.704	966.68
1001	968.94
1001.295	927.14
1001.59	931.66
1001.885	946.8
1002.18	939.57
1002.475	916.06
1002.77	882.39
1003.065	905.89
1003.359	934.59
1003.654	909.28
1003.949	906.8
1004.243	893.69
1004.538	885.78
1004.832	891.43
1005.127	903.18
1005.421	885.1
1005.715	892.34
1006.009	874.48
1006.304	836.29
1006.598	876.52
1006.892	869.74
1007.186	860.92
1007.48	853.47
1007.773	850.75
1008.067	871.09
1008.361	840.13
1008.655	841.72
1008.948	858.44
1009.242	852.56
1009.535	859.34
1009.829	840.59
1010.122	834.03
1010.415	852.79
1010.708	834.94
1011.001	827.93
1011.295	810.3
1011.588	805.33
1011.881	797.42
1012.173	818.89
1012.466	792
1012.759	795.84
1013.052	820.7
1013.344	808.27
1013.637	811.89
1013.93	777.76
1014.222	787.25
1014.514	765.78
1014.807	790.19
1015.099	771.43
1015.391	754.26
1015.683	762.17
1015.976	756.52
1016.268	742.73
1016.56	752.45
1016.851	761.72
1017.143	758.55
1017.435	752.68
1017.727	738.89
1018.018	730.98
1018.31	739.57
1018.602	727.59
1018.893	731.44
1019.185	744.54
1019.476	725.79
1019.767	712.23
1020.058	706.58
1020.35	700.48
1020.641	735.5
1020.932	690.53
1021.223	710.65
1021.514	690.53
1021.804	707.48
1022.095	662.51
1022.386	706.35
1022.677	680.82
1022.967	676.3
1023.258	681.27
1023.548	696.86
1023.839	693.47
1024.129	682.62
1024.419	668.39
1024.709	679.23
1025	645.34
1025.29	647.6
1025.58	671.55
1025.87	656.64
1026.16	642.85
1026.449	636.75
1026.739	654.38
1027.029	653.7
1027.319	626.58
1027.608	648.27
1027.898	619.8
1028.187	637.43
1028.477	626.58
1028.766	618.67
1029.055	615.51
1029.344	612.57
1029.634	619.8
1029.923	612.57
1030.212	632.68
1030.501	603.3
1030.79	600.14
1031.078	588.61
1031.367	605.79
1031.656	606.92
1031.945	598.33
1032.233	581.16
1032.522	602.17
1032.81	618.67
1033.099	588.39
1033.387	597.88
1033.675	565.56
1033.963	594.04
1034.251	598.78
1034.54	587.48
1034.828	583.42
1035.116	569.63
1035.403	570.54
1035.691	547.26
1035.979	564.21
1036.267	555.17
1036.554	559.69
1036.842	563.3
1037.129	575.06
1037.417	561.95
1037.704	542.51
1037.992	521.95
1038.279	554.27
1038.566	533.47
1038.853	533.47
1039.14	533.47
