Data from foam_black_FLMS001491_00088.txt Node
Date: Wed Feb 08 10:44:51 GMT 2017
User: dcchb
Spectrometer: FLMS00149
Trigger mode: 0
Integration Time (sec): 2.000000E-2
Scans to average: 10
Electric dark correction enabled: true
Nonlinearity correction enabled: false
Boxcar width: 0
XAxis mode: Wavelengths
Number of Pixels in Spectrum: 2048
>>>>>Begin Spectral Data<<<<<
341.393	-12.92
341.776	-12.92
342.16	-12.92
342.543	-69.87
342.927	-59.93
343.31	-68.97
343.693	-68.52
344.077	-51.79
344.46	-51.79
344.843	-56.09
345.226	-43.88
345.61	-36.2
345.993	-8.86
346.376	1.54
346.759	0.86
347.142	14.65
347.525	63.23
347.908	56.45
348.291	77.47
348.674	77.24
349.057	94.64
349.44	118.82
349.823	150.69
350.206	150.69
350.588	168.77
350.971	213.96
351.354	203.12
351.737	239.27
352.119	230.69
352.502	272.72
352.884	276.33
353.267	266.62
353.65	272.04
354.032	282.89
354.414	298.25
354.797	297.8
355.179	305.71
355.562	299.38
355.944	291.02
356.326	315.66
356.709	331.02
357.091	301.19
357.473	340.74
357.855	324.02
358.238	338.48
358.62	342.77
359.002	323.56
359.384	335.54
359.766	335.09
360.148	335.99
360.53	331.02
360.912	329.21
361.294	331.93
361.676	328.54
362.057	330.8
362.439	321.76
362.821	325.15
363.203	324.69
363.584	313.62
363.966	308.65
364.348	307.52
364.729	320.63
365.111	315.66
365.493	332.15
365.874	297.8
366.256	326.73
366.637	327.63
367.019	314.53
367.4	311.14
367.781	316.79
368.163	317.92
368.544	316.79
368.925	310.23
369.306	328.76
369.688	302.55
370.069	299.16
370.45	313.62
370.831	330.34
371.212	328.08
371.593	300.51
371.974	317.01
372.355	312.72
372.736	322.44
373.117	326.28
373.498	303.68
373.879	317.69
374.26	324.92
374.641	310.01
375.021	324.69
375.402	309.78
375.783	321.76
376.163	338.71
376.544	363.34
376.925	348.42
377.305	314.53
377.686	329.67
378.066	329.89
378.447	342.55
378.827	357.01
379.208	352.94
379.588	332.83
379.968	340.51
380.349	341.64
380.729	347.29
381.109	350.68
381.489	352.04
381.87	343.68
382.25	349.78
382.63	355.88
383.01	340.51
383.39	361.53
383.77	391.81
384.15	361.3
384.53	359.04
384.91	371.47
385.29	345.03
385.67	369.21
386.049	363.34
386.429	352.26
386.809	373.96
387.189	385.48
387.568	387.97
387.948	384.58
388.328	389.1
388.707	386.61
389.087	399.72
389.466	387.74
389.846	385.26
390.225	397.46
390.605	406.95
390.984	397.24
391.363	385.71
391.743	428.65
392.122	401.75
392.501	401.98
392.881	419.83
393.26	412.83
393.639	412.83
394.018	422.55
394.397	417.35
394.776	411.47
395.155	445.6
395.534	419.61
395.913	411.02
396.292	414.86
396.671	415.09
397.05	449.44
397.429	426.16
397.808	427.29
398.186	458.48
398.565	433.62
398.944	454.18
399.323	451.47
399.701	447.63
400.08	451.7
400.458	437.69
400.837	457.12
401.215	461.87
401.594	460.96
401.972	456.67
402.351	457.12
402.729	438.59
403.107	459.83
403.486	471.58
403.864	466.61
404.242	482.88
404.62	457.12
404.999	485.14
405.377	490.57
405.755	490.57
406.133	500.51
406.511	507.29
406.889	484.92
407.267	474.97
407.645	505.71
408.023	527.63
408.401	508.87
408.779	509.32
409.156	513.16
409.534	526.95
409.912	530.57
410.29	542.09
410.667	541.86
411.045	536.89
411.422	550.68
411.8	579.15
412.178	553.84
412.555	575.54
412.933	576.44
413.31	566.5
413.687	564.69
414.065	577.34
414.442	605.82
414.819	608.53
415.197	606.5
415.574	617.79
415.951	611.02
416.328	617.79
416.705	611.24
417.082	614.4
417.46	628.42
417.837	619.83
418.214	630.68
418.591	635.2
418.967	628.87
419.344	652.37
419.721	634.74
420.098	660.28
420.475	668.87
420.852	652.37
421.228	657.79
421.605	668.64
421.982	698.02
422.358	674.97
422.735	688.08
423.111	690.33
423.488	699.6
423.864	705.93
424.241	706.83
424.617	725.59
424.994	724.01
425.37	707.28
425.746	726.27
426.123	732.37
426.499	700.28
426.875	739.15
427.251	740.05
427.627	781.63
428.003	749.09
428.379	744.8
428.756	788.19
429.132	784.34
429.507	781.86
429.883	780.05
430.259	832.25
430.635	806.94
431.011	835.87
431.387	823.66
431.763	828.41
432.138	825.7
432.514	879.93
432.89	874.51
433.265	875.64
433.641	891.46
434.016	892.14
434.392	910.22
434.767	913.83
435.143	901.63
435.518	925.81
435.894	914.96
436.269	944.79
436.644	952.7
437.02	962.19
437.395	942.98
437.77	952.02
438.145	979.59
438.52	1006.26
438.895	983.43
439.271	987.5
439.646	1009.87
440.021	1025.47
440.395	1036.77
440.77	1025.92
441.145	1011.23
441.52	1076.09
441.895	1071.12
442.27	1066.82
442.645	1069.31
443.019	1083.32
443.394	1078.57
443.769	1068.4
444.143	1067.05
444.518	1090.1
444.892	1075.64
445.267	1103.21
445.641	1139.14
446.016	1128.06
446.39	1112.24
446.764	1113.83
447.139	1135.75
447.513	1139.36
447.887	1123.77
448.262	1141.85
448.636	1158.57
449.01	1172.81
449.384	1171
449.758	1167.61
450.132	1203.77
450.506	1185.24
450.88	1212.81
451.254	1169.42
451.628	1230.43
452.002	1235.86
452.376	1253.94
452.75	1249.64
453.123	1231.34
453.497	1279.7
453.871	1293.48
454.244	1291.45
454.618	1289.64
454.992	1331.22
455.365	1329.87
455.739	1351.56
456.112	1361.96
456.486	1374.84
456.859	1409.64
457.232	1406.47
457.606	1407.83
457.979	1432.01
458.352	1459.35
458.725	1475.17
459.099	1491.67
459.472	1502.52
459.845	1540.03
460.218	1521.95
460.591	1521.5
460.964	1556.07
461.337	1572.57
461.71	1606.92
462.083	1621.38
462.456	1627.26
462.829	1624.55
463.201	1674.49
463.574	1648.5
463.947	1685.11
464.32	1708.61
464.692	1745.45
465.065	1749.06
465.438	1744.09
465.81	1756.52
466.183	1771.21
466.555	1809.85
466.928	1811.66
467.3	1839.23
467.672	1820.93
468.045	1901.83
468.417	1895.28
468.789	1937.76
469.161	1933.47
469.534	1968.04
469.906	1966.69
470.278	2022.05
470.65	2042.62
471.022	2081.03
471.394	2113.35
471.766	2135.27
472.138	2133.01
472.51	2178.43
472.882	2206.91
473.253	2263.85
473.625	2255.72
473.997	2328.03
474.369	2333.23
474.74	2337.98
475.112	2395.15
475.484	2425.2
475.855	2482.6
476.227	2461.81
476.598	2523.96
476.97	2566.67
477.341	2596.27
477.713	2633.33
478.084	2678.08
478.455	2729.6
478.827	2747.23
479.198	2798.75
479.569	2841.24
479.94	2899.09
480.311	2895.93
480.682	2961.46
481.053	3018.64
481.424	3060.67
481.795	3097.05
482.166	3119.65
482.537	3168.69
482.908	3225.86
483.279	3218.4
483.65	3332.3
484.021	3376.82
484.391	3390.6
484.762	3452.07
485.133	3451.84
485.503	3505.85
485.874	3554.44
486.244	3595.34
486.615	3682.35
486.985	3722.12
487.356	3752.85
487.726	3783.59
488.097	3828.78
488.467	3879.4
488.837	3965.28
489.207	3987.2
489.578	4062.68
489.948	4016.8
490.318	4081.21
490.688	4133.86
491.058	4184.93
491.428	4201.43
491.798	4240.52
492.168	4375.66
492.538	4333.63
492.908	4385.15
493.278	4495.88
493.648	4471.93
494.017	4540.86
494.387	4562.1
494.757	4586.5
495.126	4666.28
495.496	4634.86
495.866	4661.76
496.235	4724.13
496.605	4766.16
496.974	4760.28
497.344	4833.28
497.713	4846.84
498.082	4870.11
498.452	4931.58
498.821	4956.66
499.19	4950.56
499.559	5019.71
499.928	5082.08
500.298	5067.62
500.667	5103.55
501.036	5110.56
501.405	5153.49
501.774	5200.05
502.143	5245.02
502.512	5264.9
502.88	5313.26
503.249	5279.82
503.618	5386.71
503.987	5411.34
504.356	5407.5
504.724	5488.17
505.093	5457.22
505.462	5505.35
505.83	5513.48
506.199	5601.39
506.567	5645.46
506.936	5628.51
507.304	5689.98
507.672	5749.18
508.041	5771.56
508.409	5812.91
508.777	5880.48
509.145	5875.74
509.514	5863.98
509.882	5940.59
510.25	5932.01
510.618	6026.01
510.986	6029.63
511.354	6064.66
511.722	6153.47
512.09	6225.1
512.458	6186.01
512.826	6290.41
513.193	6259.68
513.561	6303.52
513.929	6275.72
514.297	6396.85
514.664	6474.59
515.032	6420.13
515.4	6512.1
515.767	6602.72
516.135	6655.15
516.502	6603.85
516.869	6686.34
517.237	6731.08
517.604	6747.58
517.972	6823.96
518.339	6897.86
518.706	6908.25
519.073	6950.51
519.44	6981.92
519.808	7055.82
520.175	7075.03
520.542	7101.24
520.909	7186.44
521.276	7211.97
521.643	7315.7
522.009	7296.04
522.376	7456.94
522.743	7476.82
523.11	7525.18
523.477	7605.41
523.843	7610.15
524.21	7712.52
524.577	7773.99
524.943	7812.86
525.31	7836.36
525.676	7920.43
526.043	7952.29
526.409	8093.08
526.776	8107.32
527.142	8061.89
527.508	8139.63
527.874	8232.06
528.241	8284.49
528.607	8330.36
528.973	8454.2
529.339	8428.44
529.705	8439.96
530.071	8579.62
530.437	8563.12
530.803	8716.56
531.169	8677.02
531.535	8704.36
531.901	8712.27
532.267	8797.01
532.632	8785.04
532.998	8950.23
533.364	8935.09
533.73	8969.44
534.095	9031.58
534.461	9102.32
534.826	9125.14
535.192	9194.74
535.557	9338.24
535.923	9229.77
536.288	9293.27
536.653	9354.97
537.019	9291.01
537.384	9366.94
537.749	9449.2
538.114	9465.47
538.479	9491.01
538.845	9552.02
539.21	9545.02
539.575	9601.51
539.94	9601.97
540.305	9749.31
540.67	9676.54
541.034	9747.05
541.399	9784.56
541.764	9788.4
542.129	9871.11
542.494	9879.25
542.858	9957.21
543.223	9950.2
543.587	9986.81
543.952	9974.38
544.316	10092.57
544.681	10021.16
545.045	10136.64
545.41	10126.47
545.774	10193.59
546.138	10250.31
546.503	10305.22
546.867	10300.25
547.231	10389.06
547.595	10390.19
547.959	10429.97
548.324	10430.19
548.688	10455.5
549.052	10509.74
549.416	10549.51
549.779	10587.7
550.143	10561.94
550.507	10686.23
550.871	10710.18
551.235	10748.83
551.599	10852.78
551.962	10882.16
552.326	10945.88
552.689	10985.66
553.053	10904.3
553.417	10973
553.78	11171.19
554.143	11048.71
554.507	11195.6
554.87	11269.04
555.234	11398.75
555.597	11269.49
555.96	11336.83
556.323	11387
556.686	11425.65
557.05	11530.05
557.413	11648.24
557.776	11712.19
558.139	11694.57
558.502	11745.64
558.865	11864.73
559.228	11859.08
559.59	12007.33
559.953	12054.33
560.316	12180.2
560.679	12188.79
561.041	12252.06
561.404	12239.86
561.767	12463.81
562.129	12419.07
562.492	12526.18
562.854	12490.48
563.217	12513.98
563.579	12597.14
563.941	12792.62
564.304	12816.57
564.666	12864.7
565.028	12880.97
565.39	12855.44
565.753	13024.93
566.115	13057.92
566.477	13061.31
566.839	13125.94
567.201	13361.64
567.563	13307.86
567.925	13290.46
568.287	13438.7
568.648	13520.51
569.01	13568.87
569.372	13636.44
569.734	13690.45
570.095	13680.5
570.457	13758.69
570.819	13802.76
571.18	13846.6
571.542	13905.35
571.903	13969.76
572.265	14049.31
572.626	14078.91
572.987	14032.58
573.349	14076.2
573.71	14239.58
574.071	14202.07
574.432	14214.73
574.794	14364.78
575.155	14296.76
575.516	14325.91
575.877	14423.31
576.238	14413.59
576.599	14593.02
576.96	14538.56
577.32	14514.38
577.681	14641.15
578.042	14658.33
578.403	14698.78
578.763	14676.18
579.124	14778.78
579.485	14791.89
579.845	14745.33
580.206	14779.23
580.566	14844.99
580.927	14802.96
581.287	14931.99
581.648	14871.88
582.008	14961.6
582.368	14931.99
582.728	14946.23
583.089	14957.3
583.449	14917.76
583.809	14933.35
584.169	14916.63
584.529	14916.85
584.889	15000.02
585.249	15047.47
585.609	15017.87
585.969	15041.14
586.329	15029.84
586.688	15157.07
587.048	15124.08
587.408	15099.45
587.768	15063.29
588.127	15049.73
588.487	14982.16
588.846	15210.41
589.206	15011.77
589.565	15071.65
589.925	15265.32
590.284	15027.59
590.643	15267.8
591.003	15138.54
591.362	15183.74
591.721	15195.94
592.08	15215.15
592.44	15215.6
592.799	15210.86
593.158	15147.13
593.517	15270.97
593.876	15207.02
594.235	15187.58
594.593	15201.14
594.952	15271.42
595.311	15169.95
595.67	15234.81
596.029	15282.27
596.387	15399.78
596.746	15397.52
597.104	15266.67
597.463	15206.11
597.822	15450.4
598.18	15289.73
598.538	15337.63
598.897	15423.28
599.255	15338.76
599.613	15501.7
599.972	15521.36
600.33	15534.01
600.688	15512.54
601.046	15478.87
601.404	15528.14
601.762	15516.39
602.12	15707.57
602.478	15600.9
602.836	15606.33
603.194	15440.23
603.552	15531.75
603.91	15602.49
604.268	15568.81
604.625	15565.88
604.983	15616.72
605.341	15526.78
605.698	15688.81
606.056	15669.38
606.413	15688.36
606.771	15726.32
607.128	15708.92
607.485	15588.93
607.843	15705.99
608.2	15814.46
608.557	15724.52
608.914	15709.6
609.272	15824.4
609.629	15914.12
609.986	16034.56
610.343	15877.28
610.7	15990.72
611.057	15888.81
611.414	15922.93
611.771	15983.72
612.127	16049.71
612.484	15985.98
612.841	15990.95
613.198	15945.08
613.554	15995.7
613.911	16050.16
614.267	16007.67
614.624	16069.82
614.98	15983.27
615.337	16107.78
615.693	16086.54
616.05	16077.28
616.406	16194.56
616.762	16112.3
617.118	16190.49
617.475	16098.52
617.831	16282.24
618.187	16262.35
618.543	16207.44
618.899	16301.45
619.255	16302.58
619.611	16218.74
619.967	16224.39
620.323	16315.91
620.678	16336.48
621.034	16254.45
621.39	16262.13
621.746	16243.82
622.101	16460.09
622.457	16284.05
622.812	16355.91
623.168	16399.07
623.523	16262.81
623.879	16392.07
624.234	16250.6
624.589	16410.6
624.945	16393.65
625.3	16401.33
625.655	16312.07
626.01	16382.13
626.365	16394.78
626.72	16439.75
627.075	16278.63
627.43	16272.75
627.785	16263.03
628.14	16339.87
628.495	16343.03
628.85	16327.66
629.205	16325.63
629.559	16340.09
629.914	16283.15
630.269	16325.4
630.623	16303.48
630.978	16218.06
631.332	16291.73
631.687	16279.08
632.041	16272.07
632.396	16137.16
632.75	16209.25
633.104	16126.09
633.459	16141.68
633.813	16155.01
634.167	16139.19
634.521	16149.59
634.875	16198.63
635.229	16153.88
635.583	16142.13
635.937	16051.51
636.291	16041.57
636.645	16070.72
636.999	15971.52
637.352	16006.32
637.706	15972.42
638.06	15953.89
638.413	15983.49
638.767	15920.22
639.121	15929.03
639.474	15819.43
639.828	15897.39
640.181	15903.49
640.534	15977.84
640.888	15783.72
641.241	15785.53
641.594	15864.63
641.947	15808.13
642.301	15761.35
642.654	15762.26
643.007	15694.01
643.36	15685.87
643.713	15709.83
644.066	15762.71
644.419	15591.19
644.771	15483.62
645.124	15267.13
645.477	15241.14
645.83	15254.92
646.182	15187.81
646.535	15191.42
646.888	15187.13
647.24	15078.66
647.593	15223.51
647.945	15169.73
648.298	15052.22
648.65	15064.87
649.002	14981.03
649.355	15033.69
649.707	14927.25
650.059	15033.69
650.411	15137.64
650.763	15175.6
651.115	15339.44
651.467	15257.64
651.819	15273.45
652.171	15207.24
652.523	15187.81
652.875	15276.39
653.227	15153.91
653.578	15159.56
653.93	15234.36
654.282	15193.46
654.633	15068.71
654.985	15138.09
655.337	15183.51
655.688	15221.25
656.039	15161.14
656.391	14983.29
656.742	15057.64
657.094	15069.17
657.445	15147.13
657.796	15153.01
658.147	15150.07
658.498	15101.93
658.849	14946.91
659.2	15074.82
659.551	15015.61
659.902	15036.4
660.253	15004.76
660.604	14970.86
660.955	14929.06
661.306	15015.61
661.656	14957.08
662.007	15013.8
662.358	14976.06
662.708	15019.45
663.059	14911.88
663.409	14758.89
663.76	14893.8
664.11	14881.15
664.461	14930.41
664.811	14888.61
665.161	14956.85
665.511	14840.02
665.862	14888.83
666.212	14910.98
666.562	14958.43
666.912	14883.18
667.262	14854.03
667.612	14863.07
667.962	14896.97
668.312	14842.73
668.662	14984.42
669.011	14841.83
669.361	14786.46
669.711	14808.61
670.06	14785.56
670.41	14795.73
670.76	14756.63
671.109	14818.1
671.459	14795.73
671.808	14750.98
672.157	14894.03
672.507	14760.7
672.856	14719.57
673.205	14746.01
673.554	14792.34
673.904	14822.62
674.253	14835.05
674.602	14724.99
674.951	14478.9
675.3	14415.17
675.649	14694.71
675.998	14629.4
676.346	14606.58
676.695	14686.8
677.044	14578.56
677.393	14574.72
677.741	14625.11
678.09	14555.06
678.438	14520.48
678.787	14613.58
679.135	14594.15
679.484	14454.27
679.832	14573.36
680.181	14470.09
680.529	14503.98
680.877	14367.49
681.225	14438.67
681.573	14432.8
681.922	14262.41
682.27	14289.07
682.618	14247.72
682.966	14252.92
683.314	14357.77
683.661	14275.06
684.009	14145.57
684.357	14145.12
684.705	14183.99
685.053	14084.11
685.4	14115.74
685.748	14086.14
686.095	14050.89
686.443	13964.34
686.79	14078.23
687.138	14108.97
687.485	13955.07
687.832	13954.39
688.18	13900.38
688.527	13882.98
688.874	13863.1
689.221	13831.46
689.568	13793.95
689.915	13672.59
690.262	13823.32
690.609	13697.45
690.956	13627.85
691.303	13649.32
691.65	13537.23
691.997	13547.62
692.344	13478.93
692.69	13385.59
693.037	13347.18
693.383	13365.93
693.73	13429.66
694.077	13239.16
694.423	13293.17
694.769	13330.23
695.116	13156.67
695.462	13125.26
695.808	13128.2
696.155	13152.61
696.501	12999.16
696.847	13010.69
697.193	12830.13
697.539	12895.89
697.885	12831.94
698.231	12807.76
698.577	12755.55
698.923	12835.1
699.269	12735.44
699.614	12696.12
699.96	12597.37
700.306	12677.14
700.651	12576.35
700.997	12492.06
701.342	12520.76
701.688	12474.43
702.033	12429.69
702.379	12484.38
702.724	12462.45
703.069	12417.26
703.415	12240.77
703.76	12287.77
704.105	12272.4
704.45	12249.81
704.795	12189.92
705.14	12151.05
705.485	12218.39
705.83	12113.54
706.175	12146.98
706.52	12059.08
706.865	12007.55
707.209	11967.1
707.554	11896.37
707.899	11919.42
708.243	11802.36
708.588	11945.18
708.932	11797.39
709.277	11675.13
709.621	11730.04
709.966	11580.67
710.31	11642.59
710.654	11606.43
710.998	11585.87
711.342	11609.6
711.687	11638.07
712.031	11570.5
712.375	11450.05
712.719	11474.01
713.063	11471.75
713.407	11489.15
713.75	11379.32
714.094	11388.13
714.438	11294.12
714.782	11382.48
715.125	11195.82
715.469	11264.07
715.812	11222.71
716.156	11102.72
716.499	11217.06
716.843	11118.76
717.186	11160.12
717.53	11236.72
717.873	11149.72
718.216	11149.04
718.559	11097.52
718.902	11018.2
719.246	11008.71
719.589	11040.8
719.932	10933.23
720.275	10903.4
720.617	10965.55
720.96	10942.49
721.303	10896.39
721.646	10859.11
721.989	10816.85
722.331	10875.38
722.674	10825.44
723.016	10806
723.359	10781.6
723.701	10788.15
724.044	10787.7
724.386	10685.1
724.729	10746.57
725.071	10728.26
725.413	10744.53
725.755	10642.84
726.097	10610.07
726.439	10577.98
726.782	10557.42
727.124	10620.7
727.465	10598.77
727.807	10551.32
728.149	10528.49
728.491	10526.69
728.833	10419.57
729.175	10486.01
729.516	10440.59
729.858	10427.71
730.199	10464.77
730.541	10375.5
730.882	10406.92
731.224	10409.63
731.565	10319.23
731.906	10328.73
732.248	10358.33
732.589	10210.31
732.93	10209.86
733.271	10221.61
733.612	10246.47
733.953	10250.54
734.294	10230.88
734.635	10241.95
734.976	10255.28
735.317	10162.4
735.658	10171.22
735.999	10145.68
736.339	10100.03
736.68	10143.19
737.021	10052.12
737.361	10029.3
737.702	10108.39
738.042	10065.91
738.383	10050.54
738.723	10080.37
739.063	9925.12
739.404	10065.46
739.744	9969.41
740.084	9995.4
740.424	9915.86
740.764	9940.49
741.104	9898.23
741.444	9892.8
741.784	9814.84
742.124	9934.84
742.464	9805.8
742.804	9810.32
743.143	9816.2
743.483	9894.39
743.823	9758.12
744.162	9718.8
744.502	9748.63
744.841	9733.49
745.181	9750.44
745.52	9713.15
745.86	9669.53
746.199	9630.21
746.538	9640.38
746.877	9653.72
747.216	9609.2
747.556	9534.17
747.895	9660.04
748.234	9573.72
748.573	9529.42
748.911	9569.2
749.25	9514.06
749.589	9512.25
749.928	9502.98
750.267	9510.89
750.605	9459.14
750.944	9437.22
751.283	9385.93
751.621	9394.06
751.96	9282.43
752.298	9267.51
752.636	9340.5
752.975	9310.9
753.313	9254.86
753.651	9285.36
753.989	9304.8
754.327	9222.09
754.666	9140.06
755.004	9187.74
755.342	9148.87
755.679	9185.25
756.017	9103.9
756.355	9109.1
756.693	9010.12
757.031	9030
757.368	9040.17
757.706	9020.06
758.044	8965.6
758.381	8968.76
758.719	8871.14
759.056	8964.47
759.394	8853.51
759.731	8765.6
760.068	8810.57
760.405	8816.67
760.743	8772.83
761.08	8759.73
761.417	8696.68
761.754	8702.1
762.091	8653.74
762.428	8662.1
762.765	8648.09
763.102	8640.86
763.438	8599.51
763.775	8490.81
764.112	8532.16
764.449	8466.63
764.785	8512.28
765.122	8407.19
765.458	8423.69
765.795	8466.4
766.131	8429.11
766.467	8387.08
766.804	8337.14
767.14	8290.36
767.476	8349.57
767.812	8221.21
768.148	8253.07
768.485	8199.06
768.821	8194.54
769.157	8098.28
769.492	8141.66
769.828	8113.64
770.164	8038.62
770.5	7992.97
770.836	8007.43
771.171	8012.63
771.507	7961.33
771.842	7897.38
772.178	7958.62
772.513	7873.65
772.849	7900.99
773.184	7834.78
773.519	7875.91
773.855	7827.32
774.19	7748.23
774.525	7671.85
774.86	7783.48
775.195	7710.94
775.53	7663.48
775.865	7599.98
776.2	7601.79
776.535	7588.46
776.87	7553.43
777.205	7554.79
777.539	7531.74
777.874	7553.43
778.209	7463.04
778.543	7426.66
778.878	7403.83
779.212	7376.03
779.547	7371.97
779.881	7392.98
780.215	7311.18
780.55	7335.13
780.884	7311.18
781.218	7299.88
781.552	7213.33
781.886	7121.58
782.22	7167.9
782.554	7110.73
782.888	7065.08
783.222	7033.67
783.556	7057.85
783.889	7017.85
784.223	6964.97
784.557	6941.02
784.89	6898.31
785.224	6882.26
785.557	6862.83
785.891	6857.63
786.224	6814.47
786.558	6815.6
786.891	6762.04
787.224	6778.31
787.557	6721.59
787.891	6693.57
788.224	6702.83
788.557	6721.81
788.89	6685.88
789.223	6715.26
789.556	6645.88
789.888	6600.69
790.221	6579.9
790.554	6588.48
790.887	6569.5
791.219	6505.55
791.552	6487.7
791.884	6439.11
792.217	6439.56
792.549	6390.52
792.882	6362.5
793.214	6386
793.546	6357.08
793.879	6274.14
794.211	6283.63
794.543	6315.5
794.875	6288.83
795.207	6310.75
795.539	6234.14
795.871	6298.55
796.203	6214.71
796.535	6206.35
796.867	6212
797.198	6180.59
797.53	6153.92
797.862	6110.76
798.193	6130.19
798.525	6062.17
798.856	6090.42
799.188	6026.47
799.519	6026.69
799.85	5969.74
800.182	6048.16
800.513	6020.59
800.844	5969.74
801.175	6000.25
801.506	5955.51
801.837	5976.52
802.168	5886.36
802.499	5860.82
802.83	5865.34
803.161	5833.48
803.491	5830.76
803.822	5856.53
804.153	5818.11
804.483	5746.25
804.814	5774.04
805.145	5713.48
805.475	5730.88
805.805	5755.51
806.136	5716.64
806.466	5719.58
806.796	5699.24
807.126	5666.48
807.457	5633.93
807.787	5678
808.117	5637.55
808.447	5646.14
808.777	5623.09
809.107	5572.92
809.436	5605.46
809.766	5570.88
810.096	5546.25
810.426	5573.37
810.755	5534.28
811.085	5529.3
811.414	5535.41
811.744	5453.15
812.073	5494.5
812.403	5480.04
812.732	5430.1
813.061	5413.83
813.39	5427.84
813.719	5428.29
814.049	5387.84
814.378	5391.23
814.707	5333.15
815.036	5366.37
815.365	5357.78
815.693	5309.42
816.022	5304.22
816.351	5272.36
816.68	5278.69
817.008	5324.11
817.337	5238.92
817.665	5240.27
817.994	5289.08
818.322	5247.28
818.651	5199.14
818.979	5196.66
819.307	5204.11
819.636	5174.96
819.964	5130.44
820.292	5164.57
820.62	5161.86
820.948	5142.65
821.276	5132.03
821.604	5135.87
821.932	5130.67
822.259	5172.7
822.587	5106.04
822.915	5160.5
823.243	5106.26
823.57	5144.46
823.898	5165.25
824.225	5090.67
824.553	5123.66
824.88	5086.6
825.207	5079.15
825.535	5112.59
825.862	5101.07
826.189	5118.92
826.516	5145.13
826.843	5131.57
827.17	5077.34
827.497	5087.28
827.824	5126.83
828.151	5099.71
828.478	5101.52
828.805	5162.31
829.131	5108.98
829.458	5109.2
829.785	5069.43
830.111	5082.54
830.438	5123.66
830.764	5120.05
831.09	5151.01
831.417	5105.36
831.743	5135.87
832.069	5088.41
832.395	5099.48
832.722	5035.31
833.048	5097
833.374	5088.41
833.7	5070.78
834.026	5049.32
834.351	5044.57
834.677	5062.2
835.003	5103.55
835.329	5056.1
835.654	5063.33
835.98	5040.28
836.306	5021.29
836.631	5064.91
836.956	5031.69
837.282	4997.34
837.607	4966.83
837.932	4988.08
838.258	4988.75
838.583	4997.79
838.908	4911.69
839.233	5000.5
839.558	4947.85
839.883	4970.67
840.208	4932.94
840.533	4928.64
840.858	4935.87
841.182	4995.08
841.507	4908.53
841.832	4911.24
842.156	4933.39
842.481	4901.52
842.805	4884.8
843.13	4924.8
843.454	4913.5
843.778	4836.89
844.103	4813.62
844.427	4822.2
844.751	4875.54
845.075	4815.65
845.399	4799.15
845.723	4764.58
846.047	4791.02
846.371	4774.3
846.695	4764.58
847.019	4696.33
847.343	4725.26
847.666	4675.09
847.99	4637.8
848.313	4621.31
848.637	4659.72
848.96	4613.62
849.284	4598.25
849.607	4542.21
849.931	4582.44
850.254	4514.87
850.577	4557.13
850.9	4537.47
851.223	4519.84
851.546	4497.69
851.869	4464.02
852.192	4472.16
852.515	4417.69
852.838	4446.39
853.161	4423.34
853.483	4399.62
853.806	4404.14
854.129	4368.66
854.451	4374.08
854.774	4306.51
855.096	4311.71
855.419	4305.61
855.741	4289.79
856.063	4271.94
856.385	4305.61
856.708	4265.38
857.03	4265.83
857.352	4217.25
857.674	4232.84
857.996	4233.97
858.318	4190.81
858.64	4201.88
858.961	4183.35
859.283	4154.42
859.605	4160.07
859.926	4184.03
860.248	4158.72
860.57	4106.29
860.891	4116.01
861.212	4115.33
861.534	4072.17
861.855	4105.39
862.176	4092.73
862.498	4057.25
862.819	4077.82
863.14	4070.13
863.461	4027.65
863.782	4033.07
864.103	4052.28
864.424	3986.29
864.745	4055.22
865.065	3991.27
865.386	4047.76
865.707	4044.6
866.027	4043.92
866.348	3999.4
866.668	4017.93
866.989	3947.88
867.309	3985.84
867.63	3978.84
867.95	4012.51
868.27	3921.44
868.59	3979.97
868.91	3926.18
869.23	3925.96
869.55	3916.01
869.87	3928.67
870.19	3931.38
870.51	3951.04
870.83	3941.32
871.15	3924.83
871.469	3903.58
871.789	3941.32
872.109	3872.62
872.428	3861.33
872.748	3863.81
873.067	3868.78
873.386	3913.75
873.706	3883.02
874.025	3877.82
874.344	3851.38
874.663	3885.96
874.982	3804.38
875.301	3833.98
875.62	3844.83
875.939	3818.84
876.258	3804.38
876.577	3750.82
876.896	3785.17
877.214	3809.8
877.533	3815
877.852	3812.06
878.17	3842.57
878.489	3799.86
878.807	3824.26
879.125	3780.2
879.444	3773.42
879.762	3767.09
880.08	3753.98
880.398	3704.49
880.716	3721.89
881.034	3722.12
881.352	3755.11
881.67	3718.73
881.988	3705.62
882.306	3710.14
882.624	3706.3
882.941	3663.82
883.259	3688.45
883.577	3624.5
883.894	3655
884.212	3633.99
884.529	3624.95
884.846	3625.63
885.164	3611.61
885.481	3615.68
885.798	3606.87
886.115	3576.13
886.432	3616.13
886.75	3588.56
887.067	3614.55
887.383	3566.87
887.7	3554.44
888.017	3538.4
888.334	3549.02
888.651	3603.25
888.967	3555.57
889.284	3506.76
889.6	3566.42
889.917	3505.4
890.233	3507.44
890.55	3502.01
890.866	3484.16
891.182	3489.58
891.498	3462.24
891.815	3467.66
892.131	3455.69
892.447	3434.9
892.763	3415.01
893.079	3415.46
893.395	3384.95
893.71	3452.97
894.026	3421.11
894.342	3375.01
894.657	3339.53
894.973	3344.95
895.289	3306.54
895.604	3359.64
895.92	3332.07
896.235	3308.35
896.55	3337.27
896.865	3284.17
897.181	3280.78
897.496	3262.24
897.811	3247.1
898.126	3282.58
898.441	3221.79
898.756	3231.06
899.071	3219.08
899.386	3252.3
899.7	3176.37
900.015	3218.18
900.33	3180.89
900.644	3163.49
900.959	3174.56
901.273	3174.34
901.588	3162.59
901.902	3140.21
902.216	3142.02
902.531	3142.02
902.845	3122.14
903.159	3099.76
903.473	3071.52
903.787	3079.42
904.101	3074
904.415	3084.85
904.729	3036.49
905.042	3047.79
905.356	3013.66
905.67	3024.06
905.984	2993.78
906.297	3002.36
906.611	2993.1
906.924	2960.56
907.237	2973.21
907.551	2944.96
907.864	2939.09
908.177	2967.56
908.491	2925.76
908.804	2911.75
909.117	2884.85
909.43	2863.16
909.743	2870.16
910.056	2855.48
910.368	2872.88
910.681	2812.54
910.994	2829.04
911.307	2820.22
911.619	2806.89
911.932	2797.4
912.244	2776.38
912.557	2780.9
912.869	2797.17
913.181	2816.83
913.494	2745.2
913.806	2734.35
914.118	2775.93
914.43	2723.5
914.742	2718.08
915.054	2710.85
915.366	2748.81
915.678	2726.21
915.99	2695.25
916.302	2696.84
916.613	2666.33
916.925	2662.26
917.236	2635.37
917.548	2605.99
917.859	2623.62
918.171	2597.4
918.482	2611.41
918.794	2628.36
919.105	2581.81
919.416	2569.83
919.727	2565.77
920.038	2554.92
920.349	2576.84
920.66	2568.7
920.971	2550.85
921.282	2531.19
921.593	2513.11
921.903	2490.97
922.214	2486.45
922.525	2480.57
922.835	2489.38
923.146	2445.77
923.456	2427.46
923.767	2400.57
924.077	2449.38
924.387	2436.96
924.697	2389.5
925.008	2424.98
925.318	2382.04
925.628	2377.3
925.938	2378.2
926.248	2373
926.558	2324.87
926.867	2329.39
927.177	2367.8
927.487	2355.15
927.796	2318.31
928.106	2368.48
928.416	2300.24
928.725	2313.57
929.034	2297.52
929.344	2274.93
929.653	2241.71
929.962	2268.15
930.271	2258.43
930.581	2231.76
930.89	2258.2
931.199	2243.29
931.508	2188.37
931.817	2227.47
932.125	2229.05
932.434	2217.98
932.743	2208.26
933.051	2170.07
933.36	2168.71
933.669	2136.17
933.977	2158.09
934.286	2175.49
934.594	2144.53
934.902	2117.42
935.21	2130.07
935.519	2120.13
935.827	2101.82
936.135	2117.64
936.443	2084.65
936.751	2053.91
937.059	2086.68
937.367	2066.57
937.674	2064.31
937.982	2037.87
938.29	2067.47
938.597	2040.36
938.905	2028.38
939.213	2028.83
939.52	1986.8
939.827	2019.79
940.135	2012.79
940.442	2003.97
940.749	1972.79
941.056	1984.76
941.363	1974.59
941.67	1983.86
941.977	1950.19
942.284	1950.87
942.591	1913.58
942.898	1919.91
943.205	1941.6
943.511	1931.88
943.818	1877.42
944.125	1912
944.431	1911.55
944.738	1870.42
945.044	1898.44
945.35	1852.79
945.657	1880.36
945.963	1865.67
946.269	1889.17
946.575	1867.71
946.881	1856.63
947.187	1868.16
947.493	1828.38
947.799	1810.76
948.105	1818.89
948.41	1776.18
948.716	1808.27
949.022	1802.4
949.327	1783.41
949.633	1780.48
949.938	1781.15
950.244	1808.72
950.549	1782.74
950.854	1757.2
951.16	1756.52
951.465	1733.25
951.77	1734.83
952.075	1728.5
952.38	1720.82
952.685	1726.01
952.99	1702.06
953.294	1707.71
953.599	1717.2
953.904	1667.71
954.209	1687.37
954.513	1680.37
954.818	1644.89
955.122	1650.54
955.426	1652.8
955.731	1680.82
956.035	1632.23
956.339	1654.15
956.643	1609.18
956.948	1647.6
957.252	1615.96
957.556	1636.75
957.86	1635.62
958.163	1601.72
958.467	1621.16
958.771	1606.02
959.075	1624.77
959.378	1549.3
959.682	1565.11
959.985	1539.13
960.289	1566.02
960.592	1558.56
960.896	1558.11
961.199	1557.43
961.502	1537.09
961.805	1566.92
962.108	1506.58
962.411	1535.74
962.714	1538.9
963.017	1501.16
963.32	1527.15
963.623	1539.13
963.926	1519.01
964.228	1456.87
964.531	1471.56
964.833	1498.22
965.136	1499.13
965.438	1462.07
965.741	1451.44
966.043	1466.36
966.345	1453.93
966.648	1430.88
966.95	1450.99
967.252	1426.36
967.554	1467.72
967.856	1418.9
968.158	1401.5
968.46	1412.8
968.761	1412.8
969.063	1399.02
969.365	1399.92
969.666	1384.55
969.968	1422.52
970.269	1384.33
970.571	1378.9
970.872	1399.69
971.174	1370.32
971.475	1368.74
971.776	1365.35
972.077	1333.48
972.378	1374.84
972.679	1382.97
972.98	1372.35
973.281	1330.54
973.582	1341.17
973.883	1339.36
974.183	1334.61
974.484	1327.61
974.785	1339.81
975.085	1321.5
975.386	1311.56
975.686	1293.03
975.986	1288.51
976.287	1289.42
976.587	1286.48
976.887	1255.52
977.187	1273.14
977.487	1294.39
977.787	1291
978.087	1248.29
978.387	1254.84
978.687	1262.3
978.987	1233.82
979.286	1252.13
979.586	1234.95
979.885	1254.84
980.185	1223.88
980.484	1216.42
980.784	1223.2
981.083	1194.73
981.382	1219.59
981.682	1211
981.981	1207.61
982.28	1185.01
982.579	1176.65
982.878	1170.77
983.177	1185.01
983.475	1192.02
983.774	1155.41
984.073	1160.61
984.372	1157.89
984.67	1147.72
984.969	1148.85
985.267	1152.47
985.566	1138.68
985.864	1159.02
986.162	1122.19
986.461	1124.9
986.759	1156.09
987.057	1118.8
987.355	1104.34
987.653	1113.6
987.951	1111.57
988.249	1114.28
988.547	1110.44
988.844	1120.83
989.142	1102.98
989.44	1099.14
989.737	1106.14
990.035	1093.49
990.332	1052.81
990.63	1083.09
990.927	1101.85
991.224	1083.09
991.521	1087.16
991.819	1058.23
992.116	1067.73
992.413	1042.64
992.71	1042.87
993.006	1028.18
993.303	1053.04
993.6	1022.3
993.897	1032.7
994.193	1026.15
994.49	1019.37
994.787	1006.71
995.083	978.24
995.379	1010.1
995.676	998.58
995.972	991.8
996.268	999.25
996.565	995.86
996.861	1011.91
997.157	994.51
997.453	981.17
997.749	954.73
998.044	980.5
998.34	991.57
998.636	995.86
998.932	973.94
999.227	980.5
999.523	956.32
999.818	954.28
1000.114	951.8
1000.409	933.04
1000.704	930.1
1001	948.18
1001.295	916.09
1001.59	936.2
1001.885	923.78
1002.18	923.55
1002.475	934.4
1002.77	906.83
1003.065	917.22
1003.359	896.21
1003.654	919.71
1003.949	889.43
1004.243	889.43
1004.538	880.16
1004.832	885.58
1005.127	878.35
1005.421	888.97
1005.715	867.73
1006.009	884.91
1006.304	856.43
1006.598	844.23
1006.892	862.76
1007.186	883.1
1007.48	864.79
1007.773	851.46
1008.067	820.28
1008.361	825.92
1008.655	826.15
1008.948	855.75
1009.242	827.96
1009.535	818.24
1009.829	826.6
1010.122	825.25
1010.415	829.31
1010.708	802.42
1011.001	802.2
1011.295	810.78
1011.588	786.83
1011.881	804
1012.173	785.02
1012.466	778.69
1012.759	769.88
1013.052	797
1013.344	787.96
1013.637	783.44
1013.93	789.99
1014.222	778.02
1014.514	774.85
1014.807	768.52
1015.099	760.39
1015.391	763.33
1015.683	762.88
1015.976	760.16
1016.268	749.32
1016.56	741.86
1016.851	735.76
1017.143	733.95
1017.435	761.75
1017.727	724.68
1018.018	749.77
1018.31	714.29
1018.602	709.77
1018.893	737.34
1019.185	719.49
1019.476	719.03
1019.767	706.83
1020.058	715.19
1020.35	684.23
1020.641	715.19
1020.932	712.03
1021.223	685.14
1021.514	710.22
1021.804	685.14
1022.095	687.85
1022.386	666.15
1022.677	663.67
1022.967	673.84
1023.258	670
1023.548	688.53
1023.839	670.45
1024.129	651.69
1024.419	638.36
1024.709	660.05
1025	664.57
1025.29	638.13
1025.58	635.87
1025.87	655.76
1026.16	655.76
1026.449	651.69
1026.739	633.84
1027.029	642.2
1027.319	626.16
1027.608	634.74
1027.898	628.42
1028.187	606.04
1028.477	597.68
1028.766	613.27
1029.055	623.22
1029.344	598.13
1029.634	620.51
1029.923	608.98
1030.212	599.72
1030.501	616.89
1030.79	585.03
1031.078	585.03
1031.367	592.94
1031.656	588.87
1031.945	616.44
1032.233	562.65
1032.522	584.58
1032.81	592.71
1033.099	597.46
1033.387	547.51
1033.675	557.68
1033.963	584.58
1034.251	561.3
1034.54	549.55
1034.828	561.07
1035.116	562.65
1035.403	558.81
1035.691	551.58
1035.979	548.87
1036.267	557.23
1036.554	564.91
1036.842	556.1
1037.129	548.42
1037.417	548.19
1037.704	536.21
1037.992	545.93
1038.279	555.88
1038.566	520.4
1038.853	520.4
1039.14	520.4
