Data from foam2_polystyrene_foam_FLMS001491_00073.txt Node
Date: Wed Feb 08 10:58:28 GMT 2017
User: dcchb
Spectrometer: FLMS00149
Trigger mode: 0
Integration Time (sec): 2.000000E-2
Scans to average: 10
Electric dark correction enabled: true
Nonlinearity correction enabled: false
Boxcar width: 0
XAxis mode: Wavelengths
Number of Pixels in Spectrum: 2048
>>>>>Begin Spectral Data<<<<<
341.393	0.93
341.776	0.93
342.16	0.93
342.543	-80.42
342.927	-77.26
343.31	-74.55
343.693	-67.99
344.077	-52.85
344.46	-59.86
344.843	-41.55
345.226	-29.8
345.61	-18.05
345.993	-37.26
346.376	-17.15
346.759	-7.88
347.142	14.49
347.525	40.93
347.908	69.86
348.291	73.47
348.674	102.62
349.057	105.56
349.44	113.02
349.823	147.14
350.206	178.55
350.588	216.07
350.971	222.4
351.354	230.53
351.737	264.43
352.119	271.43
352.502	262.62
352.884	274.15
353.267	310.3
353.65	304.65
354.032	290.87
354.414	325.67
354.797	315.05
355.179	313.47
355.562	346.01
355.944	360.92
356.326	353.01
356.709	358.21
357.091	366.8
357.473	347.59
357.855	352.34
358.238	374.48
358.62	383.07
359.002	367.02
359.384	355.5
359.766	364.31
360.148	354.82
360.53	383.52
360.912	363.41
361.294	356.4
361.676	361.15
362.057	375.16
362.439	353.92
362.821	367.48
363.203	348.04
363.584	363.86
363.966	348.04
364.348	356.86
364.729	364.09
365.111	366.57
365.493	349.85
365.874	368.83
366.256	356.63
366.637	347.14
367.019	356.86
367.4	354.14
367.781	367.48
368.163	357.76
368.544	362.96
368.925	359.79
369.306	381.04
369.688	368.15
370.069	345.1
370.45	360.24
370.831	381.71
371.212	379.23
371.593	372.45
371.974	362.05
372.355	349.85
372.736	358.66
373.117	351.43
373.498	373.8
373.879	373.13
374.26	373.13
374.641	366.57
375.021	369.28
375.402	388.49
375.783	390.3
376.163	410.41
376.544	428.04
376.925	397.08
377.305	404.54
377.686	374.48
378.066	411.54
378.447	395.27
378.827	412.67
379.208	413.12
379.588	408.38
379.968	416.74
380.349	421.49
380.729	406.8
381.109	416.06
381.489	434.59
381.87	434.37
382.25	426.68
382.63	455.61
383.01	434.82
383.39	443.18
383.77	440.24
384.15	447.7
384.53	466.46
384.91	457.19
385.29	475.5
385.67	481.37
386.049	472.56
386.429	498.09
386.809	463.97
387.189	484.76
387.568	494.25
387.948	483.63
388.328	494.03
388.707	512.78
389.087	499.22
389.466	526.79
389.846	525.66
390.225	521.14
390.605	518.21
390.984	532.67
391.363	521.6
391.743	548.49
392.122	531.99
392.501	534.03
392.881	546.68
393.26	561.6
393.639	576.06
394.018	582.16
394.397	572.22
394.776	591.65
395.155	555.27
395.534	579.45
395.913	577.87
396.292	586.45
396.671	589.17
397.05	596.62
397.429	611.31
397.808	588.71
398.186	621.71
398.565	616.74
398.944	617.87
399.323	624.42
399.701	647.24
400.08	630.97
400.458	621.71
400.837	641.14
401.215	660.35
401.594	659.67
401.972	670.29
402.351	680.91
402.729	678.2
403.107	695.83
403.486	694.93
403.864	689.28
404.242	708.94
404.62	734.47
404.999	705.32
405.377	721.14
405.755	725.43
406.133	734.02
406.511	752.32
406.889	758.88
407.267	788.03
407.645	780.12
408.023	791.19
408.401	805.88
408.779	803.17
409.156	815.6
409.534	837.07
409.912	841.14
410.29	853.11
410.667	861.7
411.045	876.39
411.422	873
411.8	881.36
412.178	879.78
412.555	911.19
412.933	918.2
413.31	918.2
413.687	923.39
414.065	961.36
414.442	956.16
414.819	946.9
415.197	986.67
415.574	998.65
415.951	1000
416.328	1023.5
416.705	1032.54
417.082	1034.13
417.46	1036.39
417.837	1028.25
418.214	1068.02
418.591	1061.7
418.967	1077.74
419.344	1085.2
419.721	1082.03
420.098	1103.05
420.475	1104.41
420.852	1102.6
421.228	1142.82
421.605	1144.4
421.982	1157.06
422.358	1176.27
422.735	1194.12
423.111	1195.03
423.488	1222.59
423.864	1208.13
424.241	1203.84
424.617	1244.97
424.994	1269.6
425.37	1262.14
425.746	1275.25
426.123	1286.55
426.499	1286.32
426.875	1313.44
427.251	1327.22
427.627	1366.77
428.003	1384.85
428.379	1391.63
428.756	1406.77
429.132	1429.37
429.507	1459.88
429.883	1455.58
430.259	1488.58
430.635	1472.08
431.011	1528.58
431.387	1544.39
431.763	1574.9
432.138	1588.24
432.514	1589.36
432.89	1625.97
433.265	1620.78
433.641	1706.65
434.016	1673.2
434.392	1708.68
434.767	1772.86
435.143	1761.56
435.518	1756.37
435.894	1783.03
436.269	1794.78
436.644	1817.16
437.02	1838.85
437.395	1840.66
437.77	1900.54
438.145	1912.75
438.52	1904.16
438.895	1933.54
439.271	1955.46
439.646	1987.55
440.021	1992.07
440.395	2032.97
440.77	2020.99
441.145	2007.66
441.52	2052.86
441.895	2086.08
442.27	2097.37
442.645	2128.56
443.019	2119.07
443.394	2149.35
443.769	2147.54
444.143	2159.75
444.518	2195.9
444.892	2190.93
445.267	2250.59
445.641	2247.88
446.016	2226.18
446.39	2257.82
446.764	2291.27
447.139	2306.86
447.513	2340.98
447.887	2362.23
448.262	2359.97
448.636	2388.89
449.01	2416.24
449.384	2420.98
449.758	2461.43
450.132	2464.14
450.506	2469.79
450.88	2500.53
451.254	2533.75
451.628	2565.84
452.002	2581.2
452.376	2594.31
452.75	2637.7
453.123	2624.59
453.497	2694.65
453.871	2687.42
454.244	2768.77
454.618	2756.57
454.992	2845.6
455.365	2844.93
455.739	2885.83
456.112	2929.67
456.486	2956.56
456.859	2950.91
457.232	3007.18
457.606	3028.65
457.979	3037.46
458.352	3102.32
458.725	3133.05
459.099	3176.67
459.472	3225.71
459.845	3269.77
460.218	3286.04
460.591	3302.54
460.964	3331.01
461.337	3429.09
461.71	3414.18
462.083	3454.85
462.456	3505.92
462.829	3562.87
463.201	3588.63
463.574	3567.17
463.947	3666.37
464.32	3748.18
464.692	3750.89
465.065	3801.96
465.438	3827.95
465.81	3889.87
466.183	3935.97
466.555	4036.31
466.928	4051.45
467.3	4053.71
467.672	4065.01
468.045	4222.06
468.417	4242.18
468.789	4253.93
469.161	4293.02
469.534	4384.32
469.906	4465
470.278	4564.88
470.65	4565.78
471.022	4618.66
471.394	4708.15
471.766	4788.38
472.138	4871.76
472.51	4940.01
472.882	4985.89
473.253	5086.9
473.625	5158.08
473.997	5250.29
474.369	5280.12
474.74	5372.09
475.112	5444.18
475.484	5523.27
475.855	5631.29
476.227	5626.32
476.598	5837.16
476.97	5848.01
477.341	5994.45
477.713	6077.83
478.084	6122.81
478.455	6242.35
478.827	6285.74
479.198	6531.83
479.569	6556.69
479.94	6685.73
480.311	6788.55
480.682	6899.73
481.053	7058.83
481.424	7212.49
481.795	7266.05
482.166	7353.51
482.537	7460.85
482.908	7640.73
483.279	7700.62
483.65	7811.8
484.021	7991.91
484.391	8110.55
484.762	8165.46
485.133	8282.97
485.503	8329.53
485.874	8555.06
486.244	8561.61
486.615	8775.62
486.985	8884.77
487.356	8993.69
487.726	9109.17
488.097	9290.63
488.467	9394.13
488.837	9509.83
489.207	9619.89
489.578	9806.32
489.948	9849.94
490.318	9922.93
490.688	10055.13
491.058	10209.03
491.428	10418.29
491.798	10440.66
492.168	10676.81
492.538	10752.74
492.908	10842.91
493.278	11015.33
493.648	10979.85
494.017	11145.05
494.387	11269.56
494.757	11313.63
495.126	11448.54
495.496	11588.42
495.866	11658.48
496.235	11797.68
496.605	11821.64
496.974	11940.28
497.344	12079.94
497.713	12206.26
498.082	12281.06
498.452	12381.85
498.821	12470.43
499.19	12458.23
499.559	12643.31
499.928	12726.47
500.298	12860.26
500.667	12928.05
501.036	12935.73
501.405	13159
501.774	13157.42
502.143	13269.06
502.512	13284.42
502.88	13378.43
503.249	13431.77
503.618	13664.98
503.987	13615.04
504.356	13826.78
504.724	13894.8
505.093	13924.41
505.462	14016.61
505.83	14203.04
506.199	14265.87
506.567	14476.03
506.936	14486.65
507.304	14600.32
507.672	14696.36
508.041	14777.27
508.409	14811.16
508.777	15100.2
509.145	15175.67
509.514	15158.5
509.882	15332.73
510.25	15416.35
510.618	15446.18
510.986	15566.17
511.354	15774.08
511.722	15834.64
512.09	16013.84
512.458	15995.09
512.826	16200.51
513.193	16278.24
513.561	16424
513.929	16602.08
514.297	16629.87
514.664	16823.31
515.032	16901.96
515.4	17067.15
515.767	17053.82
516.135	17206.36
516.502	17187.6
516.869	17533.8
517.237	17589.4
517.604	17477.76
517.972	17829.84
518.339	17975.83
518.706	18015.15
519.073	18091.08
519.44	18286.78
519.808	18401.13
520.175	18425.98
520.542	18707.33
520.909	18800.66
521.276	18828.46
521.643	19081.11
522.009	19221.9
522.376	19340.54
522.743	19416.69
523.11	19583.02
523.477	19881.77
523.843	19971.48
524.21	20147.52
524.577	20387.06
524.943	20501.64
525.31	20604.46
525.676	20779.14
526.043	20969.42
526.409	21072.02
526.776	21198.11
527.142	21244.67
527.508	21454.38
527.874	21703.41
528.241	21801.49
528.607	21876.74
528.973	22109.73
529.339	22067.47
529.705	22298.65
530.071	22621.35
530.437	22639.43
530.803	22840.33
531.169	22944.06
531.535	22829.03
531.901	23010.72
532.267	23176.82
532.632	23364.39
532.998	23357.15
533.364	23564.15
533.73	23582.91
534.095	23819.51
534.461	23964.82
534.826	24024.26
535.192	24137.25
535.557	24447.75
535.923	24344.25
536.288	24547.18
536.653	24651.81
537.019	24600.51
537.384	24728.64
537.749	24885.93
538.114	24967.96
538.479	24880.96
538.845	25251.57
539.21	25193.04
539.575	25259.25
539.94	25367.95
540.305	25564.55
540.67	25426.03
541.034	25623.54
541.399	25797.32
541.764	25946.69
542.129	25868.73
542.494	25965.67
542.858	26157.76
543.223	26175.16
543.587	26359.79
543.952	26246.12
544.316	26476.17
544.681	26441.14
545.045	26610.4
545.41	26823.05
545.774	26790.74
546.138	26828.25
546.503	27004.97
546.867	27071.86
547.231	27165.42
547.595	27314.56
547.959	27326.09
548.324	27474.11
548.688	27526.54
549.052	27635.69
549.416	27800.88
549.779	27767.89
550.143	27839.07
550.507	28065.96
550.871	28120.42
551.235	28157.48
551.599	28403.35
551.962	28385.04
552.326	28555.21
552.689	28678.6
553.053	28550.24
553.417	28783.68
553.78	29048.53
554.143	28985.93
554.507	29132.14
554.87	29245.36
555.234	29489.87
555.597	29385.47
555.96	29546.14
556.323	29791.79
556.686	29756.08
557.05	29976.64
557.413	30072.01
557.776	30218.89
558.139	30404.65
558.502	30559.9
558.865	30569.17
559.228	30789.5
559.59	30907.92
559.953	31010.96
560.316	31355.14
560.679	31312.65
561.041	31534.79
561.404	31616.6
561.767	31847.1
562.129	31785.86
562.492	32128.9
562.854	32075.34
563.217	32155.57
563.579	32339.74
563.941	32549.91
564.304	32764.82
564.666	32855.21
565.028	32925.04
565.39	33121.87
565.753	33205.93
566.115	33308.98
566.477	33548.75
566.839	33605.92
567.201	33725.92
567.563	33901.96
567.925	34082.97
568.287	34125.46
568.648	34363.64
569.01	34543.3
569.372	34713.92
569.734	34572.9
570.095	34923.18
570.457	35055.6
570.819	35092.44
571.18	35197.75
571.542	35343.05
571.903	35343.28
572.265	35496.04
572.626	35514.8
572.987	35621.24
573.349	35675.93
573.71	35898.75
574.071	35919.31
574.432	36090.6
574.794	36305.51
575.155	36188.23
575.516	36241.11
575.877	36284.95
576.238	36413.08
576.599	36496.02
576.96	36549.35
577.32	36632.74
577.681	36762.9
578.042	36734.66
578.403	36855.56
578.763	36960.64
579.124	36976.01
579.485	37025.95
579.845	37203.57
580.206	37072.05
580.566	37136.68
580.927	37193.17
581.287	37360.4
581.648	37130.58
582.008	37373.73
582.368	37314.08
582.728	37453.96
583.089	37379.84
583.449	37373.51
583.809	37456.9
584.169	37565.37
584.529	37352.27
584.889	37837.68
585.249	37597.23
585.609	37446.5
585.969	37744.57
586.329	37407.86
586.688	37549.55
587.048	37463.45
587.408	37400.17
587.768	37391.36
588.127	37496.22
588.487	37483.34
588.846	37688.08
589.206	37434.07
589.565	37373.73
589.925	37620.06
590.284	37560.85
590.643	37597.46
591.003	37724.01
591.362	37609.21
591.721	37630
592.08	37599.27
592.44	37650.56
592.799	37679.72
593.158	37509.78
593.517	37625.03
593.876	37747.28
594.235	37652.37
594.593	37815.53
594.952	37655.99
595.311	37543.9
595.67	37721.07
596.029	37827.96
596.387	37967.39
596.746	37931.91
597.104	37793.16
597.463	37800.84
597.822	37942.31
598.18	37762.88
598.538	37872.03
598.897	38081.74
599.255	37700.28
599.613	38273.37
599.972	37951.12
600.33	38048.07
600.688	37928.52
601.046	38083.55
601.404	38320.15
601.762	38204.45
602.12	38345.91
602.478	38332.35
602.836	38295.97
603.194	38320.38
603.552	38246.25
603.91	38289.87
604.268	38469.53
604.625	38362.18
604.983	38501.61
605.341	38298.46
605.698	38566.25
606.056	38601.5
606.413	38449.86
606.771	38657.32
607.128	38809.18
607.485	38446.93
607.843	38524.21
608.2	38919.91
608.557	38951.32
608.914	38809.86
609.272	38924.65
609.629	38961.49
609.986	39112.9
610.343	38914.26
610.7	39215.95
611.057	39084.42
611.414	39118.77
611.771	39042.84
612.127	39297.98
612.484	39238.54
612.841	39405.32
613.198	39093.46
613.554	39152.22
613.911	39391.08
614.267	39463.4
614.624	39436.96
614.98	39414.36
615.337	39559.89
615.693	39472.21
616.05	39473.79
616.406	39681.7
616.762	39525.77
617.118	39638.99
617.475	39573.45
617.831	39750.62
618.187	39896.83
618.543	39893.22
618.899	40152.64
619.255	39938.64
619.611	39962.82
619.967	40114.45
620.323	40248.46
620.678	39940.22
621.034	39910.62
621.39	39949.26
621.746	40011.86
622.101	40362.58
622.457	39995.81
622.812	40095.92
623.168	40243.72
623.523	40254.34
623.879	40439.87
624.234	39957.62
624.589	40256.82
624.945	40138.86
625.3	40198.97
625.655	40203.04
626.01	40186.32
626.365	40244.62
626.72	40146.54
627.075	40128.46
627.43	40158.52
627.785	39923.27
628.14	40054.79
628.495	40106.09
628.85	40073.55
629.205	39895.02
629.559	40222.02
629.914	39898.64
630.269	39923.95
630.623	39962.37
630.978	39748.14
631.332	40058.18
631.687	40106.09
632.041	39897.74
632.396	39936.38
632.75	39758.08
633.104	39826.78
633.459	39677.63
633.813	39612.55
634.167	39475.15
634.521	39545.66
634.875	39624.75
635.229	39431.08
635.583	39193.57
635.937	39201.71
636.291	39211.2
636.645	39247.13
636.999	39139.56
637.352	39191.99
637.706	38927.37
638.06	39023.63
638.413	38938.89
638.767	38857.76
639.121	38920.13
639.474	38583.42
639.828	38721.27
640.181	38767.6
640.534	38817.54
640.888	38492.12
641.241	38411.9
641.594	38473.59
641.947	38578
642.301	38438.34
642.654	38396.31
643.007	38446.7
643.36	38400.37
643.713	38224.11
644.066	38366.7
644.419	38029.54
644.771	37913.38
645.124	37590.23
645.477	37582.09
645.83	37270.23
646.182	37078.83
646.535	36963.58
646.888	36963.58
647.24	36699.85
647.593	36929.23
647.945	36853.97
648.298	36743.92
648.65	36692.85
649.002	36636.81
649.355	36821.21
649.707	36705.5
650.059	36889.68
650.411	37151.59
650.763	37293.74
651.115	37532.15
651.467	37453.51
651.819	37528.53
652.171	37364.24
652.523	37278.82
652.875	37285.83
653.227	36956.34
653.578	37368.09
653.93	37163.12
654.282	37041.54
654.633	36951.15
654.985	37095.32
655.337	37239.73
655.688	37069.11
656.039	37191.59
656.391	36953.18
656.742	37120.18
657.094	37099.62
657.445	37115.89
657.796	36858.04
658.147	36834.77
658.498	36731.49
658.849	36892.84
659.2	36810.36
659.551	36712.06
659.902	36832.73
660.253	36775.78
660.604	36802.22
660.955	36560.2
661.306	36680.42
661.656	36705.73
662.007	36612.17
662.358	36625.28
662.708	36660.76
663.059	36765.84
663.409	36394.55
663.76	36692.85
664.11	36716.8
664.461	36635.9
664.811	36706.63
665.161	36689.69
665.511	36637.26
665.862	36633.64
666.212	36643.81
666.562	36769.23
666.912	36664.37
667.262	36421.22
667.612	36537.37
667.962	36580.08
668.312	36470.26
668.662	36717.71
669.011	36528.79
669.361	36505.06
669.711	36481.78
670.06	36340.77
670.41	36345.97
670.76	36335.8
671.109	36339.19
671.459	36247.21
671.808	36263.71
672.157	36356.13
672.507	36002.02
672.856	36059.65
673.205	36222.35
673.554	36186.87
673.904	35882.25
674.253	36104.39
674.602	36048.35
674.951	35673.89
675.3	35508.7
675.649	35903.04
675.998	36009.7
676.346	35913.66
676.695	36017.39
677.044	35858.07
677.393	36037.5
677.741	35907.33
678.09	35780.33
678.438	35728.35
678.787	35928.8
679.135	35721.35
679.484	35690.62
679.832	35843.38
680.181	35480.9
680.529	35538.75
680.877	35404.3
681.225	35341.02
681.573	35404.07
681.922	35176.05
682.27	35093.12
682.618	35159.33
682.966	35058.99
683.314	35022.61
683.661	35129.5
684.009	34843.41
684.357	34856.96
684.705	34834.59
685.053	34782.84
685.4	34672.34
685.748	34503.08
686.095	34542.85
686.443	34446.81
686.79	34338.79
687.138	34377.2
687.485	34339.92
687.832	34196.19
688.18	34251.33
688.527	34030.55
688.874	34122.75
689.221	33933.6
689.568	33984.22
689.915	33759.82
690.262	33690.22
690.609	33667.84
690.956	33487.96
691.303	33632.59
691.65	33467.17
691.997	33473.72
692.344	33311.92
692.69	33225.37
693.037	33339.04
693.383	33053.85
693.73	33098.82
694.077	32900.41
694.423	32830.58
694.769	32669.68
695.116	32620.41
695.462	32534.09
695.808	32392.17
696.155	32505.61
696.501	32226.75
696.847	32231.5
697.193	32070.82
697.539	32280.76
697.885	32014.33
698.231	31833.77
698.577	31883.71
698.923	31945.18
699.269	31613.66
699.614	31517.62
699.96	31523.04
700.306	31585.64
700.651	31328.92
700.997	31245.31
701.342	31337.96
701.688	31118.53
702.033	31077.18
702.379	30959.89
702.724	30811.2
703.069	31055.93
703.415	30585.89
703.76	30561.48
704.105	30538.43
704.45	30483.07
704.795	30233.36
705.14	30176.64
705.485	30107.49
705.83	30048.73
706.175	30114.72
706.52	30044.44
706.865	30038.11
707.209	29932.8
707.554	29756.53
707.899	29778.68
708.243	29611.68
708.588	29635.18
708.932	29445.58
709.277	29448.97
709.621	29498.01
709.966	29279.03
710.31	29324.91
710.654	28924.01
710.998	29137.57
711.342	29205.81
711.687	29102.09
712.031	28772.38
712.375	28833.17
712.719	28849.67
713.063	28705.26
713.407	28825.26
713.75	28623.91
714.094	28667.52
714.438	28528.32
714.782	28585.72
715.125	28335.55
715.469	28397.02
715.812	28211.94
716.156	27981.89
716.499	28079.29
716.843	28109.57
717.186	27973.76
717.53	27990.48
717.873	27931.27
718.216	27936.02
718.559	27662.13
718.902	27557.04
719.246	27679.75
719.589	27527.89
719.932	27402.47
720.275	27493.77
720.617	27367.22
720.96	27209.93
721.303	27442.7
721.646	27379.87
721.989	27097.62
722.331	27243.83
722.674	27096.94
723.016	27110.05
723.359	27141.01
723.701	27116.38
724.044	26834.58
724.386	26852.88
724.729	26967.45
725.071	26782.83
725.413	26844.75
725.755	26797.29
726.097	26635.49
726.439	26524.53
726.782	26589.16
727.124	26690.4
727.465	26603.17
727.807	26496.73
728.149	26481.37
728.491	26379
728.833	26429.62
729.175	26278.21
729.516	26203.86
729.858	26274.14
730.199	26247.47
730.541	26105.33
730.882	26051.55
731.224	26132.67
731.565	25987.37
731.906	25953.02
732.248	26007.71
732.589	25789.41
732.93	25723.65
733.271	25835.06
733.612	25758
733.953	25743.31
734.294	25618.56
734.635	25545.8
734.976	25558.68
735.317	25443.2
735.658	25425.12
735.999	25508.96
736.339	25440.49
736.68	25343.32
737.021	25387.16
737.361	25221.51
737.702	25407.72
738.042	25191.68
738.383	25035.98
738.723	25155.53
739.063	25107.62
739.404	25067.39
739.744	25068.52
740.084	24944.91
740.424	25081.63
740.764	25019.03
741.104	25004.34
741.444	24793.27
741.784	24797.57
742.124	24835.31
742.464	24748.53
742.804	24699.04
743.143	24699.49
743.483	24686.38
743.823	24570.23
744.162	24455.43
744.502	24474.19
744.841	24366.62
745.181	24416.79
745.52	24313.29
745.86	24315.1
746.199	24343.34
746.538	24270.58
746.877	24295.21
747.216	24265.38
747.556	24258.37
747.895	24209.34
748.234	24059.73
748.573	24053.41
748.911	23998.04
749.25	23992.62
749.589	23931.15
749.928	23840.76
750.267	23935.22
750.605	23727.09
750.944	23736.58
751.283	23601.22
751.621	23712.4
751.96	23544.95
752.298	23508.34
752.636	23562.12
752.975	23480.54
753.313	23302.47
753.651	23401.67
753.989	23271.05
754.327	23156.03
754.666	23012.53
755.004	22994.68
755.342	23070.61
755.679	23025.86
756.017	22874.68
756.355	22958.75
756.693	22698.87
757.031	22784.29
757.368	22698.19
757.706	22643.5
758.044	22697.51
758.381	22556.95
758.719	22448.7
759.056	22418.65
759.394	22478.08
759.731	22304.3
760.068	22342.27
760.405	22226.11
760.743	22128.03
761.08	22060.92
761.417	22103.18
761.754	21947.02
762.091	21991.31
762.428	21902.96
762.765	21702.06
763.102	21684.2
763.438	21612.79
763.775	21514.26
764.112	21556.3
764.449	21587.26
764.785	21346.59
765.122	21246.7
765.458	21198.11
765.795	21215.52
766.131	21149.75
766.467	20994.73
766.804	21123.77
767.14	20892.36
767.476	20852.36
767.812	20709.31
768.148	20791.8
768.485	20574.63
768.821	20533.27
769.157	20526.27
769.492	20339.83
769.828	20394.97
770.164	20210.57
770.5	20212.15
770.836	20070.46
771.171	19964.93
771.507	19978.71
771.842	19820.3
772.178	19856.23
772.513	19753.18
772.849	19752.28
773.184	19631.15
773.519	19659.4
773.855	19451.27
774.19	19373.53
774.525	19233.65
774.86	19287.2
775.195	19236.58
775.53	19229.58
775.865	19079.98
776.2	19019.87
776.535	18832.3
776.87	18912.3
777.205	18813.09
777.539	18741
777.874	18815.58
778.209	18607
778.543	18515.02
778.878	18536.26
779.212	18449.49
779.547	18378.08
779.881	18405.42
780.215	18251.98
780.55	18320.45
780.884	18072.55
781.218	18080
781.552	18162.26
781.886	17980.57
782.22	17896.05
782.554	17922.27
782.888	17788.49
783.222	17635.95
783.556	17499.46
783.889	17515.05
784.223	17440.47
784.557	17386.92
784.89	17350.53
785.224	17227.15
785.557	17140.82
785.891	17085.68
786.224	17125.45
786.558	17015.85
786.891	16895.86
787.224	16802.98
787.557	16782.41
787.891	16788.06
788.224	16674.17
788.557	16792.58
788.89	16700.15
789.223	16692.24
789.556	16570.44
789.888	16431.23
790.221	16400.05
790.554	16280.5
790.887	16294.97
791.219	16209.77
791.552	16237.57
791.884	16150.56
792.217	15970.23
792.549	15983.34
792.882	15877.35
793.214	15871.25
793.546	15870.8
793.879	15750.35
794.211	15691.82
794.543	15730.46
794.875	15570.47
795.207	15751.25
795.539	15678.71
795.871	15542.9
796.203	15461.54
796.535	15431.94
796.867	15377.93
797.198	15350.13
797.53	15400.08
797.862	15260.87
798.193	15276.24
798.525	15108.78
798.856	15064.49
799.188	14953.08
799.519	14944.27
799.85	14838.73
800.182	14904.72
800.513	14840.32
800.844	14722.35
801.175	14740.43
801.506	14755.8
801.837	14640.77
802.168	14588.12
802.499	14612.3
802.83	14502.92
803.161	14418.18
803.491	14432.19
803.822	14415.92
804.153	14300.67
804.483	14267
804.814	14279.2
805.145	14127.57
805.475	14150.39
805.805	14154.01
806.136	14121.46
806.466	14080.56
806.796	14006.89
807.126	13913.11
807.457	13943.16
807.787	13900.68
808.117	13840.79
808.447	13788.82
808.777	13765.54
809.107	13775.71
809.436	13733
809.766	13709.72
810.096	13616.85
810.426	13576.17
810.755	13648.71
811.085	13578.2
811.414	13569.39
811.744	13447.13
812.073	13469.28
812.403	13380.92
812.732	13299.11
813.061	13289.17
813.39	13207.14
813.719	13252.79
814.049	13300.7
814.378	13196.97
814.707	13187.03
815.036	13162.17
815.365	13096.63
815.693	12985.22
816.022	12980.03
816.351	12951.1
816.68	12873.59
817.008	12927.37
817.337	12832.01
817.665	12762.63
817.994	12804.66
818.322	12766.47
818.651	12674.95
818.979	12669.53
819.307	12761.27
819.636	12698.45
819.964	12622.75
820.292	12570.32
820.62	12637.21
820.948	12617.32
821.276	12638.11
821.604	12545.91
821.932	12616.42
822.259	12638.57
822.587	12549.3
822.915	12534.61
823.243	12615.74
823.57	12551.56
823.898	12515.86
824.225	12483.54
824.553	12506.59
824.88	12498.91
825.207	12469.98
825.535	12558.79
825.862	12511.79
826.189	12481.51
826.516	12451
826.843	12525.35
827.17	12525.12
827.497	12591.11
827.824	12469.08
828.151	12462.07
828.478	12503.65
828.805	12639.7
829.131	12416.42
829.458	12488.74
829.785	12465.92
830.111	12443.09
830.438	12498.91
830.764	12565.57
831.09	12550.88
831.417	12398.12
831.743	12527.83
832.069	12502.52
832.395	12420.04
832.722	12492.58
833.048	12460.04
833.374	12373.71
833.7	12429.31
834.026	12359.03
834.351	12424.79
834.677	12403.77
835.003	12335.3
835.329	12309.08
835.654	12314.96
835.98	12290.1
836.306	12298.46
836.631	12263.66
836.956	12272.47
837.282	12233.83
837.607	12193.38
837.932	12185.7
838.258	12117.9
838.583	12082.87
838.908	12081.74
839.233	12107.28
839.558	12073.61
839.883	11972.59
840.208	11955.87
840.533	12001.29
840.858	11992.03
841.182	12025.7
841.507	11875.87
841.832	11878.36
842.156	11835.88
842.481	11780.96
842.805	11781.19
843.13	11717.23
843.454	11746.84
843.778	11750.91
844.103	11749.32
844.427	11688.76
844.751	11691.7
845.075	11672.94
845.399	11602.66
845.723	11513.17
846.047	11575.77
846.371	11459.39
846.695	11515.88
847.019	11397.47
847.343	11342.55
847.666	11302.78
847.99	11211.94
848.313	11204.48
848.637	11127.19
848.96	11065.73
849.284	11083.13
849.607	11020.76
849.931	10983.69
850.254	10918.84
850.577	10883.13
850.9	10790.25
851.223	10790.25
851.546	10709.58
851.869	10668.22
852.192	10726.07
852.515	10690.59
852.838	10558.39
853.161	10556.13
853.483	10545.29
853.806	10496.02
854.129	10480.43
854.451	10383.71
854.774	10356.14
855.096	10357.04
855.419	10309.59
855.741	10345.74
856.063	10197.95
856.385	10291.06
856.708	10198.86
857.03	10203.83
857.352	10167.67
857.674	10089.03
857.996	10135.81
858.318	10027.11
858.64	10042.25
858.961	9972.65
859.283	9960.44
859.605	9915.7
859.926	9879.09
860.248	9843.84
860.57	9841.8
860.891	9859.66
861.212	9787.57
861.534	9804.74
861.855	9784.86
862.176	9749.38
862.498	9720
862.819	9792.77
863.14	9708.7
863.461	9710.06
863.782	9646.33
864.103	9693.78
864.424	9579.44
864.745	9540.57
865.065	9598.19
865.386	9532.43
865.707	9555.26
866.027	9542.38
866.348	9533.11
866.668	9536.95
866.989	9552.77
867.309	9424.41
867.63	9491.53
867.95	9442.94
868.27	9360.91
868.59	9368.37
868.91	9378.09
869.23	9303.51
869.55	9331.08
869.87	9352.78
870.19	9328.14
870.51	9290.18
870.83	9333.57
871.15	9244.08
871.469	9272.55
871.789	9261.25
872.109	9205.89
872.428	9184.42
872.748	9199.56
873.067	9132.22
873.386	9188.71
873.706	9157.08
874.025	9133.8
874.344	9148.04
874.663	9131.31
874.982	9048.83
875.301	9055.84
875.62	9044.08
875.939	9068.49
876.258	9014.03
876.577	8972.22
876.896	9034.37
877.214	9028.72
877.533	8969.06
877.852	8965.44
878.17	8972.9
878.489	8954.37
878.807	8949.85
879.125	8888.16
879.444	8864.43
879.762	8835.28
880.08	8810.64
880.398	8783.3
880.716	8813.81
881.034	8812.68
881.352	8784.88
881.67	8763.19
881.988	8765
882.306	8764.09
882.624	8758.67
882.941	8652.23
883.259	8647.26
883.577	8579.24
883.894	8665.34
884.212	8599.35
884.529	8584.66
884.846	8529.3
885.164	8592.12
885.481	8511.67
885.798	8471.9
886.115	8528.84
886.432	8475.29
886.75	8390.54
887.067	8411.78
887.383	8435.29
887.7	8414.95
888.017	8334.05
888.334	8348.06
888.651	8322.07
888.967	8325.01
889.284	8271.45
889.6	8242.52
889.917	8218.8
890.233	8274.84
890.55	8158.46
890.866	8175.63
891.182	8155.29
891.498	8119.59
891.815	8101.96
892.131	8067.16
892.447	8069.19
892.763	8032.81
893.079	8031.46
893.395	7951.23
893.71	7952.81
894.026	7974.51
894.342	7891.12
894.657	7840.73
894.973	7868.3
895.289	7798.24
895.604	7844.57
895.92	7811.8
896.235	7737.45
896.55	7710.11
896.865	7741.75
897.181	7678.7
897.496	7726.83
897.811	7621.75
898.126	7588.76
898.441	7531.13
898.756	7543.78
899.071	7545.14
899.386	7524.12
899.7	7432.6
900.015	7434.86
900.33	7419.49
900.644	7363.45
900.959	7359.83
901.273	7357.12
901.588	7341.76
901.902	7301.98
902.216	7231.25
902.531	7214.98
902.845	7178.6
903.159	7185.15
903.473	7213.17
903.787	7075.1
904.101	7055.66
904.415	7066.06
904.729	7087.53
905.042	6964.36
905.356	6960.75
905.67	6984.03
905.984	6946.96
906.297	6928.43
906.611	6900.19
906.924	6892.95
907.237	6844.37
907.551	6807.53
907.864	6779.06
908.177	6713.52
908.491	6847.76
908.804	6707.65
909.117	6711.49
909.43	6677.59
909.743	6609.57
910.056	6650.25
910.368	6610.93
910.681	6567.99
910.994	6554.21
911.307	6492.29
911.619	6480.99
911.932	6471.72
912.244	6445.51
912.557	6403.02
912.869	6412.74
913.181	6334.55
913.494	6362.57
913.806	6282.57
914.118	6309.92
914.43	6244.84
914.742	6263.37
915.054	6214.78
915.366	6203.25
915.678	6156.25
915.99	6117.61
916.302	6142.01
916.613	6095.24
916.925	6067.89
917.236	6048
917.548	6000.77
917.859	6001.9
918.171	5999.19
918.482	5988.8
918.794	5887.11
919.105	5890.27
919.416	5887.56
919.727	5869.48
920.038	5848.69
920.349	5799.88
920.66	5811.4
920.971	5802.14
921.282	5688.69
921.593	5665.19
921.903	5668.35
922.214	5638.3
922.525	5669.94
922.835	5597.62
923.146	5544.06
923.456	5567.34
923.767	5530.28
924.077	5477.85
924.387	5483.27
924.697	5438.08
925.008	5422.71
925.318	5378.64
925.628	5416.83
925.938	5343.62
926.248	5349.49
926.558	5302.94
926.867	5267.69
927.177	5242.83
927.487	5206.9
927.796	5246.9
928.106	5179.55
928.416	5167.58
928.725	5170.51
929.034	5171.64
929.344	5110.18
929.653	5064.98
929.962	5052.32
930.271	5019.56
930.581	4987.47
930.89	5055.94
931.199	4989.73
931.508	4966.68
931.817	4925.55
932.125	4917.19
932.434	4913.8
932.743	4903.85
933.051	4856.17
933.36	4832.44
933.669	4760.13
933.977	4757.87
934.286	4719.68
934.594	4818.43
934.902	4724.88
935.21	4714.48
935.519	4710.41
935.827	4717.42
936.135	4676.97
936.443	4661.83
936.751	4634.48
937.059	4642.39
937.367	4547.93
937.674	4570.76
937.982	4540.47
938.29	4554.03
938.597	4559.68
938.905	4491.44
939.213	4454.15
939.52	4444.21
939.827	4463.19
940.135	4421.15
940.442	4399.91
940.749	4424.54
941.056	4370.76
941.363	4358.78
941.67	4343.42
941.977	4324.66
942.284	4296.86
942.591	4254.61
942.898	4288.28
943.205	4293.93
943.511	4224.32
943.818	4170.09
944.125	4197.88
944.431	4190.2
944.738	4176.42
945.044	4138
945.35	4134.38
945.657	4073.37
945.963	4102.07
946.269	4013.26
946.575	4059.36
946.881	4027.94
947.187	4041.96
947.493	4001.96
947.799	3995.63
948.105	3969.19
948.41	3970.77
948.716	3961.96
949.022	3922.64
949.327	3920.15
949.633	3881.73
949.938	3894.39
950.244	3820.04
950.549	3837.44
950.854	3813.04
951.16	3804.9
951.465	3772.58
951.77	3761.96
952.075	3731.68
952.38	3730.1
952.685	3696.43
952.99	3649.2
953.294	3683.55
953.599	3724.22
953.904	3645.81
954.209	3601.74
954.513	3628.63
954.818	3626.15
955.122	3572.36
955.426	3594.28
955.731	3546.6
956.035	3520.39
956.339	3518.35
956.643	3531.91
956.948	3485.81
957.252	3454.4
957.556	3463.89
957.86	3487.17
958.163	3433.84
958.467	3410.11
958.771	3424.57
959.075	3409.2
959.378	3370.79
959.682	3364.69
959.985	3370.79
960.289	3333.95
960.592	3337.12
960.896	3368.53
961.199	3297.34
961.502	3257.57
961.805	3272.71
962.108	3297.12
962.411	3262.77
962.714	3284.46
963.017	3212.15
963.32	3217.8
963.623	3204.24
963.926	3173.96
964.228	3150.45
964.531	3128.08
964.833	3153.62
965.136	3096.9
965.438	3082.21
965.741	3085.37
966.043	3116.78
966.345	3075.43
966.648	3047.63
966.95	3083.11
967.252	3002.44
967.554	3020.51
967.856	3011.93
968.158	2981.19
968.46	2959.95
968.761	2969.22
969.063	2950.23
969.365	2916.56
969.666	2946.39
969.968	2881.08
970.269	2912.72
970.571	2868.43
970.872	2889.44
971.174	2855.32
971.475	2824.81
971.776	2817.81
972.077	2828.65
972.378	2826.62
972.679	2794.98
972.98	2801.31
973.281	2779.39
973.582	2798.37
973.883	2758.6
974.183	2754.76
974.484	2742.78
974.785	2743.91
975.085	2691.48
975.386	2750.46
975.686	2707.53
975.986	2710.47
976.287	2693.06
976.587	2643.57
976.887	2633.86
977.187	2630.24
977.487	2646.51
977.787	2613.74
978.087	2580.07
978.387	2592.73
978.687	2598.83
978.987	2568.1
979.286	2586.85
979.586	2530.81
979.885	2549.34
980.185	2499.17
980.484	2526.74
980.784	2511.37
981.083	2487.19
981.382	2482
981.682	2483.58
981.981	2470.47
982.28	2463.92
982.579	2422.11
982.878	2433.86
983.177	2421.43
983.475	2405.16
983.774	2402.22
984.073	2383.47
984.372	2393.41
984.67	2370.59
984.969	2368.78
985.267	2335.79
985.566	2304.37
985.864	2329.46
986.162	2340.08
986.461	2295.34
986.759	2300.08
987.057	2272.96
987.355	2248.1
987.653	2243.81
987.951	2246.75
988.249	2223.02
988.547	2226.86
988.844	2243.13
989.142	2233.19
989.44	2169.01
989.737	2194.77
990.035	2204.04
990.332	2150.93
990.63	2156.81
990.927	2195.22
991.224	2147.32
991.521	2121.78
991.819	2124.04
992.116	2132.63
992.413	2075.91
992.71	2090.59
993.006	2101.22
993.303	2093.08
993.6	2069.8
993.897	2052.18
994.193	2084.27
994.49	2052.4
994.787	2025.06
995.083	2026.87
995.379	2016.25
995.676	2016.02
995.972	1998.17
996.268	2001.33
996.565	2011.95
996.861	1984.16
997.157	1962.01
997.453	1960.43
997.749	1941.22
998.044	1917.04
998.34	1931.5
998.636	1924.72
998.932	1909.81
999.227	1909.13
999.523	1895.35
999.818	1868.91
1000.114	1865.29
1000.409	1854.67
1000.704	1847.89
1001	1873.2
1001.295	1856.7
1001.59	1824.61
1001.885	1788.46
1002.18	1824.61
1002.475	1817.61
1002.77	1774.44
1003.065	1803.82
1003.359	1772.64
1003.654	1754.56
1003.949	1738.29
1004.243	1741
1004.538	1733.09
1004.832	1718.85
1005.127	1703.26
1005.421	1690.83
1005.715	1683.83
1006.009	1676.82
1006.304	1666.65
1006.598	1663.26
1006.892	1661
1007.186	1651.28
1007.48	1654.9
1007.773	1640.89
1008.067	1624.17
1008.361	1635.47
1008.655	1594.11
1008.948	1588.46
1009.242	1621.23
1009.535	1560.67
1009.829	1565.86
1010.122	1586.88
1010.415	1548.46
1010.708	1516.82
1011.001	1529.71
1011.295	1527.22
1011.588	1508.46
1011.881	1512.53
1012.173	1515.24
1012.466	1493.1
1012.759	1479.99
1013.052	1470.95
1013.344	1492.87
1013.637	1449.93
1013.93	1433.44
1014.222	1415.36
1014.514	1444.06
1014.807	1413.78
1015.099	1405.87
1015.391	1387.11
1015.683	1419.88
1015.976	1409.26
1016.268	1402.93
1016.56	1369.48
1016.851	1374
1017.143	1383.72
1017.435	1360.67
1017.727	1355.02
1018.018	1341.24
1018.31	1303.5
1018.602	1340.78
1018.893	1309.37
1019.185	1306.21
1019.476	1279.99
1019.767	1320.9
1020.058	1293.33
1020.35	1261.92
1020.641	1255.81
1020.932	1261.92
1021.223	1259.88
1021.514	1239.77
1021.804	1231.18
1022.095	1195.25
1022.386	1230.96
1022.677	1209.49
1022.967	1220.11
1023.258	1212.2
1023.548	1187.12
1023.839	1187.57
1024.129	1185.08
1024.419	1178.3
1024.709	1174.91
1025	1164.07
1025.29	1160.9
1025.58	1121.81
1025.87	1109.38
1026.16	1141.02
1026.449	1107.12
1026.739	1096.5
1027.029	1122.26
1027.319	1097.17
1027.608	1091.3
1027.898	1075.48
1028.187	1080.68
1028.477	1077.97
1028.766	1064.63
1029.055	1053.56
1029.344	1032.32
1029.634	1020.79
1029.923	1019.44
1030.212	1029.61
1030.501	1033.67
1030.79	1009.95
1031.078	1001.58
1031.367	1019.89
1031.656	1001.81
1031.945	997.29
1032.233	975.82
1032.522	978.99
1032.81	982.38
1033.099	990.96
1033.387	965.2
1033.675	942.38
1033.963	938.99
1034.251	927.24
1034.54	924.98
1034.828	948.48
1035.116	960.45
1035.403	908.93
1035.691	927.91
1035.979	928.37
1036.267	898.31
1036.554	906.22
1036.842	901.47
1037.129	880.46
1037.417	880.46
1037.704	882.94
1037.992	871.42
1038.279	902.38
1038.566	845.88
1038.853	845.88
1039.14	845.88
