Data from foam2_polystyrene_foam_FLMS001491_00076.txt Node
Date: Wed Feb 08 10:58:29 GMT 2017
User: dcchb
Spectrometer: FLMS00149
Trigger mode: 0
Integration Time (sec): 2.000000E-2
Scans to average: 10
Electric dark correction enabled: true
Nonlinearity correction enabled: false
Boxcar width: 0
XAxis mode: Wavelengths
Number of Pixels in Spectrum: 2048
>>>>>Begin Spectral Data<<<<<
341.393	-20.61
341.776	-20.61
342.16	-20.61
342.543	-56.54
342.927	-68.74
343.31	-56.99
343.693	-70.32
344.077	-56.09
344.46	-61.74
344.843	-55.41
345.226	-50.44
345.61	-22.64
345.993	-23.09
346.376	-24.45
346.759	12.16
347.142	33.4
347.525	33.63
347.908	68.88
348.291	81.09
348.674	75.44
349.057	116.56
349.44	127.86
349.823	145.49
350.206	151.59
350.588	221.42
350.971	209.9
351.354	240.4
351.737	254.19
352.119	256
352.502	263.91
352.884	294.87
353.267	286.5
353.65	308.88
354.032	307.52
354.414	331.47
354.797	327.86
355.179	343.45
355.562	350.23
355.944	344.13
356.326	350.46
356.709	348.2
357.091	367.18
357.473	364.92
357.855	385.26
358.238	369.67
358.62	352.26
359.002	353.39
359.384	359.5
359.766	354.52
360.148	389.78
360.53	371.47
360.912	374.64
361.294	375.54
361.676	360.4
362.057	352.26
362.439	363.79
362.821	375.31
363.203	360.63
363.584	366.73
363.966	353.62
364.348	382.77
364.729	354.98
365.111	370.8
365.493	363.79
365.874	352.04
366.256	357.46
366.637	364.92
367.019	348.42
367.4	386.16
367.781	360.85
368.163	373.28
368.544	344.58
368.925	346.39
369.306	361.76
369.688	340.97
370.069	368.99
370.45	368.54
370.831	357.01
371.212	368.76
371.593	375.77
371.974	373.96
372.355	370.57
372.736	357.91
373.117	383.22
373.498	378.25
373.879	366.05
374.26	366.73
374.641	354.98
375.021	390.23
375.402	389.55
375.783	411.92
376.163	404.47
376.544	428.87
376.925	404.01
377.305	406.27
377.686	399.27
378.066	375.54
378.447	420.29
378.827	418.93
379.208	417.35
379.588	413.73
379.968	416.22
380.349	411.47
380.729	434.3
381.109	419.61
381.489	431.36
381.87	425.26
382.25	424.35
382.63	443.56
383.01	447.63
383.39	444.01
383.77	433.62
384.15	485.82
384.53	458.93
384.91	461.41
385.29	474.3
385.67	478.14
386.049	499.15
386.429	471.36
386.809	489.89
387.189	478.36
387.568	502.32
387.948	483.79
388.328	496.22
388.707	505.26
389.087	525.37
389.466	501.41
389.846	517.46
390.225	527.85
390.605	524.92
390.984	525.59
391.363	538.93
391.743	533.5
392.122	527.4
392.501	544.35
392.881	568.98
393.26	550.68
393.639	550.68
394.018	580.51
394.397	571.92
394.776	590.45
395.155	561.3
395.534	590.22
395.913	581.41
396.292	581.86
396.671	603.56
397.05	603.56
397.429	625.93
397.808	626.61
398.186	620.05
398.565	650.56
398.944	649.43
399.323	627.74
399.701	629.77
400.08	624.12
400.458	623.67
400.837	667.06
401.215	635.65
401.594	667.28
401.972	678.81
402.351	688.08
402.729	696.44
403.107	692.37
403.486	717.9
403.864	670.9
404.242	702.76
404.62	738.24
404.999	720.16
405.377	735.31
405.755	768.52
406.133	742.09
406.511	746.38
406.889	783.89
407.267	775.3
407.645	791.8
408.023	797.22
408.401	789.54
408.779	812.14
409.156	823.66
409.534	803.78
409.912	834.96
410.29	850.1
410.667	857.34
411.045	880.61
411.422	893.04
411.8	888.97
412.178	910.44
412.555	900.27
412.933	916.54
413.31	944.57
413.687	924.23
414.065	946.83
414.442	972.36
414.819	965.58
415.197	980.27
415.574	995.41
415.951	998.12
416.328	1033.83
416.705	1016.2
417.082	1020.5
417.46	1030.21
417.837	1055.07
418.214	1082.64
418.591	1065.47
418.967	1067.27
419.344	1085.13
419.721	1086.03
420.098	1121.28
420.475	1117.67
420.852	1127.16
421.228	1146.14
421.605	1141.85
421.982	1166.93
422.358	1174.62
422.735	1193.37
423.111	1178.01
423.488	1194.5
423.864	1228.85
424.241	1259.13
424.617	1246.7
424.994	1242.41
425.37	1262.98
425.746	1247.38
426.123	1298.45
426.499	1328.06
426.875	1322.86
427.251	1348.62
427.627	1351.56
428.003	1381.39
428.379	1380.94
428.756	1408.28
429.132	1430.88
429.507	1435.85
429.883	1456.42
430.259	1471.11
430.635	1486.92
431.011	1488.28
431.387	1569.86
431.763	1569.63
432.138	1573.93
432.514	1586.58
432.89	1611.44
433.265	1629.75
433.641	1666.58
434.016	1694.15
434.392	1721.04
434.767	1737.77
435.143	1733.7
435.518	1757.65
435.894	1769.4
436.269	1849.63
436.644	1835.16
437.02	1864.09
437.395	1882.17
437.77	1841.94
438.145	1914.71
438.52	1924.43
438.895	1949.74
439.271	1960.81
439.646	2007.36
440.021	1992.22
440.395	2015.5
440.77	2014.37
441.145	2029.51
441.52	2077.87
441.895	2102.5
442.27	2095.27
442.645	2094.82
443.019	2139.34
443.394	2155.61
443.769	2143.18
444.143	2187.02
444.518	2207.58
444.892	2243.74
445.267	2220.69
445.641	2253.01
446.016	2290.52
446.39	2300.91
446.764	2292.55
447.139	2304.3
447.513	2333.46
447.887	2329.61
448.262	2366.9
448.636	2346.56
449.01	2433.11
449.384	2499.1
449.758	2442.83
450.132	2468.14
450.506	2497.29
450.88	2522.15
451.254	2515.82
451.628	2559.66
452.002	2589.72
452.376	2581.81
452.75	2643.5
453.123	2641.02
453.497	2675.37
453.871	2690.73
454.244	2777.96
454.618	2820.45
454.992	2831.3
455.365	2790.62
455.739	2890.28
456.112	2927.34
456.486	2932.99
456.859	2968.02
457.232	3017.28
457.606	3005.75
457.979	3067
458.352	3139.99
458.725	3143.38
459.099	3199.65
459.472	3276.93
459.845	3255.92
460.218	3312.19
460.591	3323.26
460.964	3300.44
461.337	3429.25
461.71	3463.82
462.083	3543.14
462.456	3480.54
462.829	3538.4
463.201	3593.99
463.574	3608.9
463.947	3663.36
464.32	3742.46
464.692	3768.45
465.065	3820.87
465.438	3858.39
465.81	3887.77
466.183	3943.36
466.555	4023.13
466.928	4068.33
467.3	4065.16
467.672	4112.84
468.045	4243.91
468.417	4249.34
468.789	4300.64
469.161	4332.73
469.534	4418.37
469.906	4497.92
470.278	4494.3
470.65	4556.45
471.022	4668.31
471.394	4735.88
471.766	4780.4
472.138	4834.86
472.51	4907.17
472.882	5016.77
473.253	5044.12
473.625	5106.49
473.997	5272.14
474.369	5304.22
474.74	5378.57
475.112	5476.2
475.484	5522.75
475.855	5631.22
476.227	5647.49
476.598	5787.6
476.97	5830.09
477.341	5999.57
477.713	6120.47
478.084	6114.83
478.455	6284.76
478.827	6343.52
479.198	6559.33
479.569	6563.63
479.94	6713.68
480.311	6801.81
480.682	6920.45
481.053	7098.08
481.424	7199.77
481.795	7233.67
482.166	7348.92
482.537	7450.84
482.908	7650.83
483.279	7670.04
483.65	7834.1
484.021	7969.92
484.391	8070.71
484.762	8211.27
485.133	8269.57
485.503	8329.68
485.874	8531.48
486.244	8614.87
486.615	8707.98
486.985	8862.32
487.356	9014.18
487.726	9138.25
488.097	9300.5
488.467	9370.78
488.837	9583.66
489.207	9608.97
489.578	9774.84
489.948	9880.83
490.318	9986.14
490.688	10079.01
491.058	10243.76
491.428	10394.03
491.798	10415.95
492.168	10674.48
492.538	10690.52
492.908	10884.87
493.278	11074.02
493.648	11046.45
494.017	11146.11
494.387	11281.47
494.757	11344.74
495.126	11493.44
495.496	11539.77
495.866	11653.44
496.235	11776.15
496.605	11801.68
496.974	11910.38
497.344	12130.94
497.713	12213.42
498.082	12259.3
498.452	12421.55
498.821	12450.7
499.19	12529.8
499.559	12583.36
499.928	12676.46
500.298	12771.15
500.667	12888.66
501.036	12950.8
501.405	13068.54
501.774	13040.74
502.143	13242.1
502.512	13328.87
502.88	13525.48
503.249	13473.28
503.618	13640.05
503.987	13678.69
504.356	13804.57
504.724	13870.1
505.093	13955.97
505.462	14058.8
505.83	14157.33
506.199	14198.45
506.567	14442.06
506.936	14447.49
507.304	14615.84
507.672	14730.87
508.041	14735.16
508.409	14904.88
508.777	15068.26
509.145	15101.03
509.514	15191.87
509.882	15333.57
510.25	15368.82
510.618	15525.43
510.986	15586.21
511.354	15764.74
511.722	15904.4
512.09	16029.82
512.458	16049.71
512.826	16124.73
513.193	16297.61
513.561	16348.68
513.929	16516.36
514.297	16668.22
514.664	16711.38
515.032	16789.57
515.4	16960.64
515.767	17134.87
516.135	17250.8
516.502	17145.5
516.869	17535.99
517.237	17607.4
517.604	17610.34
517.972	17861.18
518.339	17893.05
518.706	17923.55
519.073	18128.75
519.44	18240.83
519.808	18417.78
520.175	18458.91
520.542	18669.52
520.909	18840.82
521.276	18891.44
521.643	19104.31
522.009	19136.86
522.376	19311.09
522.743	19385.44
523.11	19699.55
523.477	19885.54
523.843	19977.74
524.21	20201.69
524.577	20300.89
524.943	20385.64
525.31	20601
525.676	20741.33
526.043	20998.05
526.409	20991.04
526.776	21227.87
527.142	21288.44
527.508	21377.25
527.874	21697.69
528.241	21835.99
528.607	21875.31
528.973	22193.72
529.339	22127.29
529.705	22354.17
530.071	22478.91
530.437	22666.71
530.803	22715.74
531.169	23019.47
531.535	22824.67
531.901	23000.71
532.267	23093.59
532.632	23343.07
532.998	23330.64
533.364	23535.38
533.73	23627.13
534.095	23893.11
534.461	23898.99
534.826	24012.66
535.192	24095.37
535.557	24366.1
535.923	24275.7
536.288	24543.72
536.653	24686.31
537.019	24563.15
537.384	24705.97
537.749	24917.04
538.114	24936.25
538.479	24979.87
538.845	25147.32
539.21	25122.91
539.575	25270.48
539.94	25300.76
540.305	25572.62
540.67	25608.78
541.034	25610.58
541.399	25674.54
541.764	25797.92
542.129	25929.45
542.494	26000.86
542.858	26057.13
543.223	26217.35
543.587	26326.72
543.952	26421.41
544.316	26441.3
544.681	26400.85
545.045	26767.16
545.41	26690.78
545.774	26760.61
546.138	26911.11
546.503	26962.41
546.867	26902.53
547.231	27309.52
547.595	27230.43
547.959	27448.95
548.324	27385
548.688	27580.48
549.052	27684.88
549.416	27734.14
549.779	27639.68
550.143	27912.67
550.507	28120.35
550.871	28105.21
551.235	28078.32
551.599	28322.83
551.962	28411.41
552.326	28427.91
552.689	28683.5
553.053	28595.82
553.417	28753.55
553.78	29127.78
554.143	28926.43
554.507	29158.96
554.87	29209.59
555.234	29558.28
555.597	29308.57
555.96	29545.85
556.323	29734.77
556.686	29829
557.05	29989.68
557.413	30085.72
557.776	30223.34
558.139	30410.91
558.502	30487.97
558.865	30663.11
559.228	30845.02
559.59	30863.78
559.953	31056.54
560.316	31322.75
560.679	31235.75
561.041	31560.26
561.404	31657.66
561.767	31767.26
562.129	31743.98
562.492	32006.35
562.854	32130.64
563.217	32150.52
563.579	32259
563.941	32493.11
564.304	32661.92
564.666	32961.58
565.028	32937.4
565.39	33102.59
565.753	33258.07
566.115	33354.11
566.477	33399.31
566.839	33579.19
567.201	33861.89
567.563	33962.68
567.925	34199.96
568.287	34162.22
568.648	34283.8
569.01	34449
569.372	34719.5
569.734	34606.96
570.095	34881.53
570.457	35138.69
570.819	35107.28
571.18	35070.9
571.542	35358.12
571.903	35383.89
572.265	35497.56
572.626	35373.26
572.987	35494.62
573.349	35722.86
573.71	35783.88
574.071	35866.59
574.432	36069.74
574.794	36299.34
575.155	36146.13
575.516	36224.32
575.877	36338.66
576.238	36482.39
576.599	36452.11
576.96	36563.52
577.32	36557.19
577.681	36614.14
578.042	36722.16
578.403	36788.82
578.763	36958.99
579.124	36913.79
579.485	37008.02
579.845	37187.68
580.206	36994.69
580.566	37079.43
580.927	37145.2
581.287	37314.91
581.648	37152.65
582.008	37406.43
582.368	37277.85
582.728	37399.88
583.089	37293.21
583.449	37367.56
583.809	37505.41
584.169	37464.74
584.529	37472.42
584.889	37712.19
585.249	37473.1
585.609	37313.55
585.969	37664.5
586.329	37511.51
586.688	37482.81
587.048	37450.72
587.408	37388.35
587.768	37418.63
588.127	37479.65
588.487	37287.56
588.846	37706.99
589.206	37370.95
589.565	37504.96
589.925	37574.56
590.284	37460.22
590.643	37540.21
591.003	37557.61
591.362	37718.06
591.721	37644.84
592.08	37634.9
592.44	37696.59
592.799	37681
593.158	37554.45
593.517	37632.19
593.876	37695.46
594.235	37523.94
594.593	37675.58
594.952	37786.53
595.311	37606.88
595.67	37776.59
596.029	37843.93
596.387	37811.84
596.746	37993.08
597.104	37718.51
597.463	37781.56
597.822	37910.83
598.18	37955.34
598.538	37774.78
598.897	37913.31
599.255	37643.04
599.613	38198.95
599.972	37976.36
600.33	38042.12
600.688	37953.76
601.046	38125.06
601.404	38351.72
601.762	38363.69
602.12	38374.77
602.478	38324.37
602.836	38470.13
603.194	38152.4
603.552	38327.76
603.91	38279.63
604.268	38455.22
604.625	38305.39
604.983	38428.1
605.341	38361.43
605.698	38557.59
606.056	38625.38
606.413	38570.24
606.771	38734.98
607.128	38641.65
607.485	38492.28
607.843	38552.39
608.2	38807.52
608.557	38949.22
608.914	38838.71
609.272	38937.24
609.629	38965.26
609.986	39088.87
610.343	38985.37
610.7	39138.14
611.057	39102.21
611.414	39084.35
611.771	39065.37
612.127	39188.98
612.484	39243.9
612.841	39374.97
613.198	39013.85
613.554	39202.54
613.911	39392.59
614.267	39400.05
614.624	39344.23
614.98	39356.21
615.337	39550.78
615.693	39527.96
616.05	39414.51
616.406	39675.75
616.762	39545.36
617.118	39551.01
617.475	39629.88
617.831	39759.59
618.187	39789.42
618.543	39741.06
618.899	40099.47
619.255	39862.86
619.611	39968.17
619.967	40167.94
620.323	40158.9
620.678	40086.14
621.034	39978.34
621.39	39849.08
621.746	39927.04
622.101	40446.13
622.457	40010.88
622.812	40070.09
623.168	40239.13
623.523	40258.11
623.879	40338.78
624.234	39926.82
624.589	40144.21
624.945	40098.79
625.3	40195.28
625.655	39966.82
626.01	40186.25
626.365	40296.75
626.72	40148.96
627.075	40130.2
627.43	39978.79
627.785	40065.12
628.14	40106.02
628.495	40158.9
628.85	40181.27
629.205	39934.5
629.559	40092.01
629.914	39917.1
630.269	40046.36
630.623	39941.28
630.978	39730.44
631.332	39979.02
631.687	40051.56
632.041	39856.08
632.396	39960.04
632.75	39682.08
633.104	39866.48
633.459	39555.3
633.813	39496.55
634.167	39463.1
634.521	39569.09
634.875	39572.7
635.229	39442.76
635.583	39257
635.937	39319.83
636.291	39169.32
636.645	39216.1
636.999	39048.2
637.352	39212.49
637.706	38992.15
638.06	39141.75
638.413	38937.46
638.767	38906.51
639.121	38838.26
639.474	38554.42
639.828	38619.96
640.181	38738.37
640.534	38599.85
640.888	38606.4
641.241	38398.27
641.594	38430.36
641.947	38600.75
642.301	38462.45
642.654	38298.84
643.007	38240.31
643.36	38282.11
643.713	38235.11
644.066	38391.72
644.419	38058.84
644.771	37815.46
645.124	37537.73
645.477	37634.9
645.83	37119.43
646.182	37097.06
646.535	37017.97
646.888	37012.09
647.24	36757.18
647.593	37050.73
647.945	36883.06
648.298	36796.05
648.65	36609.62
649.002	36528.49
649.355	36661.14
649.707	36596.74
650.059	36886.22
650.411	37152.88
650.763	37288.69
651.115	37617.95
651.467	37456.15
651.819	37461.12
652.171	37336.83
652.523	37267.45
652.875	37240.33
653.227	37002.37
653.578	37316.04
653.93	37171.86
654.282	37110.85
654.633	37047.35
654.985	37126.67
655.337	37057.29
655.688	36995.37
656.039	37210.73
656.391	36926.9
656.742	36956.5
657.094	36896.84
657.445	37180.67
657.796	36912.66
658.147	36823.4
658.498	36798.54
658.849	36780.91
659.2	36756.51
659.551	36531.65
659.902	36881.7
660.253	36617.98
660.604	36765.77
660.955	36610.97
661.306	36704.3
661.656	36723.74
662.007	36851.87
662.358	36764.41
662.708	36688.71
663.059	36665.89
663.409	36439.68
663.76	36758.77
664.11	36728.71
664.461	36739.33
664.811	36829.05
665.161	36783.85
665.511	36520.58
665.862	36613.46
666.212	36822.72
666.562	36687.58
666.912	36574.36
667.262	36652.33
667.612	36476.74
667.962	36538.43
668.312	36449.17
668.662	36671.54
669.011	36473.12
669.361	36434.25
669.711	36449.17
670.06	36387.25
670.41	36392.45
670.76	36255.95
671.109	36374.82
671.459	36217.76
671.808	36248.04
672.157	36290.53
672.507	36103.19
672.856	36050.99
673.205	36102.96
673.554	36143.19
673.904	36037.88
674.253	36199.46
674.602	35932.35
674.951	35561.96
675.3	35414.39
675.649	36011.44
675.998	35918.34
676.346	35874.27
676.695	36039.46
677.044	35738.23
677.393	35852.12
677.741	35929.86
678.09	35857.77
678.438	35789.53
678.787	35908.39
679.135	35755.18
679.484	35583.43
679.832	35699.58
680.181	35489.87
680.529	35649.19
680.877	35459.36
681.225	35389.54
681.573	35486.48
681.922	35302.76
682.27	35139.15
682.618	35305.24
682.966	35145.25
683.314	35119.94
683.661	35061.86
684.009	34980.05
684.357	34773.73
684.705	34676.79
685.053	34842.88
685.4	34804.69
685.748	34532.16
686.095	34663.23
686.443	34448.54
686.79	34344.82
687.138	34317.7
687.485	34333.97
687.832	34197.93
688.18	34336.46
688.527	34105.5
688.874	34040.19
689.221	33923.13
689.568	33914.77
689.915	33830.93
690.262	33797.94
690.609	33729.47
690.956	33582.13
691.303	33511.17
691.65	33390.94
691.997	33475.24
692.344	33311.17
692.69	33129.71
693.037	33127.9
693.383	32999.32
693.73	33140.1
694.077	32854.24
694.423	32754.58
694.769	32799.77
695.116	32610.4
695.462	32533.34
695.808	32449.5
696.155	32409.27
696.501	32210.18
696.847	32279.11
697.193	32174.03
697.539	32153.24
697.885	31945.33
698.231	31807.48
698.577	31770.65
698.923	31941.94
699.269	31635.28
699.614	31470.09
699.96	31559.58
700.306	31484.78
700.651	31388.28
700.997	31299.47
701.342	31142.19
701.688	31059.25
702.033	30904.23
702.379	30988.07
702.724	30755.53
703.069	30929.99
703.415	30593.96
703.76	30586.27
704.105	30552.83
704.45	30502.21
704.795	30385.37
705.14	30142.89
705.485	30129.56
705.83	30100.41
706.175	30170.24
706.52	30040.98
706.865	29911.04
707.209	29909.23
707.554	29641.66
707.899	29823.81
708.243	29576.58
708.588	29566.41
708.932	29493.87
709.277	29488.45
709.621	29467.88
709.966	29158.96
710.31	29326.19
710.654	29121.9
710.998	29074
711.342	29128.01
711.687	29012.3
712.031	28875.13
712.375	28887.11
712.719	28797.84
713.063	28815.7
713.407	28757.85
713.75	28620
714.094	28593.1
714.438	28436.27
714.782	28474.46
715.125	28358.31
715.469	28388.36
715.812	28139.33
716.156	28074.93
716.499	28024.98
716.843	28079.22
717.186	27884.42
717.53	28127.13
717.873	27980.69
718.216	27880.13
718.559	27680.13
718.902	27637.42
719.246	27613.92
719.589	27566.24
719.932	27393.14
720.275	27432.68
720.617	27427.71
720.96	27336.19
721.303	27290.31
721.646	27359.01
721.989	27139.81
722.331	27172.12
722.674	27177.32
723.016	27087.16
723.359	27110.43
723.701	27072.24
724.044	26844
724.386	26843.09
724.729	26863.21
725.071	26882.41
725.413	26845.81
725.755	26841.96
726.097	26709.31
726.439	26488.98
726.782	26696.2
727.124	26731.01
727.465	26419.38
727.807	26653.27
728.149	26393.61
728.491	26320.62
728.833	26453.95
729.175	26316.55
729.516	26240.4
729.858	26191.59
730.199	26217.57
730.541	26092.6
730.882	26145.03
731.224	26021.65
731.565	25954.53
731.906	26004.47
732.248	25853.52
732.589	25853.29
732.93	25790.92
733.271	25662.56
733.612	25667.53
733.953	25699.85
734.294	25652.39
734.635	25527.87
734.976	25594.76
735.317	25468.21
735.658	25429.57
735.999	25428.22
736.339	25308.67
736.68	25465.28
737.021	25408.33
737.361	25270.03
737.702	25333.08
738.042	25249.92
738.383	25139.64
738.723	25209.01
739.063	25052.18
739.404	25074.1
739.744	24991.84
740.084	24968.79
740.424	25012.41
740.764	24813.09
741.104	24954.33
741.444	24886.31
741.784	24820.32
742.124	24879.76
742.464	24782.36
742.804	24665.75
743.143	24550.95
743.483	24558.63
743.823	24488.35
744.162	24483.83
744.502	24457.17
744.841	24454.23
745.181	24435.25
745.52	24403.61
745.86	24343.95
746.199	24235.48
746.538	24224.18
746.877	24391.18
747.216	24402.25
747.556	24321.8
747.895	24310.05
748.234	24118.42
748.573	23994.81
748.911	24097.86
749.25	23990.74
749.589	23830.74
749.928	23895.83
750.267	23833.46
750.605	23741.48
750.944	23764.76
751.283	23677.75
751.621	23602.27
751.96	23597.76
752.298	23545.33
752.636	23449.06
752.975	23356.86
753.313	23334.03
753.651	23423.07
753.989	23209.74
754.327	23157.99
754.666	23075.06
755.004	23078.22
755.342	23134.04
755.679	22974.27
756.017	22976.75
756.355	22902.18
756.693	22790.54
757.031	22807.49
757.368	22749.19
757.706	22700.83
758.044	22453.38
758.381	22578.8
758.719	22464.68
759.056	22594.17
759.394	22412.7
759.731	22310.78
760.068	22200.96
760.405	22203.67
760.743	22153.73
761.08	22213.84
761.417	21964.8
761.754	21989.66
762.091	21944.24
762.428	21872.83
762.765	21659.95
763.102	21781.98
763.438	21679.16
763.775	21529.34
764.112	21599.62
764.449	21519.62
764.785	21350.58
765.122	21364.14
765.458	21203.69
765.795	21276.69
766.131	21174.32
766.467	21040.53
766.804	21035.56
767.14	20969.12
767.476	20880.76
767.812	20777.94
768.148	20824.95
768.485	20571.39
768.821	20513.09
769.157	20523.26
769.492	20408.69
769.828	20333.21
770.164	20081.92
770.5	20107.45
770.836	20149.71
771.171	20036.94
771.507	20026.78
771.842	19885.08
772.178	19843.73
772.513	19873.79
772.849	19707.46
773.184	19687.8
773.519	19586.34
773.855	19506.79
774.19	19446
774.525	19375.72
774.86	19258.43
775.195	19309.73
775.53	19189.06
775.865	19155.39
776.2	19004.2
776.535	18857.54
776.87	18893.47
777.205	18761.05
777.539	18712.46
777.874	18827.26
778.209	18598.79
778.543	18709.3
778.878	18505.01
779.212	18507.27
779.547	18384.33
779.881	18387.5
780.215	18267.05
780.55	18217.33
780.884	18170.78
781.218	18117.45
781.552	18140.95
781.886	17958.81
782.22	17847.4
782.554	17904.8
782.888	17626.16
783.222	17644.24
783.556	17508.65
783.889	17595.65
784.223	17414.87
784.557	17438.6
784.89	17355.89
785.224	17273.4
785.557	17183.69
785.891	17042.22
786.224	17055.78
786.558	17099.85
786.891	16902.56
787.224	16827.99
787.557	16887.42
787.891	16810.14
788.224	16775.34
788.557	16772.85
788.89	16703.25
789.223	16595.23
789.556	16502.8
789.888	16525.85
790.221	16410.83
790.554	16235.69
790.887	16345.52
791.219	16239.3
791.552	16232.07
791.884	16142.36
792.217	16025.52
792.549	16046.09
792.882	15915.02
793.214	15861.24
793.546	15875.92
793.879	15780.11
794.211	15636.16
794.543	15758.64
794.875	15662.37
795.207	15734.46
795.539	15613.78
795.871	15557.74
796.203	15527.91
796.535	15442.49
796.867	15436.61
797.198	15384.19
797.53	15326.56
797.862	15182.38
798.193	15288.14
798.525	15066.45
798.856	15129.96
799.188	14953.01
799.519	14982.16
799.85	14828.27
800.182	14859.23
800.513	14787.59
800.844	14761.38
801.175	14806.12
801.506	14762.96
801.837	14720.25
802.168	14648.84
802.499	14487.03
802.83	14506.92
803.161	14435.06
803.491	14520.71
803.822	14543.76
804.153	14307.83
804.483	14292.92
804.814	14158.46
805.145	14119.13
805.475	14102.41
805.805	14051.34
806.136	14113.48
806.466	14106.03
806.796	13967.27
807.126	13881.85
807.457	13956.43
807.787	13882.76
808.117	13868.52
808.447	13846.15
808.777	13748.52
809.107	13765.92
809.436	13714.85
809.766	13747.17
810.096	13718.47
810.426	13580.62
810.755	13592.59
811.085	13512.6
811.414	13561.86
811.744	13440.51
812.073	13457
812.403	13448.87
812.732	13366.61
813.061	13304.01
813.39	13270.34
813.719	13224.92
814.049	13373.17
814.378	13223.34
814.707	13110.12
815.036	13137.24
815.365	13049.78
815.693	13036
816.022	13020.63
816.351	12998.94
816.68	12835.55
817.008	12914.42
817.337	12803.24
817.665	12890.47
817.994	12882.33
818.322	12850.02
818.651	12731.15
818.979	12682.79
819.307	12744.48
819.636	12679.85
819.964	12534.54
820.292	12677.36
820.62	12719.17
820.948	12568.44
821.276	12584.94
821.604	12672.62
821.932	12541.1
822.259	12652.28
822.587	12613.86
822.915	12498.61
823.243	12527.09
823.57	12532.28
823.898	12484.38
824.225	12439.4
824.553	12532.96
824.88	12419.29
825.207	12556.01
825.535	12450.93
825.862	12538.61
826.189	12505.17
826.516	12558.95
826.843	12494.32
827.17	12564.6
827.497	12534.09
827.824	12438.05
828.151	12470.14
828.478	12456.81
828.805	12588.1
829.131	12504.26
829.458	12482.34
829.785	12502.23
830.111	12480.99
830.438	12501.32
830.764	12565.28
831.09	12448.22
831.417	12499.97
831.743	12487.99
832.069	12505.84
832.395	12482.34
832.722	12516.46
833.048	12490.02
833.374	12538.61
833.7	12305.62
834.026	12397.37
834.351	12424.72
834.677	12307.88
835.003	12359.63
835.329	12339.97
835.654	12332.29
835.98	12270.82
836.306	12268.79
836.631	12243.03
836.956	12298.39
837.282	12277.37
837.607	12218.39
837.932	12138.17
838.258	12178.39
838.583	12144.72
838.908	12033.54
839.233	12104.27
839.558	12014.56
839.883	11955.35
840.208	11947.21
840.533	12003.03
840.858	11961
841.182	12016.82
841.507	12029.02
841.832	11816.6
842.156	11863.37
842.481	11894.11
842.805	11799.87
843.13	11772.53
843.454	11805.52
843.778	11753.55
844.103	11737.05
844.427	11735.69
844.751	11664.96
845.075	11624.74
845.399	11565.3
845.723	11483.95
846.047	11581.8
846.371	11477.62
846.695	11439.2
847.019	11412.99
847.343	11349.49
847.666	11277.18
847.99	11215.26
848.313	11208.25
848.637	11117.63
848.96	11102.26
849.284	11146.56
849.607	11029.5
849.931	10988.6
850.254	10901.37
850.577	10860.24
850.9	10842.38
851.223	10699.11
851.546	10603.29
851.869	10707.92
852.192	10770.97
852.515	10624.31
852.838	10526.46
853.161	10615.72
853.483	10512.22
853.806	10467.03
854.129	10518.78
854.451	10415.73
854.774	10353.81
855.096	10342.51
855.419	10339.35
855.741	10299.8
856.063	10254.6
856.385	10253.02
856.708	10197.66
857.03	10162.18
857.352	10099.81
857.674	10116.08
857.996	10073.14
858.318	9989.53
858.64	10021.16
858.961	10003.99
859.283	9967.61
859.605	9943.42
859.926	9959.7
860.248	9908.17
860.57	9832.92
860.891	9816.87
861.212	9795.63
861.534	9794.73
861.855	9771.68
862.176	9766.03
862.498	9806.25
862.819	9750.89
863.14	9679.48
863.461	9699.14
863.782	9601.06
864.103	9636.09
864.424	9651.23
864.745	9668.63
865.065	9589.31
865.386	9628.63
865.707	9547.28
866.027	9532.36
866.348	9525.81
866.668	9478.58
866.989	9531.91
867.309	9435.42
867.63	9451.69
867.95	9469.54
868.27	9436.09
868.59	9390.22
868.91	9361.07
869.23	9386.15
869.55	9302.99
869.87	9337.57
870.19	9284.46
870.51	9308.19
870.83	9283.56
871.15	9274.29
871.469	9253.05
871.789	9326.49
872.109	9255.53
872.428	9140.06
872.748	9250.56
873.067	9177.57
873.386	9202.65
873.706	9198.81
874.025	9059.61
874.344	9128.31
874.663	9106.84
874.982	9121.98
875.301	9114.07
875.62	9063.22
875.939	9065.93
876.258	9038.59
876.577	8933.51
876.896	8970.12
877.214	8928.08
877.533	9023.22
877.852	8992.94
878.17	8923.34
878.489	8929.44
878.807	8895.09
879.125	8959.5
879.444	8865.26
879.762	8841.76
880.08	8906.62
880.398	8763.79
880.716	8814.87
881.034	8769.9
881.352	8771.48
881.67	8763.34
881.988	8777.58
882.306	8726.28
882.624	8685.15
882.941	8675.89
883.259	8637.92
883.577	8645.15
883.894	8579.17
884.212	8590.24
884.529	8623.69
884.846	8511.15
885.164	8568.55
885.481	8496.68
885.798	8532.84
886.115	8411.94
886.432	8417.36
886.75	8423.69
887.067	8402.9
887.383	8384.14
887.7	8396.8
888.017	8362.45
888.334	8348.66
888.651	8344.6
888.967	8352.28
889.284	8281.32
889.6	8275.9
889.917	8211.72
890.233	8154.55
890.55	8206.97
890.866	8157.94
891.182	8117.94
891.498	8126.52
891.815	8054.21
892.131	8034.1
892.447	8099.63
892.763	8022.8
893.079	8004.04
893.395	7966.08
893.71	7975.57
894.026	7930.6
894.342	7908.68
894.657	7870.71
894.973	7872.07
895.289	7792.97
895.604	7827.77
895.92	7733.31
896.235	7694.22
896.55	7733.09
896.865	7663.48
897.181	7690.83
897.496	7654.22
897.811	7700.55
898.126	7588.91
898.441	7550.49
898.756	7510.95
899.071	7466.2
899.386	7520.89
899.7	7477.5
900.015	7424.17
900.33	7397.5
900.644	7380.33
900.959	7322.93
901.273	7339.43
901.588	7311.4
901.902	7251.52
902.216	7258.52
902.531	7225.53
902.845	7157.74
903.159	7170.16
903.473	7185.08
903.787	7138.53
904.101	7078.87
904.415	7051.75
904.729	7082.71
905.042	7060.79
905.356	7013.33
905.67	6975.37
905.984	6969.04
906.297	6921.13
906.611	6894.24
906.924	6866.67
907.237	6856.27
907.551	6853.56
907.864	6872.09
908.177	6805.43
908.491	6752.55
908.804	6722.04
909.117	6672.78
909.43	6683.17
909.743	6626
910.056	6618.77
910.368	6620.12
910.681	6536.06
910.994	6558.43
911.307	6524.98
911.619	6466
911.932	6470.75
912.244	6414.25
912.557	6420.81
912.869	6366.8
913.181	6354.14
913.494	6386.91
913.806	6288.83
914.118	6328.15
914.43	6269.62
914.742	6302.62
915.054	6231.43
915.366	6234.6
915.678	6218.1
915.99	6142.85
916.302	6137.88
916.613	6082.74
916.925	6105.33
917.236	6071.89
917.548	5971.78
917.859	6034.38
918.171	5974.26
918.482	5979.91
918.794	5919.35
919.105	5938.33
919.416	5896.75
919.727	5876.41
920.038	5808.62
920.349	5810.43
920.66	5791.67
920.971	5788.51
921.282	5770.43
921.593	5647.04
921.903	5695.63
922.214	5652.01
922.525	5610.21
922.835	5592.13
923.146	5592.13
923.456	5525.01
923.767	5494.05
924.077	5505.8
924.387	5481.17
924.697	5439.81
925.008	5427.16
925.318	5408.63
925.628	5378.12
925.938	5343.77
926.248	5310.1
926.558	5325.47
926.867	5271.23
927.177	5287.95
927.487	5226.26
927.796	5239.82
928.106	5193.27
928.416	5179.03
928.725	5219.48
929.034	5143.78
929.344	5107.85
929.653	5093.16
929.962	5130.44
930.271	5054.51
930.581	5049.77
930.89	5002.76
931.199	5000.5
931.508	4961.64
931.817	4962.09
932.125	4967.74
932.434	4908.98
932.743	4905.37
933.051	4860.85
933.36	4827.18
933.669	4776.56
933.977	4812.94
934.286	4763
934.594	4767.52
934.902	4768.87
935.21	4715.09
935.519	4748.31
935.827	4655.43
936.135	4660.85
936.443	4662.21
936.751	4648.65
937.059	4595.99
937.367	4600.51
937.674	4622.89
937.982	4557.8
938.29	4557.13
938.597	4506.96
938.905	4497.69
939.213	4474.19
939.52	4408.66
939.827	4476.45
940.135	4451.37
940.442	4394.42
940.749	4410.24
941.056	4389.9
941.363	4358.26
941.67	4323.69
941.977	4286.4
942.284	4289.34
942.591	4280.52
942.898	4252.5
943.205	4264.48
943.511	4226.74
943.818	4268.55
944.125	4172.28
944.431	4154.42
944.738	4145.16
945.044	4145.84
945.35	4130.24
945.657	4068.1
945.963	4094.09
946.269	4093.64
946.575	4046.4
946.881	4048.89
947.187	4016.35
947.493	4000.08
947.799	3955.56
948.105	4010.7
948.41	3996.46
948.716	3946.97
949.022	3910.14
949.327	3905.17
949.633	3881.44
949.938	3876.92
950.244	3887.31
950.549	3827.88
950.854	3833.53
951.16	3808.22
951.465	3802.8
951.77	3755.11
952.075	3744.72
952.38	3733.87
952.685	3689.13
952.99	3684.83
953.294	3716.47
953.599	3669.01
953.904	3670.82
954.209	3612.74
954.513	3638.05
954.818	3603.25
955.122	3570.03
955.426	3546.53
955.731	3593.31
956.035	3513.99
956.339	3512.18
956.643	3516.48
956.948	3517.38
957.252	3456.36
957.556	3465.63
957.86	3478.28
958.163	3448.68
958.467	3457.27
958.771	3420.21
959.075	3438.29
959.378	3399.19
959.682	3358.74
959.985	3341.11
960.289	3334.79
960.592	3306.99
960.896	3352.41
961.199	3347.89
961.502	3295.92
961.805	3275.58
962.108	3289.59
962.411	3259.08
962.714	3210.27
963.017	3233.32
963.32	3242.81
963.623	3196.03
963.926	3216.82
964.228	3173.89
964.531	3111.97
964.833	3154.22
965.136	3123.27
965.438	3122.36
965.741	3098.18
966.043	3074
966.345	3125.75
966.648	3085.07
966.95	3082.59
967.252	3064.51
967.554	3018.64
967.856	3029.03
968.158	3022.93
968.46	2982.48
968.761	2941.8
969.063	2956.94
969.365	2946.09
969.666	2954.23
969.968	2908.36
970.269	2903.16
970.571	2897.28
970.872	2885.98
971.174	2878.53
971.475	2836.72
971.776	2864.97
972.077	2814.35
972.378	2783.16
972.679	2799.88
972.98	2826.78
973.281	2816.15
973.582	2774.12
973.883	2757.17
974.183	2731.19
974.484	2730.51
974.785	2723.05
975.085	2734.35
975.386	2711.3
975.686	2699.1
975.986	2695.25
976.287	2686.21
976.587	2658.19
976.887	2642.6
977.187	2646.67
977.487	2674.92
977.787	2606.67
978.087	2589.27
978.387	2577.74
978.687	2550.4
978.987	2559.66
979.286	2593.79
979.586	2562.38
979.885	2551.3
980.185	2526.44
980.484	2487.58
980.784	2510.63
981.083	2489.61
981.382	2481.93
981.682	2488.93
981.981	2455.71
982.28	2453.68
982.579	2394.24
982.878	2438.99
983.177	2419.56
983.475	2413.23
983.774	2431.76
984.073	2389.05
984.372	2386.11
984.67	2347.92
984.969	2351.53
985.267	2321.03
985.566	2329.61
985.864	2351.31
986.162	2329.16
986.461	2310.18
986.759	2300.91
987.057	2297.98
987.355	2270.18
987.653	2255.04
987.951	2263.17
988.249	2277.41
988.547	2264.3
988.844	2217.98
989.142	2217.98
989.44	2177.08
989.737	2190.41
990.035	2195.15
990.332	2169.39
990.63	2178.66
990.927	2147.25
991.224	2122.16
991.521	2126
991.819	2130.07
992.116	2123.07
992.413	2094.59
992.71	2121.03
993.006	2098.89
993.303	2057.98
993.6	2067.25
993.897	2067.93
994.193	2072.9
994.49	2000.36
994.787	2046.91
995.083	2043.52
995.379	2058.66
995.676	2009.62
995.972	2003.07
996.268	1991.77
996.565	1993.35
996.861	1974.59
997.157	1974.14
997.453	1950.64
997.749	1933.24
998.044	1969.85
998.34	1942.96
998.636	1923.97
998.932	1898.44
999.227	1909.06
999.523	1932.34
999.818	1857.99
1000.114	1867.03
1000.409	1830.64
1000.704	1826.8
1001	1828.16
1001.295	1838.33
1001.59	1838.1
1001.885	1816.86
1002.18	1799.46
1002.475	1790.42
1002.77	1777.54
1003.065	1729.63
1003.359	1754.49
1003.654	1759.91
1003.949	1746.58
1004.243	1744.32
1004.538	1725.34
1004.832	1737.77
1005.127	1715.84
1005.421	1716.52
1005.715	1703.87
1006.009	1678.33
1006.304	1698.67
1006.598	1679.91
1006.892	1664.09
1007.186	1645.11
1007.48	1663.64
1007.773	1636.07
1008.067	1602.18
1008.361	1620.71
1008.655	1585.9
1008.948	1580.71
1009.242	1575.51
1009.535	1570.76
1009.829	1569.41
1010.122	1532.12
1010.415	1561.72
1010.708	1571.22
1011.001	1535.51
1011.295	1515.17
1011.588	1510.88
1011.881	1521.5
1012.173	1528.51
1012.466	1491.9
1012.759	1506.58
1013.052	1471.11
1013.344	1470.43
1013.637	1461.84
1013.93	1466.13
1014.222	1445.34
1014.514	1442.63
1014.807	1425.46
1015.099	1409.19
1015.391	1408.06
1015.683	1427.72
1015.976	1443.76
1016.268	1378.45
1016.56	1381.62
1016.851	1355.85
1017.143	1364.89
1017.435	1363.76
1017.727	1343.2
1018.018	1332.58
1018.31	1321.96
1018.602	1304.1
1018.893	1304.78
1019.185	1316.99
1019.476	1301.62
1019.767	1305.91
1020.058	1290.77
1020.35	1280.38
1020.641	1243.99
1020.932	1253.48
1021.223	1241.05
1021.514	1240.6
1021.804	1237.67
1022.095	1231.56
1022.386	1192.47
1022.677	1194.73
1022.967	1213.03
1023.258	1209.19
1023.548	1189.98
1023.839	1190.21
1024.129	1186.37
1024.419	1172.58
1024.709	1157.22
1025	1144.56
1025.29	1146.82
1025.58	1162.41
1025.87	1148.18
1026.16	1120.61
1026.449	1101.4
1026.739	1106.82
1027.029	1108.63
1027.319	1093.94
1027.608	1095.97
1027.898	1077.67
1028.187	1125.35
1028.477	1076.54
1028.766	1055.98
1029.055	1076.54
1029.344	1051.23
1029.634	1038.57
1029.923	1048.29
1030.212	1013.49
1030.501	1038.35
1030.79	1040.61
1031.078	1000.16
1031.367	1014.39
1031.656	987.95
1031.945	989.54
1032.233	1006.48
1032.522	991.12
1032.81	984.79
1033.099	985.92
1033.387	953.83
1033.675	960.16
1033.963	944.57
1034.251	948.86
1034.54	958.35
1034.828	944.11
1035.116	928.75
1035.403	929.2
1035.691	931.46
1035.979	897.79
1036.267	922.65
1036.554	901.85
1036.842	886.94
1037.129	885.81
1037.417	858.01
1037.704	873.16
1037.992	890.56
1038.279	889.2
1038.566	885.13
1038.853	885.13
1039.14	885.13
