Data from foam1_polythene_foam_FLMS001491_00061.txt Node
Date: Wed Feb 08 10:55:12 GMT 2017
User: dcchb
Spectrometer: FLMS00149
Trigger mode: 0
Integration Time (sec): 2.000000E-2
Scans to average: 10
Electric dark correction enabled: true
Nonlinearity correction enabled: false
Boxcar width: 0
XAxis mode: Wavelengths
Number of Pixels in Spectrum: 2048
>>>>>Begin Spectral Data<<<<<
341.393	-24.31
341.776	-24.31
342.16	-24.31
342.543	-68.83
342.927	-73.12
343.31	-88.49
343.693	-71.31
344.077	-52.1
344.46	-57.98
344.843	-51.2
345.226	-51.65
345.61	-31.99
345.993	-20.92
346.376	1.23
346.759	20.21
347.142	39.87
347.525	45.07
347.908	56.14
348.291	74.45
348.674	95.69
349.057	92.98
349.44	94.79
349.823	140.89
350.206	154.9
350.588	193.09
350.971	177.5
351.354	198.29
351.737	214.1
352.119	225.86
352.502	248
352.884	234.89
353.267	253.88
353.65	265.85
354.032	276.93
354.414	272.63
354.797	276.25
355.179	295.46
355.562	312.18
355.944	291.16
356.326	296.81
356.709	326.19
357.091	296.59
357.473	316.25
357.855	311.5
358.238	299.75
358.62	325.51
359.002	305.4
359.384	278.96
359.766	311.05
360.148	315.34
360.53	321.45
360.912	332.29
361.294	294.78
361.676	318.73
362.057	315.34
362.439	325.51
362.821	285.97
363.203	309.7
363.584	319.64
363.966	305.4
364.348	318.73
364.729	317.38
365.111	289.36
365.493	280.77
365.874	284.39
366.256	300.88
366.637	312.41
367.019	292.29
367.4	292.75
367.781	288.45
368.163	294.33
368.544	281.22
368.925	279.41
369.306	290.71
369.688	278.28
370.069	274.44
370.45	282.8
370.831	254.1
371.212	273.31
371.593	283.71
371.974	277.61
372.355	282.58
372.736	283.48
373.117	292.97
373.498	271.5
373.879	246.87
374.26	290.71
374.641	261.56
375.021	288.45
375.402	284.16
375.783	283.93
376.163	289.36
376.544	299.53
376.925	298.62
377.305	298.4
377.686	290.26
378.066	293.65
378.447	294.78
378.827	291.84
379.208	291.84
379.588	298.17
379.968	292.97
380.349	297.49
380.729	291.39
381.109	318.51
381.489	301.11
381.87	298.17
382.25	317.83
382.63	288.45
383.01	313.31
383.39	293.88
383.77	315.8
384.15	320.32
384.53	301.56
384.91	289.81
385.29	303.14
385.67	318.73
386.049	330.71
386.429	324.16
386.809	305.18
387.189	317.6
387.568	308.79
387.948	319.86
388.328	331.62
388.707	337.94
389.087	311.96
389.466	317.6
389.846	316.93
390.225	318.73
390.605	316.25
390.984	335.46
391.363	319.86
391.743	319.64
392.122	312.18
392.501	312.63
392.881	322.35
393.26	309.92
393.639	317.38
394.018	324.61
394.397	346.08
394.776	306.31
395.155	340.43
395.534	323.25
395.913	311.05
396.292	336.14
396.671	349.47
397.05	342.46
397.429	338.4
397.808	353.08
398.186	332.52
398.565	316.47
398.944	321.9
399.323	358.96
399.701	337.94
400.08	338.85
400.458	313.54
400.837	331.84
401.215	347.66
401.594	327.32
401.972	328.45
402.351	331.84
402.729	361.67
403.107	356.47
403.486	341.33
403.864	359.19
404.242	357.83
404.62	359.64
404.999	343.14
405.377	353.31
405.755	344.04
406.133	341.33
406.511	364.84
406.889	366.87
407.267	366.19
407.645	360.54
408.023	357.83
408.401	354.21
408.779	359.19
409.156	379.07
409.534	378.17
409.912	359.19
410.29	363.71
410.667	365.29
411.045	377.94
411.422	383.82
411.8	373.87
412.178	381.33
412.555	372.52
412.933	386.76
413.31	379.07
413.687	390.6
414.065	382.24
414.442	387.43
414.819	394.89
415.197	384.5
415.574	397.83
415.951	388.56
416.328	397.38
416.705	374.1
417.082	395.12
417.46	379.3
417.837	391.05
418.214	381.56
418.591	404.16
418.967	412.07
419.344	403.03
419.721	417.94
420.098	413.2
420.475	412.52
420.852	403.7
421.228	417.49
421.605	411.84
421.982	394.66
422.358	398.73
422.735	415.23
423.111	423.82
423.488	416.81
423.864	419.97
424.241	420.88
424.617	411.16
424.994	404.38
425.37	424.27
425.746	412.74
426.123	443.7
426.499	432.18
426.875	450.26
427.251	439.64
427.627	442.8
428.003	452.74
428.379	423.82
428.756	447.09
429.132	433.76
429.507	461.33
429.883	450.93
430.259	440.31
430.635	451.39
431.011	460.43
431.387	453.19
431.763	461.56
432.138	441.44
432.514	469.47
432.89	462.23
433.265	475.79
433.641	509.69
434.016	477.6
434.392	493.19
434.767	495.68
435.143	491.84
435.518	496.81
435.894	512.4
436.269	495.23
436.644	508.56
437.02	509.24
437.395	500.88
437.77	506.75
438.145	523.7
438.52	520.99
438.895	559.18
439.271	550.14
439.646	518.73
440.021	547.2
440.395	541.55
440.77	527.99
441.145	547.66
441.52	550.14
441.895	547.43
442.27	561.44
442.645	553.08
443.019	559.63
443.394	553.53
443.769	582.68
444.143	572.74
444.518	599.18
444.892	566.41
445.267	594.43
445.641	605.96
446.016	620.65
446.39	603.47
446.764	600.99
447.139	608.44
447.513	630.82
447.887	630.59
448.262	591.95
448.636	626.52
449.01	629.01
449.384	619.29
449.758	624.26
450.132	654.54
450.506	633.53
450.88	643.92
451.254	654.54
451.628	659.29
452.002	671.04
452.376	648.67
452.75	672.17
453.123	679.86
453.497	645.96
453.871	650.93
454.244	668.56
454.618	676.24
454.992	677.6
455.365	673.53
455.739	671.49
456.112	690.93
456.486	671.95
456.859	696.8
457.232	708.1
457.606	716.24
457.979	708.78
458.352	702.68
458.725	723.02
459.099	708.1
459.472	705.62
459.845	717.82
460.218	723.7
460.591	721.89
460.964	713.53
461.337	726.63
461.71	733.19
462.083	718.72
462.456	764.37
462.829	757.14
463.201	753.07
463.574	728.67
463.947	757.37
464.32	760.98
464.692	758.27
465.065	757.14
465.438	765.28
465.81	769.8
466.183	787.65
466.555	794.65
466.928	777.48
467.3	763.69
467.672	796.69
468.045	818.38
468.417	794.43
468.789	814.99
469.161	813.86
469.534	832.39
469.906	815.44
470.278	834.65
470.65	824.26
471.022	816.35
471.394	866.52
471.766	849.34
472.138	848.21
472.51	831.94
472.882	878.04
473.253	880.3
473.625	873.52
473.997	911.94
474.369	911.49
474.74	896.8
475.112	941.09
475.484	907.19
475.855	946.29
476.227	951.71
476.598	960.07
476.97	976.57
477.341	954.65
477.713	1009.34
478.084	990.81
478.455	979.06
478.827	1008.43
479.198	1022.44
479.569	1005.04
479.94	1021.31
480.311	1045.27
480.682	1033.97
481.053	1080.07
481.424	1092.5
481.795	1102.89
482.166	1111.03
482.537	1100.63
482.908	1132.05
483.279	1133.4
483.65	1161.42
484.021	1176.34
484.391	1169.11
484.762	1200.52
485.133	1199.62
485.503	1195.32
485.874	1241.2
486.244	1244.59
486.615	1271.03
486.985	1236.22
487.356	1274.64
487.726	1285.26
488.097	1298.37
488.467	1314.19
488.837	1346.5
489.207	1326.62
489.578	1339.05
489.948	1393.73
490.318	1397.8
490.688	1388.99
491.058	1400.97
491.428	1418.14
491.798	1406.39
492.168	1436.45
492.538	1475.77
492.908	1487.74
493.278	1462.43
493.648	1503.79
494.017	1492.94
494.387	1518.03
494.757	1524.35
495.126	1566.16
495.496	1550.57
495.866	1537.46
496.235	1609.32
496.605	1559.15
496.974	1578.59
497.344	1601.64
497.713	1599.15
498.082	1634.63
498.452	1650
498.821	1650.9
499.19	1614.97
499.559	1642.54
499.928	1684.8
500.298	1709.66
500.667	1696.55
501.036	1700.85
501.405	1739.94
501.774	1719.38
502.143	1707.85
502.512	1732.48
502.88	1760.28
503.249	1758.24
503.618	1799.37
503.987	1772.26
504.356	1774.29
504.724	1795.76
505.093	1791.24
505.462	1838.24
505.83	1829.43
506.199	1858.13
506.567	1883.44
506.936	1847.06
507.304	1872.82
507.672	1899.48
508.041	1884.34
508.409	1940.16
508.777	1926.15
509.145	1951.91
509.514	1917.34
509.882	1964.12
510.25	1968.63
510.618	1950.56
510.986	1987.62
511.354	1981.74
511.722	2017.67
512.09	2014.74
512.458	2039.59
512.826	2045.69
513.193	2069.2
513.561	2051.8
513.929	2057.22
514.297	2105.81
514.664	2097.22
515.032	2104
515.4	2130.44
515.767	2127.73
516.135	2152.13
516.502	2137.9
516.869	2195.3
517.237	2198.69
517.604	2178.8
517.972	2223.32
518.339	2232.81
518.706	2234.39
519.073	2219.25
519.44	2258.12
519.808	2265.58
520.175	2306.48
520.542	2295.18
520.909	2333.6
521.276	2322.07
521.643	2332.24
522.009	2368.62
522.376	2387.83
522.743	2399.81
523.11	2383.99
523.477	2433.71
523.843	2426.93
524.21	2458.57
524.577	2458.57
524.943	2467.6
525.31	2499.02
525.676	2522.29
526.043	2518.9
526.409	2536.76
526.776	2574.49
527.142	2574.04
527.508	2572.23
527.874	2610.65
528.241	2640.48
528.607	2627.37
528.973	2657.43
529.339	2653.81
529.705	2666.7
530.071	2668.73
530.437	2657.43
530.803	2711.21
531.169	2701.04
531.535	2713.93
531.901	2713.25
532.267	2741.72
532.632	2786.92
532.998	2754.83
533.364	2783.53
533.73	2800.93
534.095	2808.39
534.461	2840.02
534.826	2847.26
535.192	2847.03
535.557	2881.61
535.923	2826.69
536.288	2874.6
536.653	2849.74
537.019	2842.74
537.384	2863.53
537.749	2915.73
538.114	2900.36
538.479	2887.25
538.845	2916.41
539.21	2911.89
539.575	2928.38
539.94	2943.98
540.305	2949.17
540.67	2960.25
541.034	2983.98
541.399	2980.59
541.764	3008.83
542.129	3032.56
542.494	3034.6
542.858	3057.42
543.223	3050.64
543.587	3102.39
543.952	3038.44
544.316	3068.04
544.681	3088.15
545.045	3090.87
545.41	3062.39
545.774	3110.98
546.138	3095.38
546.503	3110.75
546.867	3113.01
547.231	3180.35
547.595	3147.59
547.959	3164.76
548.324	3189.85
548.688	3160.92
549.052	3185.78
549.416	3192.56
549.779	3208.38
550.143	3210.18
550.507	3229.62
550.871	3227.36
551.235	3256.51
551.599	3240.69
551.962	3254.7
552.326	3228.71
552.689	3298.32
553.053	3317.07
553.417	3295.61
553.78	3335.38
554.143	3330.63
554.507	3313.46
554.87	3338.99
555.234	3377.64
555.597	3353.46
555.96	3383.74
556.323	3407.01
556.686	3410.86
557.05	3466.45
557.413	3454.47
557.776	3435.49
558.139	3427.81
558.502	3481.14
558.865	3482.04
559.228	3499.44
559.59	3517.07
559.953	3507.58
560.316	3588.48
560.679	3583.96
561.041	3606.33
561.404	3585.99
561.767	3617.63
562.129	3632.55
562.492	3657.63
562.854	3654.24
563.217	3644.3
563.579	3665.31
563.941	3667.35
564.304	3708.02
564.666	3688.14
565.028	3722.94
565.39	3706.67
565.753	3765.65
566.115	3771.98
566.477	3790.73
566.839	3788.93
567.201	3826.21
567.563	3810.85
567.925	3822.15
568.287	3860.79
568.648	3858.98
569.01	3880.45
569.372	3882.71
569.734	3927.45
570.095	3919.09
570.457	3904.85
570.819	3934.01
571.18	3967.9
571.542	3969.26
571.903	3971.52
572.265	3988.69
572.626	3980.79
572.987	4026.21
573.349	4000.45
573.71	4003.84
574.071	3993.89
574.432	4039.31
574.794	4040.44
575.155	4052.42
575.516	4039.54
575.877	4078.41
576.238	4110.05
576.599	4087.45
576.96	4100.78
577.32	4081.57
577.681	4106.43
578.042	4111.86
578.403	4139.65
578.763	4112.76
579.124	4133.32
579.485	4143.49
579.845	4134.23
580.206	4167.67
580.566	4125.41
580.927	4179.88
581.287	4153.21
581.648	4183.49
582.008	4203.15
582.368	4134.68
582.728	4189.37
583.089	4166.54
583.449	4165.64
583.809	4161.8
584.169	4227.11
584.529	4143.27
584.889	4178.75
585.249	4169.93
585.609	4174.9
585.969	4170.61
586.329	4195.47
586.688	4160.89
587.048	4174.68
587.408	4194.56
587.768	4139.88
588.127	4156.37
588.487	4176.26
588.846	4186.66
589.206	4197.5
589.565	4171.51
589.925	4234.34
590.284	4187.56
590.643	4202.02
591.003	4161.35
591.362	4185.98
591.721	4181.23
592.08	4202.93
592.44	4208.12
592.799	4141.68
593.158	4142.14
593.517	4175.81
593.876	4165.41
594.235	4194.11
594.593	4189.37
594.952	4216.49
595.311	4179.88
595.67	4180.55
596.029	4241.57
596.387	4224.85
596.746	4155.7
597.104	4229.59
597.463	4212.19
597.822	4158.41
598.18	4159.09
598.538	4176.03
598.897	4178.29
599.255	4242.93
599.613	4208.8
599.972	4150.05
600.33	4192.53
600.688	4196.37
601.046	4149.37
601.404	4234.34
601.762	4221.68
602.12	4214.68
602.478	4241.8
602.836	4224.62
603.194	4197.28
603.552	4188.69
603.91	4219.42
604.268	4260.1
604.625	4182.59
604.983	4212.19
605.341	4156.37
605.698	4211.51
606.056	4234.56
606.413	4220.1
606.771	4202.93
607.128	4241.12
607.485	4211.74
607.843	4247.9
608.2	4228.01
608.557	4251.96
608.914	4243.38
609.272	4253.32
609.629	4232.3
609.986	4270.04
610.343	4182.81
610.7	4265.52
611.057	4249.25
611.414	4253.77
611.771	4275.47
612.127	4269.37
612.484	4283.15
612.841	4308.69
613.198	4283.6
613.554	4249.48
613.911	4244.73
614.267	4215.58
614.624	4292.42
614.98	4270.5
615.337	4264.17
615.693	4247.44
616.05	4283.83
616.406	4240.44
616.762	4302.36
617.118	4298.74
617.475	4249.7
617.831	4228.69
618.187	4264.39
618.543	4278.18
618.899	4299.65
619.255	4325.41
619.611	4310.49
619.967	4284.51
620.323	4298.29
620.678	4276.37
621.034	4259.65
621.39	4228.01
621.746	4261.46
622.101	4277.27
622.457	4261.23
622.812	4267.11
623.168	4324.28
623.523	4284.96
623.879	4296.26
624.234	4249.25
624.589	4204.96
624.945	4266.2
625.3	4260.55
625.655	4240.44
626.01	4232.76
626.365	4206.99
626.72	4218.75
627.075	4236.37
627.43	4201.34
627.785	4204.96
628.14	4249.93
628.495	4220.33
628.85	4211.06
629.205	4236.6
629.559	4232.3
629.914	4232.76
630.269	4193.21
630.623	4203.6
630.978	4172.19
631.332	4174.68
631.687	4179.2
632.041	4151.4
632.396	4173.55
632.75	4170.16
633.104	4157.28
633.459	4160.67
633.813	4096.26
634.167	4161.12
634.521	4113.89
634.875	4131.06
635.229	4138.07
635.583	4092.87
635.937	4057.39
636.291	4054.23
636.645	4051.74
636.999	4085.19
637.352	4070.27
637.706	4049.71
638.06	4058.3
638.413	4078.86
638.767	4024.4
639.121	4048.35
639.474	3987.79
639.828	4033.44
640.181	4013.33
640.534	3974.23
640.888	3991.86
641.241	3997.51
641.594	4016.49
641.947	4034.57
642.301	4004.29
642.654	3990.05
643.007	3955.7
643.36	3943.72
643.713	3951.18
644.066	3955.48
644.419	3953.89
644.771	3919.77
645.124	3857.4
645.477	3830.28
645.83	3806.78
646.182	3844.07
646.535	3863.5
646.888	3883.39
647.24	3840.68
647.593	3830.51
647.945	3784.18
648.298	3814.24
648.65	3771.3
649.002	3777.63
649.355	3790.06
649.707	3737.63
650.059	3744.63
650.411	3781.02
650.763	3823.5
651.115	3813.33
651.467	3827.34
651.819	3826.21
652.171	3814.91
652.523	3846.1
652.875	3797.51
653.227	3805.87
653.578	3797.97
653.93	3816.27
654.282	3802.26
654.633	3786.44
654.985	3757.97
655.337	3782.15
655.688	3754.8
656.039	3811.75
656.391	3724.75
656.742	3791.41
657.094	3724.97
657.445	3757.06
657.796	3771.3
658.147	3735.14
658.498	3727.91
658.849	3726.55
659.2	3734.92
659.551	3717.97
659.902	3693.34
660.253	3706.89
660.604	3731.3
660.955	3704.41
661.306	3683.39
661.656	3679.32
662.007	3682.71
662.358	3697.85
662.708	3682.26
663.059	3687.46
663.409	3665.54
663.76	3665.09
664.11	3653.79
664.461	3681.81
664.811	3652.43
665.161	3669.38
665.511	3652.66
665.862	3601.59
666.212	3631.87
666.562	3621.7
666.912	3674.35
667.262	3652.43
667.612	3633.22
667.962	3669.61
668.312	3645.43
668.662	3651.3
669.011	3664.64
669.361	3627.57
669.711	3623.05
670.06	3614.02
670.41	3612.89
670.76	3613.34
671.109	3623.28
671.459	3619.89
671.808	3582.6
672.157	3612.66
672.507	3593.68
672.856	3602.04
673.205	3553.68
673.554	3597.07
673.904	3585.09
674.253	3609.27
674.602	3557.07
674.951	3517.07
675.3	3494.92
675.649	3616.05
675.998	3549.16
676.346	3559.78
676.695	3556.16
677.044	3546.9
677.393	3534.7
677.741	3566.56
678.09	3510.29
678.438	3557.75
678.787	3541.47
679.135	3518.42
679.484	3493.34
679.832	3513
680.181	3468.48
680.529	3501.93
680.877	3502.61
681.225	3489.5
681.573	3484.98
681.922	3470.29
682.27	3438.88
682.618	3433.45
682.966	3435.49
683.314	3445.66
683.661	3451.31
684.009	3400.46
684.357	3451.99
684.705	3437.3
685.053	3438.88
685.4	3432.78
685.748	3387.13
686.095	3413.34
686.443	3394.59
686.79	3392.1
687.138	3397.75
687.485	3369.95
687.832	3334.47
688.18	3357.75
688.527	3358.2
688.874	3379.22
689.221	3352.1
689.568	3343.51
689.915	3306.68
690.262	3307.58
690.609	3280.46
690.956	3282.27
691.303	3295.15
691.65	3297.41
691.997	3297.19
692.344	3283.63
692.69	3257.87
693.037	3291.09
693.383	3232.1
693.73	3213.35
694.077	3221.03
694.423	3240.24
694.769	3201.6
695.116	3186.23
695.462	3173.12
695.808	3167.7
696.155	3186.91
696.501	3170.64
696.847	3197.53
697.193	3115.27
697.539	3180.81
697.885	3133.35
698.231	3121.15
698.577	3126.8
698.923	3101.71
699.269	3092.22
699.614	3109.62
699.96	3075.5
700.306	3085.89
700.651	3099
700.997	3046.35
701.342	3061.49
701.688	3029.17
702.033	3038.21
702.379	3028.27
702.724	3028.72
703.069	3023.52
703.415	3025.1
703.76	2974.26
704.105	3003.18
704.45	3008.38
704.795	2958.89
705.14	2950.3
705.485	2975.84
705.83	2981.72
706.175	2973.35
706.52	2932.45
706.865	2949.63
707.209	2955.95
707.554	2907.14
707.899	2916.63
708.243	2943.07
708.588	2926.8
708.932	2883.19
709.277	2893.36
709.621	2899.01
709.966	2861.72
710.31	2833.02
710.654	2833.24
710.998	2839.8
711.342	2849.97
711.687	2822.62
712.031	2796.41
712.375	2836.63
712.719	2839.35
713.063	2825.79
713.407	2837.31
713.75	2830.76
714.094	2797.77
714.438	2778.78
714.782	2777.2
715.125	2796.41
715.469	2824.88
715.812	2776.3
716.156	2730.65
716.499	2762.06
716.843	2745.79
717.186	2750.08
717.53	2773.59
717.873	2742.85
718.216	2760.03
718.559	2713.02
718.902	2727.94
719.246	2722.51
719.589	2730.87
719.932	2719.8
720.275	2718.67
720.617	2703.76
720.96	2702.17
721.303	2719.12
721.646	2689.29
721.989	2716.19
722.331	2658.33
722.674	2663.08
723.016	2697.88
723.359	2679.8
723.701	2692.68
724.044	2648.62
724.386	2594.61
724.729	2661.27
725.071	2629.41
725.413	2629.86
725.755	2637.32
726.097	2605.68
726.439	2645.45
726.782	2619.24
727.124	2592.8
727.465	2589.41
727.807	2607.26
728.149	2626.47
728.491	2577.21
728.833	2572.69
729.175	2615.17
729.516	2591.67
729.858	2571.1
730.199	2603.42
730.541	2607.26
730.882	2624.89
731.224	2549.86
731.565	2542.86
731.906	2581.5
732.248	2581.5
732.589	2520.94
732.93	2589.86
733.271	2546.02
733.612	2581.05
733.953	2562.52
734.294	2535.17
734.635	2562.97
734.976	2511.67
735.317	2528.62
735.658	2489.3
735.999	2518.45
736.339	2533.14
736.68	2526.59
737.021	2538.34
737.361	2495.17
737.702	2549.18
738.042	2492.46
738.383	2495.85
738.723	2511.9
739.063	2515.96
739.404	2513.48
739.744	2481.39
740.084	2459.47
740.424	2456.76
740.764	2525.46
741.104	2455.63
741.444	2463.08
741.784	2443.88
742.124	2465.57
742.464	2454.05
742.804	2426.48
743.143	2439.36
743.483	2438
743.823	2458.79
744.162	2408.85
744.502	2447.04
744.841	2414.5
745.181	2457.44
745.52	2426.93
745.86	2417.44
746.199	2439.58
746.538	2419.47
746.877	2447.94
747.216	2430.09
747.556	2414.05
747.895	2403.43
748.234	2402.52
748.573	2398.91
748.911	2391.9
749.25	2378.57
749.589	2369.3
749.928	2389.64
750.267	2344.67
750.605	2375.18
750.944	2340.6
751.283	2381.73
751.621	2350.09
751.96	2334.5
752.298	2344.9
752.636	2375.4
752.975	2337.44
753.313	2329.76
753.651	2318.91
753.989	2312.58
754.327	2313.48
754.666	2315.52
755.004	2315.52
755.342	2282.75
755.679	2290.21
756.017	2318
756.355	2289.53
756.693	2292.92
757.031	2335.63
757.368	2261.28
757.706	2289.76
758.044	2268.06
758.381	2267.84
758.719	2222.87
759.056	2250.21
759.394	2250.66
759.731	2224.45
760.068	2231.9
760.405	2248.4
760.743	2200.94
761.08	2223.32
761.417	2223.77
761.754	2216.09
762.091	2191.91
762.428	2196.43
762.765	2173.15
763.102	2198.46
763.438	2185.13
763.775	2147.39
764.112	2147.84
764.449	2123.88
764.785	2142.64
765.122	2130.66
765.458	2128.63
765.795	2150.78
766.131	2131.57
766.467	2125.01
766.804	2127.5
767.14	2109.65
767.476	2076.65
767.812	2096.31
768.148	2098.12
768.485	2089.99
768.821	2079.82
769.157	2103.77
769.492	2050.89
769.828	2043.21
770.164	2070.1
770.5	2046.82
770.836	2062.42
771.171	2033.04
771.507	2019.48
771.842	2021.51
772.178	2030.1
772.513	2005.92
772.849	2026.49
773.184	2037.11
773.519	2024.9
773.855	1981.97
774.19	1965.92
774.525	2000.27
774.86	1978.8
775.195	1991.01
775.53	1963.66
775.865	1976.77
776.2	1968.63
776.535	1921.63
776.87	1971.35
777.205	1905.59
777.539	1940.16
777.874	1941.29
778.209	1920.73
778.543	1914.17
778.878	1905.36
779.212	1911.24
779.547	1916.21
779.881	1885.25
780.215	1878.47
780.55	1875.98
780.884	1863.55
781.218	1859.26
781.552	1875.53
781.886	1888.64
782.22	1855.42
782.554	1826.27
782.888	1835.08
783.222	1817.23
783.556	1838.47
783.889	1818.36
784.223	1819.71
784.557	1802.31
784.89	1816.1
785.224	1777
785.557	1772.93
785.891	1777
786.224	1766.61
786.558	1774.06
786.891	1761.63
787.224	1783.78
787.557	1771.13
787.891	1751.47
788.224	1729.77
788.557	1762.54
788.89	1704.01
789.223	1743.1
789.556	1734.06
789.888	1711.69
790.221	1701.07
790.554	1692.03
790.887	1711.24
791.219	1711.69
791.552	1701.98
791.884	1693.61
792.217	1694.07
792.549	1701.52
792.882	1690.9
793.214	1664.91
793.546	1671.92
793.879	1656.33
794.211	1642.54
794.543	1657.46
794.875	1679.83
795.207	1666.72
795.539	1654.52
795.871	1640.73
796.203	1622.66
796.535	1638.7
796.867	1628.08
797.198	1634.41
797.53	1619.04
797.862	1627.17
798.193	1646.16
798.525	1624.24
798.856	1647.06
799.188	1605.93
799.519	1601.41
799.85	1569.78
800.182	1605.48
800.513	1595.76
800.844	1581.75
801.175	1581.75
801.506	1594.86
801.837	1584.69
802.168	1588.31
802.499	1561.41
802.83	1537.46
803.161	1541.98
803.491	1573.16
803.822	1547.63
804.153	1545.82
804.483	1535.43
804.814	1524.8
805.145	1539.49
805.475	1550.34
805.805	1531.13
806.136	1553.96
806.466	1542.21
806.796	1521.19
807.126	1520.06
807.457	1506.05
807.787	1518.48
808.117	1512.6
808.447	1500.4
808.777	1498.82
809.107	1501.75
809.436	1496.78
809.766	1488.42
810.096	1459.72
810.426	1451.13
810.755	1497.46
811.085	1488.2
811.414	1471.92
811.744	1463.34
812.073	1447.52
812.403	1459.5
812.732	1460.85
813.061	1421.53
813.39	1435.99
813.719	1418.82
814.049	1479.38
814.378	1451.36
814.707	1435.09
815.036	1416.11
815.365	1460.63
815.693	1427.63
816.022	1436.67
816.351	1434.19
816.68	1427.41
817.008	1400.74
817.337	1410.68
817.665	1398.93
817.994	1390.8
818.322	1401.19
818.651	1403.45
818.979	1414.07
819.307	1406.62
819.636	1415.43
819.964	1398.71
820.292	1408.65
820.62	1385.37
820.948	1370.01
821.276	1415.65
821.604	1382.66
821.932	1388.54
822.259	1370.46
822.587	1394.19
822.915	1377.01
823.243	1399.16
823.57	1374.75
823.898	1384.7
824.225	1410.01
824.553	1390.8
824.88	1356.45
825.207	1368.65
825.535	1388.08
825.862	1353.74
826.189	1377.01
826.516	1393.96
826.843	1369.33
827.17	1409.33
827.497	1375.2
827.824	1381.53
828.151	1372.49
828.478	1401.42
828.805	1385.83
829.131	1349.67
829.458	1386.28
829.785	1354.87
830.111	1368.88
830.438	1370.23
830.764	1352.83
831.09	1355.09
831.417	1343.79
831.743	1381.53
832.069	1373.4
832.395	1387.41
832.722	1347.41
833.048	1365.49
833.374	1389.67
833.7	1360.52
834.026	1382.89
834.351	1362.55
834.677	1371.14
835.003	1370.01
835.329	1376.56
835.654	1368.2
835.98	1379.72
836.306	1354.41
836.631	1370.68
836.956	1353.96
837.282	1332.72
837.607	1364.81
837.932	1357.13
838.258	1354.41
838.583	1320.97
838.908	1319.61
839.233	1366.16
839.558	1319.61
839.883	1340.4
840.208	1329.56
840.533	1346.05
840.858	1327.07
841.182	1329.1
841.507	1318.93
841.832	1333.62
842.156	1314.19
842.481	1325.26
842.805	1319.61
843.13	1312.38
843.454	1303.12
843.778	1321.87
844.103	1303.57
844.427	1300.86
844.751	1309.89
845.075	1311.25
845.399	1292.27
845.723	1291.36
846.047	1320.29
846.371	1323.91
846.695	1310.8
847.019	1280.52
847.343	1256.56
847.666	1263.12
847.99	1252.72
848.313	1265.6
848.637	1271.03
848.96	1259.5
849.284	1263.34
849.607	1246.62
849.931	1221.76
850.254	1231.7
850.577	1241.65
850.9	1230.35
851.223	1230.12
851.546	1231.25
851.869	1242.78
852.192	1218.6
852.515	1192.84
852.838	1227.64
853.161	1183.8
853.483	1224.02
853.806	1187.41
854.129	1205.04
854.451	1195.55
854.774	1191.25
855.096	1198.49
855.419	1203.23
855.741	1174.53
856.063	1182.44
856.385	1194.64
856.708	1191.48
857.03	1178.6
857.352	1164.81
857.674	1179.73
857.996	1165.27
858.318	1149.67
858.64	1164.36
858.961	1180.41
859.283	1146.96
859.605	1126.85
859.926	1156.9
860.248	1167.53
860.57	1153.06
860.891	1136.79
861.212	1130.01
861.534	1139.5
861.855	1121.65
862.176	1159.16
862.498	1160.75
862.819	1146.28
863.14	1149.22
863.461	1137.7
863.782	1131.59
864.103	1130.24
864.424	1131.37
864.745	1123.69
865.065	1130.69
865.386	1124.82
865.707	1140.86
866.027	1124.82
866.348	1106.51
866.668	1118.26
866.989	1106.06
867.309	1125.27
867.63	1093.4
867.95	1118.04
868.27	1091.14
868.59	1097.92
868.91	1085.04
869.23	1089.11
869.55	1092.05
869.87	1108.09
870.19	1087.08
870.51	1107.41
870.83	1111.26
871.15	1098.38
871.469	1091.14
871.789	1110.35
872.109	1088.88
872.428	1106.74
872.748	1111.03
873.067	1106.51
873.386	1074.19
873.706	1089.34
874.025	1071.94
874.344	1075.1
874.663	1086.17
874.982	1066.51
875.301	1056.57
875.62	1088.43
875.939	1077.58
876.258	1077.36
876.577	1064.48
876.896	1079.39
877.214	1057.92
877.533	1065.38
877.852	1055.89
878.17	1049.56
878.489	1045.5
878.807	1066.29
879.125	1056.79
879.444	1054.31
879.762	1041.65
880.08	1078.04
880.398	1047.75
880.716	1059.51
881.034	1034.87
881.352	1061.31
881.67	1015.21
881.988	1057.25
882.306	1041.43
882.624	1038.72
882.941	1039.39
883.259	1036.46
883.577	1040.98
883.894	1052.27
884.212	1057.25
884.529	1047.3
884.846	1020.64
885.164	1025.38
885.481	1033.74
885.798	1032.84
886.115	1021.99
886.432	1024.03
886.75	1013.63
887.067	1017.02
887.383	1027.64
887.7	1010.47
888.017	1005.04
888.334	1017.02
888.651	987.19
888.967	1026.29
889.284	1010.69
889.6	1005.72
889.917	999.62
890.233	994.42
890.55	1007.08
890.866	1022.22
891.182	1012.95
891.498	997.59
891.815	984.03
892.131	987.87
892.447	967.76
892.763	1004.37
893.079	1019.51
893.395	996
893.71	986.06
894.026	975.89
894.342	980.86
894.657	981.32
894.973	979.28
895.289	965.27
895.604	960.3
895.92	983.12
896.235	973.63
896.55	951.94
896.865	932.05
897.181	958.72
897.496	986.74
897.811	956.91
898.126	936.57
898.441	923.01
898.756	916.46
899.071	929.57
899.386	949.68
899.7	930.7
900.015	917.14
900.33	925.5
900.644	909.23
900.959	917.81
901.273	905.61
901.588	959.85
901.902	922.79
902.216	902
902.531	922.79
902.845	917.36
903.159	893.41
903.473	919.17
903.787	920.75
904.101	917.14
904.415	903.58
904.729	910.36
905.042	900.41
905.356	915.78
905.67	882.11
905.984	891.6
906.297	899.96
906.611	913.3
906.924	873.97
907.237	851.83
907.551	881.66
907.864	866.29
908.177	891.37
908.491	879.62
908.804	869.68
909.117	848.44
909.43	839.4
909.743	872.84
910.056	880.08
910.368	855.67
910.681	837.82
910.994	859.51
911.307	840.98
911.619	864.26
911.932	866.52
912.244	836.69
912.557	844.14
912.869	826.07
913.181	812.28
913.494	838.95
913.806	847.99
914.118	831.94
914.43	838.04
914.742	836.24
915.054	835.11
915.366	815.67
915.678	822.45
915.99	836.69
916.302	822.68
916.613	799.17
916.925	817.25
917.236	813.64
917.548	831.49
917.859	811.15
918.171	791.72
918.482	807.54
918.794	805.73
919.105	792.62
919.416	807.54
919.727	785.84
920.038	800.98
920.349	794.88
920.66	789.46
920.971	783.58
921.282	751.72
921.593	781.55
921.903	785.16
922.214	796.69
922.525	789.91
922.835	762.79
923.146	778.16
923.456	772.28
923.767	775.22
924.077	755.79
924.387	740.19
924.697	776.8
925.008	756.92
925.318	764.82
925.628	757.14
925.938	743.13
926.248	758.5
926.558	733.19
926.867	737.48
927.177	737.71
927.487	724.6
927.796	726.18
928.106	729.35
928.416	746.97
928.725	724.37
929.034	732.06
929.344	721.66
929.653	736.12
929.962	719.18
930.271	720.08
930.581	715.79
930.89	724.37
931.199	716.01
931.508	731.61
931.817	720.31
932.125	711.27
932.434	706.75
932.743	733.41
933.051	711.94
933.36	684.37
933.669	706.29
933.977	703.81
934.286	717.37
934.594	697.03
934.902	698.16
935.21	703.13
935.519	703.81
935.827	696.58
936.135	710.14
936.443	691.61
936.751	708.55
937.059	666.52
937.367	675.34
937.674	691.83
937.982	679.86
938.29	700.65
938.597	676.69
938.905	663.36
939.213	690.7
939.52	687.54
939.827	655.67
940.135	640.31
940.442	672.17
940.749	680.76
941.056	653.64
941.363	662.45
941.67	662.91
941.977	652.96
942.284	655.9
942.591	660.19
942.898	641.66
943.205	671.72
943.511	662.91
943.818	651.16
944.125	644.15
944.431	653.19
944.738	640.31
945.044	636.92
945.35	671.04
945.657	633.98
945.963	635.11
946.269	655.45
946.575	655.9
946.881	631.27
947.187	631.04
947.493	623.59
947.799	612.74
948.105	625.85
948.41	622.68
948.716	634.88
949.022	615.9
949.327	605.28
949.633	632.4
949.938	608.9
950.244	634.66
950.549	626.07
950.854	607.54
951.16	599.63
951.465	631.49
951.77	598.95
952.075	607.31
952.38	598.95
952.685	593.53
952.99	611.38
953.294	611.83
953.599	605.05
953.904	606.18
954.209	604.15
954.513	601.66
954.818	600.99
955.122	569.58
955.426	584.49
955.731	577.26
956.035	621.33
956.339	583.81
956.643	577.48
956.948	581.78
957.252	592.63
957.556	595.79
957.86	590.14
958.163	589.91
958.467	589.46
958.771	553.3
959.075	597.15
959.378	575.45
959.682	581.78
959.985	574.77
960.289	565.73
960.592	581.1
960.896	571.84
961.199	585.17
961.502	571.61
961.805	547.2
962.108	552.4
962.411	573.42
962.714	565.73
963.017	568.45
963.32	553.98
963.623	561.67
963.926	552.63
964.228	550.82
964.531	558.5
964.833	568.22
965.136	521.67
965.438	540.88
965.741	538.84
966.043	537.03
966.345	529.8
966.648	547.66
966.95	526.41
967.252	537.71
967.554	540.88
967.856	547.88
968.158	526.19
968.46	545.85
968.761	528.22
969.063	560.54
969.365	540.65
969.666	535
969.968	517.15
970.269	541.1
970.571	526.64
970.872	514.89
971.174	530.71
971.475	533.19
971.776	509.24
972.077	514.89
972.378	513.08
972.679	542.46
972.98	520.09
973.281	500.2
973.582	510.14
973.883	516.92
974.183	532.51
974.484	539.52
974.785	526.41
975.085	523.02
975.386	533.64
975.686	525.73
975.986	519.63
976.287	529.35
976.587	518.5
976.887	536.58
977.187	496.13
977.487	514.89
977.787	499.97
978.087	497.94
978.387	501.55
978.687	518.5
978.987	517.83
979.286	495.23
979.586	490.26
979.885	504.27
980.185	506.07
980.484	488.22
980.784	494.32
981.083	489.13
981.382	498.16
981.682	504.04
981.981	483.25
982.28	508.33
982.579	494.32
982.878	476.7
983.177	498.16
983.475	483.48
983.774	490.26
984.073	511.27
984.372	498.62
984.67	475.57
984.969	490.71
985.267	481.44
985.566	490.03
985.864	486.41
986.162	485.28
986.461	480.09
986.759	485.06
987.057	495.23
987.355	461.1
987.653	491.16
987.951	485.96
988.249	471.72
988.547	495
988.844	465.85
989.142	490.26
989.44	511.5
989.737	477.6
990.035	480.99
990.332	486.41
990.63	474.66
990.927	469.92
991.224	474.89
991.521	459.07
991.819	480.54
992.116	465.17
992.413	485.28
992.71	483.93
993.006	473.76
993.303	461.1
993.6	447.09
993.897	470.14
994.193	450.93
994.49	450.03
994.787	463.59
995.083	467.21
995.379	460.43
995.676	450.26
995.972	453.65
996.268	457.94
996.565	441.9
996.861	466.75
997.157	454.55
997.453	447.77
997.749	439.18
998.044	462.23
998.34	458.17
998.636	460.43
998.932	436.7
999.227	449.13
999.523	430.37
999.818	450.93
1000.114	436.02
1000.409	461.56
1000.704	426.98
1001	426.98
1001.295	441.9
1001.59	430.82
1001.885	427.66
1002.18	441.44
1002.475	437.6
1002.77	428.79
1003.065	438.73
1003.359	440.31
1003.654	432.4
1003.949	433.53
1004.243	456.13
1004.538	419.07
1004.832	426.3
1005.127	419.97
1005.421	430.6
1005.715	420.43
1006.009	431.05
1006.304	445.96
1006.598	412.74
1006.892	445.74
1007.186	438.51
1007.48	436.25
1007.773	431.05
1008.067	422.01
1008.361	427.88
1008.655	425.4
1008.948	420.43
1009.242	442.35
1009.535	415
1009.829	414.1
1010.122	433.53
1010.415	428.79
1010.708	422.23
1011.001	392.63
1011.295	415.46
1011.588	415.46
1011.881	413.87
1012.173	424.95
1012.466	406.19
1012.759	410.94
1013.052	412.74
1013.344	403.48
1013.637	410.71
1013.93	378.39
1014.222	393.99
1014.514	408.45
1014.807	410.26
1015.099	417.04
1015.391	401.22
1015.683	404.61
1015.976	403.7
1016.268	402.35
1016.56	392.63
1016.851	396.25
1017.143	409.13
1017.435	384.95
1017.727	393.53
1018.018	365.29
1018.31	388.34
1018.602	383.82
1018.893	377.72
1019.185	398.51
1019.476	388.79
1019.767	406.87
1020.058	385.4
1020.35	410.48
1020.641	384.72
1020.932	394.66
1021.223	384.95
1021.514	389.69
1021.804	391.95
1022.095	394.89
1022.386	377.26
1022.677	398.51
1022.967	385.85
1023.258	389.92
1023.548	390.6
1023.839	395.12
1024.129	400.09
1024.419	372.52
1024.709	390.37
1025	391.73
1025.29	374.1
1025.58	378.17
1025.87	394.21
1026.16	374.1
1026.449	375.23
1026.739	379.75
1027.029	334.55
1027.319	368.22
1027.608	372.74
1027.898	378.39
1028.187	373.87
1028.477	385.63
1028.766	360.54
1029.055	376.81
1029.344	401.9
1029.634	382.91
1029.923	369.58
1030.212	373.65
1030.501	387.66
1030.79	355.8
1031.078	359.19
1031.367	357.83
1031.656	373.65
1031.945	376.13
1032.233	381.33
1032.522	366.19
1032.81	380.43
1033.099	366.19
1033.387	360.99
1033.675	357.83
1033.963	372.29
1034.251	358.51
1034.54	361.9
1034.828	379.52
1035.116	382.24
1035.403	354.21
1035.691	364.84
1035.979	356.47
1036.267	346.3
1036.554	335.68
1036.842	372.74
1037.129	362.35
1037.417	372.97
1037.704	373.42
1037.992	356.93
1038.279	352.41
1038.566	376.13
1038.853	376.13
1039.14	376.13
