Data from foam_black_FLMS001491_00097.txt Node
Date: Wed Feb 08 10:45:05 GMT 2017
User: dcchb
Spectrometer: FLMS00149
Trigger mode: 0
Integration Time (sec): 2.000000E-2
Scans to average: 10
Electric dark correction enabled: true
Nonlinearity correction enabled: false
Boxcar width: 0
XAxis mode: Wavelengths
Number of Pixels in Spectrum: 2048
>>>>>Begin Spectral Data<<<<<
341.393	-3.04
341.776	-3.04
342.16	-3.04
342.543	-55.92
342.927	-45.52
343.31	-74
343.693	-70.83
344.077	-53.66
344.46	-46.88
344.843	-47.78
345.226	-62.47
345.61	-37.39
345.993	-4.62
346.376	0.35
346.759	16.4
347.142	24.31
347.525	41.26
347.908	51.2
348.291	89.62
348.674	87.13
349.057	87.36
349.44	137.75
349.823	149.95
350.206	166.68
350.588	182.95
350.971	177.75
351.354	192.21
351.737	216.17
352.119	250.52
352.502	243.28
352.884	246.45
353.267	259.56
353.65	270.63
354.032	271.76
354.414	260.69
354.797	276.28
355.179	288.03
355.562	304.75
355.944	294.13
356.326	287.13
356.709	290.06
357.091	295.94
357.473	322.38
357.855	303.62
358.238	312.44
358.62	326.22
359.002	321.93
359.384	313.11
359.766	277.86
360.148	300.91
360.53	302.04
360.912	308.37
361.294	283.51
361.676	313.34
362.057	271.08
362.439	302.49
362.821	291.87
363.203	303.62
363.584	290.74
363.966	305.43
364.348	306.33
364.729	283.06
365.111	298.65
365.493	292.55
365.874	298.42
366.256	279.89
366.637	284.64
367.019	292.77
367.4	294.58
367.781	282.38
368.163	287.58
368.544	296.39
368.925	296.84
369.306	280.12
369.688	274.7
370.069	288.03
370.45	287.8
370.831	286.22
371.212	272.44
371.593	265.88
371.974	274.47
372.355	289.84
372.736	296.62
373.117	270.4
373.498	302.94
373.879	287.35
374.26	274.47
374.641	314.92
375.021	292.32
375.402	301.36
375.783	303.62
376.163	292.55
376.544	291.42
376.925	309.27
377.305	303.85
377.686	293.23
378.066	294.36
378.447	299.55
378.827	295.71
379.208	285.54
379.588	273.79
379.968	283.28
380.349	309.72
380.729	302.72
381.109	308.37
381.489	297.52
381.87	297.07
382.25	301.36
382.63	320.12
383.01	295.94
383.39	281.7
383.77	286.9
384.15	294.81
384.53	304.53
384.91	310.63
385.29	313.57
385.67	305.66
386.049	314.24
386.429	302.49
386.809	314.02
387.189	326.67
387.568	300.91
387.948	309.72
388.328	322.15
388.707	281.02
389.087	314.7
389.466	312.21
389.846	310.63
390.225	292.32
390.605	309.5
390.984	310.63
391.363	332.1
391.743	299.55
392.122	311.76
392.501	288.71
392.881	314.47
393.26	303.17
393.639	304.98
394.018	322.6
394.397	296.16
394.776	314.47
395.155	328.48
395.534	318.99
395.913	324.86
396.292	323.06
396.671	341.81
397.05	326.45
397.429	315.6
397.808	326.45
398.186	319.89
398.565	318.54
398.944	307.46
399.323	324.64
399.701	330.06
400.08	335.03
400.458	306.79
400.837	333.68
401.215	310.63
401.594	303.4
401.972	335.94
402.351	321.93
402.729	327.58
403.107	325.09
403.486	331.87
403.864	335.71
404.242	327.35
404.62	333.23
404.999	352.89
405.377	326.22
405.755	340.68
406.133	339.55
406.511	323.96
406.889	347.91
407.267	344.07
407.645	334.81
408.023	337.52
408.401	355.82
408.779	336.16
409.156	311.08
409.534	356.28
409.912	340.23
410.29	350.85
410.667	334.58
411.045	327.12
411.422	342.27
411.8	336.39
412.178	347.24
412.555	344.98
412.933	333.23
413.31	349.04
413.687	347.01
414.065	329.84
414.442	353.79
414.819	377.07
415.197	368.03
415.574	341.36
415.951	343.17
416.328	373
416.705	384.3
417.082	354.02
417.46	349.72
417.837	352.66
418.214	345.88
418.591	353.56
418.967	369.38
419.344	386.56
419.721	362.6
420.098	354.92
420.475	367.8
420.852	357.18
421.228	368.93
421.605	371.19
421.982	361.93
422.358	357.41
422.735	357.41
423.111	349.72
423.488	375.03
423.864	399.89
424.241	367.58
424.617	389.27
424.994	377.52
425.37	361.7
425.746	379.1
426.123	381.59
426.499	375.71
426.875	396.27
427.251	405.54
427.627	389.72
428.003	381.59
428.379	375.71
428.756	373.68
429.132	395.6
429.507	406.44
429.883	390.4
430.259	391.3
430.635	403.96
431.011	409.83
431.387	395.6
431.763	388.82
432.138	420
432.514	403.05
432.89	403.51
433.265	427.46
433.641	409.16
434.016	385.88
434.392	415.03
434.767	426.33
435.143	425.43
435.518	430.4
435.894	411.42
436.269	428.36
436.644	421.36
437.02	408.03
437.395	427.69
437.77	410.51
438.145	434.01
438.52	413.9
438.895	415.71
439.271	437.18
439.646	428.82
440.021	437.86
440.395	419.78
440.77	438.31
441.145	413
441.52	435.14
441.895	421.58
442.27	446.67
442.645	431.98
443.019	448.93
443.394	437.4
443.769	447.12
444.143	462.94
444.518	443.73
444.892	456.16
445.267	436.95
445.641	430.17
446.016	471.08
446.39	446.44
446.764	450.96
447.139	462.71
447.513	467.91
447.887	463.84
448.262	453.9
448.636	463.17
449.01	435.82
449.384	466.56
449.758	465.65
450.132	471.53
450.506	459.1
450.88	456.16
451.254	464.97
451.628	466.33
452.002	462.71
452.376	478.31
452.75	485.99
453.123	478.31
453.497	461.36
453.871	467.91
454.244	490.51
454.618	483.28
454.992	488.7
455.365	496.61
455.739	489.38
456.112	510.62
456.486	491.64
456.859	484.41
457.232	503.16
457.606	508.14
457.979	498.87
458.352	493.67
458.725	516.5
459.099	504.52
459.472	522.83
459.845	518.08
460.218	493
460.591	525.54
460.964	524.63
461.337	530.51
461.71	542.26
462.083	536.16
462.456	534.8
462.829	528.7
463.201	547.46
463.574	543.62
463.947	541.81
464.32	541.81
464.692	569.15
465.065	585.87
465.438	573.45
465.81	577.06
466.183	596.72
466.555	577.74
466.928	585.2
467.3	575.71
467.672	590.17
468.045	574.35
468.417	568.93
468.789	600.34
469.161	579.77
469.534	603.95
469.906	627.91
470.278	573.45
470.65	623.16
471.022	583.61
471.394	641.47
471.766	624.07
472.138	648.7
472.51	644.4
472.882	630.84
473.253	634.01
473.625	651.86
473.997	654.8
474.369	660
474.74	653.9
475.112	670.39
475.484	647.57
475.855	665.65
476.227	664.06
476.598	694.8
476.97	694.57
477.341	683.05
477.713	704.06
478.084	695.7
478.455	704.74
478.827	738.41
479.198	736.83
479.569	703.61
479.94	763.95
480.311	749.94
480.682	777.73
481.053	772.54
481.424	800.33
481.795	789.94
482.166	782.03
482.537	774.12
482.908	781.8
483.279	803.04
483.65	780.45
484.021	823.61
484.391	817.73
484.762	830.16
485.133	836.72
485.503	842.59
485.874	830.61
486.244	860.44
486.615	885.08
486.985	871.06
487.356	892.31
487.726	899.31
488.097	890.73
488.467	925.3
488.837	925.75
489.207	942.02
489.578	954
489.948	965.53
490.318	972.3
490.688	969.14
491.058	966.88
491.428	984.28
491.798	984.06
492.168	1019.54
492.538	992.42
492.908	1012.53
493.278	1005.75
493.648	1030.16
494.017	1030.61
494.387	1045.3
494.757	1041
495.126	1048.91
495.496	1044.39
495.866	1052.98
496.235	1054.79
496.605	1069.03
496.974	1084.17
497.344	1086.43
497.713	1099.99
498.082	1113.32
498.452	1087.56
498.821	1109.93
499.19	1093.88
499.559	1109.93
499.928	1114.22
500.298	1104.05
500.667	1120.55
501.036	1100.66
501.405	1114.9
501.774	1127.56
502.143	1150.38
502.512	1126.2
502.88	1118.29
503.249	1147.89
503.618	1166.65
503.987	1178.18
504.356	1155.8
504.724	1158.29
505.093	1146.76
505.462	1169.81
505.83	1176.82
506.199	1197.61
506.567	1217.04
506.936	1197.38
507.304	1195.12
507.672	1215.24
508.041	1232.41
508.409	1229.7
508.777	1226.99
509.145	1250.72
509.514	1251.17
509.882	1259.08
510.25	1270.6
510.618	1267.44
510.986	1266.31
511.354	1267.21
511.722	1297.95
512.09	1308.79
512.458	1313.76
512.826	1314.22
513.193	1336.82
513.561	1335.23
513.929	1356.93
514.297	1351.28
514.664	1372.52
515.032	1369.81
515.4	1397.38
515.767	1424.72
516.135	1381.56
516.502	1427.66
516.869	1434.21
517.237	1385.63
517.604	1436.7
517.972	1443.7
518.339	1438.73
518.706	1456.81
519.073	1438.28
519.44	1456.13
519.808	1487.32
520.175	1484.38
520.542	1487.09
520.909	1507.88
521.276	1497.04
521.643	1512.18
522.009	1536.13
522.376	1520.09
522.743	1544.72
523.11	1560.99
523.477	1550.37
523.843	1528.45
524.21	1570.71
524.577	1605.06
524.943	1584.27
525.31	1571.61
525.676	1578.39
526.043	1580.65
526.409	1611.61
526.776	1589.92
527.142	1598.28
527.508	1597.6
527.874	1622.01
528.241	1639.86
528.607	1643.25
528.973	1626.98
529.339	1634.89
529.705	1661.78
530.071	1668.56
530.437	1663.36
530.803	1673.3
531.169	1680.99
531.535	1658.39
531.901	1728.9
532.267	1688.9
532.632	1703.13
532.998	1691.61
533.364	1746.07
533.73	1729.8
534.095	1718.95
534.461	1773.87
534.826	1752.62
535.192	1779.52
535.557	1748.78
535.923	1772.74
536.288	1796.24
536.653	1803.47
537.019	1801.21
537.384	1804.37
537.749	1816.12
538.114	1829.23
538.479	1836.46
538.845	1850.25
539.21	1850.7
539.575	1833.3
539.94	1844.6
540.305	1884.15
540.67	1884.37
541.034	1907.2
541.399	1925.73
541.764	1951.26
542.129	1960.08
542.494	1904.94
542.858	1954.65
543.223	1944.48
543.587	1952.39
543.952	1947.87
544.316	1957.59
544.681	1984.26
545.045	1987.87
545.41	2015.89
545.774	2017.7
546.138	1991.49
546.503	2028.55
546.867	2017.02
547.231	2027.87
547.595	2000.07
547.959	2026.51
548.324	2012.28
548.688	2043.92
549.052	2028.77
549.416	2053.86
549.779	2076
550.143	2063.35
550.507	2085.5
550.871	2070.81
551.235	2083.91
551.599	2094.54
551.962	2087.3
552.326	2076.91
552.689	2104.25
553.053	2066.29
553.417	2099.05
553.78	2104.93
554.143	2099.51
554.507	2120.3
554.87	2121.88
555.234	2146.74
555.597	2126.62
555.96	2117.59
556.323	2137.25
556.686	2122.11
557.05	2146.96
557.413	2156.91
557.776	2162.78
558.139	2144.03
558.502	2150.58
558.865	2147.19
559.228	2137.7
559.59	2184.93
559.953	2157.13
560.316	2211.37
560.679	2215.44
561.041	2220.41
561.404	2217.47
561.767	2215.89
562.129	2235.32
562.492	2227.41
562.854	2233.51
563.217	2263.8
563.579	2262.67
563.941	2290.91
564.304	2298.37
564.666	2285.26
565.028	2304.7
565.39	2329.78
565.753	2335.43
566.115	2349.67
566.477	2380.18
566.839	2370.01
567.201	2386.51
567.563	2410.01
567.925	2426.28
568.287	2435.77
568.648	2461.31
569.01	2453.4
569.372	2509.67
569.734	2471.93
570.095	2496.78
570.457	2487.75
570.819	2545.6
571.18	2532.49
571.542	2550.57
571.903	2527.97
572.265	2541.76
572.626	2611.13
572.987	2545.37
573.349	2587.4
573.71	2605.71
574.071	2648.42
574.432	2609.55
574.794	2661.98
575.155	2663.33
575.516	2625.14
575.877	2668.31
576.238	2657.68
576.599	2700.4
576.96	2645.93
577.32	2709.43
577.681	2677.34
578.042	2701.98
578.403	2662.88
578.763	2711.92
579.124	2713.73
579.485	2710.11
579.845	2715.08
580.206	2681.86
580.566	2712.82
580.927	2727.51
581.287	2715.54
581.648	2735.87
582.008	2698.36
582.368	2687.06
582.728	2681.86
583.089	2741.75
583.449	2663.79
583.809	2687.97
584.169	2711.24
584.529	2674.63
584.889	2755.99
585.249	2650.68
585.609	2661.3
585.969	2637.35
586.329	2660.85
586.688	2680.06
587.048	2652.71
587.408	2654.75
587.768	2699.27
588.127	2647.97
588.487	2635.99
588.846	2634.86
589.206	2652.94
589.565	2652.71
589.925	2643
590.284	2684.35
590.643	2628.08
591.003	2650.9
591.362	2666.95
591.721	2652.49
592.08	2618.14
592.44	2585.37
592.799	2629.89
593.158	2655.42
593.517	2621.3
593.876	2669.21
594.235	2616.33
594.593	2626.27
594.952	2623.33
595.311	2645.26
595.67	2665.59
596.029	2662.43
596.387	2637.12
596.746	2652.94
597.104	2690.68
597.463	2651.81
597.822	2702.43
598.18	2653.84
598.538	2642.54
598.897	2654.75
599.255	2639.83
599.613	2687.97
599.972	2688.64
600.33	2689.1
600.688	2656.78
601.046	2710.79
601.404	2704.91
601.762	2692.03
602.12	2702.2
602.478	2714.63
602.836	2738.81
603.194	2710.11
603.552	2720.06
603.91	2767.74
604.268	2742.65
604.625	2721.41
604.983	2746.04
605.341	2760.96
605.698	2774.97
606.056	2769.09
606.413	2798.47
606.771	2827.85
607.128	2833.05
607.485	2786.72
607.843	2786.04
608.2	2787.4
608.557	2822.65
608.914	2771.13
609.272	2821.3
609.629	2838.47
609.986	2858.36
610.343	2854.97
610.7	2846.83
611.057	2824.23
611.414	2891.35
611.771	2861.52
612.127	2882.76
612.484	2868.3
612.841	2918.47
613.198	2853.61
613.554	2898.81
613.911	2869.2
614.267	2855.19
614.624	2853.84
614.98	2884.35
615.337	2870.11
615.693	2899.26
616.05	2841.18
616.406	2896.1
616.762	2875.53
617.118	2907.62
617.475	2851.58
617.831	2896.32
618.187	2895.19
618.543	2872.14
618.899	2891.12
619.255	2925.93
619.611	2851.35
619.967	2897.9
620.323	2892.25
620.678	2833.05
621.034	2841.86
621.39	2871.69
621.746	2885.93
622.101	2907.85
622.457	2860.84
622.812	2822.88
623.168	2888.19
623.523	2891.58
623.879	2879.37
624.234	2807.96
624.589	2835.98
624.945	2856.1
625.3	2826.04
625.655	2864.23
626.01	2885.25
626.365	2885.25
626.72	2820.62
627.075	2828.08
627.43	2854.74
627.785	2849.32
628.14	2839.15
628.495	2871.24
628.85	2814.06
629.205	2865.81
629.559	2850.22
629.914	2828.98
630.269	2827.17
630.623	2797.12
630.978	2832.37
631.332	2805.48
631.687	2832.14
632.041	2781.3
632.396	2810.9
632.75	2792.14
633.104	2780.17
633.459	2787.62
633.813	2806.61
634.167	2791.47
634.521	2813.84
634.875	2776.78
635.229	2763.22
635.583	2798.02
635.937	2755.99
636.291	2785.82
636.645	2751.24
636.999	2755.31
637.352	2784.91
637.706	2746.27
638.06	2758.25
638.413	2779.04
638.767	2755.08
639.121	2768.87
639.474	2757.34
639.828	2737.23
640.181	2775.65
640.534	2786.72
640.888	2764.12
641.241	2782.65
641.594	2748.08
641.947	2743.56
642.301	2739.49
642.654	2731.35
643.007	2791.69
643.36	2788.75
643.713	2780.17
644.066	2754.4
644.419	2756.44
644.771	2752.37
645.124	2720.51
645.477	2738.59
645.83	2730.22
646.182	2692.49
646.535	2703.11
646.888	2685.03
647.24	2728.19
647.593	2710.34
647.945	2686.61
648.298	2698.81
648.65	2662.88
649.002	2671.02
649.355	2666.05
649.707	2694.97
650.059	2667.85
650.411	2701.53
650.763	2730.68
651.115	2820.39
651.467	2746.27
651.819	2747.4
652.171	2725.71
652.523	2723.9
652.875	2720.96
653.227	2729.32
653.578	2727.74
653.93	2693.84
654.282	2717.12
654.633	2695.2
654.985	2738.13
655.337	2681.64
655.688	2726.61
656.039	2736.33
656.391	2708.76
656.742	2692.26
657.094	2716.21
657.445	2727.29
657.796	2702.88
658.147	2668.76
658.498	2677.12
658.849	2718.02
659.2	2716.44
659.551	2678.02
659.902	2669.66
660.253	2678.7
660.604	2670.11
660.955	2650.9
661.306	2669.21
661.656	2681.64
662.007	2698.36
662.358	2681.64
662.708	2641.87
663.059	2643.9
663.409	2667.85
663.76	2642.77
664.11	2664.01
664.461	2676.67
664.811	2622.21
665.161	2627.4
665.511	2664.69
665.862	2648.65
666.212	2655.42
666.562	2637.12
666.912	2639.83
667.262	2631.92
667.612	2645.93
667.962	2632.6
668.312	2611.81
668.662	2624.46
669.011	2611.58
669.361	2622.66
669.711	2634.63
670.06	2588.31
670.41	2592.15
670.76	2598.7
671.109	2639.83
671.459	2623.33
671.808	2620.4
672.157	2632.15
672.507	2572.04
672.856	2593.96
673.205	2614.07
673.554	2608.19
673.904	2625.59
674.253	2592.6
674.602	2614.52
674.951	2591.25
675.3	2565.71
675.649	2552.38
675.998	2587.86
676.346	2577.01
676.695	2590.57
677.044	2590.79
677.393	2565.71
677.741	2590.12
678.09	2551.25
678.438	2592.83
678.787	2569.1
679.135	2598.48
679.484	2573.17
679.832	2563.68
680.181	2586.5
680.529	2589.21
680.877	2585.82
681.225	2582.66
681.573	2574.97
681.922	2563.45
682.27	2530.68
682.618	2592.15
682.966	2544.92
683.314	2543.11
683.661	2572.49
684.009	2531.13
684.357	2520.96
684.705	2503.34
685.053	2540.63
685.4	2504.92
685.748	2513.73
686.095	2532.04
686.443	2480.74
686.79	2492.49
687.138	2514.19
687.485	2540.17
687.832	2522.32
688.18	2545.82
688.527	2506.28
688.874	2475.77
689.221	2458.14
689.568	2473.06
689.915	2468.31
690.262	2452.49
690.609	2496.33
690.956	2459.5
691.303	2487.07
691.65	2456.33
691.997	2464.7
692.344	2461.08
692.69	2415.88
693.037	2439.16
693.383	2391.93
693.73	2456.11
694.077	2419.27
694.423	2411.82
694.769	2415.66
695.116	2389.89
695.462	2379.73
695.808	2396
696.155	2403.68
696.501	2372.49
696.847	2373.4
697.193	2387.63
697.539	2327.98
697.885	2359.61
698.231	2345.6
698.577	2323
698.923	2350.57
699.269	2342.44
699.614	2348.31
699.96	2319.84
700.306	2337.92
700.651	2308.99
700.997	2315.09
701.342	2306.06
701.688	2302.44
702.033	2283.46
702.379	2287.3
702.724	2266.73
703.069	2314.19
703.415	2273.29
703.76	2244.81
704.105	2269.45
704.45	2266.73
704.795	2222.22
705.14	2224.02
705.485	2238.94
705.83	2243.23
706.175	2236
706.52	2218.37
706.865	2238.71
707.209	2211.59
707.554	2200.75
707.899	2217.92
708.243	2194.87
708.588	2228.09
708.932	2223.57
709.277	2213.18
709.621	2201.2
709.966	2177.92
710.31	2188.54
710.654	2157.81
710.998	2163.23
711.342	2186.51
711.687	2185.38
712.031	2150.35
712.375	2174.99
712.719	2138.6
713.063	2180.18
713.407	2144.03
713.75	2144.03
714.094	2172.5
714.438	2162.78
714.782	2190.35
715.125	2147.87
715.469	2128.43
715.812	2108.09
716.156	2114.65
716.499	2141.31
716.843	2103.8
717.186	2138.6
717.53	2114.42
717.873	2118.72
718.216	2121.65
718.559	2096.57
718.902	2124.59
719.246	2099.51
719.589	2126.85
719.932	2103.35
720.275	2100.18
720.617	2111.71
720.96	2090.69
721.303	2078.72
721.646	2086.85
721.989	2087.98
722.331	2074.42
722.674	2043.69
723.016	2082.33
723.359	2077.81
723.701	2059.96
724.044	2041.88
724.386	2065.38
724.729	2055.21
725.071	2028.77
725.413	2048.89
725.755	2030.13
726.097	2075.33
726.439	2027.19
726.782	2045.72
727.124	2033.07
727.465	2050.69
727.807	2030.58
728.149	2023.35
728.491	2025.84
728.833	2027.87
729.175	2028.1
729.516	2031.26
729.858	2017.48
730.199	2012.96
730.541	2003.01
730.882	1984.93
731.224	2008.66
731.565	2008.89
731.906	2018.83
732.248	2018.38
732.589	1968.89
732.93	1977.25
733.271	1972.28
733.612	1992.39
733.953	2011.83
734.294	1951.94
734.635	1997.14
734.976	2011.37
735.317	1963.69
735.658	1998.49
735.999	1948.1
736.339	1971.6
736.68	1961.43
737.021	1960.75
737.361	1938.16
737.702	1934.77
738.042	1939.74
738.383	1949.91
738.723	1940.19
739.063	1932.28
739.404	1940.42
739.744	1946.06
740.084	1919.4
740.424	1937.7
740.764	1909.23
741.104	1946.74
741.444	1923.01
741.784	1924.6
742.124	1920.3
742.464	1916.91
742.804	1920.08
743.143	1910.13
743.483	1901.55
743.823	1874.65
744.162	1918.72
744.502	1865.39
744.841	1892.51
745.181	1919.17
745.52	1907.2
745.86	1880.3
746.199	1906.97
746.538	1879.17
746.877	1887.54
747.216	1894.31
747.556	1885.95
747.895	1866.29
748.234	1864.26
748.573	1868.78
748.911	1861.1
749.25	1855.9
749.589	1876.91
749.928	1871.49
750.267	1840.53
750.605	1825.84
750.944	1869
751.283	1865.61
751.621	1858.61
751.96	1859.97
752.298	1836.69
752.636	1833.75
752.975	1833.53
753.313	1835.11
753.651	1821.1
753.989	1815.67
754.327	1820.19
754.666	1819.74
755.004	1826.07
755.342	1798.95
755.679	1805.96
756.017	1805.28
756.355	1769.35
756.693	1780.65
757.031	1791.27
757.368	1800.31
757.706	1781.78
758.044	1785.84
758.381	1776.58
758.719	1784.71
759.056	1761.66
759.394	1787.65
759.731	1734.77
760.068	1766.86
760.405	1729.57
760.743	1746.3
761.08	1746.97
761.417	1724.6
761.754	1718.05
762.091	1716.24
762.428	1703.13
762.765	1728.9
763.102	1710.59
763.438	1731.61
763.775	1704.26
764.112	1708.56
764.449	1718.95
764.785	1693.87
765.122	1687.99
765.458	1705.39
765.795	1698.84
766.131	1651.38
766.467	1696.58
766.804	1681.21
767.14	1664.94
767.476	1661.78
767.812	1703.36
768.148	1656.81
768.485	1652.51
768.821	1623.14
769.157	1633.3
769.492	1667.88
769.828	1640.54
770.164	1613.64
770.5	1617.94
770.836	1630.37
771.171	1609.35
771.507	1606.19
771.842	1601.89
772.178	1628.11
772.513	1585.4
772.849	1593.76
773.184	1625.85
773.519	1584.72
773.855	1556.02
774.19	1593.76
774.525	1578.84
774.86	1573.87
775.195	1577.94
775.53	1554.44
775.865	1561.89
776.2	1549.24
776.535	1560.76
776.87	1551.27
777.205	1551.5
777.539	1544.27
777.874	1544.72
778.209	1540.2
778.543	1542.46
778.878	1523.25
779.212	1532.29
779.547	1528.9
779.881	1488.9
780.215	1505.62
780.55	1502.91
780.884	1508.11
781.218	1515.34
781.552	1489.81
781.886	1492.97
782.22	1500.88
782.554	1477.15
782.888	1504.72
783.222	1488.22
783.556	1458.85
783.889	1461.33
784.223	1462.91
784.557	1463.14
784.89	1449.35
785.224	1465.63
785.557	1427.89
785.891	1441.45
786.224	1436.25
786.558	1408.68
786.891	1408
787.224	1426.53
787.557	1401.67
787.891	1413.2
788.224	1432.63
788.557	1398.73
788.89	1392.18
789.223	1392.41
789.556	1405.29
789.888	1401.22
790.221	1412.07
790.554	1393.54
790.887	1377.04
791.219	1383.59
791.552	1364.61
791.884	1377.94
792.217	1365.74
792.549	1397.15
792.882	1375.91
793.214	1377.49
793.546	1390.83
793.879	1367.1
794.211	1372.29
794.543	1347.66
794.875	1359.87
795.207	1382.01
795.539	1334.1
795.871	1345.85
796.203	1355.35
796.535	1315.8
796.867	1332.3
797.198	1351.5
797.53	1340.43
797.862	1325.74
798.193	1318.28
798.525	1323.93
798.856	1318.51
799.188	1309.02
799.519	1318.74
799.85	1299.53
800.182	1317.83
800.513	1315.35
800.844	1314.89
801.175	1308.79
801.506	1301.11
801.837	1297.49
802.168	1278.74
802.499	1288.45
802.83	1272.41
803.161	1260.21
803.491	1296.82
803.822	1279.87
804.153	1290.04
804.483	1276.7
804.814	1256.37
805.145	1250.49
805.475	1276.25
805.805	1236.93
806.136	1263.82
806.466	1254.11
806.796	1251.85
807.126	1243.48
807.457	1251.39
807.787	1252.75
808.117	1245.29
808.447	1230.38
808.777	1246.42
809.107	1233.32
809.436	1218.4
809.766	1230.38
810.096	1253.2
810.426	1231.73
810.755	1199.87
811.085	1211.17
811.414	1191.51
811.744	1216.59
812.073	1191.51
812.403	1195.35
812.732	1233.09
813.061	1234.44
813.39	1216.14
813.719	1206.42
814.049	1203.26
814.378	1200.55
814.707	1178.85
815.036	1177.5
815.365	1212.75
815.693	1188.57
816.022	1178.85
816.351	1212.07
816.68	1178.18
817.008	1173.2
817.337	1155.8
817.665	1195.8
817.994	1175.46
818.322	1174.79
818.651	1172.53
818.979	1175.24
819.307	1165.97
819.636	1179.08
819.964	1158.29
820.292	1145.86
820.62	1149.48
820.948	1162.58
821.276	1179.31
821.604	1136.59
821.932	1127.78
822.259	1151.74
822.587	1154
822.915	1120.32
823.243	1139.08
823.57	1135.24
823.898	1130.94
824.225	1126.2
824.553	1117.16
824.88	1120.55
825.207	1128.69
825.535	1134.11
825.862	1129.81
826.189	1156.03
826.516	1118.06
826.843	1161
827.17	1175.01
827.497	1153.32
827.824	1128.46
828.151	1146.09
828.478	1137.72
828.805	1152.87
829.131	1135.92
829.458	1128.69
829.785	1120.32
830.111	1101.34
830.438	1108.8
830.764	1156.93
831.09	1120.78
831.417	1127.56
831.743	1113.32
832.069	1119.19
832.395	1119.87
832.722	1112.19
833.048	1126.2
833.374	1090.49
833.7	1118.06
834.026	1115.13
834.351	1129.59
834.677	1098.86
835.003	1137.27
835.329	1119.19
835.654	1104.5
835.98	1129.59
836.306	1093.21
836.631	1102.92
836.956	1129.14
837.282	1110.38
837.607	1104.28
837.932	1125.52
838.258	1089.82
838.583	1078.29
838.908	1069.25
839.233	1081.91
839.558	1104.28
839.883	1085.52
840.208	1095.92
840.533	1083.94
840.858	1095.69
841.182	1105.41
841.507	1091.4
841.832	1101.34
842.156	1083.04
842.481	1081.23
842.805	1072.87
843.13	1081.23
843.454	1086.88
843.778	1090.95
844.103	1078.06
844.427	1092.98
844.751	1062.25
845.075	1058.18
845.399	1076.03
845.723	1063.38
846.047	1080.55
846.371	1075.13
846.695	1091.4
847.019	1071.74
847.343	1055.92
847.666	1074.9
847.99	1052.08
848.313	1046.88
848.637	1047.11
848.96	1060.21
849.284	1038.07
849.607	1050.72
849.931	1033.77
850.254	1045.52
850.577	1017.28
850.9	1013.89
851.223	1026.54
851.546	1019.54
851.869	1001.91
852.192	1036.48
852.515	1025.41
852.838	1001.46
853.161	1015.02
853.483	1008.91
853.806	989.93
854.129	1035.81
854.451	1016.37
854.774	1003.26
855.096	1004.62
855.419	1016.6
855.741	978.41
856.063	995.36
856.385	1015.92
856.708	998.07
857.03	998.74
857.352	966.66
857.674	991.29
857.996	984.51
858.318	992.64
858.64	961.01
858.961	977.95
859.283	958.29
859.605	994
859.926	989.48
860.248	994.23
860.57	988.8
860.891	972.98
861.212	992.64
861.534	951.74
861.855	963.49
862.176	995.81
862.498	982.02
862.819	971.4
863.14	970.27
863.461	970.72
863.782	949.48
864.103	966.66
864.424	987.22
864.745	981.34
865.065	983.38
865.386	975.24
865.707	942.93
866.027	983.83
866.348	980.89
866.668	964.17
866.989	948.58
867.309	939.99
867.63	971.18
867.95	952.19
868.27	986.99
868.59	953.77
868.91	967.79
869.23	961.46
869.55	977.73
869.87	968.46
870.19	943.15
870.51	989.93
870.83	991.97
871.15	967.79
871.469	963.49
871.789	984.28
872.109	970.95
872.428	963.94
872.748	945.64
873.067	944.28
873.386	977.95
873.706	933.44
874.025	939.76
874.344	971.63
874.663	954.45
874.982	948.35
875.301	947.9
875.62	936.37
875.939	945.86
876.258	939.99
876.577	954.68
876.896	942.7
877.214	946.32
877.533	943.38
877.852	945.19
878.17	949.03
878.489	924.62
878.807	917.17
879.125	909.03
879.444	936.15
879.762	929.59
880.08	934.34
880.398	928.46
880.716	941.57
881.034	938.41
881.352	926.2
881.67	909.71
881.988	921.68
882.306	918.3
882.624	921.68
882.941	907.45
883.259	932.76
883.577	918.75
883.894	924.4
884.212	938.86
884.529	934.34
884.846	910.16
885.164	908.13
885.481	911.97
885.798	905.41
886.115	890.27
886.432	892.98
886.75	888.47
887.067	903.15
887.383	866.55
887.7	880.78
888.017	898.63
888.334	881.91
888.651	914.68
888.967	883.27
889.284	892.08
889.6	873.55
889.917	897.05
890.233	850.27
890.55	863.61
890.866	885.3
891.182	857.73
891.498	881.23
891.815	867.22
892.131	838.07
892.447	841.01
892.763	857.28
893.079	859.54
893.395	833.55
893.71	838.75
894.026	859.09
894.342	851.86
894.657	848.92
894.973	860.67
895.289	836.72
895.604	859.31
895.92	837.17
896.235	834.68
896.55	825.42
896.865	834.23
897.181	824.74
897.496	823.61
897.811	832.2
898.126	819.77
898.441	806.43
898.756	801.91
899.071	822.48
899.386	803.72
899.7	810.05
900.015	795.81
900.33	802.14
900.644	801.46
900.959	813.67
901.273	802.14
901.588	809.82
901.902	807.11
902.216	772.31
902.531	778.41
902.845	804.63
903.159	817.96
903.473	785.64
903.787	773.67
904.101	764.85
904.415	782.48
904.729	775.02
905.042	775.25
905.356	770.73
905.67	763.5
905.984	763.04
906.297	781.58
906.611	754.46
906.924	739.09
907.237	741.12
907.551	741.8
907.864	744.74
908.177	767.56
908.491	754.23
908.804	757.85
909.117	711.07
909.43	747.9
909.743	756.04
910.056	734.12
910.368	733.67
910.681	728.47
910.994	732.99
911.307	749.94
911.619	720.56
911.932	715.59
912.244	706.55
912.557	715.81
912.869	730.96
913.181	724.63
913.494	719.66
913.806	721.46
914.118	702.26
914.43	710.16
914.742	691.41
915.054	676.49
915.366	700.45
915.678	725.98
915.99	709.71
916.302	711.07
916.613	719.2
916.925	707.45
917.236	697.74
917.548	702.93
917.859	702.26
918.171	674.91
918.482	704.97
918.794	708.58
919.105	680.79
919.416	694.57
919.727	684.4
920.038	676.72
920.349	647.57
920.66	689.83
920.971	670.17
921.282	675.36
921.593	644.86
921.903	626.1
922.214	671.97
922.525	643.95
922.835	657.96
923.146	669.26
923.456	663.61
923.767	671.75
924.077	671.97
924.387	651.86
924.697	670.62
925.008	663.84
925.318	646.66
925.628	656.38
925.938	669.49
926.248	658.64
926.558	676.49
926.867	646.44
927.177	665.42
927.487	647.34
927.796	649.83
928.106	643.5
928.416	654.8
928.725	641.24
929.034	639.43
929.344	646.44
929.653	635.36
929.962	626.55
930.271	637.62
930.581	639.43
930.89	640.56
931.199	648.25
931.508	627.23
931.817	639.21
932.125	633.56
932.434	639.43
932.743	639.43
933.051	658.41
933.36	625.42
933.669	627.91
933.977	628.36
934.286	618.19
934.594	616.38
934.902	601.92
935.21	598.3
935.519	628.81
935.827	600.34
936.135	620.45
936.443	618.87
936.751	599.21
937.059	587.46
937.367	612.54
937.674	608.47
937.982	616.38
938.29	625.2
938.597	616.16
938.905	614.57
939.213	584.97
939.52	614.57
939.827	612.54
940.135	608.92
940.442	598.3
940.749	608.25
941.056	587.68
941.363	588.36
941.67	606.44
941.977	601.24
942.284	595.14
942.591	600.11
942.898	589.04
943.205	599.89
943.511	602.37
943.818	588.13
944.125	598.53
944.431	591.52
944.738	579.09
945.044	582.26
945.35	598.98
945.657	589.94
945.963	560.56
946.269	595.14
946.575	558.53
946.881	580.9
947.187	580
947.493	563.05
947.799	602.6
948.105	576.38
948.41	577.29
948.716	594.46
949.022	577.74
949.327	580
949.633	584.97
949.938	573.9
950.244	584.07
950.549	572.32
950.854	579.55
951.16	537.97
951.465	585.87
951.77	583.16
952.075	582.48
952.38	552.88
952.685	600.34
952.99	580.68
953.294	543.16
953.599	556.5
953.904	532.32
954.209	539.32
954.513	572.32
954.818	569.6
955.122	548.14
955.426	559.21
955.731	561.92
956.035	569.6
956.339	551.98
956.643	547.68
956.948	547.01
957.252	537.97
957.556	557.63
957.86	562.37
958.163	534.35
958.467	538.42
958.771	554.91
959.075	553.78
959.378	558.3
959.682	550.17
959.985	537.29
960.289	553.33
960.592	530.28
960.896	549.04
961.199	542.94
961.502	553.11
961.805	542.71
962.108	527.57
962.411	520.34
962.714	542.71
963.017	520.34
963.32	518.76
963.623	535.71
963.926	539.77
964.228	530.73
964.531	533.45
964.833	524.41
965.136	530.06
965.438	511.98
965.741	514.92
966.043	509.49
966.345	523.73
966.648	539.55
966.95	528.02
967.252	513.56
967.554	521.7
967.856	516.27
968.158	519.21
968.46	516.72
968.761	535.71
969.063	512.88
969.365	525.31
969.666	516.72
969.968	506.55
970.269	505.2
970.571	517.63
970.872	516.5
971.174	487.8
971.475	509.04
971.776	514.24
972.077	499.32
972.378	496.84
972.679	516.95
972.98	497.29
973.281	504.75
973.582	487.35
973.883	499.32
974.183	510.62
974.484	504.52
974.785	492.54
975.085	516.72
975.386	489.15
975.686	480.57
975.986	487.8
976.287	483.73
976.587	481.47
976.887	488.48
977.187	481.47
977.487	486.89
977.787	507.91
978.087	474.69
978.387	481.02
978.687	491.19
978.987	487.35
979.286	488.25
979.586	479.44
979.885	470.85
980.185	478.53
980.484	493
980.784	481.47
981.083	490.06
981.382	476.95
981.682	461.81
981.981	459.32
982.28	470.4
982.579	467.01
982.878	482.83
983.177	480.11
983.475	478.08
983.774	458.42
984.073	471.53
984.372	442.6
984.67	454.35
984.969	446.22
985.267	443.05
985.566	443.96
985.864	456.16
986.162	450.74
986.461	449.61
986.759	449.61
987.057	465.2
987.355	478.98
987.653	453.22
987.951	456.84
988.249	447.35
988.547	451.19
988.844	445.09
989.142	463.17
989.44	448.93
989.737	421.13
990.035	454.13
990.332	427.23
990.63	449.83
990.927	454.58
991.224	449.38
991.521	429.49
991.819	438.99
992.116	442.15
992.413	435.82
992.71	450.74
993.006	421.13
993.303	427.46
993.6	420
993.897	443.96
994.193	421.81
994.49	449.61
994.787	418.65
995.083	433.34
995.379	420.91
995.676	437.18
995.972	426.33
996.268	432.21
996.565	418.2
996.861	423.62
997.157	424.75
997.453	411.42
997.749	432.66
998.044	440.34
998.34	436.95
998.636	428.59
998.932	429.49
999.227	413.22
999.523	420.23
999.818	424.75
1000.114	420.91
1000.409	405.31
1000.704	404.41
1001	401.25
1001.295	426.33
1001.59	410.74
1001.885	413.45
1002.18	413.22
1002.475	409.83
1002.77	429.95
1003.065	407.35
1003.359	419.1
1003.654	399.89
1003.949	400.12
1004.243	393.79
1004.538	419.78
1004.832	414.81
1005.127	398.31
1005.421	413.22
1005.715	409.83
1006.009	402.15
1006.304	416.16
1006.598	408.7
1006.892	401.92
1007.186	386.11
1007.48	384.98
1007.773	397.18
1008.067	405.99
1008.361	410.06
1008.655	415.94
1008.948	407.35
1009.242	391.3
1009.535	379.78
1009.829	385.88
1010.122	397.63
1010.415	399.21
1010.708	388.82
1011.001	399.21
1011.295	380
1011.588	372.55
1011.881	367.35
1012.173	383.85
1012.466	392.21
1012.759	381.81
1013.052	389.04
1013.344	385.88
1013.637	378.65
1013.93	404.86
1014.222	403.05
1014.514	391.98
1014.807	380
1015.099	392.66
1015.391	387.91
1015.683	377.74
1015.976	377.52
1016.268	374.58
1016.56	397.4
1016.851	371.64
1017.143	411.64
1017.435	385.88
1017.727	379.1
1018.018	382.04
1018.31	379.55
1018.602	380
1018.893	389.5
1019.185	381.13
1019.476	388.14
1019.767	371.64
1020.058	354.02
1020.35	368.48
1020.641	390.17
1020.932	359.21
1021.223	368.93
1021.514	388.82
1021.804	388.82
1022.095	370.29
1022.386	354.24
1022.677	374.58
1022.967	366.45
1023.258	355.82
1023.548	381.59
1023.839	375.94
1024.129	385.88
1024.419	389.04
1024.709	367.12
1025	380.68
1025.29	373.22
1025.58	405.77
1025.87	355.82
1026.16	350.17
1026.449	362.6
1026.739	370.96
1027.029	382.04
1027.319	369.61
1027.608	379.78
1027.898	357.18
1028.187	373.22
1028.477	349.95
1028.766	360.12
1029.055	356.5
1029.344	355.15
1029.634	344.75
1029.923	345.2
1030.212	361.25
1030.501	375.94
1030.79	351.98
1031.078	367.35
1031.367	381.36
1031.656	353.11
1031.945	375.03
1032.233	353.56
1032.522	366.67
1032.81	363.73
1033.099	361.47
1033.387	351.98
1033.675	346.56
1033.963	370.51
1034.251	388.37
1034.54	358.99
1034.828	370.29
1035.116	368.25
1035.403	336.39
1035.691	351.98
1035.979	338.2
1036.267	331.42
1036.554	340.23
1036.842	357.18
1037.129	332.77
1037.417	355.6
1037.704	340.46
1037.992	348.82
1038.279	354.92
1038.566	343.85
1038.853	343.85
1039.14	343.85
