Data from foam_black_FLMS001491_00053.txt Node
Date: Wed Feb 08 10:44:08 GMT 2017
User: dcchb
Spectrometer: FLMS00149
Trigger mode: 0
Integration Time (sec): 2.000000E-2
Scans to average: 10
Electric dark correction enabled: true
Nonlinearity correction enabled: false
Boxcar width: 0
XAxis mode: Wavelengths
Number of Pixels in Spectrum: 2048
>>>>>Begin Spectral Data<<<<<
341.393	-34.91
341.776	-34.91
342.16	-34.91
342.543	-45.99
342.927	-48.02
343.31	-76.72
343.693	-67.68
344.077	-62.48
344.46	-49.38
344.843	-40.11
345.226	-51.64
345.61	-36.5
345.993	-18.19
346.376	3.5
346.759	5.08
347.142	35.37
347.525	29.26
347.908	56.61
348.291	58.87
348.674	94.12
349.057	119.88
349.44	127.57
349.823	144.29
350.206	165.08
350.588	162.82
350.971	211.86
351.354	219.77
351.737	239.43
352.119	242.37
352.502	255.02
352.884	237.17
353.267	250.05
353.65	266.77
354.032	258.86
354.414	279.2
354.797	297.51
355.179	292.08
355.562	296.38
355.944	321.91
356.326	310.16
356.709	335.92
357.091	309.48
357.473	321.46
357.855	326.88
358.238	328.24
358.62	327.34
359.002	318.75
359.384	332.08
359.766	335.47
360.148	332.53
360.53	324.4
360.912	322.82
361.294	313.33
361.676	320.1
362.057	307.9
362.439	316.04
362.821	307.68
363.203	307.45
363.584	312.65
363.966	327.34
364.348	310.61
364.729	309.26
365.111	301.35
365.493	283.72
365.874	304.74
366.256	302.03
366.637	295.02
367.019	289.37
367.4	292.53
367.781	299.99
368.163	297.51
368.544	286.89
368.925	280.78
369.306	277.62
369.688	290.5
370.069	290.5
370.45	309.71
370.831	297.96
371.212	292.76
371.593	292.53
371.974	311.74
372.355	294.12
372.736	325.08
373.117	302.25
373.498	302.7
373.879	314.91
374.26	297.51
374.641	294.12
375.021	306.09
375.402	291.63
375.783	295.25
376.163	311.52
376.544	311.07
376.925	320.33
377.305	314
377.686	318.3
378.066	309.26
378.447	323.04
378.827	322.36
379.208	296.83
379.588	301.12
379.968	338.18
380.349	308.13
380.729	324.62
381.109	297.05
381.489	308.35
381.87	301.12
382.25	323.95
382.63	322.14
383.01	324.62
383.39	304.06
383.77	314.68
384.15	337.05
384.53	338.64
384.91	339.09
385.29	356.94
385.67	323.04
386.049	329.14
386.429	336.15
386.809	360.78
387.189	333.66
387.568	347.45
387.948	347.45
388.328	329.14
388.707	352.65
389.087	329.14
389.466	344.96
389.846	354.68
390.225	369.82
390.605	331.18
390.984	352.42
391.363	337.28
391.743	354
392.122	352.87
392.501	364.17
392.881	360.1
393.26	353.1
393.639	352.19
394.018	355.58
394.397	349.03
394.776	363.49
395.155	360.56
395.534	362.14
395.913	355.81
396.292	371.4
396.671	372.53
397.05	361.46
397.429	386.32
397.808	374.34
398.186	363.72
398.565	363.95
398.944	362.36
399.323	379.31
399.701	387
400.08	369.14
400.458	370.27
400.837	385.87
401.215	367.79
401.594	357.84
401.972	374.57
402.351	387
402.729	388.35
403.107	397.84
403.486	402.36
403.864	392.42
404.242	382.02
404.62	367.11
404.999	393.77
405.377	386.77
405.755	430.84
406.133	420.44
406.511	401.91
406.889	401.68
407.267	410.72
407.645	406.66
408.023	403.72
408.401	406.88
408.779	399.65
409.156	412.08
409.534	420.89
409.912	394.9
410.29	414.57
410.667	418.41
411.045	443.72
411.422	440.55
411.8	438.97
412.178	435.81
412.555	418.63
412.933	421.8
413.31	447.56
413.687	437.39
414.065	449.82
414.442	442.14
414.819	459.99
415.197	451.4
415.574	442.36
415.951	463.6
416.328	460.89
416.705	431.51
417.082	449.59
417.46	467.67
417.837	468.35
418.214	457.73
418.591	459.08
418.967	474.9
419.344	475.58
419.721	454.11
420.098	476.26
420.475	495.24
420.852	467.22
421.228	449.37
421.605	481
421.982	496.6
422.358	489.14
422.735	500.89
423.111	488.69
423.488	514.68
423.864	509.7
424.241	498.63
424.617	500.44
424.994	509.93
425.37	485.07
425.746	505.86
426.123	493.43
426.499	496.37
426.875	520.78
427.251	518.74
427.627	512.87
428.003	515.35
428.379	540.21
428.756	525.07
429.132	542.02
429.507	550.83
429.883	511.96
430.259	575.92
430.635	565.97
431.011	576.82
431.387	563.49
431.763	567.56
432.138	575.24
432.514	580.44
432.89	559.87
433.265	576.6
433.641	594
434.016	595.35
434.392	607.33
434.767	602.13
435.143	597.61
435.518	601.23
435.894	608.68
436.269	612.53
436.644	607.33
437.02	611.62
437.395	622.47
437.77	612.3
438.145	612.98
438.52	621.57
438.895	648.91
439.271	638.51
439.646	635.35
440.021	633.99
440.395	637.16
440.77	624.05
441.145	666.31
441.52	664.05
441.895	683.48
442.27	675.58
442.645	660.89
443.019	654.56
443.394	672.64
443.769	697.72
444.143	671.96
444.518	678.51
444.892	654.33
445.267	687.78
445.641	686.2
446.016	692.07
446.39	690.26
446.764	702.47
447.139	698.85
447.513	722.13
447.887	728.46
448.262	694.33
448.636	720.09
449.01	717.83
449.384	733.88
449.758	719.42
450.132	701.34
450.506	727.1
450.88	752.64
451.254	714.22
451.628	743.37
452.002	743.37
452.376	793.99
452.75	777.95
453.123	753.99
453.497	784.73
453.871	751.28
454.244	784.95
454.618	769.13
454.992	777.49
455.365	802.35
455.739	803.48
456.112	817.94
456.486	792.86
456.859	817.04
457.232	824.27
457.606	852.29
457.979	831.05
458.352	846.87
458.725	866.98
459.099	862.69
459.472	869.02
459.845	898.62
460.218	860.43
460.591	870.82
460.964	897.49
461.337	894.33
461.71	903.37
462.083	915.34
462.456	921.9
462.829	906.98
463.201	940.2
463.574	940.43
463.947	923.48
464.32	946.75
464.692	949.24
465.065	942.01
465.438	990.37
465.81	975.23
466.183	1013.42
466.555	1014.32
466.928	1011.39
467.3	1032.4
467.672	1027.43
468.045	1054.55
468.417	1045.06
468.789	1046.87
469.161	1066.07
469.534	1068.11
469.906	1095.68
470.278	1092.74
470.65	1125.96
471.022	1129.12
471.394	1134.09
471.766	1153.08
472.138	1140.2
472.51	1151.04
472.882	1180.42
473.253	1203.25
473.625	1213.41
473.997	1211.15
474.369	1211.38
474.74	1239.4
475.112	1278.27
475.484	1309.01
475.855	1297.71
476.227	1323.24
476.598	1322.56
476.97	1354.65
477.341	1346.29
477.713	1398.95
478.084	1391.71
478.455	1422.45
478.827	1391.71
479.198	1482.11
479.569	1460.19
479.94	1482.56
480.311	1461.54
480.682	1509.9
481.053	1554.65
481.424	1550.58
481.795	1563.01
482.166	1579.73
482.537	1622.22
482.908	1643.69
483.279	1647.75
483.65	1662.89
484.021	1676
484.391	1727.3
484.762	1737.47
485.133	1753.74
485.503	1762.78
485.874	1806.17
486.244	1839.16
486.615	1867.86
486.985	1859.5
487.356	1870.35
487.726	1914.86
488.097	1916.45
488.467	1970
488.837	1951.7
489.207	1998.93
489.578	2014.07
489.948	2039.61
490.318	2041.42
490.688	2023.34
491.058	2056.78
491.428	2067.18
491.798	2131.13
492.168	2165.25
492.538	2134.75
492.908	2221.52
493.278	2194.41
493.648	2200.96
494.017	2231.01
494.387	2235.08
494.757	2272.37
495.126	2265.36
495.496	2287.96
495.866	2293.84
496.235	2279.38
496.605	2340.16
496.974	2349.66
497.344	2344.68
497.713	2377.68
498.082	2395.3
498.452	2417.22
498.821	2452.25
499.19	2446.6
499.559	2466.94
499.928	2486.15
500.298	2465.58
500.667	2522.76
501.036	2531.57
501.405	2545.36
501.774	2503.32
502.143	2547.39
502.512	2552.36
502.88	2595.75
503.249	2627.84
503.618	2615.19
503.987	2665.58
504.356	2637.33
504.724	2661.51
505.093	2677.78
505.462	2704.9
505.83	2701.51
506.199	2758.91
506.567	2751.91
506.936	2701.51
507.304	2801.17
507.672	2767.95
508.041	2778.35
508.409	2789.64
508.777	2845.46
509.145	2845.01
509.514	2870.32
509.882	2829.42
510.25	2876.87
510.618	2911
510.986	2913.26
511.354	2934.27
511.722	2947.83
512.09	2995.97
512.458	2980.37
512.826	3018.11
513.193	3061.28
513.561	3050.2
513.929	3083.2
514.297	3069.64
514.664	3128.62
515.032	3131.78
515.4	3152.8
515.767	3149.63
516.135	3186.47
516.502	3205.23
516.869	3245
517.237	3214.72
517.604	3246.81
517.972	3271.67
518.339	3292
518.706	3289.07
519.073	3314.15
519.44	3343.3
519.808	3361.15
520.175	3383.98
520.542	3381.27
520.909	3384.66
521.276	3407.71
521.643	3451.1
522.009	3469.85
522.376	3466.01
522.743	3527.48
523.11	3582.62
523.477	3597.76
523.843	3605.67
524.21	3679.11
524.577	3675.95
524.943	3671.43
525.31	3669.85
525.676	3755.95
526.043	3743.29
526.409	3743.29
526.776	3777.41
527.142	3817.87
527.508	3833.91
527.874	3888.15
528.241	3937.41
528.607	3902.84
528.973	3939.44
529.339	3984.42
529.705	3992.1
530.071	4014.24
530.437	4013.57
530.803	4041.59
531.169	4076.62
531.535	4089.27
531.901	4128.82
532.267	4165.65
532.632	4150.51
532.998	4162.49
533.364	4197.29
533.73	4227.8
534.095	4253.56
534.461	4238.87
534.826	4270.51
535.192	4263.05
535.557	4328.81
535.923	4295.59
536.288	4284.52
536.653	4316.16
537.019	4276.38
537.384	4320.9
537.749	4341.47
538.114	4345.08
538.479	4358.64
538.845	4395.7
539.21	4405.42
539.575	4428.7
539.94	4450.17
540.305	4488.13
540.67	4471.63
541.034	4463.5
541.399	4461.92
541.764	4532.42
542.129	4533.1
542.494	4533.33
542.858	4550.28
543.223	4621.01
543.587	4658.52
543.952	4639.77
544.316	4660.1
544.681	4687.9
545.045	4723.38
545.41	4742.36
545.774	4717.73
546.138	4738.07
546.503	4774.9
546.867	4743.49
547.231	4830.95
547.595	4788.69
547.959	4816.94
548.324	4762.02
548.688	4876.37
549.052	4891.06
549.416	4915.24
549.779	4939.42
550.143	4892.64
550.507	4908.91
550.871	5002.24
551.235	4938.06
551.599	4991.62
551.962	5006.54
552.326	5012.64
552.689	5030.04
553.053	5023.71
553.417	5056.25
553.78	5084.73
554.143	5091.73
554.507	5078.4
554.87	5091.5
555.234	5195.68
555.597	5087.21
555.96	5142.8
556.323	5202.01
556.686	5217.6
557.05	5213.08
557.413	5239.3
557.776	5239.07
558.139	5264.83
558.502	5305.28
558.865	5345.06
559.228	5344.38
559.59	5398.84
559.953	5389.12
560.316	5471.61
560.679	5429.12
561.041	5526.3
561.404	5495.79
561.767	5542.57
562.129	5550.02
562.492	5567.88
562.854	5645.61
563.217	5600.87
563.579	5627.31
563.941	5666.18
564.304	5703.47
564.666	5769.68
565.028	5749.34
565.39	5799.96
565.753	5849.68
566.115	5816.23
566.477	5870.24
566.839	5888.09
567.201	5935.78
567.563	5958.83
567.925	5944.14
568.287	5941.43
568.648	6009.45
569.01	6000.18
569.372	6028.66
569.734	6028.88
570.095	6081.08
570.457	6097.81
570.819	6144.13
571.18	6146.17
571.542	6187.29
571.903	6109.56
572.265	6182.1
572.626	6188.42
572.987	6211.93
573.349	6257.35
573.71	6257.58
574.071	6217.8
574.432	6266.39
574.794	6344.8
575.155	6289.44
575.516	6241.3
575.877	6321.3
576.238	6382.09
576.599	6424.8
576.96	6423.9
577.32	6364.69
577.681	6434.29
578.042	6418.02
578.403	6434.75
578.763	6466.84
579.124	6428.87
579.485	6484.01
579.845	6491.02
580.206	6489.21
580.566	6502.31
580.927	6491.92
581.287	6523.56
581.648	6518.36
582.008	6569.43
582.368	6521.07
582.728	6559.94
583.089	6521.75
583.449	6575.53
583.809	6585.7
584.169	6598.81
584.529	6565.36
584.889	6581.63
585.249	6553.84
585.609	6579.38
585.969	6575.31
586.329	6587.06
586.688	6563.1
587.048	6587.96
587.408	6589.77
587.768	6593.16
588.127	6557.45
588.487	6584.57
588.846	6590.67
589.206	6528.3
589.565	6581.86
589.925	6585.02
590.284	6603.56
590.643	6579.38
591.003	6599.04
591.362	6656.89
591.721	6580.73
592.08	6555.65
592.44	6604.46
592.799	6630
593.158	6612.59
593.517	6607.4
593.876	6574.86
594.235	6604.91
594.593	6661.18
594.952	6590.67
595.311	6562.65
595.67	6559.71
596.029	6638.81
596.387	6622.99
596.746	6639.26
597.104	6601.3
597.463	6659.82
597.822	6643.78
598.18	6638.81
598.538	6637.9
598.897	6698.24
599.255	6596.1
599.613	6712.7
599.972	6677
600.33	6743.89
600.688	6683.33
601.046	6729.88
601.404	6696.66
601.762	6711.35
602.12	6755.19
602.478	6744.79
602.836	6742.99
603.194	6709.77
603.552	6738.69
603.91	6744.12
604.268	6781.18
604.625	6712.25
604.983	6783.66
605.341	6775.3
605.698	6782.76
606.056	6831.12
606.413	6825.47
606.771	6841.29
607.128	6874.73
607.485	6801.97
607.843	6792.25
608.2	6863.21
608.557	6854.62
608.914	6839.71
609.272	6859.82
609.629	6868.18
609.986	6875.86
610.343	6820.5
610.7	6902.53
611.057	6847.16
611.414	6799.26
611.771	6896.43
612.127	6880.38
612.484	6884.23
612.841	6888.29
613.198	6857.79
613.554	6854.62
613.911	6892.59
614.267	6906.6
614.624	6900.5
614.98	6895.98
615.337	6907.95
615.693	6964.68
616.05	6945.24
616.406	6919.48
616.762	6964
617.118	6866.15
617.475	6945.02
617.831	6932.81
618.187	6924.68
618.543	6980.72
618.899	7012.58
619.255	6990.66
619.611	6946.15
619.967	6983.66
620.323	7053.94
620.678	6986.6
621.034	6966.71
621.39	6989.99
621.746	7022.53
622.101	7082.41
622.457	6994.96
622.812	7050.1
623.168	7001.96
623.523	7054.39
623.879	7113.15
624.234	7063.2
624.589	7064.11
624.945	7094.62
625.3	7057.78
625.655	7073.83
626.01	7083.99
626.365	7106.82
626.72	7058.68
627.075	7075.63
627.43	7051.9
627.785	7036.76
628.14	7129.42
628.495	7078.57
628.85	7059.14
629.205	7018.01
629.559	7150.89
629.914	7058.01
630.269	7010.1
630.623	7048.52
630.978	7076.99
631.332	7055.52
631.687	6988.18
632.041	6975.97
632.396	6983.66
632.75	7033.6
633.104	6965.35
633.459	6941.63
633.813	6942.98
634.167	6966.94
634.521	6920.38
634.875	6929.87
635.229	6895.52
635.583	6857.11
635.937	6849.65
636.291	6772.82
636.645	6839.93
636.999	6812.82
637.352	6857.33
637.706	6860.27
638.06	6818.24
638.413	6759.94
638.767	6826.15
639.121	6805.58
639.474	6771.23
639.828	6744.57
640.181	6762.42
640.534	6761.29
640.888	6733.72
641.241	6691.46
641.594	6633.38
641.947	6733.72
642.301	6665.7
642.654	6683.78
643.007	6679.26
643.36	6697.79
643.713	6684.91
644.066	6674.51
644.419	6594.74
644.771	6556.55
645.124	6525.14
645.477	6448.76
645.83	6479.49
646.182	6446.72
646.535	6495.54
646.888	6493.95
647.24	6413.96
647.593	6500.96
647.945	6545.7
648.298	6412.6
648.65	6470.45
649.002	6446.95
649.355	6477.68
649.707	6394.97
650.059	6437.01
650.411	6547.51
650.763	6562.88
651.115	6619.15
651.467	6668.19
651.819	6592.26
652.171	6573.95
652.523	6601.07
652.875	6560.62
653.227	6589.77
653.578	6563.33
653.93	6554.74
654.282	6589.54
654.633	6531.47
654.985	6513.61
655.337	6527.4
655.688	6523.11
656.039	6543.67
656.391	6496.89
656.742	6500.96
657.094	6499.38
657.445	6555.87
657.796	6440.62
658.147	6479.72
658.498	6453.05
658.849	6507.51
659.2	6450.11
659.551	6425.71
659.902	6471.81
660.253	6389.32
660.604	6439.72
660.955	6430.68
661.306	6371.7
661.656	6366.05
662.007	6378.48
662.358	6387.06
662.708	6391.36
663.059	6391.13
663.409	6327.4
663.76	6368.53
664.11	6315.65
664.461	6355.2
664.811	6356.56
665.161	6391.58
665.511	6319.27
665.862	6370.79
666.212	6391.13
666.562	6375.54
666.912	6322.88
667.262	6327.86
667.612	6306.84
667.962	6364.92
668.312	6343
668.662	6308.2
669.011	6371.92
669.361	6319.04
669.711	6395.65
670.06	6356.1
670.41	6326.27
670.76	6375.99
671.109	6391.81
671.459	6319.72
671.808	6315.43
672.157	6311.59
672.507	6317.46
672.856	6274.75
673.205	6293.51
673.554	6301.64
673.904	6275.65
674.253	6354.07
674.602	6303.22
674.951	6237.24
675.3	6236.33
675.649	6305.48
675.998	6308.87
676.346	6294.18
676.695	6333.28
677.044	6247.63
677.393	6298.03
677.741	6295.99
678.09	6290.12
678.438	6252.38
678.787	6272.04
679.135	6283.11
679.484	6161.31
679.832	6276.33
680.181	6193.85
680.529	6211.48
680.877	6187.07
681.225	6165.83
681.573	6213.28
681.922	6138.26
682.27	6158.82
682.618	6119.27
682.966	6136.67
683.314	6166.28
683.661	6157.92
684.009	6103.91
684.357	6093.29
684.705	6109.56
685.053	6066.62
685.4	6053.51
685.748	6014.87
686.095	6024.36
686.443	6017.58
686.79	5935.1
687.138	5988.43
687.485	6025.49
687.832	5944.14
688.18	5957.47
688.527	5908.43
688.874	5955.21
689.221	5890.13
689.568	5854.42
689.915	5810.81
690.262	5847.19
690.609	5814.88
690.956	5851.03
691.303	5803.12
691.65	5773.29
691.997	5833.41
692.344	5737.36
692.69	5729.45
693.037	5725.16
693.383	5726.74
693.73	5713.18
694.077	5741.2
694.423	5723.13
694.769	5672.05
695.116	5677.03
695.462	5651.04
695.808	5671.6
696.155	5639.29
696.501	5603.36
696.847	5618.95
697.193	5579.4
697.539	5534.66
697.885	5513.19
698.231	5504.38
698.577	5506.41
698.923	5518.84
699.269	5470.7
699.614	5479.29
699.96	5519.74
700.306	5535.33
700.651	5476.35
700.997	5436.58
701.342	5466.64
701.688	5389.12
702.033	5435.9
702.379	5417.82
702.724	5385.73
703.069	5433.87
703.415	5303.93
703.76	5375.56
704.105	5313.65
704.45	5327.66
704.795	5328.56
705.14	5354.55
705.485	5345.06
705.83	5257.83
706.175	5290.14
706.52	5258.96
706.865	5218.28
707.209	5268.22
707.554	5191.39
707.899	5193.65
708.243	5243.59
708.588	5171.5
708.932	5129.92
709.277	5159.3
709.621	5171.28
709.966	5103.71
710.31	5146.42
710.654	5070.94
710.998	5077.95
711.342	5120.2
711.687	5092.86
712.031	5094.89
712.375	5039.98
712.719	5031.17
713.063	5072.75
713.407	5040.21
713.75	5019.87
714.094	4996.37
714.438	5014.9
714.782	4989.13
715.125	4919.98
715.469	4990.04
715.812	4928.57
716.156	4903.49
716.499	4924.28
716.843	4924.5
717.186	4904.16
717.53	4916.14
717.873	4931.28
718.216	4919.31
718.559	4871.4
718.902	4855.13
719.246	4864.39
719.589	4844.05
719.932	4829.59
720.275	4838.63
720.617	4806.31
720.96	4800.21
721.303	4850.15
721.646	4831.62
721.989	4797.73
722.331	4794.11
722.674	4748.91
723.016	4757.95
723.359	4742.14
723.701	4781.23
724.044	4674.11
724.386	4715.02
724.729	4720.21
725.071	4689.71
725.413	4682.48
725.755	4707.56
726.097	4696.03
726.439	4691.74
726.782	4653.32
727.124	4678.63
727.465	4654.23
727.807	4677.5
728.149	4634.79
728.491	4596.6
728.833	4637.51
729.175	4620.56
729.516	4645.64
729.858	4587.11
730.199	4563.61
730.541	4575.81
730.882	4598.86
731.224	4564.74
731.565	4590.5
731.906	4554.57
732.248	4558.19
732.589	4544.4
732.93	4575.81
733.271	4547.79
733.612	4502.59
733.953	4548.02
734.294	4517.51
734.635	4512.31
734.976	4522.48
735.317	4479.32
735.658	4512.54
735.999	4509.15
736.339	4473.89
736.68	4505.08
737.021	4478.87
737.361	4468.92
737.702	4507.11
738.042	4472.09
738.383	4492.65
738.723	4453.1
739.063	4489.26
739.404	4490.39
739.744	4451.75
740.084	4424.4
740.424	4438.41
740.764	4403.16
741.104	4407
741.444	4357.74
741.784	4394.57
742.124	4357.74
742.464	4366.78
742.804	4325.2
743.143	4342.82
743.483	4321.13
743.823	4327.68
744.162	4299.89
744.502	4295.59
744.841	4309.15
745.181	4313.45
745.52	4304.18
745.86	4276.38
746.199	4268.7
746.538	4307.34
746.877	4255.37
747.216	4255.82
747.556	4226.67
747.895	4233.22
748.234	4221.7
748.573	4251.98
748.911	4235.71
749.25	4204.75
749.589	4209.27
749.928	4194.35
750.267	4181.02
750.605	4185.31
750.944	4167.69
751.283	4159.78
751.621	4225.99
751.96	4153
752.298	4136.5
752.636	4173.56
752.975	4106.22
753.313	4132.66
753.651	4157.29
753.989	4138.76
754.327	4103.28
754.666	4122.26
755.004	4108.71
755.342	4049.72
755.679	4107.8
756.017	4045.66
756.355	4057.63
756.693	4046.79
757.031	4024.19
757.368	4012.44
757.706	4040.01
758.044	3999.1
758.381	3966.56
758.719	4016.73
759.056	4019.44
759.394	3983.96
759.731	3952.78
760.068	3969.27
760.405	3927.02
760.743	3941.03
761.08	3929.05
761.417	3935.38
761.754	3923.17
762.091	3872.78
762.428	3871.42
762.765	3849.73
763.102	3855.83
763.438	3836.17
763.775	3791.43
764.112	3816.06
764.449	3804.53
764.785	3808.37
765.122	3816.51
765.458	3725.89
765.795	3743.97
766.131	3754.82
766.467	3736.51
766.804	3754.82
767.14	3745.33
767.476	3736.51
767.812	3686.34
768.148	3704.42
768.485	3650.64
768.821	3621.94
769.157	3622.84
769.492	3578.1
769.828	3639.57
770.164	3622.39
770.5	3570.87
770.836	3601.37
771.171	3553.01
771.507	3546.69
771.842	3564.77
772.178	3543.75
772.513	3542.17
772.849	3524.99
773.184	3528.38
773.519	3511.66
773.855	3493.13
774.19	3512.34
774.525	3485.22
774.86	3486.57
775.195	3475.95
775.53	3444.32
775.865	3463.07
776.2	3438.44
776.535	3406.8
776.87	3411.32
777.205	3369.52
777.539	3406.58
777.874	3385.79
778.209	3402.74
778.543	3345.34
778.878	3325
779.212	3334.26
779.547	3285.22
779.881	3294.94
780.215	3322.51
780.55	3318.44
780.884	3311.89
781.218	3299.69
781.552	3287.94
781.886	3280.25
782.22	3224.21
782.554	3234.15
782.888	3201.16
783.222	3206.81
783.556	3197.32
783.889	3162.97
784.223	3171.33
784.557	3144.66
784.89	3148.28
785.224	3173.59
785.557	3129.3
785.891	3133.82
786.224	3132.01
786.558	3139.69
786.891	3083.42
787.224	3089.98
787.557	3039.58
787.891	3042.07
788.224	3042.52
788.557	3069.18
788.89	3051.11
789.223	3043.65
789.556	3030.54
789.888	3001.16
790.221	2981.28
790.554	2980.15
790.887	3001.84
791.219	2976.53
791.552	2934.95
791.884	2932.24
792.217	2944.89
792.549	2955.97
792.882	2886.36
793.214	2928.85
793.546	2890.88
793.879	2879.59
794.211	2855.86
794.543	2885.46
794.875	2867.61
795.207	2870.77
795.539	2881.85
795.871	2871.68
796.203	2843.43
796.535	2830.55
796.867	2795.29
797.198	2834.16
797.53	2806.82
797.862	2793.94
798.193	2828.74
798.525	2793.94
798.856	2798.68
799.188	2766.59
799.519	2776.54
799.85	2760.49
800.182	2758.68
800.513	2738.8
800.844	2732.24
801.175	2790.1
801.506	2704.9
801.837	2699.7
802.168	2711.23
802.499	2737.67
802.83	2694.28
803.161	2672.13
803.491	2709.87
803.822	2669.2
804.153	2649.99
804.483	2667.84
804.814	2638.91
805.145	2659.48
805.475	2649.53
805.805	2647.5
806.136	2640.27
806.466	2652.02
806.796	2633.94
807.126	2604.11
807.457	2609.54
807.787	2585.58
808.117	2576.54
808.447	2592.36
808.777	2578.58
809.107	2569.99
809.436	2581.51
809.766	2579.71
810.096	2552.81
810.426	2530.44
810.755	2546.26
811.085	2557.56
811.414	2515.75
811.744	2488.18
812.073	2513.04
812.403	2492.7
812.732	2464.91
813.061	2487.73
813.39	2473.95
813.719	2445.92
814.049	2472.36
814.378	2468.75
814.707	2449.31
815.036	2465.13
815.365	2473.72
815.693	2461.97
816.022	2417.45
816.351	2423.33
816.68	2408.19
817.008	2443.21
817.337	2413.16
817.665	2421.74
817.994	2383.33
818.322	2435.08
818.651	2414.29
818.979	2427.39
819.307	2386.26
819.636	2389.65
819.964	2372.71
820.292	2367.96
820.62	2369.99
820.948	2372.03
821.276	2364.8
821.604	2411.58
821.932	2380.39
822.259	2339.94
822.587	2363.44
822.915	2352.14
823.243	2402.08
823.57	2357.79
823.898	2373.84
824.225	2352.59
824.553	2401.63
824.88	2365.7
825.207	2387.17
825.535	2352.37
825.862	2392.14
826.189	2370.9
826.516	2407.73
826.843	2368.64
827.17	2390.11
827.497	2379.94
827.824	2370.9
828.151	2354.63
828.478	2370.67
828.805	2388.3
829.131	2365.47
829.458	2346.72
829.785	2351.46
830.111	2340.16
830.438	2322.54
830.764	2329.32
831.09	2400.95
831.417	2370.45
831.743	2365.7
832.069	2336.77
832.395	2350.56
832.722	2362.99
833.048	2340.62
833.374	2354.85
833.7	2333.38
834.026	2315.08
834.351	2324.8
834.677	2344.23
835.003	2354.4
835.329	2301.75
835.654	2316.21
835.98	2279.15
836.306	2327.74
836.631	2301.07
836.956	2323.44
837.282	2310.56
837.607	2309.88
837.932	2292.48
838.258	2272.82
838.583	2297
838.908	2274.18
839.233	2292.03
839.558	2330.45
839.883	2297.45
840.208	2279.6
840.533	2299.04
840.858	2253.39
841.182	2245.25
841.507	2244.8
841.832	2221.52
842.156	2247.29
842.481	2242.77
842.805	2234.63
843.13	2244.35
843.454	2269.66
843.778	2248.87
844.103	2271.69
844.427	2209.77
844.751	2234.4
845.075	2260.17
845.399	2221.75
845.723	2209.55
846.047	2210.45
846.371	2184.69
846.695	2180.85
847.019	2210.9
847.343	2175.65
847.666	2171.13
847.99	2127.29
848.313	2132.49
848.637	2120.28
848.96	2142.66
849.284	2126.38
849.607	2150.79
849.931	2116.67
850.254	2097.01
850.577	2105.14
850.9	2078.93
851.223	2100.17
851.546	2054.52
851.869	2101.75
852.192	2075.31
852.515	2040.51
852.838	2037.12
853.161	2057.46
853.483	2033.96
853.806	2040.51
854.129	2048.87
854.451	2042.55
854.774	2018.82
855.096	2033.96
855.419	2003.9
855.741	2023.34
856.063	2010.46
856.385	2012.04
856.708	1990.34
857.03	1992.6
857.352	1992.38
857.674	1995.99
857.996	1975.88
858.318	1942.21
858.64	1971.13
858.961	1950.57
859.283	1962.55
859.605	1925.03
859.926	1929.1
860.248	1940.17
860.57	1918.03
860.891	1948.76
861.212	1913.73
861.534	1895.66
861.855	1924.58
862.176	1935.88
862.498	1901.31
862.819	1906.96
863.14	1923.23
863.461	1886.17
863.782	1876.67
864.103	1907.18
864.424	1886.39
864.745	1894.07
865.065	1884.81
865.386	1879.84
865.707	1860.4
866.027	1873.51
866.348	1878.93
866.668	1920.97
866.989	1894.98
867.309	1860.63
867.63	1854.3
867.95	1862.89
868.27	1864.24
868.59	1852.04
868.91	1838.48
869.23	1828.31
869.55	1846.17
869.87	1859.95
870.19	1834.64
870.51	1827.64
870.83	1822.89
871.15	1846.62
871.469	1827.64
871.789	1848.88
872.109	1833.51
872.428	1817.24
872.748	1785.15
873.067	1827.86
873.386	1834.64
873.706	1812.95
874.025	1817.69
874.344	1810.91
874.663	1770.24
874.982	1813.85
875.301	1791.25
875.62	1793.51
875.939	1790.8
876.258	1800.52
876.577	1776.79
876.896	1759.84
877.214	1785.38
877.533	1811.59
877.852	1766.85
878.17	1772.04
878.489	1772.72
878.807	1802.33
879.125	1765.49
879.444	1773.63
879.762	1742.89
880.08	1767.52
880.398	1754.42
880.716	1772.95
881.034	1755.77
881.352	1778.37
881.67	1728.66
881.988	1760.29
882.306	1746.73
882.624	1714.64
882.941	1735.21
883.259	1754.87
883.577	1723.01
883.894	1723.68
884.212	1725.94
884.529	1707.19
884.846	1706.06
885.164	1695.21
885.481	1715.32
885.798	1697.47
886.115	1695.21
886.432	1704.02
886.75	1661.31
887.067	1696.57
887.383	1685.72
887.7	1683.01
888.017	1714.42
888.334	1697.24
888.651	1676
888.967	1669.22
889.284	1643.01
889.6	1681.88
889.917	1669.9
890.233	1641.2
890.55	1661.76
890.866	1667.19
891.182	1607.75
891.498	1657.92
891.815	1647.53
892.131	1619.05
892.447	1600.52
892.763	1595.1
893.079	1609.11
893.395	1618.6
893.71	1591.94
894.026	1600.07
894.342	1594.87
894.657	1604.59
894.973	1591.26
895.289	1596.68
895.604	1557.81
895.92	1582.44
896.235	1627.19
896.55	1578.83
896.865	1595.33
897.181	1598.26
897.496	1573.18
897.811	1555.33
898.126	1560.75
898.441	1572.28
898.756	1551.94
899.071	1550.35
899.386	1562.56
899.7	1548.55
900.015	1533.63
900.33	1531.37
900.644	1506.51
900.959	1500.64
901.273	1534.76
901.588	1512.39
901.902	1512.62
902.216	1483.01
902.531	1514.42
902.845	1520.75
903.159	1494.09
903.473	1485.5
903.787	1475.1
904.101	1505.16
904.415	1479.62
904.729	1442.56
905.042	1459.96
905.356	1473.07
905.67	1477.36
905.984	1454.09
906.297	1473.29
906.611	1434.43
906.924	1452.73
907.237	1418.38
907.551	1436.01
907.864	1429.23
908.177	1422.22
908.491	1403.47
908.804	1418.61
909.117	1402.79
909.43	1418.61
909.743	1412.51
910.056	1406.86
910.368	1385.39
910.681	1374.99
910.994	1371.6
911.307	1364.6
911.619	1379.96
911.932	1387.2
912.244	1363.02
912.557	1375.9
912.869	1385.39
913.181	1356.24
913.494	1332.96
913.806	1338.38
914.118	1355.78
914.43	1351.72
914.742	1318.5
915.054	1313.75
915.366	1351.94
915.678	1289.34
915.99	1320.76
916.302	1309.23
916.613	1292.06
916.925	1322.56
917.236	1297.93
917.548	1258.84
917.859	1288.21
918.171	1261.55
918.482	1287.31
918.794	1262.68
919.105	1268.55
919.416	1244.37
919.727	1270.59
920.038	1267.42
920.349	1242.57
920.66	1243.47
920.971	1235.79
921.282	1232.85
921.593	1220.42
921.903	1215.9
922.214	1244.15
922.525	1196.69
922.835	1197.14
923.146	1221.55
923.456	1194.66
923.767	1199.63
924.077	1215.9
924.387	1200.76
924.697	1182.91
925.008	1186.3
925.318	1185.62
925.628	1172.29
925.938	1149.24
926.248	1154.43
926.558	1163.7
926.867	1189.01
927.177	1152.63
927.487	1130.48
927.796	1143.59
928.106	1124.38
928.416	1135.9
928.725	1097.94
929.034	1142.68
929.344	1080.08
929.653	1129.35
929.962	1090.71
930.271	1110.37
930.581	1094.1
930.89	1099.97
931.199	1094.1
931.508	1102
931.817	1108.56
932.125	1091.84
932.434	1086.86
932.743	1081.21
933.051	1081.21
933.36	1095.23
933.669	1063.14
933.977	1045.51
934.286	1043.48
934.594	1058.84
934.902	1037.15
935.21	1073.53
935.519	1050.03
935.827	1033.98
936.135	1071.05
936.443	1003.7
936.751	1024.27
937.059	1033.31
937.367	1050.03
937.674	1015.91
937.982	1019.3
938.29	1025.85
938.597	1024.72
938.905	1020.2
939.213	1030.37
939.52	1012.29
939.827	1010.48
940.135	1000.99
940.442	1002.57
940.749	1001.67
941.056	1014.1
941.363	982.01
941.67	997.37
941.977	982.91
942.284	969.81
942.591	965.51
942.898	971.61
943.205	986.08
943.511	971.61
943.818	984.27
944.125	968.45
944.431	972.97
944.738	949.69
945.044	971.16
945.35	981.56
945.657	945.62
945.963	928.9
946.269	949.01
946.575	947.66
946.881	919.86
947.187	926.42
947.493	939.98
947.799	916.25
948.105	916.93
948.41	935.91
948.716	914.44
949.022	903.59
949.327	927.32
949.633	895.46
949.938	890.49
950.244	924.16
950.549	915.34
950.854	896.81
951.16	894.55
951.465	890.71
951.77	906.76
952.075	902.69
952.38	885.51
952.685	885.29
952.99	879.19
953.294	878.51
953.599	885.97
953.904	876.93
954.209	870.6
954.513	890.94
954.818	866.98
955.122	861.11
955.426	864.27
955.731	855.01
956.035	836.7
956.339	848.9
956.643	842.12
956.948	861.11
957.252	849.81
957.556	850.71
957.86	831.05
958.163	831.05
958.467	858.85
958.771	835.8
959.075	848.68
959.378	828.79
959.682	850.26
959.985	832.41
960.289	824.27
960.592	827.21
960.896	805.74
961.199	824.95
961.502	789.24
961.805	801
962.108	812.75
962.411	825.18
962.714	798.28
963.017	802.8
963.32	811.62
963.623	806.42
963.926	800.54
964.228	803.71
964.531	786.31
964.833	819.3
965.136	781.56
965.438	782.69
965.741	780.66
966.043	788.11
966.345	774.33
966.648	754.9
966.95	773.43
967.252	757.16
967.554	778.4
967.856	753.31
968.158	763.48
968.46	777.27
968.761	761.67
969.063	751.96
969.365	756.7
969.666	742.24
969.968	761.22
970.269	745.4
970.571	756.7
970.872	744.27
971.174	733.43
971.475	729.81
971.776	738.62
972.077	747.21
972.378	734.78
972.679	731.62
972.98	745.18
973.281	716.93
973.582	735.23
973.883	702.47
974.183	727.33
974.484	715.35
974.785	698.85
975.085	721.68
975.386	705.86
975.686	696.82
975.986	722.58
976.287	711.05
976.587	708.57
976.887	715.12
977.187	706.08
977.487	719.42
977.787	704.95
978.087	709.02
978.387	685.97
978.687	677.84
978.987	678.51
979.286	696.37
979.586	651.62
979.885	675.58
980.185	671.73
980.484	681
980.784	649.59
981.083	671.73
981.382	678.06
981.682	677.84
981.981	674.45
982.28	661.11
982.579	687.1
982.878	678.74
983.177	676.25
983.475	658.4
983.774	673.99
984.073	657.27
984.372	643.03
984.67	658.85
984.969	647.33
985.267	664.5
985.566	646.65
985.864	634.22
986.162	655.46
986.461	642.13
986.759	633.99
987.057	613.43
987.355	641.23
987.653	647.33
987.951	624.05
988.249	610.04
988.547	620.21
988.844	634.9
989.142	642.58
989.44	636.71
989.737	619.08
990.035	638.51
990.332	621.79
990.63	627.44
990.927	609.81
991.224	615.46
991.521	609.81
991.819	592.87
992.116	607.55
992.413	618.85
992.71	602.58
993.006	607.55
993.303	619.98
993.6	588.12
993.897	602.13
994.193	598.74
994.49	593.32
994.787	587.22
995.083	589.02
995.379	593.54
995.676	575.47
995.972	587.44
996.268	583.6
996.565	583.15
996.861	570.04
997.157	586.99
997.453	585.18
997.749	584.96
998.044	574.56
998.34	572.08
998.636	606.88
998.932	571.4
999.227	586.09
999.523	588.57
999.818	572.08
1000.114	556.03
1000.409	559.19
1000.704	543.83
1001	569.82
1001.295	566.43
1001.59	563.04
1001.885	568.01
1002.18	571.4
1002.475	517.84
1002.77	551.06
1003.065	552.87
1003.359	560.32
1003.654	553.54
1003.949	536.82
1004.243	551.06
1004.538	534.56
1004.832	545.64
1005.127	525.07
1005.421	521.68
1005.715	554.22
1006.009	534.11
1006.304	549.93
1006.598	533.21
1006.892	551.51
1007.186	557.16
1007.48	536.37
1007.773	537.95
1008.067	522.81
1008.361	516.26
1008.655	519.42
1008.948	524.84
1009.242	527.33
1009.535	503.6
1009.829	512.19
1010.122	516.03
1010.415	513.32
1010.708	507.44
1011.001	510.38
1011.295	501.57
1011.588	490.27
1011.881	521.91
1012.173	496.37
1012.466	498.63
1012.759	501.12
1013.052	511.06
1013.344	490.72
1013.637	490.5
1013.93	505.86
1014.222	498.18
1014.514	491.85
1014.807	493.89
1015.099	484.17
1015.391	492.53
1015.683	508.35
1015.976	476.48
1016.268	479.65
1016.56	490.95
1016.851	474.9
1017.143	479.42
1017.435	468.12
1017.727	490.04
1018.018	473.32
1018.31	488.01
1018.602	477.61
1018.893	454.56
1019.185	460.21
1019.476	467.67
1019.767	487.56
1020.058	465.41
1020.35	497.05
1020.641	463.6
1020.932	469.71
1021.223	466.77
1021.514	464.73
1021.804	467.22
1022.095	457.5
1022.386	462.02
1022.677	463.6
1022.967	441.01
1023.258	453.66
1023.548	466.77
1023.839	447.78
1024.129	458.63
1024.419	444.62
1024.709	435.36
1025	464.51
1025.29	463.6
1025.58	425.64
1025.87	443.49
1026.16	443.49
1026.449	452.3
1026.739	444.4
1027.029	442.59
1027.319	434.68
1027.608	434
1027.898	422.02
1028.187	434.23
1028.477	440.55
1028.766	445.3
1029.055	440.78
1029.344	442.36
1029.634	436.03
1029.923	415.47
1030.212	433.1
1030.501	425.41
1030.79	444.4
1031.078	424.28
1031.367	451.63
1031.656	417.28
1031.945	433.77
1032.233	409.82
1032.522	426.99
1032.81	416.37
1033.099	427.67
1033.387	418.63
1033.675	410.05
1033.963	396.49
1034.251	402.14
1034.54	400.55
1034.828	434.23
1035.116	416.15
1035.403	415.24
1035.691	417.73
1035.979	403.04
1036.267	410.5
1036.554	395.81
1036.842	404.4
1037.129	396.94
1037.417	412.08
1037.704	387.45
1037.992	415.02
1038.279	377.05
1038.566	402.59
1038.853	402.59
1039.14	402.59
