Data from foam2_polystyrene_foam_FLMS001491_00048.txt Node
Date: Wed Feb 08 10:58:01 GMT 2017
User: dcchb
Spectrometer: FLMS00149
Trigger mode: 0
Integration Time (sec): 2.000000E-2
Scans to average: 10
Electric dark correction enabled: true
Nonlinearity correction enabled: false
Boxcar width: 0
XAxis mode: Wavelengths
Number of Pixels in Spectrum: 2048
>>>>>Begin Spectral Data<<<<<
341.393	-4.14
341.776	-4.14
342.16	-4.14
342.543	-39.17
342.927	-72.84
343.31	-80.97
343.693	-69.45
344.077	-51.82
344.46	-69
344.843	-48.2
345.226	-33.74
345.61	-31.03
345.993	-11.37
346.376	-5.04
346.759	36.09
347.142	21.85
347.525	41.96
347.908	46.48
348.291	76.99
348.674	61.17
349.057	116.08
349.44	117.44
349.823	129.64
350.206	166.7
350.588	222.3
350.971	221.84
351.354	242.41
351.737	264.56
352.119	253.71
352.502	260.26
352.884	284.22
353.267	302.52
353.65	288.96
354.032	306.59
354.414	306.36
354.797	315.4
355.179	335.74
355.562	336.64
355.944	335.97
356.326	339.13
356.709	347.72
357.091	363.76
357.473	373.03
357.855	359.69
358.238	375.51
358.62	375.29
359.002	355.4
359.384	355.85
359.766	384.1
360.148	356.98
360.53	363.76
360.912	368.28
361.294	378.22
361.676	377.55
362.057	370.09
362.439	370.09
362.821	359.69
363.203	368.28
363.584	352.01
363.966	378.9
364.348	339.36
364.729	355.17
365.111	366.47
365.493	357.89
365.874	360.37
366.256	383.2
366.637	371.67
367.019	344.55
367.4	327.15
367.781	347.04
368.163	354.27
368.544	361.05
368.925	347.94
369.306	380.26
369.688	346.36
370.069	356.08
370.45	390.65
370.831	342.75
371.212	377.77
371.593	360.82
371.974	337.32
372.355	370.54
372.736	365.8
373.117	369.86
373.498	377.77
373.879	365.8
374.26	374.16
374.641	378.45
375.021	373.7
375.402	373.93
375.783	390.2
376.163	435.17
376.544	418.9
376.925	401.95
377.305	416.87
377.686	412.12
378.066	417.09
378.447	414.16
378.827	388.85
379.208	399.24
379.588	397.89
379.968	426.36
380.349	396.08
380.729	414.61
381.109	426.36
381.489	439.47
381.87	442.18
382.25	417.32
382.63	440.6
383.01	438.34
383.39	457.77
383.77	461.39
384.15	453.48
384.53	466.58
384.91	458.22
385.29	486.47
385.67	461.39
386.049	471.56
386.429	469.52
386.809	454.83
387.189	469.52
387.568	491.22
387.948	480.14
388.328	486.92
388.707	489.63
389.087	495.51
389.466	491.89
389.846	499.58
390.225	505
390.605	496.41
390.984	527.37
391.363	538.22
391.743	544.1
392.122	532.12
392.501	538.67
392.881	566.24
393.26	554.72
393.639	552.46
394.018	561.27
394.397	559.46
394.776	582.51
395.155	587.03
395.534	572.12
395.913	564.66
396.292	608.5
396.671	571.67
397.05	601.04
397.429	633.36
397.808	625.22
398.186	608.95
398.565	624.32
398.944	640.59
399.323	633.59
399.701	626.35
400.08	641.27
400.458	638.56
400.837	668.16
401.215	627.48
401.594	664.09
401.972	673.81
402.351	687.14
402.729	678.33
403.107	717.65
403.486	696.63
403.864	710.65
404.242	675.62
404.62	729.85
404.999	732.79
405.377	720.36
405.755	721.94
406.133	754.26
406.511	742.06
406.889	770.76
407.267	787.48
407.645	793.13
408.023	791.77
408.401	785.45
408.779	786.58
409.156	822.96
409.534	836.97
409.912	844.65
410.29	830.64
410.667	864.77
411.045	870.41
411.422	878.78
411.8	889.17
412.178	914.71
412.555	909.06
412.933	929.17
413.31	946.57
413.687	971.88
414.065	935.5
414.442	971.2
414.819	959.23
415.197	999.45
415.574	992.9
415.951	991.77
416.328	1006
416.705	1023.18
417.082	1032.22
417.46	1036.51
417.837	1062.73
418.214	1075.61
418.591	1063.63
418.967	1056.17
419.344	1091.65
419.721	1081.93
420.098	1108.83
420.475	1134.14
420.852	1128.26
421.228	1146.57
421.605	1171.88
421.982	1182.5
422.358	1204.64
422.735	1199.45
423.111	1186.56
423.488	1228.82
423.864	1226.34
424.241	1235.83
424.617	1273.12
424.994	1283.29
425.37	1278.09
425.746	1302.04
426.123	1290.74
426.499	1322.15
426.875	1329.39
427.251	1359.89
427.627	1371.64
428.003	1381.14
428.379	1428.59
428.756	1431.53
429.132	1443.06
429.507	1457.52
429.883	1496.39
430.259	1494.35
430.635	1491.87
431.011	1541.81
431.387	1568.02
431.763	1579.55
432.138	1594.01
432.514	1631.3
432.89	1632.2
433.265	1667
433.641	1690.73
434.016	1699.55
434.392	1724.63
434.767	1783.39
435.143	1744.06
435.518	1784.06
435.894	1814.57
436.269	1824.06
436.644	1817.96
437.02	1873.33
437.395	1902.93
437.77	1901.12
438.145	1922.14
438.52	1943.83
438.895	1962.59
439.271	1965.98
439.646	2014.57
440.021	2041.68
440.395	2048.24
440.77	2073.77
441.145	2073.1
441.52	2108.35
441.895	2098.41
442.27	2115.81
442.645	2153.09
443.019	2179.08
443.394	2163.94
443.769	2207.33
444.143	2205.3
444.518	2250.49
444.892	2250.49
445.267	2283.03
445.641	2295.46
446.016	2281.68
446.39	2327.33
446.764	2331.17
447.139	2353.54
447.513	2371.17
447.887	2390.83
448.262	2392.41
448.636	2417.27
449.01	2456.14
449.384	2502.01
449.758	2482.8
450.132	2536.36
450.506	2537.72
450.88	2574.55
451.254	2537.72
451.628	2613.65
452.002	2679.41
452.376	2658.16
452.75	2718.05
453.123	2678.28
453.497	2764.38
453.871	2789.01
454.244	2838.05
454.618	2836.24
454.992	2885.96
455.365	2908.55
455.739	2984.48
456.112	3009.79
456.486	3017.93
456.859	3037.36
457.232	3095.44
457.606	3074.65
457.979	3106.06
458.352	3182.67
458.725	3237.13
459.099	3277.81
459.472	3313.51
459.845	3367.75
460.218	3370.46
460.591	3404.59
460.964	3448.2
461.337	3541.98
461.71	3584.24
462.083	3561.64
462.456	3583.11
462.829	3570.68
463.201	3650.91
463.574	3717.57
463.947	3761.41
464.32	3859.49
464.692	3845.48
465.065	3897
465.438	3954.63
465.81	4021.97
466.183	4078.24
466.555	4146.94
466.928	4161.18
467.3	4170.44
467.672	4272.36
468.045	4348.06
468.417	4320.49
468.789	4366.37
469.161	4439.81
469.534	4551.22
469.906	4596.87
470.278	4605.23
470.65	4678
471.022	4778.79
471.394	4884.77
471.766	4922.29
472.138	5023.75
472.51	5082.28
472.882	5166.57
473.253	5203.18
473.625	5321.37
473.997	5393.23
474.369	5510.52
474.74	5540.57
475.112	5622.61
475.484	5702.15
475.855	5818.53
476.227	5894.92
476.598	6029.83
476.97	6106.21
477.341	6166.32
477.713	6300.78
478.084	6305.07
478.455	6538.74
478.827	6548.91
479.198	6773.54
479.569	6760.88
479.94	6952.51
480.311	6991.61
480.682	7133.98
481.053	7333.97
481.424	7454.87
481.795	7547.08
482.166	7639.5
482.537	7773.51
482.908	7874.3
483.279	8021.41
483.65	8194.29
484.021	8352.03
484.391	8420.5
484.762	8552.7
485.133	8644.67
485.503	8695.29
485.874	8950.65
486.244	9010.09
486.615	9196.3
486.985	9284.43
487.356	9512
487.726	9540.92
488.097	9787.47
488.467	9781.82
488.837	9985.2
489.207	10019.78
489.578	10288.7
489.948	10314.01
490.318	10398.98
490.688	10565.75
491.058	10670.16
491.428	10748.35
491.798	10887.55
492.168	11184.95
492.538	11237.37
492.908	11339.97
493.278	11538.16
493.648	11546.52
494.017	11702.67
494.387	11792.16
494.757	11932.27
495.126	12138.37
495.496	12123.45
495.866	12234.18
496.235	12342.88
496.605	12411.58
496.974	12537.68
497.344	12615.87
497.713	12805.02
498.082	12835.75
498.452	12983.32
498.821	13098.12
499.19	13155.97
499.559	13250.43
499.928	13358.45
500.298	13462.4
500.667	13634.15
501.036	13574.49
501.405	13769.96
501.774	13837.08
502.143	13931.77
502.512	14010.18
502.88	14115.72
503.249	14230.74
503.618	14256.5
503.987	14372.21
504.356	14489.04
504.724	14626.89
505.093	14617.4
505.462	14707.11
505.83	14866.43
506.199	14950.5
506.567	15217.38
506.936	15165.63
507.304	15397.94
507.672	15463.25
508.041	15452.86
508.409	15682.91
508.777	15780.53
509.145	15907.99
509.514	15971.49
509.882	16105.49
510.25	16212.84
510.618	16317.69
510.986	16427.07
511.354	16529.66
511.722	16653.28
512.09	16863.67
512.458	16963.55
512.826	17148.86
513.193	17219.36
513.561	17206.26
513.929	17421.17
514.297	17598.34
514.664	17737.99
515.032	17788.16
515.4	17982.06
515.767	18067.02
516.135	18234.93
516.502	18096.63
516.869	18509.95
517.237	18585.43
517.604	18452.33
517.972	18719.66
518.339	18923.73
518.706	18933.44
519.073	19104.51
519.44	19157.62
519.808	19433.09
520.175	19430.6
520.542	19709.92
520.909	19772.97
521.276	19828.79
521.643	20056.58
522.009	20242.56
522.376	20345.61
522.743	20478.04
523.11	20811.81
523.477	20998.02
523.843	21198.24
524.21	21384.68
524.577	21518.01
524.943	21603.66
525.31	21743.54
525.676	22067.82
526.043	22167.71
526.409	22285.45
526.776	22422.84
527.142	22501.48
527.508	22611.76
527.874	22885.2
528.241	22931.3
528.607	23234.35
528.973	23388.92
529.339	23266.89
529.705	23690.38
530.071	23809.25
530.437	23974.89
530.803	24102.35
531.169	24238.84
531.535	24227.09
531.901	24468.44
532.267	24438.61
532.632	24665.5
532.998	24806.28
533.364	24962.21
533.73	25003.57
534.095	25200.85
534.461	25340.05
534.826	25408.07
535.192	25544.57
535.557	25749.08
535.923	25791.12
536.288	25866.14
536.653	25989.3
537.019	25923.32
537.384	26132.58
537.749	26229.97
538.114	26243.08
538.479	26366.24
538.845	26501.38
539.21	26528.05
539.575	26615.95
539.94	26765.1
540.305	27022.27
540.67	26985.66
541.034	27021.14
541.399	27201.93
541.764	27294.35
542.129	27479.66
542.494	27585.42
542.858	27817.28
543.223	27600.56
543.587	27852.53
543.952	27836.03
544.316	28024.05
544.681	27855.92
545.045	28060.66
545.41	28331.39
545.774	28430.82
546.138	28429.01
546.503	28510.59
546.867	28559.18
547.231	28922.56
547.595	28936.12
547.959	28888.66
548.324	29116.9
548.688	29183.12
549.052	29308.54
549.416	29405.71
549.779	29373.85
550.143	29510.57
550.507	29629.88
550.871	29720.05
551.235	29725.25
551.599	29941.97
551.962	29895.64
552.326	30045.92
552.689	30243.2
553.053	30220.83
553.417	30337.89
553.78	30677.31
554.143	30629.41
554.507	30802.28
554.87	30800.25
555.234	31165.44
555.597	31052.22
555.96	31286.56
556.323	31448.37
556.686	31430.97
557.05	31666.67
557.413	31750.73
557.776	31808.58
558.139	32134
558.502	32224.39
558.865	32205.41
559.228	32430.49
559.59	32526.53
559.953	32596.13
560.316	32920.19
560.679	33058.04
561.041	33267.3
561.404	33350.24
561.767	33556.56
562.129	33540.52
562.492	33919.04
562.854	33961.3
563.217	33919.72
563.579	34226.15
563.941	34349.53
564.304	34499.59
564.666	34695.74
565.028	34644.22
565.39	34719.69
565.753	35132.56
566.115	35104.32
566.477	35243.07
566.839	35412.56
567.201	35685.09
567.563	35805.99
567.925	36019.77
568.287	35895.48
568.648	36029.49
569.01	36323.27
569.372	36534.56
569.734	36358.07
570.095	36573.88
570.457	36890.26
570.819	36834.22
571.18	36893.2
571.542	37080.99
571.903	37152.62
572.265	37375.9
572.626	37403.01
572.987	37487.08
573.349	37532.73
573.71	37772.5
574.071	37903.79
574.432	38033.51
574.794	38180.17
575.155	38261.75
575.516	38115.99
575.877	38291.35
576.238	38265.59
576.599	38550.33
576.96	38577.45
577.32	38549.2
577.681	38777.44
578.042	38862.64
578.403	38793.26
578.763	38839.59
579.124	38854.05
579.485	39167.49
579.845	39094.95
580.206	38869.64
580.566	39070.09
580.927	39106.02
581.287	39380.36
581.648	39181.72
582.008	39404.77
582.368	39262.85
582.728	39318.9
583.089	39384.43
583.449	39202.97
583.809	39391.66
584.169	39452.45
584.529	39271.89
584.889	39695.38
585.249	39460.59
585.609	39414.94
585.969	39675.04
586.329	39570.64
586.688	39574.93
587.048	39551.21
587.408	39629.85
587.768	39613.13
588.127	39639.11
588.487	39588.94
588.846	39763.4
589.206	39638.89
589.565	39534.03
589.925	39677.76
590.284	39722.05
590.643	39722.73
591.003	39697.64
591.362	39990.74
591.721	39763.63
592.08	39647.25
592.44	39858.77
592.799	39927.24
593.158	39789.39
593.517	39760.69
593.876	39921.37
594.235	39823.52
594.593	39819.22
594.952	39824.64
595.311	39754.59
595.67	39835.27
596.029	40046.79
596.387	39930.18
596.746	40068.48
597.104	39869.62
597.463	39913.91
597.822	39993.91
598.18	39905.09
598.538	39837.07
598.897	40115.71
599.255	39785.55
599.613	40538.98
599.972	40171.53
600.33	40198.42
600.688	40120.23
601.046	40374.01
601.404	40345.76
601.762	40383.73
602.12	40524.51
602.478	40400.22
602.836	40575.81
603.194	40362.26
603.552	40503.27
603.91	40346.89
604.268	40501.92
604.625	40416.27
604.983	40506.21
605.341	40406.78
605.698	40689.71
606.056	40756.37
606.413	40603.38
606.771	40910.94
607.128	40919.98
607.485	40745.75
607.843	40767.67
608.2	41091.73
608.557	41292.4
608.914	41042.69
609.272	41316.13
609.629	41140.32
609.986	41256.47
610.343	41054.22
610.7	41464.38
611.057	41374.89
611.414	41416.02
611.771	41423.47
612.127	41553.41
612.484	41536.01
612.841	41698.72
613.198	41367.88
613.554	41570.14
613.911	41785.5
614.267	41751.83
614.624	41557.25
614.98	41683.13
615.337	41849.9
615.693	41827.76
616.05	41784.82
616.406	42006.51
616.762	41896.23
617.118	41944.14
617.475	41937.36
617.831	42054.19
618.187	42116.34
618.543	42174.41
618.899	42350.68
619.255	42198.14
619.611	42165.15
619.967	42366.05
620.323	42484.69
620.678	42386.84
621.034	42201.76
621.39	42350
621.746	42226.84
622.101	42711.57
622.457	42161.53
622.812	42410.11
623.168	42343.9
623.523	42331.92
623.879	42476.78
624.234	42240.17
624.589	42372.15
624.945	42468.87
625.3	42465.03
625.655	42479.26
626.01	42623.67
626.365	42469.32
626.72	42472.26
627.075	42379.61
627.43	42340.06
627.785	42313.62
628.14	42445.59
628.495	42373.96
628.85	42352.26
629.205	42333.05
629.559	42501.64
629.914	42293.73
630.269	42300.06
630.623	42164.24
630.978	42079.27
631.332	42305.48
631.687	42195.88
632.041	42060.29
632.396	42113.85
632.75	41872.27
633.104	42012.38
633.459	41985.94
633.813	41978.03
634.167	41804.48
634.521	41710.47
634.875	41774.42
635.229	41868.88
635.583	41493.3
635.937	41557.93
636.291	41518.61
636.645	41585.73
636.999	41497.82
637.352	41399.97
637.706	41272.97
638.06	41520.42
638.413	41458.27
638.767	41176.7
639.121	41296.24
639.474	41176.02
639.828	41094.22
640.181	41061.67
640.534	41080.66
640.888	40833.88
641.241	40820.78
641.594	40824.39
641.947	41038.17
642.301	40854.9
642.654	40907.33
643.007	40719.31
643.36	40671.4
643.713	40689.25
644.066	40725.86
644.419	40519.99
644.771	40230.06
645.124	39884.08
645.477	39845.44
645.83	39490.64
646.182	39511.43
646.535	39245.68
646.888	39144.89
647.24	39087.26
647.593	39273.02
647.945	39220.37
648.298	39045.46
648.65	38935.18
649.002	38767.05
649.355	38866.03
649.707	38983.99
650.059	38866.7
650.411	39464.65
650.763	39436.63
651.115	39821.48
651.467	39682.5
651.819	39752.1
652.171	39669.62
652.523	39563.86
652.875	39761.6
653.227	39328.16
653.578	39554.37
653.93	39472.79
654.282	39233.02
654.633	39093.36
654.985	39124.78
655.337	39160.03
655.688	39153.93
656.039	39172.23
656.391	39043.87
656.742	39178.79
657.094	39088.85
657.445	39297.2
657.796	39111.22
658.147	38911.9
658.498	39002.29
658.849	39023.54
659.2	38989.41
659.551	38881.84
659.902	39111.9
660.253	38935.4
660.604	38976.76
660.955	38809.3
661.306	38935.18
661.656	38937.44
662.007	38969.75
662.358	38918.45
662.708	39002.07
663.059	38917.32
663.409	38655.41
663.76	38830.77
664.11	38712.81
664.461	38927.49
664.811	38632.13
665.161	38722.08
665.511	38614.51
665.862	38610.44
666.212	38763.2
666.562	38729.98
666.912	38619.93
667.262	38548.97
667.612	38501.06
667.962	38673.71
668.312	38515.75
668.662	38569.76
669.011	38571.57
669.361	38297.91
669.711	38448.41
670.06	38485.02
670.41	38316.44
670.76	38370.67
671.109	38518.46
671.459	38429.88
671.808	38475.75
672.157	38416.32
672.507	38278.7
672.856	38367.73
673.205	38351.01
673.554	38386.94
673.904	38176.78
674.253	38470.78
674.602	38193.05
674.951	37619.96
675.3	37556.91
675.649	38061.98
675.998	38024.24
676.346	38018.14
676.695	38184.46
677.044	37878.48
677.393	37998.03
677.741	38040.96
678.09	38014.98
678.438	37727.98
678.787	37805.71
679.135	37713.97
679.484	37521.65
679.832	37739.73
680.181	37566.4
680.529	37650.69
680.877	37564.59
681.225	37607.53
681.573	37684.81
681.922	37642.56
682.27	37328.89
682.618	37571.6
682.966	37329.34
683.314	37324.82
683.661	37285.73
684.009	37051.61
684.357	36965.96
684.705	36924.16
685.053	36812.07
685.4	36946.75
685.748	36713.77
686.095	36635.35
686.443	36506.09
686.79	36563.26
687.138	36670.15
687.485	36554.22
687.832	36483.04
688.18	36441.01
688.527	36225.42
688.874	36162.82
689.221	36016.16
689.568	35954.69
689.915	35818.2
690.262	35774.81
690.609	35671.99
690.956	35483.97
691.303	35518.09
691.65	35362.16
691.997	35368.72
692.344	35262.96
692.69	35198.33
693.037	35114.03
693.383	34955.39
693.73	35004.43
694.077	34911.78
694.423	34839.92
694.769	34727.83
695.116	34572.13
695.462	34620.49
695.808	34394.73
696.155	34570.32
696.501	34146.83
696.847	34186.83
697.193	33902.99
697.539	34157.68
697.885	33945.93
698.231	33794.75
698.577	33799.27
698.923	33834.75
699.269	33601.31
699.614	33376
699.96	33346.85
700.306	33341.88
700.651	33286.29
700.997	33256.91
701.342	33155.44
701.688	33011.04
702.033	32942.79
702.379	32911.83
702.724	32843.36
703.069	32944.15
703.415	32505.52
703.76	32614.89
704.105	32500.54
704.45	32589.58
704.795	32328.57
705.14	32279.53
705.485	32245.18
705.83	32062.82
706.175	32171.96
706.52	31947.79
706.865	31888.13
707.209	31664.18
707.554	31590.96
707.899	31721.81
708.243	31578.31
708.588	31386.45
708.932	31310.74
709.277	31305.55
709.621	31296.06
709.966	31022.16
710.31	31167.7
710.654	31031.2
710.998	30939.45
711.342	31107.81
711.687	30774.71
712.031	30727.48
712.375	30628.73
712.719	30689.97
713.063	30571.55
713.407	30754.15
713.75	30535.4
714.094	30474.83
714.438	30350.77
714.782	30306.48
715.125	30136.09
715.469	30276.87
715.812	30222.64
716.156	29888.41
716.499	29967.5
716.843	29874.4
717.186	29814.51
717.53	29842.31
717.873	29922.08
718.216	29731.35
718.559	29585.82
718.902	29374.98
719.246	29456.33
719.589	29314.19
719.932	29228.77
720.275	29354.19
720.617	29230.57
720.96	29200.07
721.303	29287.97
721.646	29200.29
721.989	28955.55
722.331	29072.16
722.674	28903.12
723.016	28911.26
723.359	28946.51
723.701	28858.61
724.044	28765.27
724.386	28602.12
724.729	28800.98
725.071	28530.48
725.413	28598.5
725.755	28514.66
726.097	28383.36
726.439	28422.23
726.782	28396.02
727.124	28521.89
727.465	28192.63
727.807	28193.76
728.149	28075.35
728.491	28101.79
728.833	28278.51
729.175	28087.1
729.516	27968.69
729.858	27978.4
730.199	27921
730.541	27850.72
730.882	27832.19
731.224	27863.15
731.565	27652.76
731.906	27556.49
732.248	27626.32
732.589	27421.13
732.93	27420.45
733.271	27388.14
733.612	27493.9
733.953	27415.03
734.294	27408.02
734.635	27235.37
734.976	27366.22
735.317	27234.47
735.658	27142.49
735.999	27230.63
736.339	27073.57
736.68	27064.75
737.021	26978.66
737.361	26866.79
737.702	27068.14
738.042	26923.29
738.383	26868.38
738.723	26875.38
739.063	26688.72
739.404	26725.78
739.744	26836.96
740.084	26545.22
740.424	26615.5
740.764	26554.94
741.104	26561.72
741.444	26396.3
741.784	26422.06
742.124	26408.05
742.464	26300.93
742.804	26361.04
743.143	26326.92
743.483	26258.9
743.823	26167.6
744.162	26104.33
744.502	26156.98
744.841	26084.67
745.181	26190.88
745.52	25909.76
745.86	26075.63
746.199	25921.06
746.538	25937.1
746.877	25856.88
747.216	25904.11
747.556	25736.65
747.895	25791.12
748.234	25695.75
748.573	25710.44
748.911	25635.19
749.25	25633.38
749.589	25431.8
749.928	25598.13
750.267	25542.99
750.605	25474.51
750.944	25375.31
751.283	25213.5
751.621	25399.49
751.96	25113.85
752.298	25113.85
752.636	25117.46
752.975	25101.42
753.313	24973.96
753.651	24948.2
753.989	24727.87
754.327	24801.31
754.666	24707.98
755.004	24743.69
755.342	24712.5
755.679	24674.76
756.017	24423.02
756.355	24564.93
756.693	24377.82
757.031	24395.67
757.368	24258.05
757.706	24273.42
758.044	24053.53
758.381	24215.56
758.719	23979.64
759.056	24079.07
759.394	24057.6
759.731	23846.08
760.068	23792.07
760.405	23623.26
760.743	23661.23
761.08	23654.45
761.417	23619.65
761.754	23536.26
762.091	23459.65
762.428	23334.68
762.765	23156.38
763.102	23287.9
763.438	23072.77
763.775	23103.95
764.112	23033.22
764.449	22972.43
764.785	22832.1
765.122	22630.52
765.458	22619.22
765.795	22620.58
766.131	22568.15
766.467	22503.74
766.804	22414.26
767.14	22273.24
767.476	22436.18
767.812	22111.66
768.148	22226.92
768.485	22024.66
768.821	21996.41
769.157	21873.25
769.492	21949.41
769.828	21918
770.164	21601.62
770.5	21605.01
770.836	21591.68
771.171	21529.08
771.507	21480.04
771.842	21323.44
772.178	21248.18
772.513	21214.06
772.849	21137.9
773.184	21037.34
773.519	21104.69
773.855	20930.9
774.19	20896.1
774.525	20755.99
774.86	20754.64
775.195	20714.86
775.53	20500.63
775.865	20445.04
776.2	20325.04
776.535	20225.39
776.87	20200.98
777.205	20077.14
777.539	20044.37
777.874	20080.98
778.209	19871.27
778.543	19772.97
778.878	19683.48
779.212	19730.48
779.547	19650.49
779.881	19711.05
780.215	19580.43
780.55	19594.89
780.884	19522.81
781.218	19444.16
781.552	19481.45
781.886	19298.41
782.22	19200.55
782.554	19134.12
782.888	19046.43
783.222	18888.25
783.556	18882.6
783.889	18844.41
784.223	18729.15
784.557	18685.54
784.89	18704.52
785.224	18643.96
785.557	18522.38
785.891	18416.62
786.224	18408.94
786.558	18368.71
786.891	18151.09
787.224	18080.58
787.557	18110.87
787.891	18057.08
788.224	17988.61
788.557	18023.41
788.89	17896.18
789.223	17921.72
789.556	17753.81
789.888	17764.89
790.221	17616.19
790.554	17474.95
790.887	17533.93
791.219	17526.93
791.552	17367.38
791.884	17290.55
792.217	17264.11
792.549	17207.16
792.882	17075.41
793.214	17041.97
793.546	17076.32
793.879	17025.7
794.211	16916.55
794.543	16871.35
794.875	16857.34
795.207	16928.98
795.539	16667.51
795.871	16775.08
796.203	16520.85
796.535	16475.65
796.867	16466.84
797.198	16437.92
797.53	16341.87
797.862	16265.94
798.193	16325.15
798.525	16133.29
798.856	16212.16
799.188	16048.77
799.519	16030.69
799.85	15902.34
800.182	15978.04
800.513	16013.97
800.844	15723.36
801.175	15810.36
801.506	15844.03
801.837	15782.57
802.168	15623.93
802.499	15644.26
802.83	15483.59
803.161	15470.48
803.491	15523.81
803.822	15446.75
804.153	15307.32
804.483	15235.69
804.814	15234.56
805.145	15267.78
805.475	15231.17
805.805	15056.26
806.136	15114.79
806.466	14985.75
806.796	14997.73
807.126	14859.2
807.457	14886.32
807.787	14795.25
808.117	14799.77
808.447	14618.53
808.777	14745.08
809.107	14747.34
809.436	14655.36
809.766	14641.58
810.096	14657.62
810.426	14540.11
810.755	14626.89
811.085	14560
811.414	14555.25
811.744	14438.42
812.073	14327.24
812.403	14371.08
812.732	14289.05
813.061	14254.92
813.39	14243.62
813.719	14222.61
814.049	14205.66
814.378	14210.63
814.707	14115.94
815.036	14085.21
815.365	14006.34
815.693	13934.93
816.022	13931.54
816.351	13827.59
816.68	13825.55
817.008	13798.66
817.337	13756.4
817.665	13661.27
817.994	13746.46
818.322	13654.94
818.651	13621.27
818.979	13549.18
819.307	13690.64
819.636	13549.86
819.964	13476.19
820.292	13500.37
820.62	13493.59
820.948	13475.51
821.276	13495.85
821.604	13487.71
821.932	13523.42
822.259	13490.2
822.587	13489.52
822.915	13443.19
823.243	13440.25
823.57	13364.1
823.898	13429.41
824.225	13456.52
824.553	13338.34
824.88	13455.85
825.207	13411.55
825.535	13358.22
825.862	13366.81
826.189	13380.82
826.516	13525.22
826.843	13468.73
827.17	13453.13
827.497	13506.69
827.824	13466.24
828.151	13534.49
828.478	13400.03
828.805	13466.92
829.131	13412.23
829.458	13416.07
829.785	13296.08
830.111	13367.71
830.438	13391.67
830.764	13378.11
831.09	13339.69
831.417	13256.76
831.743	13360.71
832.069	13401.61
832.395	13241.62
832.722	13335.4
833.048	13314.16
833.374	13239.13
833.7	13210.88
834.026	13259.69
834.351	13218.34
834.677	13219.24
835.003	13284.1
835.329	13207.94
835.654	13307.38
835.98	13170.66
836.306	13119.13
836.631	13133.14
836.956	13206.14
837.282	13113.71
837.607	13068.29
837.932	12974.5
838.258	12978.8
838.583	12973.6
838.908	12891.79
839.233	12875.3
839.558	12873.72
839.883	12830.55
840.208	12793.27
840.533	12769.76
840.858	12776.99
841.182	12797.33
841.507	12774.06
841.832	12665.36
842.156	12648.86
842.481	12720.27
842.805	12700.39
843.13	12644.79
843.454	12636.43
843.778	12552.82
844.103	12593.95
844.427	12551.24
844.751	12615.19
845.075	12516.66
845.399	12485.48
845.723	12415.87
846.047	12425.14
846.371	12372.26
846.695	12334.29
847.019	12202.55
847.343	12226.5
847.666	12136.79
847.99	12109.89
848.313	12006.62
848.637	11915.55
848.96	11922.55
849.284	11863.12
849.607	11775.66
849.931	11813.4
850.254	11692.5
850.577	11661.09
850.9	11514.65
851.223	11540.42
851.546	11549.46
851.869	11476.46
852.192	11475.11
852.515	11316.24
852.838	11329.57
853.161	11296.36
853.483	11214.1
853.806	11147.21
854.129	11141.33
854.451	11129.13
854.774	11054.33
855.096	10971.17
855.419	11003.03
855.741	10961
856.063	10919.42
856.385	10863.82
856.708	10753.09
857.03	10834.9
857.352	10814.56
857.674	10759.87
857.996	10725.75
858.318	10735.47
858.64	10768.69
858.961	10682.13
859.283	10637.84
859.605	10565.75
859.926	10567.56
860.248	10602.14
860.57	10531.86
860.891	10564.17
861.212	10521.46
861.534	10415.7
861.855	10468.81
862.176	10445.3
862.498	10457.73
862.819	10452.08
863.14	10300.22
863.461	10346.55
863.782	10264.74
864.103	10354.23
864.424	10352.88
864.745	10302.26
865.065	10239.66
865.386	10235.82
865.707	10177.74
866.027	10277.63
866.348	10213.67
866.668	10143.17
866.989	10196.72
867.309	10131.41
867.63	10140.45
867.95	10100
868.27	10045.31
868.59	10124.18
868.91	9989.05
869.23	10080.57
869.55	10009.84
869.87	10056.84
870.19	10008.03
870.51	10024.75
870.83	10035.37
871.15	9916.5
871.469	9918.09
871.789	9909.95
872.109	9905.21
872.428	9872.89
872.748	9858.2
873.067	9850.74
873.386	9842.16
873.706	9772.33
874.025	9729.17
874.344	9812.78
874.663	9806.9
874.982	9735.49
875.301	9699.56
875.62	9728.71
875.939	9712.67
876.258	9687.58
876.577	9603.97
876.896	9676.74
877.214	9620.47
877.533	9622.5
877.852	9696.4
878.17	9601.48
878.489	9577.76
878.807	9608.26
879.125	9562.39
879.444	9560.13
879.762	9555.38
880.08	9472.22
880.398	9487.82
880.716	9459.34
881.034	9470.64
881.352	9436.29
881.67	9361.49
881.988	9385.22
882.306	9334.37
882.624	9350.87
882.941	9246.24
883.259	9323.98
883.577	9282.62
883.894	9281.04
884.212	9244.43
884.529	9187.71
884.846	9284.66
885.164	9173.7
885.481	9135.73
885.798	9133.47
886.115	9072.69
886.432	9190.42
886.75	9139.8
887.067	9156.75
887.383	9014.61
887.7	9077.66
888.017	8960.15
888.334	8934.16
888.651	8980.03
888.967	8916.98
889.284	8851.22
889.6	8826.82
889.917	8745.46
890.233	8858.68
890.55	8735.29
890.866	8877.21
891.182	8792.24
891.498	8678.35
891.815	8676.09
892.131	8668.63
892.447	8662.53
892.763	8631.11
893.079	8591.34
893.395	8590.21
893.71	8589.76
894.026	8550.89
894.342	8516.09
894.657	8472.02
894.973	8467.28
895.289	8472.7
895.604	8403.1
895.92	8321.52
896.235	8324.68
896.55	8413.95
896.865	8309.32
897.181	8274.06
897.496	8265.47
897.811	8293.5
898.126	8212.82
898.441	8152.71
898.756	8149.09
899.071	8110
899.386	8073.16
899.7	7971.7
900.015	7947.07
900.33	7938.93
900.644	7898.93
900.959	7989.32
901.273	7875.2
901.588	7828.88
901.902	7837.69
902.216	7767.63
902.531	7734.42
902.845	7790.91
903.159	7689.67
903.473	7729.67
903.787	7674.98
904.101	7663.23
904.415	7683.34
904.729	7646.06
905.042	7565.38
905.356	7589.33
905.67	7536
905.984	7460.98
906.297	7477.47
906.611	7426.63
906.924	7364.26
907.237	7369.45
907.551	7308.44
907.864	7282.45
908.177	7298.04
908.491	7252.85
908.804	7168.55
909.117	7210.81
909.43	7177.82
909.743	7101.66
910.056	7125.17
910.368	7132.85
910.681	7011.72
910.994	6992.74
911.307	6990.03
911.619	6933.76
911.932	6932.63
912.244	6886.3
912.557	6941.67
912.869	6874.55
913.181	6824.61
913.494	6802.24
913.806	6799.98
914.118	6764.27
914.43	6693.09
914.742	6629.13
915.054	6586.2
915.366	6594.78
915.678	6579.87
915.99	6533.77
916.302	6497.61
916.613	6482.24
916.925	6491.51
917.236	6450.38
917.548	6389.14
917.859	6434.34
918.171	6447.44
918.482	6301.23
918.794	6313.21
919.105	6272.76
919.416	6232.08
919.727	6183.72
920.038	6220.78
920.349	6181.46
920.66	6136.49
920.971	6170.16
921.282	6128.58
921.593	6065.08
921.903	6028.47
922.214	6058.98
922.525	5995.48
922.835	6000.9
923.146	5967
923.456	5900.57
923.767	5887.23
924.077	5872.32
924.387	5783.51
924.697	5820.34
925.008	5819.89
925.318	5766.56
925.628	5768.14
925.938	5734.92
926.248	5684.98
926.558	5699.67
926.867	5653.34
927.177	5628.03
927.487	5566.34
927.796	5582.38
928.106	5595.94
928.416	5587.81
928.725	5556.85
929.034	5489.73
929.344	5547.58
929.653	5503.74
929.962	5444.76
930.271	5475.72
930.581	5414.02
930.89	5329.05
931.199	5331.99
931.508	5358.21
931.817	5385.78
932.125	5265.33
932.434	5309.17
932.743	5242.05
933.051	5217.42
933.36	5168.61
933.669	5174.03
933.977	5194.6
934.286	5166.57
934.594	5148.95
934.902	5098.33
935.21	5031.66
935.519	5044.77
935.827	5042.73
936.135	5036.41
936.443	4970.19
936.751	4965.22
937.059	4922.06
937.367	4926.35
937.674	4925.22
937.982	4899.46
938.29	4886.58
938.597	4861.27
938.905	4831.89
939.213	4821.05
939.52	4804.55
939.827	4811.33
940.135	4769.75
940.442	4741.5
940.749	4716.19
941.056	4690.88
941.363	4667.38
941.67	4616.08
941.977	4669.19
942.284	4621.73
942.591	4645.91
942.898	4591
943.205	4601.62
943.511	4535.4
943.818	4584.44
944.125	4527.04
944.431	4519.13
944.738	4466.03
945.044	4444.78
945.35	4402.07
945.657	4361.85
945.963	4405.92
946.269	4350.55
946.575	4304.9
946.881	4331.57
947.187	4348.29
947.493	4277.33
947.799	4284.11
948.105	4220.16
948.41	4247.05
948.716	4186.26
949.022	4193.49
949.327	4206.6
949.633	4167.73
949.938	4106.49
950.244	4172.02
950.549	4113.27
950.854	4121.18
951.16	4093.61
951.465	4059.26
951.77	4072.36
952.075	4052.48
952.38	4018.35
952.685	4045.7
952.99	3957.57
953.294	3932.71
953.599	3918.47
953.904	3929.09
954.209	3905.59
954.513	3927.74
954.818	3859.26
955.122	3835.08
955.426	3825.82
955.731	3816.1
956.035	3743.56
956.339	3794.41
956.643	3760.73
956.948	3734.97
957.252	3719.15
957.556	3744.46
957.86	3720.51
958.163	3711.92
958.467	3646.61
958.771	3690
959.075	3673.96
959.378	3624.92
959.682	3629.89
959.985	3582.21
960.289	3583.11
960.592	3558.93
960.896	3530.01
961.199	3533.85
961.502	3533.85
961.805	3507.41
962.108	3470.12
962.411	3480.06
962.714	3451.14
963.017	3426.73
963.32	3444.36
963.623	3432.83
963.926	3441.19
964.228	3381.76
964.531	3399.84
964.833	3373.17
965.136	3324.59
965.438	3312.38
965.741	3298.15
966.043	3300.86
966.345	3308.54
966.648	3285.49
966.95	3269
967.252	3253.86
967.554	3207.08
967.856	3251.6
968.158	3149.23
968.46	3181.99
968.761	3154.42
969.063	3190.58
969.365	3177.7
969.666	3116.46
969.968	3076.68
970.269	3101.32
970.571	3098.38
970.872	3076.01
971.174	3092.5
971.475	3068.78
971.776	3018.61
972.077	3053.86
972.378	3025.16
972.679	2998.72
972.98	2980.19
973.281	3019.74
973.582	2976.57
973.883	2942.45
974.183	2966.63
974.484	2903.81
974.785	2903.81
975.085	2935.45
975.386	2880.53
975.686	2899.29
975.986	2869.46
976.287	2866.52
976.587	2824.49
976.887	2804.6
977.187	2812.74
977.487	2803.47
977.787	2797.6
978.087	2778.61
978.387	2767.54
978.687	2762.34
978.987	2755.11
979.286	2763.47
979.586	2722.34
979.885	2674.44
980.185	2692.06
980.484	2730.25
980.784	2696.36
981.083	2685.28
981.382	2662.46
981.682	2652.29
981.981	2664.27
982.28	2616.58
982.579	2612.06
982.878	2620.65
983.177	2624.49
983.475	2591.05
983.774	2564.61
984.073	2522.35
984.372	2549.92
984.67	2545.4
984.969	2527.77
985.267	2516.7
985.566	2491.39
985.864	2490.03
986.162	2458.17
986.461	2490.26
986.759	2435.35
987.057	2431.96
987.355	2428.34
987.653	2403.26
987.951	2425.85
988.249	2397.61
988.547	2369.58
988.844	2368.68
989.142	2394.67
989.44	2347.44
989.737	2312.64
990.035	2309.02
990.332	2305.18
990.63	2271.28
990.927	2298.4
991.224	2262.92
991.521	2245.97
991.819	2240.77
992.116	2245.75
992.413	2229.93
992.71	2221.34
993.006	2205.52
993.303	2231.06
993.6	2194.9
993.897	2178.63
994.193	2198.52
994.49	2182.92
994.787	2159.19
995.083	2152.64
995.379	2117.84
995.676	2138.63
995.972	2132.08
996.268	2127.56
996.565	2092.08
996.861	2097.05
997.157	2082.59
997.453	2058.63
997.749	2059.08
998.044	2035.81
998.34	2046.88
998.636	1992.42
998.932	1996.26
999.227	1998.29
999.523	1987.45
999.818	1994.91
1000.114	1993.1
1000.409	1957.39
1000.704	1967.56
1001	1962.82
1001.295	1922.36
1001.59	1928.47
1001.885	1926.43
1002.18	1919.43
1002.475	1885.53
1002.77	1892.31
1003.065	1851.41
1003.359	1862.48
1003.654	1880.11
1003.949	1837.85
1004.243	1833.78
1004.538	1824.97
1004.832	1837.85
1005.127	1803.27
1005.421	1827.23
1005.715	1789.71
1006.009	1780.9
1006.304	1750.17
1006.598	1754.46
1006.892	1757.62
1007.186	1723.73
1007.48	1742.48
1007.773	1707.91
1008.067	1708.36
1008.361	1708.36
1008.655	1670.85
1008.948	1659.77
1009.242	1665.42
1009.535	1642.37
1009.829	1675.14
1010.122	1653.9
1010.415	1659.77
1010.708	1670.85
1011.001	1616.84
1011.295	1589.27
1011.588	1593.11
1011.881	1587.91
1012.173	1565.99
1012.466	1545.2
1012.759	1566.89
1013.052	1527.35
1013.344	1545.2
1013.637	1525.31
1013.93	1553.33
1014.222	1515.6
1014.514	1510.17
1014.807	1516.73
1015.099	1502.49
1015.391	1485.99
1015.683	1487.57
1015.976	1483.05
1016.268	1479.44
1016.56	1423.17
1016.851	1421.36
1017.143	1429.95
1017.435	1445.99
1017.727	1415.71
1018.018	1411.19
1018.31	1387.24
1018.602	1406.9
1018.893	1364.64
1019.185	1379.33
1019.476	1352.21
1019.767	1368.25
1020.058	1339.33
1020.35	1338.65
1020.641	1325.54
1020.932	1334.58
1021.223	1299.1
1021.514	1337.97
1021.804	1321.02
1022.095	1275.38
1022.386	1282.83
1022.677	1274.47
1022.967	1248.26
1023.258	1243.29
1023.548	1262.72
1023.839	1236.96
1024.129	1246.9
1024.419	1186.79
1024.709	1207.36
1025	1233.8
1025.29	1225.43
1025.58	1178.2
1025.87	1197.41
1026.16	1149.96
1026.449	1165.55
1026.739	1155.38
1027.029	1157.87
1027.319	1169.16
1027.608	1137.98
1027.898	1119.45
1028.187	1115.61
1028.477	1124.42
1028.766	1129.62
1029.055	1119.67
1029.344	1107.92
1029.634	1098.66
1029.923	1068.6
1030.212	1063.63
1030.501	1068.15
1030.79	1057.3
1031.078	1050.3
1031.367	1065.44
1031.656	1057.08
1031.945	1020.92
1032.233	1034.93
1032.522	1037.87
1032.81	1008.94
1033.099	1006.23
1033.387	1006
1033.675	1006.23
1033.963	1002.39
1034.251	1003.52
1034.54	983.41
1034.828	986.34
1035.116	972.11
1035.403	961.49
1035.691	950.86
1035.979	964.88
1036.267	950.19
1036.554	934.82
1036.842	926.01
1037.129	932.11
1037.417	929.17
1037.704	957.87
1037.992	896.63
1038.279	923.07
1038.566	917.42
1038.853	917.42
1039.14	917.42
