Data from foam1_polythene_foam_FLMS001491_00081.txt Node
Date: Wed Feb 08 10:55:30 GMT 2017
User: dcchb
Spectrometer: FLMS00149
Trigger mode: 0
Integration Time (sec): 2.000000E-2
Scans to average: 10
Electric dark correction enabled: true
Nonlinearity correction enabled: false
Boxcar width: 0
XAxis mode: Wavelengths
Number of Pixels in Spectrum: 2048
>>>>>Begin Spectral Data<<<<<
341.393	12.33
341.776	12.33
342.16	12.33
342.543	-25.63
342.927	-62.24
343.31	-73.32
343.693	-71.74
344.077	-49.36
344.46	-52.98
344.843	-52.07
345.226	-47.1
345.61	-43.04
345.993	-25.63
346.376	12.78
346.759	7.36
347.142	26.12
347.525	39.45
347.908	82.16
348.291	50.3
348.674	85.55
349.057	111.54
349.44	126
349.823	148.37
350.206	148.82
350.588	187.69
350.971	196.05
351.354	217.97
351.737	222.04
352.119	242.61
352.502	255.04
352.884	241.7
353.267	263.17
353.65	267.46
354.032	282.38
354.414	294.81
354.797	307.01
355.179	316.95
355.562	313.79
355.944	312.21
356.326	309.72
356.709	311.08
357.091	302.72
357.473	314.92
357.855	311.08
358.238	316.28
358.62	344.52
359.002	323.28
359.384	305.66
359.766	345.2
360.148	320.8
360.53	329.84
360.912	303.17
361.294	344.98
361.676	321.93
362.057	317.41
362.439	315.83
362.821	299.55
363.203	309.72
363.584	295.71
363.966	318.99
364.348	299.78
364.729	318.54
365.111	317.18
365.493	302.72
365.874	306.56
366.256	315.83
366.637	309.05
367.019	303.4
367.4	303.62
367.781	306.56
368.163	306.56
368.544	316.05
368.925	293.9
369.306	298.65
369.688	289.39
370.069	282.15
370.45	293
370.831	294.36
371.212	309.27
371.593	309.05
371.974	314.7
372.355	318.08
372.736	292.77
373.117	316.95
373.498	319.44
373.879	307.46
374.26	281.25
374.641	286
375.021	300.91
375.402	319.89
375.783	315.37
376.163	306.11
376.544	285.54
376.925	303.85
377.305	319.89
377.686	308.82
378.066	304.53
378.447	309.5
378.827	304.75
379.208	322.15
379.588	309.5
379.968	338.65
380.349	325.77
380.729	326.9
381.109	334.36
381.489	323.06
381.87	332.55
382.25	344.07
382.63	324.41
383.01	325.32
383.39	325.99
383.77	340.91
384.15	323.96
384.53	341.81
384.91	340.23
385.29	352.66
385.67	355.82
386.049	354.47
386.429	352.21
386.809	343.85
387.189	325.32
387.568	339.33
387.948	352.89
388.328	349.72
388.707	346.56
389.087	366.67
389.466	370.29
389.846	361.47
390.225	365.77
390.605	355.82
390.984	379.1
391.363	365.09
391.743	371.42
392.122	339.55
392.501	359.67
392.881	372.77
393.26	382.94
393.639	356.73
394.018	370.51
394.397	355.82
394.776	375.48
395.155	357.63
395.534	378.42
395.913	361.25
396.292	383.17
396.671	385.88
397.05	381.36
397.429	365.77
397.808	402.83
398.186	365.54
398.565	390.85
398.944	393.11
399.323	378.2
399.701	395.6
400.08	398.76
400.458	395.6
400.837	431.53
401.215	419.78
401.594	408.93
401.972	401.92
402.351	403.96
402.729	407.57
403.107	404.64
403.486	404.64
403.864	410.29
404.242	417.29
404.62	417.29
404.999	407.35
405.377	438.08
405.755	442.6
406.133	414.58
406.511	428.82
406.889	421.36
407.267	429.95
407.645	445.09
408.023	440.79
408.401	444.86
408.779	451.19
409.156	448.02
409.534	443.05
409.912	434.47
410.29	461.58
410.667	477.63
411.045	478.53
411.422	468.14
411.8	459.32
412.178	451.41
412.555	487.57
412.933	500.23
413.31	469.27
413.687	484.41
414.065	491.19
414.442	475.37
414.819	509.04
415.197	485.31
415.574	523.73
415.951	494.8
416.328	538.64
416.705	526.44
417.082	530.28
417.46	501.13
417.837	511.07
418.214	518.31
418.591	530.06
418.967	537.51
419.344	536.61
419.721	555.59
420.098	534.8
420.475	554.46
420.852	554.46
421.228	554.24
421.605	532.54
421.982	557.63
422.358	559.89
422.735	558.3
423.111	574.58
423.488	574.35
423.864	575.25
424.241	576.84
424.617	589.26
424.994	587.91
425.37	567.34
425.746	583.39
426.123	591.52
426.499	578.64
426.875	612.31
427.251	591.75
427.627	602.6
428.003	609.38
428.379	615.48
428.756	621.58
429.132	649.6
429.507	624.52
429.883	658.19
430.259	667.91
430.635	677.62
431.011	664.74
431.387	659.09
431.763	671.97
432.138	661.35
432.514	701.35
432.89	678.75
433.265	736.15
433.641	709.49
434.016	728.92
434.392	726.21
434.767	728.47
435.143	727.11
435.518	724.63
435.894	742.93
436.269	757.17
436.644	769.37
437.02	775.93
437.395	767.34
437.77	788.58
438.145	766.89
438.52	785.64
438.895	777.51
439.271	811.86
439.646	801.91
440.021	800.56
440.395	818.18
440.77	815.92
441.145	819.31
441.52	833.1
441.895	827.9
442.27	835.59
442.645	855.47
443.019	864.96
443.394	869.48
443.769	878.3
444.143	871.29
444.518	906.77
444.892	894.34
445.267	886.21
445.641	903.61
446.016	906.32
446.39	901.12
446.764	938.41
447.139	928.46
447.513	909.48
447.887	914.68
448.262	943.61
448.636	935.47
449.01	958.52
449.384	965.98
449.758	960.33
450.132	996.26
450.506	975.24
450.88	980.89
451.254	1000.55
451.628	1017.73
452.002	1018.41
452.376	1043.04
452.75	1035.13
453.123	1056.37
453.497	1071.96
453.871	1042.13
454.244	1026.99
454.618	1092.3
454.992	1088.69
455.365	1078.29
455.739	1110.61
456.112	1107.89
456.486	1108.35
456.859	1121.45
457.232	1159.64
457.606	1100.21
457.979	1153.77
458.352	1153.09
458.725	1167.55
459.099	1166.2
459.472	1174.79
459.845	1184.95
460.218	1197.16
460.591	1189.02
460.964	1194.22
461.337	1222.92
461.71	1238.29
462.083	1265.63
462.456	1235.12
462.829	1253.65
463.201	1273.09
463.574	1307.21
463.947	1290.49
464.32	1278.74
464.692	1318.51
465.065	1322.8
465.438	1356.02
465.81	1345.85
466.183	1337.49
466.555	1408
466.928	1408.23
467.3	1402.58
467.672	1398.28
468.045	1442.8
468.417	1431.5
468.789	1423.37
469.161	1462.69
469.534	1472.4
469.906	1513.99
470.278	1487.32
470.65	1507.21
471.022	1553.76
471.394	1584.27
471.766	1616.36
472.138	1587.43
472.51	1651.16
472.882	1634.66
473.253	1671.04
473.625	1665.39
473.997	1690.48
474.369	1714.88
474.74	1742.68
475.112	1758.95
475.484	1772.96
475.855	1803.92
476.227	1833.75
476.598	1860.64
476.97	1875.33
477.341	1897.7
477.713	1937.7
478.084	1929.57
478.455	1954.43
478.827	2008.89
479.198	2031.94
479.569	2039.4
479.94	2091.37
480.311	2111.26
480.682	2186.51
481.053	2230.58
481.424	2245.72
481.795	2266.28
482.166	2303.8
482.537	2308.99
482.908	2355.09
483.279	2359.84
483.65	2416.33
484.021	2429.89
484.391	2439.39
484.762	2478.03
485.133	2520.51
485.503	2561.87
485.874	2577.69
486.244	2611.81
486.615	2663.11
486.985	2689.77
487.356	2722.32
487.726	2745.14
488.097	2792.37
488.467	2805.48
488.837	2854.29
489.207	2875.31
489.578	2904.91
489.948	2960.05
490.318	3040.73
490.688	3044.79
491.058	3017.9
491.428	3077.33
491.798	3095.64
492.168	3143.1
492.538	3160.04
492.908	3175.18
493.278	3262.41
493.648	3261.28
494.017	3328.4
494.387	3346.25
494.757	3368.85
495.126	3406.82
495.496	3440.94
495.866	3441.84
496.235	3475.97
496.605	3451.11
496.974	3506.93
497.344	3563.88
497.713	3579.02
498.082	3587.15
498.452	3621.05
498.821	3659.24
499.19	3675.28
499.559	3713.7
499.928	3744.66
500.298	3769.75
500.667	3774.72
501.036	3810.42
501.405	3846.13
501.774	3813.13
502.143	3841.16
502.512	3872.57
502.88	3945.56
503.249	3943.53
503.618	3972.9
503.987	4034.37
504.356	4019.68
504.724	4075.05
505.093	4092
505.462	4129.74
505.83	4121.37
506.199	4146.46
506.567	4135.61
506.936	4162.28
507.304	4211.77
507.672	4285.89
508.041	4354.59
508.409	4324.76
508.777	4385.77
509.145	4466.9
509.514	4458.54
509.882	4430.52
510.25	4442.72
510.618	4466
510.986	4484.75
511.354	4515.26
511.722	4561.14
512.09	4671.64
512.458	4609.72
512.826	4669.16
513.193	4702.38
513.561	4756.61
513.929	4797.29
514.297	4829.83
514.664	4845.42
515.032	4851.07
515.4	4878.64
515.767	4912.99
516.135	4905.31
516.502	4852.2
516.869	5051.07
517.237	5058.53
517.604	5053.78
517.972	5127.45
518.339	5170.61
518.706	5203.61
519.073	5227.33
519.44	5272.3
519.808	5342.36
520.175	5326.09
520.542	5372.42
520.909	5393.21
521.276	5332.19
521.643	5491.28
522.009	5467.1
522.376	5555.91
522.743	5623.03
523.11	5692.86
523.477	5721.33
523.843	5748.68
524.21	5803.14
524.577	5873.87
524.943	5869.8
525.31	5861.44
525.676	5978.5
526.043	5977.15
526.409	5959.07
526.776	6003.59
527.142	6053.98
527.508	6094.66
527.874	6129.01
528.241	6207.42
528.607	6204.71
528.973	6347.53
529.339	6343.92
529.705	6406.96
530.071	6398.15
530.437	6454.87
530.803	6483.57
531.169	6471.82
531.535	6504.14
531.901	6514.53
532.267	6572.38
532.632	6644.47
532.998	6652.83
533.364	6733.28
533.73	6713.62
534.095	6825.71
534.461	6886.05
534.826	6875.43
535.192	6895.54
535.557	7005.37
535.923	6922.43
536.288	6925.14
536.653	6931.92
537.019	6932.83
537.384	6928.53
537.749	7072.48
538.114	7070
538.479	7054.4
538.845	7118.13
539.21	7168.98
539.575	7192.48
539.94	7265.02
540.305	7322.42
540.67	7328.75
541.034	7284.23
541.399	7361.06
541.764	7334.4
542.129	7363.55
542.494	7355.64
542.858	7474.05
543.223	7413.27
543.587	7502.08
543.952	7405.36
544.316	7547.95
544.681	7534.39
545.045	7603.77
545.41	7668.63
545.774	7685.57
546.138	7710.66
546.503	7758.12
546.867	7680.6
547.231	7746.59
547.595	7715.18
547.959	7803.99
548.324	7825.91
548.688	7817.77
549.052	7923.99
549.416	7858.9
549.779	7918.11
550.143	7975.06
550.507	7973.93
550.871	8071.55
551.235	8066.13
551.599	8173.7
551.962	8156.97
552.326	8191.32
552.689	8181.61
553.053	8168.73
553.417	8129.86
553.78	8324.43
554.143	8272
554.507	8283.07
554.87	8373.92
555.234	8467.25
555.597	8435.39
555.96	8486.46
556.323	8484.88
556.686	8612.56
557.05	8597.42
557.413	8640.13
557.776	8606.23
558.139	8696.17
558.502	8723.97
558.865	8666.11
559.228	8696.85
559.59	8763.51
559.953	8769.39
560.316	8936.16
560.679	8897.97
561.041	8976.39
561.404	9045.09
561.767	9121.92
562.129	9124.41
562.492	9194.69
562.854	9263.16
563.217	9168.47
563.579	9215.03
563.941	9322.14
564.304	9328.92
564.666	9411.18
565.028	9329.6
565.39	9418.18
565.753	9461.8
566.115	9541.12
566.477	9536.15
566.839	9617.05
567.201	9665.86
567.563	9743.15
567.925	9781.56
568.287	9810.49
568.648	9801.45
569.01	9814.33
569.372	9953.54
569.734	9850.26
570.095	9929.36
570.457	9904.27
570.819	9930.26
571.18	9985.85
571.542	10067.43
571.903	10027.89
572.265	10149.24
572.626	10172.74
572.987	10178.39
573.349	10147.66
573.71	10272.17
574.071	10271.72
574.432	10346.3
574.794	10463.58
575.155	10442.11
575.516	10400.08
575.877	10444.37
576.238	10443.47
576.599	10391.49
576.96	10437.82
577.32	10427.88
577.681	10452.96
578.042	10560.3
578.403	10490.02
578.763	10448.44
579.124	10520.3
579.485	10676.68
579.845	10653.18
580.206	10643.01
580.566	10678.94
580.927	10711.48
581.287	10723.46
581.648	10728.21
582.008	10721.65
582.368	10677.81
582.728	10687.76
583.089	10628.77
583.449	10631.49
583.809	10647.53
584.169	10694.76
584.529	10632.84
584.889	10726.62
585.249	10697.7
585.609	10649.11
585.969	10819.05
586.329	10787.19
586.688	10827.19
587.048	10785.38
587.408	10799.62
587.768	10774.31
588.127	10777.24
588.487	10674.42
588.846	10790.58
589.206	10770.69
589.565	10672.61
589.925	10727.08
590.284	10712.39
590.643	10687.76
591.003	10725.72
591.362	10718.49
591.721	10683.91
592.08	10829.45
592.44	10906.73
592.799	10888.2
593.158	10824.7
593.517	10850.69
593.876	10830.12
594.235	10846.17
594.593	10863.34
594.952	10887.07
595.311	10852.72
595.67	10791.03
596.029	10836.68
596.387	10853.85
596.746	10781.09
597.104	10835.55
597.463	10796.91
597.822	10834.64
598.18	10835.77
598.538	10818.83
598.897	10984.02
599.255	10932.27
599.613	11002.78
599.972	10997.35
600.33	10916
600.688	10942.89
601.046	10973.85
601.404	11030.57
601.762	11038.03
602.12	11091.36
602.478	10935.66
602.836	10984.02
603.194	10900.18
603.552	10879.16
603.91	10878.49
604.268	10903.8
604.625	10898.15
604.983	11022.66
605.341	10955.09
605.698	11023.57
606.056	11096.78
606.413	11047.07
606.771	11153.73
607.128	11122.55
607.485	11100.63
607.843	11066.05
608.2	11157.57
608.557	11097.69
608.914	10992.61
609.272	11147.4
609.629	11101.76
609.986	11143.56
610.343	11092.49
610.7	11174.52
611.057	11184.69
611.414	11129.55
611.771	11235.09
612.127	11220.4
612.484	11233.05
612.841	11315.31
613.198	11274.86
613.554	11328.19
613.911	11326.16
614.267	11359.83
614.624	11372.26
614.98	11341.52
615.337	11371.13
615.693	11386.72
616.05	11312.37
616.406	11364.35
616.762	11301.52
617.118	11279.38
617.475	11299.94
617.831	11330.68
618.187	11301.52
618.543	11402.54
618.899	11432.37
619.255	11461.75
619.611	11454.52
619.967	11464.01
620.323	11487.06
620.678	11471.01
621.034	11439.83
621.39	11370.22
621.746	11416.55
622.101	11506.49
622.457	11444.35
622.812	11414.29
623.168	11463.55
623.523	11457.23
623.879	11418.58
624.234	11345.59
624.589	11385.59
624.945	11399.83
625.3	11487.73
625.655	11335.87
626.01	11394.4
626.365	11486.15
626.72	11459.94
627.075	11474.18
627.43	11381.75
627.785	11415.19
628.14	11485.25
628.495	11530.67
628.85	11349.43
629.205	11430.34
629.559	11443.89
629.914	11386.04
630.269	11397.57
630.623	11355.99
630.978	11269.21
631.332	11257.23
631.687	11297.91
632.041	11327.96
632.396	11299.72
632.75	11253.16
633.104	11225.14
633.459	11174.75
633.813	11187.4
634.167	11252.26
634.521	11274.41
634.875	11291.13
635.229	11224.01
635.583	11263.79
635.937	11212.04
636.291	11253.62
636.645	11183.56
636.999	11143.79
637.352	11132.26
637.706	11142.66
638.06	11097.69
638.413	11104.02
638.767	11027.18
639.121	11045.26
639.474	10906.51
639.828	10948.31
640.181	10904.02
640.534	10924.36
640.888	10930.91
641.241	10874.87
641.594	10926.39
641.947	10946.96
642.301	10963
642.654	10849.56
643.007	10943.57
643.36	10984.7
643.713	10908.09
644.066	10985.15
644.419	10852.27
644.771	10792.84
645.124	10687.3
645.477	10616.35
645.83	10555.1
646.182	10478.5
646.535	10411.15
646.888	10409.57
647.24	10430.81
647.593	10494.31
647.945	10395.79
648.298	10386.29
648.65	10346.97
649.002	10405.28
649.355	10429.23
649.707	10346.52
650.059	10359.85
650.411	10529.34
650.763	10584.26
651.115	10663.58
651.467	10634.42
651.819	10633.75
652.171	10626.51
652.523	10581.77
652.875	10555.56
653.227	10397.37
653.578	10648.21
653.93	10533.41
654.282	10453.41
654.633	10443.92
654.985	10422.9
655.337	10458.38
655.688	10393.98
656.039	10375
656.391	10310.59
656.742	10371.61
657.094	10406.86
657.445	10387.42
657.796	10377.26
658.147	10354.21
658.498	10402.34
658.849	10395.56
659.2	10432.4
659.551	10445.5
659.902	10459.74
660.253	10443.69
660.604	10439.85
660.955	10380.19
661.306	10327.31
661.656	10367.99
662.007	10339.52
662.358	10320.99
662.708	10335.67
663.059	10211.16
663.409	10116.47
663.76	10287.54
664.11	10201.21
664.461	10196.47
664.811	10277.37
665.161	10170.48
665.511	10200.54
665.862	10191.95
666.212	10193.08
666.562	10233.53
666.912	10327.31
667.262	10245.28
667.612	10291.16
667.962	10264.49
668.312	10330.25
668.662	10354.88
669.011	10287.77
669.361	10282.12
669.711	10203.02
670.06	10254.55
670.41	10103.82
670.76	10070.6
671.109	10179.75
671.459	10104.27
671.808	10057.04
672.157	10085.51
672.507	10025.63
672.856	10022.69
673.205	10069.69
673.554	9958.51
673.904	10033.54
674.253	10045.29
674.602	10055.46
674.951	9859.3
675.3	9959.64
675.649	10073.31
675.998	10074.21
676.346	10084.16
676.695	10161.67
677.044	10118.73
677.393	10094.1
677.741	10071.73
678.09	10124.15
678.438	10009.13
678.787	9983.59
679.135	10024.95
679.484	9957.61
679.832	10021.56
680.181	9869.02
680.529	9972.52
680.877	9808.91
681.225	9795.12
681.573	9888
681.922	9767.78
682.27	9812.75
682.618	9786.99
682.966	9696.14
683.314	9752.64
683.661	9746.76
684.009	9714.67
684.357	9669.93
684.705	9684.39
685.053	9753.77
685.4	9737.95
685.748	9718.52
686.095	9708.12
686.443	9713.54
686.79	9743.6
687.138	9666.54
687.485	9634
687.832	9665.18
688.18	9586.09
688.527	9538.86
688.874	9539.76
689.221	9481.23
689.568	9507.9
689.915	9442.82
690.262	9323.27
690.609	9262.26
690.956	9337.06
691.303	9298.64
691.65	9215.93
691.997	9271.97
692.344	9177.06
692.69	9207.12
693.037	9252.31
693.383	9169.15
693.73	9194.69
694.077	9205.08
694.423	9178.64
694.769	9171.19
695.116	9197.85
695.462	9098.19
695.808	9143.16
696.155	9166.89
696.501	9048.02
696.847	9102.94
697.193	8955.37
697.539	8982.94
697.885	8974.35
698.231	8940.01
698.577	8843.96
698.923	8783.17
699.269	8753.8
699.614	8731.42
699.96	8722.84
700.306	8689.16
700.651	8664.76
700.997	8610.97
701.342	8620.01
701.688	8532.33
702.033	8597.64
702.379	8580.01
702.724	8544.76
703.069	8589.51
703.415	8534.82
703.76	8547.7
704.105	8596.74
704.45	8583.63
704.795	8562.39
705.14	8485.1
705.485	8544.99
705.83	8497.3
706.175	8425.22
706.52	8409.62
706.865	8330.98
707.209	8414.6
707.554	8346.12
707.899	8337.31
708.243	8355.16
708.588	8244.88
708.932	8185.45
709.277	8166.47
709.621	8141.38
709.966	8053.25
710.31	8046.92
710.654	7977.09
710.998	8015.06
711.342	8044.21
711.687	8006.02
712.031	7960.37
712.375	8003.98
712.719	8025.9
713.063	7989.07
713.407	8022.74
713.75	8003.53
714.094	8042.4
714.438	7952.69
714.782	8049.63
715.125	7971.89
715.469	8018.22
715.812	7963.31
716.156	7939.58
716.499	7907.04
716.843	7862.07
717.186	7840.15
717.53	7812.35
717.873	7823.2
718.216	7748.62
718.559	7749.53
718.902	7655.75
719.246	7607.84
719.589	7570.78
719.932	7607.38
720.275	7564
720.617	7651
720.96	7539.82
721.303	7601.28
721.646	7528.74
721.989	7559.02
722.331	7582.53
722.674	7576.65
723.016	7583.43
723.359	7582.98
723.701	7623.43
724.044	7586.14
724.386	7566.26
724.729	7552.7
725.071	7623.88
725.413	7566.26
725.755	7601.74
726.097	7540.95
726.439	7482.87
726.782	7484.68
727.124	7606.71
727.465	7409.88
727.807	7443.77
728.149	7369.42
728.491	7358.58
728.833	7358.13
729.175	7353.61
729.516	7316.09
729.858	7322.87
730.199	7279.26
730.541	7266.6
730.882	7215.08
731.224	7211.24
731.565	7211.91
731.906	7229.99
732.248	7213.04
732.589	7168.3
732.93	7233.16
733.271	7260.05
733.612	7202.65
733.953	7193.61
734.294	7220.5
734.635	7236.1
734.976	7225.7
735.317	7173.72
735.658	7201.52
735.999	7182.76
736.339	7176.89
736.68	7232.71
737.021	7105.7
737.361	7131.92
737.702	7138.02
738.042	7053.95
738.383	7057.57
738.723	7086.95
739.063	7047.85
739.404	7035.65
739.744	6994.52
740.084	6955.42
740.424	6959.27
740.764	6899.15
741.104	6957.91
741.444	6906.16
741.784	6852.83
742.124	6907.29
742.464	6862.55
742.804	6939.15
743.143	6876.78
743.483	6911.36
743.823	6868.87
744.162	6890.57
744.502	6906.16
744.841	6896.22
745.181	6968.08
745.52	6919.27
745.86	6931.02
746.199	6891.47
746.538	6893.51
746.877	6886.27
747.216	6837.46
747.556	6839.72
747.895	6827.74
748.234	6806.95
748.573	6760.63
748.911	6741.64
749.25	6727.18
749.589	6648.31
749.928	6706.84
750.267	6698.03
750.605	6630.01
750.944	6603.12
751.283	6623.68
751.621	6577.13
751.96	6584.81
752.298	6534.19
752.636	6588.43
752.975	6546.62
753.313	6488.77
753.651	6483.12
753.989	6542.55
754.327	6534.42
754.666	6437.47
755.004	6485.61
755.342	6501.65
755.679	6508.88
756.017	6450.35
756.355	6507.07
756.693	6441.99
757.031	6489.9
757.368	6450.8
757.706	6394.08
758.044	6445.61
758.381	6410.35
758.719	6417.13
759.056	6395.21
759.394	6354.76
759.731	6294.88
760.068	6279.51
760.405	6254.88
760.743	6271.6
761.08	6235.22
761.417	6201.77
761.754	6122.23
762.091	6101.44
762.428	6093.3
762.765	6046.97
763.102	6025.05
763.438	5990.25
763.775	6006.52
764.112	6023.7
764.449	6069.12
764.785	6039.74
765.122	5992.06
765.458	6001.55
765.795	6019.86
766.131	5992.51
766.467	5944.38
766.804	5952.29
767.14	5939.86
767.476	5938.73
767.812	5977.6
768.148	5928.11
768.485	5919.75
768.821	5878.39
769.157	5862.12
769.492	5811.73
769.828	5826.19
770.164	5755
770.5	5793.65
770.836	5749.81
771.171	5671.39
771.507	5707.32
771.842	5616.25
772.178	5599.53
772.513	5598.4
772.849	5572.41
773.184	5550.94
773.519	5530.15
773.855	5519.53
774.19	5477.5
774.525	5408.35
774.86	5479.31
775.195	5443.37
775.53	5402.7
775.865	5475.01
776.2	5415.13
776.535	5364.73
776.87	5352.98
777.205	5363.15
777.539	5400.44
777.874	5361.57
778.209	5361.57
778.543	5289.25
778.878	5324.96
779.212	5308.46
779.547	5282.93
779.881	5283.38
780.215	5218.29
780.55	5205.41
780.884	5205.64
781.218	5213.78
781.552	5169.26
781.886	5153.89
782.22	5170.39
782.554	5076.15
782.888	5032.31
783.222	5003.39
783.556	4992.54
783.889	5001.8
784.223	4957.51
784.557	4953.9
784.89	4902.82
785.224	4952.54
785.557	4926.55
785.891	4906.89
786.224	4885.2
786.558	4881.81
786.891	4839.55
787.224	4749.15
787.557	4774.69
787.891	4795.03
788.224	4769.04
788.557	4840.9
788.89	4821.02
789.223	4793.22
789.556	4736.95
789.888	4759.1
790.221	4722.49
790.554	4695.6
790.887	4714.35
791.219	4715.03
791.552	4686.56
791.884	4679.78
792.217	4683.17
792.549	4633.9
792.882	4612.44
793.214	4618.99
793.546	4590.51
793.879	4557.07
794.211	4557.07
794.543	4565.66
794.875	4540.8
795.207	4521.14
795.539	4471.65
795.871	4474.13
796.203	4451.99
796.535	4380.58
796.867	4374.02
797.198	4396.62
797.53	4386
797.862	4347.13
798.193	4347.81
798.525	4303.74
798.856	4308.94
799.188	4226
799.519	4241.37
799.85	4278.88
800.182	4300.35
800.513	4291.77
800.844	4232.56
801.175	4250.86
801.506	4255.61
801.837	4249.28
802.168	4179.23
802.499	4213.8
802.83	4201.82
803.161	4249.96
803.491	4220.36
803.822	4233.69
804.153	4201.6
804.483	4138.78
804.814	4146.23
805.145	4119.34
805.475	4145.33
805.805	4126.8
806.136	4089.06
806.466	4080.02
806.796	4047.7
807.126	4057.42
807.457	4039.79
807.787	4032.56
808.117	4003.19
808.447	4025.78
808.777	4008.38
809.107	3992.56
809.436	3951.21
809.766	3963.86
810.096	3968.16
810.426	3888.84
810.755	3901.04
811.085	3915.5
811.414	3918.89
811.744	3887.48
812.073	3850.87
812.403	3880.93
812.732	3871.21
813.061	3886.8
813.39	3894.04
813.719	3856.75
814.049	3857.43
814.378	3855.17
814.707	3826.24
815.036	3855.39
815.365	3831.66
815.693	3805
816.022	3790.31
816.351	3814.72
816.68	3766.58
817.008	3794.38
817.337	3733.14
817.665	3791.89
817.994	3796.86
818.322	3728.84
818.651	3736.98
818.979	3739.46
819.307	3740.37
819.636	3751.67
819.964	3724.55
820.292	3740.14
820.62	3712.35
820.948	3638.22
821.276	3692.46
821.604	3659.92
821.932	3688.62
822.259	3670.54
822.587	3686.13
822.915	3642.29
823.243	3652.69
823.57	3626.25
823.898	3678.9
824.225	3649.07
824.553	3634.38
824.88	3610.2
825.207	3657.88
825.535	3669.18
825.862	3633.03
826.189	3660.82
826.516	3664.66
826.843	3659.24
827.17	3694.27
827.497	3702.63
827.824	3660.82
828.151	3675.74
828.478	3678.22
828.805	3689.75
829.131	3733.81
829.458	3678.67
829.785	3677.09
830.111	3690.88
830.438	3702.18
830.764	3694.49
831.09	3678.45
831.417	3700.14
831.743	3702.4
832.069	3674.83
832.395	3670.09
832.722	3671.22
833.048	3602.74
833.374	3627.15
833.7	3650.88
834.026	3594.38
834.351	3585.8
834.677	3608.39
835.003	3609.52
835.329	3615.63
835.654	3588.51
835.98	3590.32
836.306	3572.91
836.631	3532.92
836.956	3574.5
837.282	3572.69
837.607	3523.88
837.932	3535.85
838.258	3552.12
838.583	3579.69
838.908	3498.34
839.233	3530.2
839.558	3490.2
839.883	3523.42
840.208	3515.51
840.533	3542.86
840.858	3526.59
841.182	3557.55
841.507	3507.83
841.832	3558.68
842.156	3504.22
842.481	3548.28
842.805	3531.11
843.13	3505.12
843.454	3504.67
843.778	3511.22
844.103	3483.2
844.427	3481.62
844.751	3468.74
845.075	3445.46
845.399	3470.32
845.723	3409.75
846.047	3418.12
846.371	3396.65
846.695	3412.24
847.019	3354.16
847.343	3336.99
847.666	3298.12
847.99	3311
848.313	3312.81
848.637	3264.22
848.96	3214.28
849.284	3244.11
849.607	3272.36
849.931	3254.96
850.254	3222.42
850.577	3205.92
850.9	3196.2
851.223	3184.22
851.546	3174.51
851.869	3152.81
852.192	3148.97
852.515	3146.94
852.838	3147.16
853.161	3120.05
853.483	3144.68
853.806	3132.25
854.129	3135.41
854.451	3132.93
854.774	3104.68
855.096	3096.09
855.419	3105.13
855.741	3072.36
856.063	3118.46
856.385	3091.35
856.708	3057.45
857.03	3107.16
857.352	3091.35
857.674	3068.3
857.996	3068.75
858.318	3059.03
858.64	3048.18
858.961	2997.79
859.283	2986.49
859.605	3016.32
859.926	2960.05
860.248	3000.05
860.57	2955.3
860.891	2951.24
861.212	2917.34
861.534	2936.32
861.855	2931.8
862.176	2897
862.498	2927.51
862.819	2933.38
863.14	2922.08
863.461	2892.71
863.782	2897.9
864.103	2874.4
864.424	2886.6
864.745	2877.57
865.065	2837.79
865.386	2860.62
865.707	2858.81
866.027	2846.83
866.348	2805.93
866.668	2838.02
866.989	2830.79
867.309	2802.54
867.63	2835.98
867.95	2846.61
868.27	2848.19
868.59	2809.32
868.91	2819.26
869.23	2814.29
869.55	2786.04
869.87	2837.57
870.19	2843.89
870.51	2813.39
870.83	2795.53
871.15	2811.8
871.469	2834.85
871.789	2778.59
872.109	2787.17
872.428	2761.18
872.748	2810
873.067	2783.56
873.386	2769.55
873.706	2774.07
874.025	2754.4
874.344	2793.73
874.663	2714.63
874.982	2728.42
875.301	2786.72
875.62	2726.16
875.939	2745.37
876.258	2766.83
876.577	2738.13
876.896	2711.92
877.214	2680.28
877.533	2692.03
877.852	2691.36
878.17	2665.59
878.489	2690.68
878.807	2692.94
879.125	2720.51
879.444	2668.31
879.762	2674.41
880.08	2710.79
880.398	2641.41
880.716	2664.92
881.034	2650
881.352	2638.7
881.67	2608.87
881.988	2618.36
882.306	2645.03
882.624	2635.09
882.941	2657.23
883.259	2652.94
883.577	2638.25
883.894	2599.61
884.212	2631.02
884.529	2619.04
884.846	2652.26
885.164	2640.51
885.481	2626.27
885.798	2596.22
886.115	2631.92
886.432	2588.08
886.75	2583.79
887.067	2612.94
887.383	2579.04
887.7	2574.75
888.017	2586.73
888.334	2602.32
888.651	2545.82
888.967	2548.08
889.284	2583.34
889.6	2547.63
889.917	2521.87
890.233	2497.24
890.55	2518.7
890.866	2514.86
891.182	2494.98
891.498	2535.2
891.815	2490.01
892.131	2486.16
892.447	2492.49
892.763	2454.07
893.079	2435.09
893.395	2420.85
893.71	2441.19
894.026	2420.63
894.342	2423.79
894.657	2404.36
894.973	2380.4
895.289	2427.63
895.604	2417.46
895.92	2389.67
896.235	2366.84
896.55	2354.19
896.865	2370.91
897.181	2353.06
897.496	2334.3
897.811	2344.02
898.126	2364.13
898.441	2379.73
898.756	2318.03
899.071	2342.66
899.386	2342.66
899.7	2341.76
900.015	2338.82
900.33	2338.14
900.644	2325.04
900.959	2311.25
901.273	2286.62
901.588	2279.84
901.902	2289.56
902.216	2274.87
902.531	2297.69
902.845	2259.05
903.159	2265.38
903.473	2261.54
903.787	2247.75
904.101	2259.05
904.415	2240.29
904.729	2229.67
905.042	2210.24
905.356	2217.92
905.67	2196.23
905.984	2222.44
906.297	2188.32
906.611	2137.47
906.924	2123.01
907.237	2162.1
907.551	2125.49
907.864	2157.58
908.177	2137.7
908.491	2124.14
908.804	2129.56
909.117	2071.71
909.43	2086.4
909.743	2067.87
910.056	2097.02
910.368	2069.45
910.681	2080.3
910.994	2062.67
911.307	2059.06
911.619	2054.99
911.932	2041.43
912.244	2010.02
912.557	2011.15
912.869	1989.91
913.181	2007.31
913.494	2044.14
913.806	2003.46
914.118	1997.14
914.43	1982.9
914.742	1999.17
915.054	1974.99
915.366	1974.54
915.678	2002.11
915.99	1983.13
916.302	1986.97
916.613	1962.11
916.925	1932.51
917.236	1953.07
917.548	1958.04
917.859	1928.89
918.171	1923.47
918.482	1876.46
918.794	1897.25
919.105	1896.12
919.416	1904.03
919.727	1851.15
920.038	1898.61
920.349	1875.11
920.66	1879.17
920.971	1858.61
921.282	1876.69
921.593	1835.56
921.903	1844.82
922.214	1852.28
922.525	1828.78
922.835	1818.16
923.146	1787.65
923.456	1784.94
923.767	1789.68
924.077	1766.18
924.387	1752.62
924.697	1790.14
925.008	1766.86
925.318	1743.81
925.628	1760.31
925.938	1737.93
926.248	1743.58
926.558	1720.99
926.867	1718.05
927.177	1690.7
927.487	1708.78
927.796	1685.05
928.106	1651.61
928.416	1677.82
928.725	1658.39
929.034	1677.15
929.344	1670.37
929.653	1683.02
929.962	1653.19
930.271	1663.59
930.581	1634.66
930.89	1642.57
931.199	1640.76
931.508	1631.95
931.817	1656.58
932.125	1616.36
932.434	1659.97
932.743	1607.99
933.051	1644.83
933.36	1627.43
933.669	1620.65
933.977	1601.67
934.286	1601.67
934.594	1612.97
934.902	1563.02
935.21	1563.48
935.519	1576.36
935.827	1566.19
936.135	1539.97
936.443	1536.36
936.751	1542.01
937.059	1546.53
937.367	1567.77
937.674	1543.59
937.982	1515.12
938.29	1511.73
938.597	1546.98
938.905	1507.66
939.213	1494.1
939.52	1501.56
939.827	1532.06
940.135	1487.32
940.442	1468.34
940.749	1473.08
941.056	1443.03
941.363	1447.55
941.67	1444.16
941.977	1441.45
942.284	1451.16
942.591	1470.14
942.898	1468.34
943.205	1466.76
943.511	1422.01
943.818	1428.79
944.125	1426.98
944.431	1407.1
944.738	1409.81
945.044	1419.07
945.35	1398.96
945.657	1408
945.963	1385.18
946.269	1367.32
946.575	1360.32
946.881	1372.52
947.187	1384.95
947.493	1394.44
947.799	1365.29
948.105	1373.42
948.41	1332.3
948.716	1342.01
949.022	1381.56
949.327	1362.35
949.633	1339.3
949.938	1335.69
950.244	1355.57
950.549	1314.89
950.854	1343.14
951.16	1331.84
951.465	1309.7
951.77	1310.83
952.075	1307.89
952.38	1288.45
952.685	1315.12
952.99	1302.92
953.294	1302.24
953.599	1283.03
953.904	1277.16
954.209	1276.93
954.513	1279.87
954.818	1265.18
955.122	1273.31
955.426	1237.61
955.731	1268.12
956.035	1228.57
956.339	1249.13
956.643	1248.91
956.948	1233.32
957.252	1210.26
957.556	1234.9
957.86	1230.38
958.163	1205.52
958.467	1199.64
958.771	1195.8
959.075	1189.47
959.378	1206.42
959.682	1187.67
959.985	1204.16
960.289	1163.26
960.592	1163.71
960.896	1185.41
961.199	1187.67
961.502	1164.39
961.805	1160.55
962.108	1158.51
962.411	1186.08
962.714	1165.97
963.017	1159.87
963.32	1146.31
963.623	1118.74
963.926	1151.51
964.228	1141.11
964.531	1121.45
964.833	1117.39
965.136	1105.41
965.438	1104.28
965.741	1128.69
966.043	1120.78
966.345	1101.79
966.648	1120.55
966.95	1105.63
967.252	1071.51
967.554	1084.84
967.856	1102.25
968.158	1089.36
968.46	1092.3
968.761	1082.58
969.063	1082.36
969.365	1071.06
969.666	1064.28
969.968	1069.7
970.269	1077.16
970.571	1049.59
970.872	1092.53
971.174	1067.44
971.475	1061.79
971.776	1087.78
972.077	1052.98
972.378	1039.42
972.679	1052.98
972.98	1012.53
973.281	1035.81
973.582	1037.84
973.883	1023.15
974.183	1012.3
974.484	993.1
974.785	988.12
975.085	1015.24
975.386	1006.65
975.686	989.48
975.986	979.31
976.287	998.97
976.587	1001
976.887	1004.39
977.187	970.95
977.487	977.28
977.787	979.99
978.087	969.37
978.387	970.05
978.687	963.04
978.987	982.25
979.286	969.37
979.586	935.7
979.885	958.07
980.185	945.64
980.484	948.35
980.784	946.32
981.083	942.7
981.382	944.28
981.682	961.91
981.981	930.5
982.28	941.8
982.579	949.71
982.878	934.11
983.177	916.26
983.475	930.27
983.774	931.85
984.073	909.03
984.372	921.91
984.67	908.58
984.969	936.83
985.267	933.89
985.566	928.92
985.864	906.32
986.162	885.53
986.461	898.63
986.759	890.95
987.057	911.52
987.355	894.79
987.653	879.65
987.951	860.44
988.249	865.64
988.547	870.84
988.844	836.26
989.142	874
989.44	896.15
989.737	851.18
990.035	870.39
990.332	856.38
990.63	859.99
990.927	868.8
991.224	852.08
991.521	836.72
991.819	815.02
992.116	823.38
992.413	845.3
992.71	842.36
993.006	838.3
993.303	826.55
993.6	798.75
993.897	827.68
994.193	833.78
994.49	828.81
994.787	820.9
995.083	802.37
995.379	796.49
995.676	792.87
995.972	795.81
996.268	794.91
996.565	803.04
996.861	784.06
997.157	798.3
997.453	794.23
997.749	769.37
998.044	773.89
998.34	783.61
998.636	787.9
998.932	807.56
999.227	775.7
999.523	754.23
999.818	752.2
1000.114	767.11
1000.409	753.55
1000.704	759.2
1001	776.6
1001.295	758.3
1001.59	776.15
1001.885	763.04
1002.18	730.28
1002.475	752.2
1002.77	785.19
1003.065	726.44
1003.359	740.67
1003.654	721.46
1003.949	729.15
1004.243	731.86
1004.538	718.98
1004.832	754.46
1005.127	714.01
1005.421	724.63
1005.715	715.59
1006.009	707.45
1006.304	724.18
1006.598	708.58
1006.892	700.67
1007.186	704.74
1007.48	693.22
1007.773	680.79
1008.067	693.44
1008.361	715.81
1008.655	678.75
1008.948	698.19
1009.242	681.47
1009.535	692.99
1009.829	671.3
1010.122	680.11
1010.415	667
1010.708	670.84
1011.001	661.35
1011.295	649.83
1011.588	668.13
1011.881	655.48
1012.173	650.73
1012.466	648.7
1012.759	659.77
1013.052	647.79
1013.344	655.25
1013.637	630.39
1013.93	646.66
1014.222	655.25
1014.514	622.26
1014.807	670.62
1015.099	652.31
1015.391	626.1
1015.683	635.36
1015.976	612.99
1016.268	635.59
1016.56	647.57
1016.851	622.03
1017.143	620.9
1017.435	631.97
1017.727	627.23
1018.018	625.42
1018.31	615.93
1018.602	609.6
1018.893	585.65
1019.185	614.35
1019.476	619.77
1019.767	620.68
1020.058	609.15
1020.35	590.85
1020.641	597.85
1020.932	605.53
1021.223	609.15
1021.514	589.94
1021.804	591.3
1022.095	597.85
1022.386	590.62
1022.677	558.98
1022.967	604.18
1023.258	579.77
1023.548	575.93
1023.839	567.34
1024.129	567.8
1024.419	579.77
1024.709	562.82
1025	562.6
1025.29	569.83
1025.58	550.62
1025.87	547.46
1026.16	535.71
1026.449	565.99
1026.739	556.72
1027.029	546.1
1027.319	554.91
1027.608	539.77
1027.898	549.27
1028.187	549.72
1028.477	554.46
1028.766	537.06
1029.055	523.5
1029.344	536.38
1029.634	519.66
1029.923	538.87
1030.212	503.62
1030.501	503.16
1030.79	509.49
1031.078	519.66
1031.367	521.24
1031.656	522.37
1031.945	510.62
1032.233	512.2
1032.522	509.04
1032.81	487.57
1033.099	518.08
1033.387	514.69
1033.675	506.78
1033.963	499.1
1034.251	514.24
1034.54	487.35
1034.828	503.16
1035.116	479.44
1035.403	515.14
1035.691	497.97
1035.979	485.54
1036.267	488.02
1036.554	470.62
1036.842	493.22
1037.129	466.33
1037.417	485.54
1037.704	480.34
1037.992	478.76
1038.279	474.92
1038.566	493.9
1038.853	493.9
1039.14	493.9
