Data from foam2_polystyrene_foam_FLMS001491_00031.txt Node
Date: Wed Feb 08 10:57:52 GMT 2017
User: dcchb
Spectrometer: FLMS00149
Trigger mode: 0
Integration Time (sec): 2.000000E-2
Scans to average: 10
Electric dark correction enabled: true
Nonlinearity correction enabled: false
Boxcar width: 0
XAxis mode: Wavelengths
Number of Pixels in Spectrum: 2048
>>>>>Begin Spectral Data<<<<<
341.393	5.28
341.776	5.28
342.16	5.28
342.543	-67.03
342.927	-48.28
343.31	-68.16
343.693	-74.49
344.077	-54.38
344.46	-61.16
344.843	-30.2
345.226	-49.18
345.61	-21.84
345.993	-7.37
346.376	-15.51
346.759	-8.5
347.142	26.3
347.525	43.47
347.908	51.16
348.291	74.43
348.674	80.31
349.057	115.11
349.44	126.18
349.823	148.78
350.206	170.02
350.588	222.23
350.971	203.7
351.354	229.68
351.737	230.36
352.119	250.47
352.502	277.14
352.884	255.45
353.267	282.79
353.65	290.7
354.032	293.18
354.414	297.93
354.797	319.62
355.179	331.83
355.562	318.72
355.944	338.15
356.326	335.22
356.709	344.03
357.091	320.53
357.473	345.84
357.855	342.22
358.238	334.09
358.62	335.44
359.002	332.73
359.384	333.18
359.766	337.03
360.148	327.53
360.53	365.72
360.912	346.06
361.294	358.04
361.676	345.39
362.057	329.34
362.439	328.21
362.821	351.71
363.203	337.93
363.584	340.41
363.966	332.51
364.348	325.73
364.729	361.21
365.111	323.47
365.493	334.31
365.874	338.15
366.256	311.71
366.637	338.83
367.019	339.74
367.4	333.41
367.781	342.45
368.163	334.99
368.544	337.25
368.925	334.77
369.306	339.74
369.688	322.34
370.069	319.4
370.45	351.94
370.831	332.05
371.212	351.49
371.593	345.61
371.974	361.43
372.355	351.26
372.736	345.61
373.117	340.64
373.498	352.84
373.879	352.39
374.26	325.27
374.641	345.61
375.021	326.63
375.402	349
375.783	351.94
376.163	375.89
376.544	377.02
376.925	382
377.305	346.52
377.686	384.71
378.066	360.08
378.447	374.09
378.827	362.34
379.208	355.78
379.588	358.72
379.968	378.61
380.349	384.93
380.729	394.2
381.109	358.72
381.489	389
381.87	388.78
382.25	396.23
382.63	389
383.01	398.49
383.39	363.24
383.77	377.02
384.15	402.56
384.53	423.35
384.91	395.33
385.29	427.64
385.67	414.76
386.049	410.24
386.429	395.1
386.809	392.62
387.189	424.48
387.568	414.09
387.948	398.04
388.328	431.03
388.707	426.29
389.087	422.22
389.466	421.99
389.846	454.54
390.225	458.6
390.605	455.44
390.984	441.88
391.363	466.97
391.743	479.85
392.122	472.84
392.501	483.91
392.881	464.03
393.26	474.2
393.639	485.04
394.018	464.93
394.397	495.21
394.776	498.38
395.155	492.5
395.534	499.96
395.913	487.08
396.292	499.73
396.671	519.85
397.05	519.17
397.429	506.29
397.808	511.48
398.186	524.36
398.565	527.53
398.944	519.17
399.323	530.01
399.701	539.73
400.08	534.53
400.458	554.65
400.837	550.13
401.215	557.58
401.594	554.42
401.972	562.78
402.351	561.65
402.729	570.92
403.107	558.71
403.486	539.51
403.864	579.05
404.242	602.33
404.62	582.89
404.999	605.94
405.377	610.46
405.755	600.75
406.133	603.46
406.511	609.33
406.889	611.82
407.267	620.86
407.645	613.4
408.023	623.12
408.401	647.98
408.779	655.43
409.156	660.63
409.534	667.41
409.912	670.8
410.29	678.71
410.667	672.38
411.045	694.3
411.422	688.2
411.8	718.94
412.178	722.1
412.555	724.13
412.933	701.31
413.31	752.16
413.687	747.86
414.065	762.55
414.442	779.73
414.819	765.26
415.197	765.26
415.574	782.44
415.951	788.54
416.328	809.33
416.705	794.41
417.082	808.88
417.46	813.4
417.837	850.91
418.214	825.6
418.591	848.65
418.967	840.06
419.344	836.9
419.721	863.11
420.098	843.68
420.475	872.83
420.852	899.95
421.228	880.29
421.605	877.35
421.982	901.76
422.358	892.26
422.735	934.52
423.111	928.42
423.488	944.01
423.864	947.63
424.241	960.06
424.617	979.04
424.994	955.99
425.37	983.79
425.746	991.47
426.123	1009.55
426.499	1011.36
426.875	1014.97
427.251	1032.6
427.627	1039.38
428.003	1025.82
428.379	1081.41
428.756	1094.29
429.132	1095.2
429.507	1110.34
429.883	1093.16
430.259	1145.14
430.635	1158.47
431.011	1164.8
431.387	1165.03
431.763	1200.51
432.138	1209.32
432.514	1242.31
432.89	1216.78
433.265	1240.73
433.641	1282.76
434.016	1274.63
434.392	1299.03
434.767	1313.27
435.143	1343.55
435.518	1339.94
435.894	1333.61
436.269	1404.12
436.644	1381.07
437.02	1389.43
437.395	1395.3
437.77	1416.32
438.145	1430.1
438.52	1473.49
438.895	1453.15
439.271	1480.27
439.646	1509.88
440.021	1550.1
440.395	1532.7
440.77	1522.08
441.145	1513.49
441.52	1554.39
441.895	1550.33
442.27	1595.3
442.645	1582.64
443.019	1625.8
443.394	1620.38
443.769	1616.77
444.143	1611.57
444.518	1678.91
444.892	1660.38
445.267	1652.02
445.641	1706.71
446.016	1672.58
446.39	1729.98
446.764	1739.47
447.139	1720.72
447.513	1743.09
447.887	1790.77
448.262	1802.98
448.636	1784.67
449.01	1794.16
449.384	1824.44
449.758	1878.68
450.132	1890.66
450.506	1847.04
450.88	1898.34
451.254	1926.59
451.628	1902.86
452.002	1951.67
452.376	1962.52
452.75	1973.82
453.123	1959.36
453.497	2022.18
453.871	2042.97
454.244	2093.82
454.618	2087.26
454.992	2101.27
455.365	2113.48
455.739	2155.28
456.112	2178.11
456.486	2174.26
456.859	2251.1
457.232	2247.71
457.606	2259.46
457.979	2269.63
458.352	2329.97
458.725	2359.12
459.099	2351.21
459.472	2402.73
459.845	2414.48
460.218	2451.32
460.591	2465.56
460.964	2490.19
461.337	2533.58
461.71	2542.16
462.083	2609.96
462.456	2603.86
462.829	2580.58
463.201	2673.23
463.574	2689.28
463.947	2712.78
464.32	2749.62
464.692	2771.99
465.065	2838.2
465.438	2844.98
465.81	2878.65
466.183	2897.86
466.555	2955.71
466.928	2955.49
467.3	2961.36
467.672	3022.6
468.045	3111.42
468.417	3123.62
468.789	3103.96
469.161	3165.2
469.534	3200.23
469.906	3301.24
470.278	3272.99
470.65	3360.45
471.022	3376.04
471.394	3512.53
471.766	3508.92
472.138	3529.48
472.51	3581.69
472.882	3694.68
473.253	3718.86
473.625	3776.93
473.997	3776.48
474.369	3825.75
474.74	3856.93
475.112	3955.91
475.484	4037.94
475.855	4069.36
476.227	4062.58
476.598	4157.49
476.97	4264.61
477.341	4376.69
477.713	4352.96
478.084	4455.56
478.455	4528.33
478.827	4641.77
479.198	4723.58
479.569	4762.67
479.94	4865.95
480.311	4933.29
480.682	5047.41
481.053	5168.08
481.424	5205.15
481.795	5271.13
482.166	5329.44
482.537	5354.07
482.908	5473.61
483.279	5540.5
483.65	5693.49
484.021	5798.58
484.391	5841.97
484.762	5890.1
485.133	5907.05
485.503	5979.36
485.874	6132.8
486.244	6174.39
486.615	6336.64
486.985	6344.55
487.356	6528.05
487.726	6581.61
488.097	6659.57
488.467	6734.6
488.837	6856.18
489.207	6938.66
489.578	7027.7
489.948	7110.18
490.318	7167.13
490.688	7193.12
491.058	7317.18
491.428	7530.96
491.798	7447.35
492.168	7654.8
492.538	7706.77
492.908	7790.39
493.278	7894.34
493.648	7938.63
494.017	8072.41
494.387	8174.33
494.757	8172.98
495.126	8290.94
495.496	8324.84
495.866	8357.61
496.235	8515.79
496.605	8580.88
496.974	8599.18
497.344	8695.45
497.713	8719.4
498.082	8811.83
498.452	8896.12
498.821	8955.56
499.19	8957.36
499.559	9062.67
499.928	9121.65
500.298	9202.78
500.667	9352.83
501.036	9314.87
501.405	9450.46
501.774	9438.71
502.143	9513.28
502.512	9635.54
502.88	9727.29
503.249	9725.03
503.618	9774.52
503.987	9829.88
504.356	9880.5
504.724	9953.72
505.093	9966.38
505.462	10117.78
505.83	10139.03
506.199	10233.49
506.567	10387.38
506.936	10388.51
507.304	10547.38
507.672	10569.3
508.041	10652.01
508.409	10717.77
508.777	10828.95
509.145	10867.6
509.514	10948.27
509.882	11026.46
510.25	11084.31
510.618	11093.13
510.986	11193.01
511.354	11334.93
511.722	11381.93
512.09	11492.89
512.458	11450.86
512.826	11634.13
513.193	11697.18
513.561	11774.92
513.929	11908.7
514.297	11911.86
514.664	12112.76
515.032	12061.46
515.4	12198.63
515.767	12246.09
516.135	12451.06
516.502	12281.57
516.869	12645.63
517.237	12630.04
517.604	12637.27
517.972	12844.27
518.339	12913.19
518.706	12911.38
519.073	12940.76
519.44	13103.92
519.808	13244.71
520.175	13255.78
520.542	13464.59
520.909	13551.59
521.276	13576.9
521.643	13776.22
522.009	13838.36
522.376	13949.77
522.743	13991.58
523.11	14104.8
523.477	14292.14
523.843	14433.83
524.21	14536.43
524.577	14736.87
524.943	14680.15
525.31	14810.77
525.676	14978.9
526.043	14957.88
526.409	15065
526.776	15313.13
527.142	15337.08
527.508	15353.13
527.874	15630.86
528.241	15739.56
528.607	15722.38
528.973	15834.47
529.339	15775.94
529.705	16080.57
530.071	16128.47
530.437	16220.45
530.803	16374.34
531.169	16381.12
531.535	16408.24
531.901	16503.15
532.267	16579.76
532.632	16730.72
532.998	16866.31
533.364	16925.52
533.73	16991.28
534.095	17095.23
534.461	17197.82
534.826	17187.43
535.192	17272.62
535.557	17495.22
535.923	17526.63
536.288	17518.27
536.653	17660.41
537.019	17549
537.384	17708.55
537.749	17809.33
538.114	17868.54
538.479	17863.12
538.845	18005.26
539.21	17993.96
539.575	18123
539.94	18162.55
540.305	18396.89
540.67	18297.91
541.034	18339.94
541.399	18548.52
541.764	18560.95
542.129	18646.83
542.494	18654.51
542.858	18818.8
543.223	18724.11
543.587	18935.41
543.952	18957.33
544.316	19007.49
544.681	18969.53
545.045	19120.49
545.41	19241.84
545.774	19218.56
546.138	19229.64
546.503	19339.46
546.867	19407.94
547.231	19665.56
547.595	19643.18
547.959	19722.73
548.324	19795.72
548.688	19875.49
549.052	19925.44
549.416	20013.12
549.779	19890.86
550.143	20091.53
550.507	20123.4
550.871	20229.16
551.235	20243.85
551.599	20437.51
551.962	20386.89
552.326	20471.64
552.689	20715.02
553.053	20527.68
553.417	20616.04
553.78	20897.39
554.143	20761.57
554.507	21038.85
554.87	21099.87
555.234	21204.95
555.597	21155.91
555.96	21244.72
556.323	21352.97
556.686	21321.78
557.05	21583.7
557.413	21583.47
557.776	21686.97
558.139	21799.74
558.502	21842.9
558.865	21870.24
559.228	22143.01
559.59	22175.09
559.953	22267.75
560.316	22466.61
560.679	22432.72
561.041	22601.52
561.404	22663.9
561.767	22837
562.129	22752.48
562.492	22933.72
562.854	22978.24
563.217	23149.98
563.579	23167.61
563.941	23302.07
564.304	23557.43
564.666	23457.77
565.028	23564.89
565.39	23736.64
565.753	23747.48
566.115	23941.83
566.477	24013.24
566.839	24060.47
567.201	24287.36
567.563	24248.71
567.925	24505.66
568.287	24557.41
568.648	24618.87
569.01	24774.57
569.372	24752.43
569.734	24816.61
570.095	24979.54
570.457	25030.61
570.819	25213.43
571.18	25146.99
571.542	25391.96
571.903	25308.35
572.265	25411.39
572.626	25551.28
572.987	25460.21
573.349	25605.74
573.71	25677.38
574.071	25779.52
574.432	25793.98
574.794	25995.79
575.155	26056.8
575.516	26016.35
575.877	26221.99
576.238	26107.42
576.599	26298.38
576.96	26305.61
577.32	26398.49
577.681	26520.52
578.042	26513.29
578.403	26405.27
578.763	26510.35
579.124	26527.75
579.485	26672.38
579.845	26720.06
580.206	26641.42
580.566	26702.66
580.927	26715.99
581.287	26847.06
581.648	26698.37
582.008	26960.73
582.368	26833.28
582.728	26847.74
583.089	26796.67
583.449	26833.5
583.809	26941.3
584.169	26988.53
584.529	26844.8
584.889	27167.96
585.249	26989.88
585.609	26873.5
585.969	27024.46
586.329	26949.66
586.688	26876.21
587.048	26926.16
587.408	26873.28
587.768	26825.37
588.127	27009.54
588.487	26818.59
588.846	27162.08
589.206	26913.95
589.565	27002.31
589.925	27141.52
590.284	27055.19
590.643	27082.31
591.003	27025.59
591.362	27246.83
591.721	27162.53
592.08	27073.27
592.44	27215.87
592.799	27165.47
593.158	27072.14
593.517	27044.8
593.876	27204.34
594.235	27120.05
594.593	27000.73
594.952	27230.1
595.311	27192.36
595.67	27175.42
596.029	27420.38
596.387	27378.57
596.746	27460.83
597.104	27353.94
597.463	27340.83
597.822	27437.1
598.18	27336.32
598.538	27358.69
598.897	27455.18
599.255	27358.69
599.613	27599.81
599.972	27476.88
600.33	27552.81
600.688	27363.89
601.046	27663.54
601.404	27580.83
601.762	27568.4
602.12	27705.34
602.478	27668.96
602.836	27685.46
603.194	27572.47
603.552	27649.08
603.91	27633.03
604.268	27784.89
604.625	27613.82
604.983	27805.68
605.341	27696.53
605.698	27889.52
606.056	27864.44
606.413	27855.17
606.771	28033.02
607.128	27991.67
607.485	27808.62
607.843	27894.72
608.2	27944.66
608.557	28074.15
608.914	27947.15
609.272	28146.01
609.629	28146.24
609.986	28177.42
610.343	28156.86
610.7	28334.48
611.057	28367.02
611.414	28236.86
611.771	28318.66
612.127	28485.44
612.484	28414.48
612.841	28503.06
613.198	28308.94
613.554	28519.79
613.911	28553.68
614.267	28486.79
614.624	28447.25
614.98	28578.32
615.337	28669.84
615.693	28536.51
616.05	28563.18
616.406	28767.69
616.762	28560.01
617.118	28567.02
617.475	28657.86
617.831	28729.72
618.187	28734.02
618.543	28739.22
618.899	28909.61
619.255	28909.83
619.611	28833.9
619.967	29030.51
620.323	29017.85
620.678	28907.12
621.034	28656.96
621.39	28912.09
621.746	28888.14
622.101	29169.94
622.457	28918.19
622.812	28956.61
623.168	29018.76
623.523	29012.66
623.879	28978.76
624.234	28856.73
624.589	29022.82
624.945	29050.17
625.3	29034.12
625.655	28869.38
626.01	29024.86
626.365	28982.15
626.72	28936.05
627.075	28905.31
627.43	28819.67
627.785	28777.63
628.14	28868.7
628.495	28784.64
628.85	28820.57
629.205	28799.55
629.559	28944.63
629.914	28708.26
630.269	28773.57
630.623	28607.69
630.978	28614.47
631.332	28736.73
631.687	28776.96
632.041	28566.57
632.396	28593.23
632.75	28451.54
633.104	28587.36
633.459	28367.7
633.813	28427.13
634.167	28523.4
634.521	28473.91
634.875	28389.39
635.229	28292.22
635.583	28143.53
635.937	28231.43
636.291	28265.56
636.645	28183.07
636.999	28100.36
637.352	28094.49
637.706	28020.14
638.06	28210.42
638.413	28005.22
638.767	27927.94
639.121	28005.22
639.474	27764.78
639.828	27943.98
640.181	27827.6
640.534	27833.25
640.888	27776.3
641.241	27665.12
641.594	27711.22
641.947	27856.98
642.301	27595.07
642.654	27602.52
643.007	27669.87
643.36	27435.07
643.713	27499.47
644.066	27675.97
644.419	27347.61
644.771	27273.27
645.124	27080.05
645.477	26979.71
645.83	26833.73
646.182	26708.99
646.535	26540.18
646.888	26598.03
647.24	26492.72
647.593	26575.66
647.945	26477.81
648.298	26401.65
648.65	26339.05
649.002	26226.74
649.355	26243.24
649.707	26232.62
650.059	26429.45
650.411	26805.26
650.763	26744.01
651.115	26937
651.467	26897.23
651.819	26951.69
652.171	26802.09
652.523	26879.38
652.875	26782.21
653.227	26654.07
653.578	26800.28
653.93	26739.49
654.282	26690
654.633	26603.68
654.985	26576.11
655.337	26635.77
655.688	26697.01
656.039	26680.97
656.391	26505.15
656.742	26485.72
657.094	26496.11
657.445	26509.22
657.796	26450.01
658.147	26395.32
658.498	26417.92
658.849	26408.66
659.2	26454.53
659.551	26390.8
659.902	26376.79
660.253	26429.67
660.604	26463.8
660.955	26197.36
661.306	26310.13
661.656	26278.26
662.007	26242.56
662.358	26307.42
662.708	26282.78
663.059	26264.48
663.409	26120.08
663.76	26278.49
664.11	26137.02
664.461	26334.76
664.811	26228.77
665.161	26162.33
665.511	26156.46
665.862	26101.77
666.212	26214.76
666.562	26292.27
666.912	26171.83
667.262	26136.57
667.612	26088.44
667.962	26046.18
668.312	25988.55
668.662	26215.67
669.011	25950.59
669.361	25946.97
669.711	26033.07
670.06	25881.21
670.41	25947.2
670.76	25952.85
671.109	26021.1
671.459	25891.38
671.808	25884.38
672.157	25963.02
672.507	25836.92
672.856	25800.76
673.205	25793.76
673.554	25857.71
673.904	25793.53
674.253	25926.18
674.602	25859.52
674.951	25327.55
675.3	25132.31
675.649	25753.31
675.998	25581.33
676.346	25551.05
676.695	25749.46
677.044	25552.63
677.393	25586.53
677.741	25582.69
678.09	25567.32
678.438	25531.62
678.787	25625.63
679.135	25501.79
679.484	25328.23
679.832	25494.56
680.181	25420.89
680.529	25390.83
680.877	25190.83
681.225	25243.04
681.573	25392.64
681.922	25163.49
682.27	25077.17
682.618	25005.3
682.966	25007.79
683.314	24905.42
683.661	24902.03
684.009	24804.4
684.357	24723.95
684.705	24748.36
685.053	24723.95
685.4	24604.41
685.748	24488.03
686.095	24483.96
686.443	24401.03
686.79	24354.92
687.138	24383.4
687.485	24349.5
687.832	24223.4
688.18	24279.67
688.527	24079.23
688.874	24106.12
689.221	24119
689.568	24047.36
689.915	24043.52
690.262	23975.27
690.609	23900.02
690.956	23769.63
691.303	23769.4
691.65	23622.74
691.997	23648.73
692.344	23563.98
692.69	23418
693.037	23444.89
693.383	23333.93
693.73	23420.26
694.077	23266.14
694.423	23319.25
694.769	23184.11
695.116	23220.49
695.462	23065.92
695.808	22985.24
696.155	23032.93
696.501	22892.14
696.847	22858.24
697.193	22636.33
697.539	22865.02
697.885	22566.95
698.231	22453.05
698.577	22492.83
698.923	22488.98
699.269	22370.57
699.614	22339.84
699.96	22234.08
700.306	22153.4
700.651	22058.94
700.997	22076.57
701.342	21973.97
701.688	21879.28
702.033	21908.66
702.379	21936.68
702.724	21926.97
703.069	21942.56
703.415	21621.44
703.76	21705.5
704.105	21728.78
704.45	21705.05
704.795	21515
705.14	21500.31
705.485	21430.48
705.83	21376.7
706.175	21426.41
706.52	21351.39
706.865	21229.36
707.209	21252.41
707.554	21070.04
707.899	21066.65
708.243	21102.81
708.588	20950.95
708.932	20819.2
709.277	20764.74
709.621	20812.64
709.966	20643.61
710.31	20505.76
710.654	20473.9
710.998	20704.17
711.342	20548.92
711.687	20470.28
712.031	20450.85
712.375	20301.47
712.719	20433.45
713.063	20324.52
713.407	20427.8
713.75	20200.68
714.094	20275.48
714.438	20193.68
714.782	20213.56
715.125	20083.17
715.469	20154.36
715.812	19974.93
716.156	19983.29
716.499	19987.81
716.843	19875.04
717.186	19795.04
717.53	19879.34
717.873	19828.04
718.216	19852.67
718.559	19648.16
718.902	19573.36
719.246	19619.23
719.589	19454.49
719.932	19438.22
720.275	19479.8
720.617	19442.29
720.96	19387.6
721.303	19384.21
721.646	19347.37
721.989	19230.54
722.331	19347.82
722.674	19289.97
723.016	19313.7
723.359	19160.48
723.701	19169.52
724.044	19134.5
724.386	18998.23
724.729	19038.23
725.071	19053.37
725.413	18972.02
725.755	18932.92
726.097	18849.76
726.439	18762.08
726.782	18780.16
727.124	18943.77
727.465	18733.38
727.807	18828.97
728.149	18706.71
728.491	18604.57
728.833	18765.69
729.175	18608.18
729.516	18665.36
729.858	18489.99
730.199	18587.84
730.541	18485.7
730.882	18523.44
731.224	18470.11
731.565	18282.54
731.906	18308.98
732.248	18339.49
732.589	18147.86
732.93	18198.7
733.271	18177.91
733.612	18194.86
733.953	18171.81
734.294	18122.77
734.635	18081.64
734.976	18022.21
735.317	18003.45
735.658	17858.15
735.999	17971.82
736.339	17971.82
736.68	18023.34
737.021	17911.48
737.361	17882.33
737.702	17912.16
738.042	17759.62
738.383	17746.28
738.723	17860.41
739.063	17815.21
739.404	17842.33
739.744	17753.97
740.084	17765.27
740.424	17716.46
740.764	17541.77
741.104	17729.56
741.444	17642.11
741.784	17517.59
742.124	17561.2
742.464	17609.79
742.804	17471.49
743.143	17384.49
743.483	17436.01
743.823	17477.37
744.162	17372.28
744.502	17358.27
744.841	17333.64
745.181	17298.39
745.52	17242.8
745.86	17282.57
746.199	17238.05
746.538	17078.73
746.877	17186.98
747.216	17125.06
747.556	17176.58
747.895	17098.39
748.234	17005.74
748.573	16984.72
748.911	16918.51
749.25	16833.09
749.589	16811.39
749.928	16881.9
750.267	16824.73
750.605	16838.74
750.944	16868.34
751.283	16740.66
751.621	16799.87
751.96	16720.78
752.298	16642.13
752.636	16603.94
752.975	16573.21
753.313	16504.74
753.651	16561.46
753.989	16505.64
754.327	16392.87
754.666	16257.06
755.004	16400.11
755.342	16418.86
755.679	16338.41
756.017	16218.42
756.355	16213.22
756.693	16143.16
757.031	16128.02
757.368	16036.05
757.706	16014.13
758.044	15972.09
758.381	15961.92
758.719	15871.08
759.056	15848.48
759.394	15738.88
759.731	15648.71
760.068	15701.82
760.405	15689.16
760.743	15756.73
761.08	15720.58
761.417	15485.78
761.754	15520.58
762.091	15511.54
762.428	15454.14
762.765	15378.66
763.102	15424.54
763.438	15352.68
763.775	15185
764.112	15205.79
764.449	15171.44
764.785	15119.01
765.122	15083.08
765.458	14961.73
765.795	14886.7
766.131	14980.93
766.467	14906.36
766.804	14858.45
767.14	14692.35
767.476	14733.26
767.812	14548.63
768.148	14588.85
768.485	14530.32
768.821	14420.27
769.157	14427.73
769.492	14410.1
769.828	14418.46
770.164	14230.9
770.5	14159.26
770.836	14158.81
771.171	14146.15
771.507	14119.71
771.842	14015.76
772.178	14054.18
772.513	14013.28
772.849	13867.52
773.184	13850.34
773.519	13876.56
773.855	13867.29
774.19	13798.14
774.525	13703.23
774.86	13718.82
775.195	13738.03
775.53	13518.15
775.865	13525.83
776.2	13449
776.535	13310.02
776.87	13255.1
777.205	13201.32
777.539	13234.99
777.874	13205.84
778.209	13118.38
778.543	13054.2
778.878	12986.41
779.212	13012.62
779.547	12971.5
779.881	13015.79
780.215	12921.1
780.55	12954.55
780.884	12811.5
781.218	12772.18
781.552	12769.47
781.886	12747.32
782.22	12628
782.554	12556.36
782.888	12496.03
783.222	12437.05
783.556	12330.61
783.889	12325.64
784.223	12307.33
784.557	12308.24
784.89	12330.83
785.224	12175.81
785.557	12202.25
785.891	12166.32
786.224	12082.03
786.558	12063.72
786.891	11928.58
787.224	11942.14
787.557	11942.82
787.891	11867.8
788.224	11822.82
788.557	11792.32
788.89	11807.68
789.223	11764.07
789.556	11663.28
789.888	11587.12
790.221	11590.97
790.554	11491.31
790.887	11467.35
791.219	11469.39
791.552	11416.51
791.884	11389.16
792.217	11387.36
792.549	11333.8
792.882	11234.59
793.214	11219.9
793.546	11226
793.879	11174.48
794.211	11090.19
794.543	11111.66
794.875	11026.69
795.207	11022.17
795.539	10959.12
795.871	11027.37
796.203	10903.98
796.535	10866.92
796.867	10851.78
797.198	10786.92
797.53	10768.84
797.862	10722.97
798.193	10733.59
798.525	10688.39
798.856	10676.87
799.188	10543.31
799.519	10534.5
799.85	10489.53
800.182	10568.62
800.513	10457.21
800.844	10432.8
801.175	10477.78
801.506	10427.16
801.837	10324.56
802.168	10339.47
802.499	10281.85
802.83	10174.73
803.161	10203.66
803.491	10163.89
803.822	10159.59
804.153	10087.05
804.483	10077.33
804.814	9972.03
805.145	10016.32
805.475	9984.23
805.805	9945.81
806.136	9954.4
806.466	9935.42
806.796	9948.3
807.126	9767.96
807.457	9820.17
807.787	9770.9
808.117	9772.94
808.447	9724.8
808.777	9829.88
809.107	9728.19
809.436	9693.16
809.766	9668.08
810.096	9612.04
810.426	9600.28
810.755	9544.92
811.085	9594.41
811.414	9558.93
811.744	9514.41
812.073	9457.69
812.403	9469.67
812.732	9435.99
813.061	9366.39
813.39	9435.09
813.719	9345.15
814.049	9388.76
814.378	9339.05
814.707	9251.59
815.036	9281.2
815.365	9215.89
815.693	9180.63
816.022	9149.22
816.351	9194.19
816.68	9059.51
817.008	9088.43
817.337	9010.24
817.665	8950.36
817.994	9015.89
818.322	8984.48
818.651	8939.96
818.979	8892.05
819.307	8940.41
819.636	8871.72
819.964	8936.8
820.292	8871.49
820.62	8929.57
820.948	8857.48
821.276	8833.3
821.604	8852.28
821.932	8906.74
822.259	8876.46
822.587	8869.46
822.915	8805.95
823.243	8886.4
823.57	8868.78
823.898	8879.63
824.225	8845.05
824.553	8853.41
824.88	8892.05
825.207	8814.77
825.535	8880.98
825.862	8889.57
826.189	8813.64
826.516	8878.04
826.843	8860.19
827.17	8890.92
827.497	8864.48
827.824	8827.65
828.151	8829.68
828.478	8848.21
828.805	8897.25
829.131	8810.47
829.458	8786.75
829.785	8759.85
830.111	8834.43
830.438	8871.04
830.764	8823.36
831.09	8785.16
831.417	8723.92
831.743	8847.54
832.069	8737.48
832.395	8720.53
832.722	8837.59
833.048	8798.95
833.374	8768.22
833.7	8752.85
834.026	8751.72
834.351	8702.91
834.677	8735
835.003	8784.26
835.329	8781.32
835.654	8716.47
835.98	8743.58
836.306	8732.51
836.631	8736.35
836.956	8739.97
837.282	8676.24
837.607	8640.76
837.932	8732.51
838.258	8614.32
838.583	8617.71
838.908	8560.76
839.233	8604.15
839.558	8578.84
839.883	8596.69
840.208	8511.73
840.533	8576.13
840.858	8539.97
841.182	8506.53
841.507	8543.14
841.832	8441.9
842.156	8412.74
842.481	8395.34
842.805	8396.93
843.13	8359.86
843.454	8361.22
843.778	8380.2
844.103	8356.7
844.427	8316.25
844.751	8334.78
845.075	8261.11
845.399	8269.92
845.723	8223.82
846.047	8180.89
846.371	8158.97
846.695	8094.56
847.019	8124.16
847.343	8061.79
847.666	8029.48
847.99	7928.46
848.313	7994.45
848.637	7945.41
848.96	7905.19
849.284	7850.27
849.607	7760.56
849.931	7749.49
850.254	7751.52
850.577	7697.06
850.9	7669.71
851.223	7669.26
851.546	7704.74
851.869	7578.19
852.192	7590.39
852.515	7467.01
852.838	7522.6
853.161	7469.72
853.483	7485.09
853.806	7406.22
854.129	7372.09
854.451	7329.84
854.774	7375.94
855.096	7346.56
855.419	7330.29
855.741	7331.64
856.063	7258.2
856.385	7235.83
856.708	7232.21
857.03	7240.57
857.352	7211.19
857.674	7137.52
857.996	7149.28
858.318	7105.66
858.64	7094.81
858.961	7071.54
859.283	7058.43
859.605	7076.73
859.926	7049.16
860.248	7021.14
860.57	6950.18
860.891	6980.69
861.212	6994.93
861.534	6934.59
861.855	6933.46
862.176	6941.37
862.498	6858.44
862.819	6885.1
863.14	6892.11
863.461	6853.46
863.782	6816.85
864.103	6828.61
864.424	6803.52
864.745	6821.15
865.065	6773.47
865.386	6781.83
865.707	6758.78
866.027	6779.34
866.348	6694.6
866.668	6744.54
866.989	6709.96
867.309	6662.06
867.63	6659.57
867.95	6669.74
868.27	6630.19
868.59	6636.29
868.91	6655.73
869.23	6619.57
869.55	6615.05
869.87	6612.11
870.19	6616.18
870.51	6566.92
870.83	6597.2
871.15	6544.55
871.469	6545
871.789	6598.78
872.109	6585.9
872.428	6546.13
872.748	6573.7
873.067	6481.04
873.386	6547.03
873.706	6495.28
874.025	6464.1
874.344	6453.47
874.663	6442.63
874.982	6418.22
875.301	6428.39
875.62	6420.71
875.939	6410.09
876.258	6430.2
876.577	6454.83
876.896	6402.63
877.214	6330.77
877.533	6325.34
877.852	6275.85
878.17	6321.73
878.489	6281.95
878.807	6314.95
879.125	6266.13
879.444	6231.33
879.762	6273.37
880.08	6249.19
880.398	6245.12
880.716	6254.84
881.034	6210.99
881.352	6243.76
881.67	6220.49
881.988	6146.36
882.306	6167.61
882.624	6166.25
882.941	6127.61
883.259	6149.75
883.577	6110.66
883.894	6183.88
884.212	6102.75
884.529	6140.04
884.846	6093.48
885.164	6061.17
885.481	6045.35
885.798	6114.27
886.115	6039.93
886.432	6035.86
886.75	6052.13
887.067	6033.37
887.383	6021.17
887.7	5992.02
888.017	5999.02
888.334	5993.83
888.651	5880.38
888.967	5907.5
889.284	5922.19
889.6	5904.79
889.917	5883.32
890.233	5891
890.55	5799.48
890.866	5827.73
891.182	5860.5
891.498	5780.05
891.815	5742.08
892.131	5768.75
892.447	5764.45
892.763	5679.26
893.079	5726.26
893.395	5712.7
893.71	5622.08
894.026	5651.91
894.342	5640.61
894.657	5595.64
894.973	5614.17
895.289	5568.3
895.604	5585.7
895.92	5552.93
896.235	5506.38
896.55	5528.75
896.865	5471.58
897.181	5470
897.496	5446.5
897.811	5455.53
898.126	5406.95
898.441	5429.32
898.756	5368.08
899.071	5359.72
899.386	5402.88
899.7	5331.24
900.015	5251.7
900.33	5263.22
900.644	5241.98
900.959	5281.3
901.273	5254.64
901.588	5221.64
901.902	5204.02
902.216	5198.37
902.531	5230.91
902.845	5187.74
903.159	5147.75
903.473	5074.53
903.787	5121.53
904.101	5113.62
904.415	5076.34
904.729	5042.21
905.042	5024.13
905.356	5015.77
905.67	4955.43
905.984	4980.29
906.297	4985.26
906.611	4912.95
906.924	4954.76
907.237	4924.93
907.551	4893.06
907.864	4871.37
908.177	4834.99
908.491	4816.91
908.804	4797.47
909.117	4752.95
909.43	4792.28
909.743	4784.82
910.056	4747.3
910.368	4715.67
910.681	4707.76
910.994	4712.73
911.307	4637.93
911.619	4641.32
911.932	4664.59
912.244	4633.41
912.557	4627.08
912.869	4541.21
913.181	4552.73
913.494	4544.37
913.806	4592.51
914.118	4555.9
914.43	4488.33
914.742	4499.85
915.054	4428.22
915.366	4451.04
915.678	4407.65
915.99	4374.66
916.302	4406.3
916.613	4386.64
916.925	4354.77
917.236	4410.82
917.548	4300.08
917.859	4348.9
918.171	4348.22
918.482	4258.73
918.794	4258.96
919.105	4269.13
919.416	4201.1
919.727	4204.04
920.038	4195.68
920.349	4179.18
920.66	4136.47
920.971	4138.06
921.282	4097.83
921.593	4086.08
921.903	4045.63
922.214	4035.23
922.525	4007.89
922.835	4036.59
923.146	3969.47
923.456	3991.84
923.767	3966.31
924.077	3951.39
924.387	3935.35
924.697	3907.1
925.008	3924.5
925.318	3896.48
925.628	3905.74
925.938	3911.62
926.248	3847.22
926.558	3824.16
926.867	3811.51
927.177	3786.2
927.487	3807.89
927.796	3745.97
928.106	3797.27
928.416	3755.47
928.725	3769.48
929.034	3725.18
929.344	3731.29
929.653	3701.91
929.962	3727.44
930.271	3684.51
930.581	3684.06
930.89	3640.44
931.199	3622.36
931.508	3601.12
931.817	3569.71
932.125	3624.17
932.434	3576.26
932.743	3531.74
933.051	3512.53
933.36	3519.54
933.669	3491.97
933.977	3491.74
934.286	3525.64
934.594	3457.85
934.902	3405.19
935.21	3400.45
935.519	3416.27
935.827	3452.2
936.135	3395.7
936.443	3336.04
936.751	3312.77
937.059	3336.04
937.367	3288.13
937.674	3342.82
937.982	3303.05
938.29	3292.2
938.597	3331.97
938.905	3263.95
939.213	3257.17
939.52	3228.25
939.827	3289.72
940.135	3198.19
940.442	3202.49
940.749	3225.54
941.056	3231.64
941.363	3189.61
941.67	3149.83
941.977	3127.46
942.284	3159.55
942.591	3070.96
942.898	3069.83
943.205	3111.87
943.511	3051.3
943.818	3072.77
944.125	3037.52
944.431	3032.32
944.738	3002.72
945.044	3034.36
945.35	3017.63
945.657	2987.12
945.963	2915.71
946.269	2954.13
946.575	2953.45
946.881	2964.98
947.187	2961.59
947.493	2965.66
947.799	2911.42
948.105	2891.76
948.41	2864.64
948.716	2889.95
949.022	2878.65
949.327	2840.69
949.633	2854.7
949.938	2822.61
950.244	2841.59
950.549	2773.35
950.854	2820.8
951.16	2791.2
951.465	2790.75
951.77	2751.42
952.075	2773.8
952.38	2776.06
952.685	2740.35
952.99	2715.49
953.294	2710.07
953.599	2681.37
953.904	2679.79
954.209	2669.62
954.513	2658.09
954.818	2648.15
955.122	2682.5
955.426	2660.35
955.731	2604.99
956.035	2610.86
956.339	2609.06
956.643	2587.81
956.948	2580.58
957.252	2565.22
957.556	2553.01
957.86	2538.78
958.163	2555.05
958.467	2551.43
958.771	2528.38
959.075	2475.05
959.378	2498.55
959.682	2487.48
959.985	2479.79
960.289	2472.79
960.592	2404.32
960.896	2415.84
961.199	2412.22
961.502	2397.99
961.805	2419
962.108	2429.63
962.411	2398.21
962.714	2349.85
963.017	2381.49
963.32	2398.44
963.623	2392.56
963.926	2349.63
964.228	2334.26
964.531	2324.54
964.833	2348.5
965.136	2299.69
965.438	2290.42
965.741	2273.7
966.043	2285
966.345	2270.76
966.648	2239.57
966.95	2219.46
967.252	2267.82
967.554	2232.34
967.856	2217.2
968.158	2220.37
968.46	2211.33
968.761	2220.14
969.063	2194.38
969.365	2195.06
969.666	2168.62
969.968	2174.49
970.269	2152.8
970.571	2176.3
970.872	2151.67
971.174	2133.81
971.475	2121.16
971.776	2123.42
972.077	2104.89
972.378	2108.05
972.679	2101.27
972.98	2101.27
973.281	2049.75
973.582	2081.61
973.883	2046.13
974.183	2063.08
974.484	2039.58
974.785	2029.18
975.085	2037.55
975.386	2018.11
975.686	1989.64
975.986	2001.61
976.287	1959.58
976.587	1961.84
976.887	1962.97
977.187	1980.82
977.487	1927.27
977.787	1976.76
978.087	1960.94
978.387	1925.91
978.687	1921.62
978.987	1901.28
979.286	1895.85
979.586	1880.94
979.885	1903.09
980.185	1884.33
980.484	1878.23
980.784	1863.54
981.083	1861.5
981.382	1850.43
981.682	1841.84
981.981	1826.03
982.28	1851.34
982.579	1786.25
982.878	1827.83
983.177	1824.22
983.475	1789.42
983.774	1792.35
984.073	1783.99
984.372	1752.81
984.67	1729.98
984.969	1772.92
985.267	1764.33
985.566	1732.24
985.864	1755.07
986.162	1766.59
986.461	1709.64
986.759	1719.36
987.057	1706.48
987.355	1731.11
987.653	1692.7
987.951	1700.38
988.249	1690.66
988.547	1674.17
988.844	1692.47
989.142	1686.14
989.44	1634.62
989.737	1649.98
990.035	1641.4
990.332	1646.6
990.63	1640.49
990.927	1636.43
991.224	1602.08
991.521	1595.52
991.819	1626.26
992.116	1617.44
992.413	1610.44
992.71	1546.48
993.006	1576.77
993.303	1544.68
993.6	1571.34
993.897	1553.94
994.193	1573.15
994.49	1545.35
994.787	1528.18
995.083	1516.66
995.379	1504.68
995.676	1525.69
995.972	1527.28
996.268	1493.6
996.565	1499.48
996.861	1490.22
997.157	1497.22
997.453	1468.29
997.749	1446.83
998.044	1449.54
998.34	1460.39
998.636	1469.2
998.932	1445.7
999.227	1408.86
999.523	1442.98
999.818	1417
1000.114	1398.69
1000.409	1424.23
1000.704	1398.69
1001	1386.71
1001.295	1404.12
1001.59	1383.78
1001.885	1376.09
1002.18	1342.87
1002.475	1386.71
1002.77	1348.75
1003.065	1366.6
1003.359	1349.88
1003.654	1326.83
1003.949	1343.55
1004.243	1338.58
1004.538	1323.44
1004.832	1315.3
1005.127	1294.06
1005.421	1275.53
1005.715	1274.4
1006.009	1287.96
1006.304	1310.33
1006.598	1251.58
1006.892	1263.33
1007.186	1272.82
1007.48	1247.96
1007.773	1243.44
1008.067	1239.15
1008.361	1236.21
1008.655	1225.36
1008.948	1268.3
1009.242	1234.85
1009.535	1228.98
1009.829	1204.12
1010.122	1199.6
1010.415	1214.29
1010.708	1172.71
1011.001	1183.78
1011.295	1169.77
1011.588	1136.78
1011.881	1136.1
1012.173	1166.61
1012.466	1150.34
1012.759	1147.85
1013.052	1143.56
1013.344	1139.49
1013.637	1125.7
1013.93	1165.93
1014.222	1137.91
1014.514	1116.89
1014.807	1117.12
1015.099	1100.39
1015.391	1097.01
1015.683	1097.23
1015.976	1057.01
1016.268	1033.05
1016.56	1074.63
1016.851	1078.02
1017.143	1086.61
1017.435	1065.59
1017.727	1055.88
1018.018	1034.63
1018.31	1040.96
1018.602	1042.54
1018.893	1014.52
1019.185	1055.2
1019.476	1012.71
1019.767	991.92
1020.058	1017.69
1020.35	1019.72
1020.641	971.36
1020.932	1008.42
1021.223	992.83
1021.514	988.76
1021.804	967.06
1022.095	949.44
1022.386	977.01
1022.677	925.26
1022.967	952.15
1023.258	947.86
1023.548	922.09
1023.839	944.47
1024.129	928.2
1024.419	909.67
1024.709	929.33
1025	908.99
1025.29	927.97
1025.58	899.04
1025.87	919.61
1026.16	899.72
1026.449	921.42
1026.739	908.08
1027.029	870.57
1027.319	868.31
1027.608	900.4
1027.898	860.63
1028.187	867.86
1028.477	850.46
1028.766	856.79
1029.055	840.29
1029.344	825.15
1029.634	845.26
1029.923	812.04
1030.212	795.77
1030.501	845.26
1030.79	814.53
1031.078	823.57
1031.367	817.24
1031.656	805.04
1031.945	791.7
1032.233	788.76
1032.522	783.79
1032.81	796
1033.099	783.34
1033.387	773.85
1033.675	799.61
1033.963	777.24
1034.251	759.16
1034.54	762.78
1034.828	754.42
1035.116	772.49
1035.403	762.32
1035.691	750.57
1035.979	748.09
1036.267	748.54
1036.554	730.24
1036.842	770.46
1037.129	752.16
1037.417	734.98
1037.704	699.05
1037.992	721.65
1038.279	722.33
1038.566	712.61
1038.853	712.61
1039.14	712.61
