Data from foam_black_FLMS001491_00021.txt Node
Date: Wed Feb 08 10:43:38 GMT 2017
User: dcchb
Spectrometer: FLMS00149
Trigger mode: 0
Integration Time (sec): 2.000000E-2
Scans to average: 10
Electric dark correction enabled: true
Nonlinearity correction enabled: false
Boxcar width: 0
XAxis mode: Wavelengths
Number of Pixels in Spectrum: 2048
>>>>>Begin Spectral Data<<<<<
341.393	-21.98
341.776	-21.98
342.16	-21.98
342.543	-62.65
342.927	-74.86
343.31	-70.34
343.693	-55.87
344.077	-70.11
344.46	-64.46
344.843	-46.16
345.226	-34.18
345.61	-37.34
345.993	-20.39
346.376	1.75
346.759	7.63
347.142	27.51
347.525	26.84
347.908	62.09
348.291	61.86
348.674	92.14
349.057	119.04
349.44	112.71
349.823	132.82
350.206	173.5
350.588	173.95
350.971	199.49
351.354	225.47
351.737	230.9
352.119	247.85
352.502	262.54
352.884	250.56
353.267	267.96
353.65	285.13
354.032	277.68
354.414	284
354.797	296.88
355.179	302.76
355.562	341.86
355.944	334.85
356.326	325.81
356.709	349.09
357.091	349.76
357.473	326.49
357.855	333.95
358.238	322.42
358.62	341.63
359.002	341.63
359.384	335.3
359.766	345.02
360.148	321.07
360.53	315.19
360.912	354.51
361.294	337.56
361.676	315.42
362.057	326.04
362.439	337.79
362.821	318.58
363.203	335.08
363.584	333.95
363.966	308.86
364.348	321.52
364.729	328.3
365.111	336.43
365.493	322.42
365.874	313.16
366.256	311.35
366.637	309.09
367.019	311.8
367.4	308.41
367.781	308.18
368.163	308.64
368.544	307.28
368.925	307.28
369.306	290.33
369.688	295.53
370.069	308.18
370.45	309.77
370.831	314.51
371.212	318.81
371.593	320.61
371.974	324.45
372.355	318.13
372.736	316.55
373.117	321.74
373.498	308.41
373.879	313.83
374.26	331.23
374.641	305.47
375.021	298.24
375.402	314.74
375.783	317.22
376.163	326.04
376.544	328.75
376.925	329.43
377.305	337.34
377.686	342.99
378.066	336.88
378.447	333.27
378.827	352.7
379.208	311.57
379.588	338.47
379.968	326.04
380.349	328.3
380.729	341.63
381.109	345.92
381.489	341.86
381.87	351.12
382.25	356.32
382.63	342.76
383.01	358.8
383.39	361.97
383.77	366.49
384.15	349.99
384.53	373.27
384.91	354.96
385.29	333.72
385.67	361.29
386.049	375.07
386.429	357
386.809	373.04
387.189	387.28
387.568	349.99
387.948	389.54
388.328	369.43
388.707	378.01
389.087	391.12
389.466	367.62
389.846	408.29
390.225	394.28
390.605	395.19
390.984	368.07
391.363	392.02
391.743	394.96
392.122	405.81
392.501	404.9
392.881	395.19
393.26	396.32
393.639	410.1
394.018	398.58
394.397	403.1
394.776	400.84
395.155	404.23
395.534	416.88
395.913	408.52
396.292	411.68
396.671	441.06
397.05	395.64
397.429	436.99
397.808	448.07
398.186	429.08
398.565	442.19
398.944	421.85
399.323	444
399.701	427.73
400.08	420.72
400.458	446.03
400.837	445.13
401.215	445.58
401.594	467.95
401.972	458.24
402.351	462.3
402.729	468.41
403.107	451.46
403.486	431.57
403.864	456.88
404.242	476.99
404.62	458.24
404.999	474.06
405.377	471.34
405.755	482.87
406.133	494.39
406.511	490.1
406.889	476.32
407.267	471.57
407.645	503.21
408.023	496.43
408.401	499.37
408.779	491.68
409.156	515.64
409.534	513.6
409.912	520.16
410.29	551.57
410.667	532.58
411.045	539.36
411.422	544.79
411.8	525.81
412.178	546.82
412.555	545.92
412.933	560.15
413.31	537.1
413.687	546.82
414.065	570.78
414.442	575.97
414.819	555.86
415.197	571.68
415.574	580.27
415.951	604
416.328	557.22
416.705	591.11
417.082	562.64
417.46	586.59
417.837	607.84
418.214	584.56
418.591	601.96
418.967	607.61
419.344	623.2
419.721	617.1
420.098	599.02
420.475	619.59
420.852	639.02
421.228	638.8
421.605	645.8
421.982	634.28
422.358	669.3
422.735	674.5
423.111	655.97
423.488	683.54
423.864	637.67
424.241	686.48
424.617	672.24
424.994	664.56
425.37	694.16
425.746	689.87
426.123	725.57
426.499	707.27
426.875	709.3
427.251	702.3
427.627	747.04
428.003	736.2
428.379	737.78
428.756	733.71
429.132	757.44
429.507	736.87
429.883	752.24
430.259	761.96
430.635	776.87
431.011	773.71
431.387	798.79
431.763	796.76
432.138	811.22
432.514	814.84
432.89	804.22
433.265	828.85
433.641	824.55
434.016	824.1
434.392	848.96
434.767	865.68
435.143	860.71
435.518	865.01
435.894	880.6
436.269	902.52
436.644	883.08
437.02	888.51
437.395	880.6
437.77	899.58
438.145	920.82
438.52	938.45
438.895	936.87
439.271	927.83
439.646	951.78
440.021	939.81
440.395	975.06
440.77	962.63
441.145	954.49
441.52	965.57
441.895	965.34
442.27	981.39
442.645	959.92
443.019	985
443.394	1003.98
443.769	1011.44
444.143	1013.93
444.518	1016.41
444.892	1002.63
445.267	1040.37
445.641	1022.29
446.016	1044.89
446.39	1068.84
446.764	1036.07
447.139	1054.38
447.513	1068.39
447.887	1065.68
448.262	1068.84
448.636	1071.1
449.01	1084.89
449.384	1089.18
449.758	1117.43
450.132	1129.63
450.506	1095.51
450.88	1125.34
451.254	1103.19
451.628	1145.45
452.002	1163.98
452.376	1156.75
452.75	1173.25
453.123	1154.72
453.497	1147.03
453.871	1165.34
454.244	1212.12
454.618	1238.56
454.992	1230.19
455.365	1231.78
455.739	1242.17
456.112	1264.99
456.486	1262.51
456.859	1299.12
457.232	1291.21
457.606	1310.42
457.979	1319.68
458.352	1322.17
458.725	1377.31
459.099	1344.54
459.472	1381.15
459.845	1392
460.218	1424.54
460.591	1414.6
460.964	1411.43
461.337	1442.62
461.71	1471.09
462.083	1493.69
462.456	1490.75
462.829	1500.02
463.201	1532.56
463.574	1525.33
463.947	1543.18
464.32	1559.9
464.692	1568.94
465.065	1562.61
465.438	1600.13
465.81	1634.93
466.183	1634.7
466.555	1677.19
466.928	1684.19
467.3	1687.81
467.672	1685.32
468.045	1727.36
468.417	1725.32
468.789	1751.54
469.161	1791.31
469.534	1807.58
469.906	1842.83
470.278	1846.45
470.65	1853.45
471.022	1885.32
471.394	1916.96
471.766	1958.76
472.138	1978.65
472.51	1987.24
472.882	1996.28
473.253	2026.33
473.625	2070.17
473.997	2114.92
474.369	2101.58
474.74	2138.64
475.112	2156.5
475.484	2217.29
475.855	2201.24
476.227	2255.25
476.598	2295.7
476.97	2312.2
477.341	2364.63
477.713	2413.21
478.084	2423.16
478.455	2473.32
478.827	2496.6
479.198	2553.77
479.569	2579.99
479.94	2619.76
480.311	2625.41
480.682	2671.96
481.053	2751.28
481.424	2784.05
481.795	2797.61
482.166	2806.65
482.537	2882.13
482.908	2945.4
483.279	2923.03
483.65	3027.43
484.021	3061.56
484.391	3117.15
484.762	3092.74
485.133	3140.2
485.503	3174.32
485.874	3253.42
486.244	3287.54
486.615	3311.04
486.985	3322.34
487.356	3409.8
487.726	3412.06
488.097	3518.5
488.467	3503.58
488.837	3571.38
489.207	3594.2
489.578	3701.77
489.948	3724.37
490.318	3722.78
490.688	3746.51
491.058	3791.71
491.428	3829.9
491.798	3889.56
492.168	3955.32
492.538	3987.64
492.908	4034.19
493.278	4061.98
493.648	4081.64
494.017	4121.42
494.387	4151.92
494.757	4232.15
495.126	4243.45
495.496	4224.92
495.866	4262.43
496.235	4305.14
496.605	4370.9
496.974	4372.71
497.344	4421.52
497.713	4461.3
498.082	4503.78
498.452	4499.26
498.821	4560.95
499.19	4569.09
499.559	4618.35
499.928	4611.8
500.298	4681.63
500.667	4703.32
501.036	4701.51
501.405	4786.94
501.774	4752.59
502.143	4767.05
502.512	4804.11
502.88	4822.64
503.249	4855.18
503.618	4896.99
503.987	4907.61
504.356	5001.85
504.724	4992.58
505.093	5009.3
505.462	4999.59
505.83	5096.08
506.199	5111.9
506.567	5196.42
506.936	5229.18
507.304	5268.96
507.672	5202.07
508.041	5316.87
508.409	5378.56
508.777	5348.28
509.145	5428.95
509.514	5427.82
509.882	5472.57
510.25	5501.49
510.618	5529.52
510.986	5558.89
511.354	5582.4
511.722	5594.37
512.09	5680.92
512.458	5681.15
512.826	5675.27
513.193	5764.54
513.561	5754.14
513.929	5802.05
514.297	5850.41
514.664	5913.46
515.032	5934.25
515.4	6021.03
515.767	6063.96
516.135	6084.53
516.502	6063.96
516.869	6190.52
517.237	6173.57
517.604	6212.89
517.972	6265.32
518.339	6373.11
518.706	6413.56
519.073	6382.83
519.44	6430.73
519.808	6584.18
520.175	6559.55
520.542	6623.5
520.909	6648.58
521.276	6711.41
521.643	6720.22
522.009	6834.57
522.376	6750.73
522.743	6839.54
523.11	6957.95
523.477	6926.32
523.843	6986.2
524.21	7041.57
524.577	7116.37
524.943	7068.01
525.31	7154.33
525.676	7275.23
526.043	7293.76
526.409	7334.44
526.776	7383.03
527.142	7426.41
527.508	7471.84
527.874	7585.73
528.241	7646.07
528.607	7706.86
528.973	7729.46
529.339	7778.5
529.705	7898.72
530.071	7958.15
530.437	8016.68
530.803	8071.37
531.169	8089.45
531.535	8116.34
531.901	8142.55
532.267	8173.06
532.632	8231.14
532.998	8207.86
533.364	8309.78
533.73	8330.57
534.095	8326.5
534.461	8318.37
534.826	8395.2
535.192	8457.57
535.557	8429.33
535.923	8426.84
536.288	8525.6
536.653	8569.44
537.019	8573.5
537.384	8577.12
537.749	8686.72
538.114	8639.49
538.479	8652.6
538.845	8793.16
539.21	8834.51
539.575	8826.38
539.94	8919.48
540.305	8980.27
540.67	8976.66
541.034	9074.96
541.399	9145.01
541.764	9131.23
542.129	9227.27
542.494	9196.31
542.858	9246.93
543.223	9235.18
543.587	9295.97
543.952	9249.64
544.316	9325.35
544.681	9291.68
545.045	9351.11
545.41	9401.96
545.774	9395.4
546.138	9366.25
546.503	9452.58
546.867	9470.43
547.231	9519.24
547.595	9527.83
547.959	9566.25
548.324	9594.27
548.688	9579.8
549.052	9648.28
549.416	9697.32
549.779	9711.55
550.143	9759.46
550.507	9841.04
550.871	9935.73
551.235	9921.49
551.599	10085.55
551.962	10129.17
552.326	10084.2
552.689	10142.05
553.053	10192.22
553.417	10175.04
553.78	10347.24
554.143	10290.75
554.507	10379.11
554.87	10418.88
555.234	10486
555.597	10479.67
555.96	10469.95
556.323	10436.96
556.686	10464.53
557.05	10585.88
557.413	10648.93
557.776	10638.76
558.139	10659.32
558.502	10670.17
558.865	10758.3
559.228	10853.9
559.59	10897.51
559.953	10963.05
560.316	11122.59
560.679	11049.37
561.041	11141.35
561.404	11202.59
561.767	11256.82
562.129	11238.74
562.492	11418.85
562.854	11408.46
563.217	11359.42
563.579	11504.73
563.941	11591.28
564.304	11640.77
564.666	11749.24
565.028	11774.1
565.39	11868.78
565.753	11850.03
566.115	11961.21
566.477	12030.59
566.839	12004.15
567.201	12083.69
567.563	12121.88
567.925	12169.79
568.287	12196.68
568.648	12248.89
569.01	12283.91
569.372	12403.91
569.734	12347.87
570.095	12383.8
570.457	12456.57
570.819	12604.81
571.18	12534.98
571.542	12673.73
571.903	12691.14
572.265	12640.97
572.626	12733.39
572.987	12815.88
573.349	12863.79
573.71	12915.99
574.071	12930.9
574.432	12956.21
574.794	13070.56
575.155	12976.55
575.516	13043.44
575.877	13146.72
576.238	13152.37
576.599	13198.01
576.96	13236.21
577.32	13216.32
577.681	13249.09
578.042	13257.22
578.403	13319.82
578.763	13362.76
579.124	13329.76
579.485	13433.26
579.845	13434.84
580.206	13344.68
580.566	13459.25
580.927	13430.78
581.287	13506.26
581.648	13546.93
582.008	13632.58
582.368	13590.09
582.728	13612.01
583.089	13648.62
583.449	13569.08
583.809	13613.14
584.169	13665.35
584.529	13590.32
584.889	13767.04
585.249	13587.83
585.609	13635.52
585.969	13699.92
586.329	13586.7
586.688	13628.96
587.048	13617.66
587.408	13632.35
587.768	13598.23
588.127	13569.08
588.487	13590.09
588.846	13707.38
589.206	13493.83
589.565	13562.75
589.925	13678.23
590.284	13547.61
590.643	13677.1
591.003	13657.44
591.362	13703.09
591.721	13620.83
592.08	13682.97
592.44	13711.45
592.799	13763.2
593.158	13717.1
593.517	13748.51
593.876	13879.35
594.235	13860.37
594.593	13904.66
594.952	13941.05
595.311	13781.5
595.67	13843.87
596.029	13954.83
596.387	14028.95
596.746	14044.77
597.104	13938.56
597.463	14068.27
597.822	14089.06
598.18	14022.4
598.538	13957.77
598.897	14099.23
599.255	13915.28
599.613	14092.23
599.972	14064.66
600.33	14047.48
600.688	13955.06
601.046	14039.8
601.404	14073.02
601.762	14027.37
602.12	14064.88
602.478	14020.82
602.836	13995.06
603.194	13890.65
603.552	13936.75
603.91	13916.87
604.268	13986.47
604.625	13930.42
604.983	13952.35
605.341	13959.58
605.698	14049.52
606.056	14072.79
606.413	14046.58
606.771	14041.16
607.128	14069.86
607.485	14115.73
607.843	14096.75
608.2	14227.82
608.557	14356.18
608.914	14283.18
609.272	14341.26
609.629	14467.13
609.986	14507.13
610.343	14400.92
610.7	14458.77
611.057	14538.77
611.414	14517.3
611.771	14606.34
612.127	14608.15
612.484	14607.24
612.841	14593.91
613.198	14586.68
613.554	14618.77
613.911	14587.13
614.267	14608.82
614.624	14550.52
614.98	14610.63
615.337	14664.19
615.693	14698.99
616.05	14573.57
616.406	14669.61
616.762	14531.99
617.118	14559.33
617.475	14538.77
617.831	14710.97
618.187	14647.02
618.543	14673
618.899	14608.6
619.255	14638.65
619.611	14686.11
619.967	14789.16
620.323	14804.3
620.678	14688.82
621.034	14649.5
621.39	14674.81
621.746	14741.02
622.101	14943.51
622.457	14861.7
622.812	14905.54
623.168	14974.01
623.523	14872.32
623.879	14944.41
624.234	14907.35
624.589	14992.09
624.945	15053.56
625.3	15077.97
625.655	15014.46
626.01	15034.8
626.365	15094.46
626.72	14931.08
627.075	15053.56
627.43	15056.5
627.785	15083.39
628.14	15032.32
628.495	15086.78
628.85	14979.21
629.205	14914.35
629.559	14939.21
629.914	14889.5
630.269	14798.65
630.623	14746.9
630.978	14798.65
631.332	14832.55
631.687	14844.07
632.041	14701.93
632.396	14646.11
632.75	14647.69
633.104	14597.98
633.459	14568.6
633.813	14513.01
634.167	14579.45
634.521	14507.13
634.875	14574.93
635.229	14567.47
635.583	14520.92
635.937	14508.26
636.291	14402.95
636.645	14524.31
636.999	14526.79
637.352	14574.02
637.706	14390.07
638.06	14415.16
638.413	14423.97
638.767	14473.46
639.121	14416.97
639.474	14312.56
639.828	14383.97
640.181	14420.36
640.534	14391.88
640.888	14368.61
641.241	14330.87
641.594	14399.34
641.947	14440.02
642.301	14346.91
642.654	14374.93
643.007	14277.99
643.36	14374.71
643.713	14341.71
644.066	14394.82
644.419	14288.83
644.771	14145.33
645.124	13981.95
645.477	13968.16
645.83	13879.13
646.182	13927.94
646.535	13841.39
646.888	13982.17
647.24	14009.97
647.593	14005.68
647.945	13820.6
648.298	13780.82
648.65	13763.42
649.002	13771.56
649.355	13745.12
649.707	13682.07
650.059	13712.58
650.411	13826.25
650.763	13951.22
651.115	14066.92
651.467	13940.37
651.819	13991.89
652.171	13959.12
652.523	13954.83
652.875	13881.16
653.227	13840.48
653.578	13887.26
653.93	13930.88
654.282	13818.34
654.633	13785.12
654.985	13775.85
655.337	13865.79
655.688	13759.58
656.039	13873.7
656.391	13718.68
656.742	13790.77
657.094	13745.8
657.445	13743.08
657.796	13781.28
658.147	13741.5
658.498	13732.92
658.849	13837.55
659.2	13713.03
659.551	13757.1
659.902	13744.67
660.253	13681.62
660.604	13792.8
660.955	13738.79
661.306	13754.16
661.656	13786.02
662.007	13773.82
662.358	13811.78
662.708	13747.15
663.059	13728.62
663.409	13663.77
663.76	13830.09
664.11	13797.09
664.461	13681.17
664.811	13745.8
665.161	13757.1
665.511	13719.58
665.862	13725.68
666.212	13741.96
666.562	13727.04
666.912	13757.55
667.262	13703.54
667.612	13795.29
667.962	13702.18
668.312	13651.79
668.662	13654.05
669.011	13633.03
669.361	13651.34
669.711	13597.33
670.06	13538.12
670.41	13621.05
670.76	13509.87
671.109	13628.51
671.459	13491.11
671.808	13547.16
672.157	13518.23
672.507	13469.42
672.856	13497.89
673.205	13454.73
673.554	13514.16
673.904	13474.84
674.253	13483.88
674.602	13469.42
674.951	13190.33
675.3	13152.82
675.649	13419.7
675.998	13333.38
676.346	13382.19
676.695	13317.33
677.044	13192.14
677.393	13340.16
677.741	13288.41
678.09	13285.24
678.438	13277.79
678.787	13313.72
679.135	13397.56
679.484	13300.84
679.832	13334.96
680.181	13316.43
680.529	13348.07
680.877	13225.81
681.225	13187.17
681.573	13378.8
681.922	13287.28
682.27	13185.36
682.618	13313.49
682.966	13225.81
683.314	13249.09
683.661	13200.5
684.009	13069.88
684.357	13050
684.705	13039.6
685.053	13126.6
685.4	13173.61
685.748	13045.25
686.095	13006.38
686.443	12887.51
686.79	12933.39
687.138	12840.51
687.485	12950.79
687.832	12904.01
688.18	12845.26
688.527	12724.13
688.874	12770.46
689.221	12608.2
689.568	12694.52
689.915	12686.39
690.262	12603
690.609	12584.7
690.956	12529.11
691.303	12507.41
691.65	12418.37
691.997	12488.2
692.344	12321.2
692.69	12353.52
693.037	12358.49
693.383	12252.73
693.73	12345.61
694.077	12287.3
694.423	12282.11
694.769	12276.91
695.116	12158.95
695.462	12106.97
695.808	12089.12
696.155	12118.04
696.501	12054.32
696.847	12066.07
697.193	11939.97
697.539	11998.05
697.885	11928.22
698.231	11937.03
698.577	11851.16
698.923	11937.71
699.269	11951.04
699.614	11765.51
699.96	11785.17
700.306	11805.73
700.651	11746.75
700.997	11729.8
701.342	11654.33
701.688	11699.97
702.033	11611.62
702.379	11617.04
702.724	11551.5
703.069	11630.82
703.415	11474.9
703.76	11448.23
704.105	11479.42
704.45	11365.29
704.795	11307.89
705.14	11317.16
705.485	11278.52
705.83	11289.59
706.175	11320.55
706.52	11289.82
706.865	11250.04
707.209	11252.53
707.554	11111.97
707.899	11142.7
708.243	11071.29
708.588	11034.68
708.932	11015.47
709.277	11017.96
709.621	10970.05
709.966	10935.7
710.31	10921.69
710.654	10911.3
710.998	10852.54
711.342	10909.04
711.687	10949.94
712.031	10857.96
712.375	10768.47
712.719	10765.99
713.063	10733.45
713.407	10802.82
713.75	10701.13
714.094	10767.8
714.438	10678.08
714.782	10689.83
715.125	10600.34
715.469	10725.54
715.812	10586.56
716.156	10640.79
716.499	10639.21
716.843	10584.75
717.186	10490.29
717.53	10619.33
717.873	10626.78
718.216	10562.6
718.559	10524.19
718.902	10492.55
719.246	10509.95
719.589	10445.09
719.932	10380.01
720.275	10430.18
720.617	10380.24
720.96	10361.03
721.303	10367.58
721.646	10417.07
721.989	10339.33
722.331	10306.34
722.674	10247.36
723.016	10340.24
723.359	10193.12
723.701	10219.34
724.044	10134.59
724.386	10154.48
724.729	10120.58
725.071	10108.83
725.413	10118.32
725.755	10115.61
726.097	10082.84
726.439	9991.77
726.782	10032.22
727.124	10014.37
727.465	9992.22
727.807	9986.12
728.149	9986.12
728.491	9971.43
728.833	9960.81
729.175	9910.64
729.516	9946.12
729.858	9890.3
730.199	9832.45
730.541	9926.69
730.882	9812.57
731.224	9903.19
731.565	9791.1
731.906	9822.96
732.248	9761.49
732.589	9787.48
732.93	9730.08
733.271	9742.74
733.612	9723.08
733.953	9749.52
734.294	9732.57
734.635	9717.2
734.976	9680.82
735.317	9688.05
735.658	9649.86
735.999	9707.03
736.339	9647.83
736.68	9641.95
737.021	9665
737.361	9595.85
737.702	9691.21
738.042	9613.93
738.383	9592.23
738.723	9678.33
739.063	9551.1
739.404	9542.07
739.744	9515.17
740.084	9519.47
740.424	9612.8
740.764	9570.77
741.104	9533.25
741.444	9411.9
741.784	9481.28
742.124	9376.65
742.464	9433.59
742.804	9459.13
743.143	9440.37
743.483	9386.14
743.823	9445.34
744.162	9378.23
744.502	9328.74
744.841	9353.6
745.181	9396.08
745.52	9276.31
745.86	9337.78
746.199	9303.65
746.538	9294.39
746.877	9327.38
747.216	9281.73
747.556	9212.58
747.895	9257.55
748.234	9201.74
748.573	9200.61
748.911	9203.32
749.25	9156.99
749.589	9177.56
749.928	9162.87
750.267	9176.88
750.605	9150.66
750.944	9116.77
751.283	9050.55
751.621	9074.06
751.96	8992.02
752.298	9010.55
752.636	9008.97
752.975	8953.15
753.313	8886.26
753.651	8910.44
753.989	8892.59
754.327	8902.99
754.666	8766.72
755.004	8835.64
755.342	8785.7
755.679	8784.57
756.017	8755.87
756.355	8733.95
756.693	8696.44
757.031	8708.64
757.368	8628.42
757.706	8656.67
758.044	8650.11
758.381	8610.11
758.719	8609.89
759.056	8637.91
759.394	8588.42
759.731	8500.96
760.068	8546.84
760.405	8500.74
760.743	8486.73
761.08	8446.05
761.417	8428.42
761.754	8383.23
762.091	8359.27
762.428	8380.06
762.765	8279.95
763.102	8254.64
763.438	8287.64
763.775	8240.18
764.112	8303.23
764.449	8247.86
764.785	8229.33
765.122	8165.38
765.458	8127.64
765.795	8133.97
766.131	8145.72
766.467	8055.1
766.804	8082.67
767.14	8056
767.476	8051.71
767.812	7992.28
768.148	8054.87
768.485	7996.34
768.821	7939.85
769.157	7903.24
769.492	7869.79
769.828	7937.59
770.164	7866.4
770.5	7843.81
770.836	7802.22
771.171	7762.23
771.507	7767.87
771.842	7744.6
772.178	7712.51
772.513	7712.51
772.849	7676.8
773.184	7642
773.519	7594.77
773.855	7571.27
774.19	7524.72
774.525	7506.64
774.86	7459.18
775.195	7492.85
775.53	7391.39
775.865	7417.15
776.2	7291.73
776.535	7290.15
776.87	7308.45
777.205	7301.22
777.539	7225.52
777.874	7178.06
778.209	7155.46
778.543	7150.04
778.878	7072.53
779.212	7142.35
779.547	7045.41
779.881	7080.44
780.215	7018.74
780.55	7001.12
780.884	6968.8
781.218	6954.79
781.552	6954.34
781.886	6930.16
782.22	6866.88
782.554	6855.81
782.888	6840.22
783.222	6823.94
783.556	6754.34
783.889	6688.81
784.223	6680.9
784.557	6637.28
784.89	6748.47
785.224	6692.2
785.557	6626.21
785.891	6590.73
786.224	6550.28
786.558	6652.65
786.891	6536.72
787.224	6469.38
787.557	6489.26
787.891	6517.06
788.224	6480.45
788.557	6479.32
788.89	6496.95
789.223	6506.44
789.556	6422.37
789.888	6399.1
790.221	6355.71
790.554	6311.87
790.887	6331.53
791.219	6338.53
791.552	6331.08
791.884	6343.96
792.217	6306.9
792.549	6263.06
792.882	6243.85
793.214	6216.96
793.546	6291.08
793.879	6167.92
794.211	6163.85
794.543	6222.83
794.875	6143.51
795.207	6142.15
795.539	6186.45
795.871	6112.55
796.203	6102.38
796.535	6058.54
796.867	6070.07
797.198	6031.42
797.53	6063.51
797.862	5957.3
798.193	5952.33
798.525	5933.57
798.856	5976.74
799.188	5847.93
799.519	5837.76
799.85	5833.91
800.182	5832.11
800.513	5814.71
800.844	5741.04
801.175	5807.93
801.506	5762.05
801.837	5722.96
802.168	5755.05
802.499	5713.01
802.83	5682.51
803.161	5646.35
803.491	5653.35
803.822	5631.66
804.153	5619.46
804.483	5655.16
804.814	5557.09
805.145	5520.25
805.475	5540.36
805.805	5496.75
806.136	5484.32
806.466	5475.73
806.796	5462.62
807.126	5454.49
807.457	5409.29
807.787	5380.37
808.117	5426.69
808.447	5398.22
808.777	5375.62
809.107	5346.47
809.436	5339.69
809.766	5336.3
810.096	5329.97
810.426	5313.7
810.755	5322.97
811.085	5344.44
811.414	5292.46
811.744	5265.12
812.073	5253.36
812.403	5260.82
812.732	5221.28
813.061	5260.82
813.39	5225.12
813.719	5185.12
814.049	5168.62
814.378	5205
814.707	5178.79
815.036	5185.12
815.365	5147.38
815.693	5161.39
816.022	5154.61
816.351	5144.67
816.68	5082.3
817.008	5098.79
817.337	5103.99
817.665	5070.09
817.994	5058.79
818.322	5102.41
818.651	5059.92
818.979	5023.77
819.307	5031.22
819.636	5059.02
819.964	5024.67
820.292	5063.31
820.62	5024.67
820.948	5054.95
821.276	5026.48
821.604	4983.32
821.932	4993.94
822.259	5021.73
822.587	5015.86
822.915	5033.48
823.243	5018.12
823.57	5016.08
823.898	4997.1
824.225	4997.78
824.553	4971.34
824.88	4993.94
825.207	5035.74
825.535	4952.58
825.862	4967.5
826.189	4930.89
826.516	4953.94
826.843	4980.38
827.17	4983.09
827.497	4942.86
827.824	4935.18
828.151	4939.25
828.478	4929.08
828.805	4948.06
829.131	4970.43
829.458	4967.5
829.785	4923.88
830.111	4906.48
830.438	4951
830.764	4952.13
831.09	4960.72
831.417	4955.97
831.743	4981.73
832.069	4906.26
832.395	4859.7
832.722	4913.71
833.048	4932.24
833.374	4933.83
833.7	4925.24
834.026	4883.43
834.351	4903.77
834.677	4894.28
835.003	4887.72
835.329	4909.87
835.654	4886.14
835.98	4856.31
836.306	4898.57
836.631	4874.17
836.956	4887.05
837.282	4863.09
837.607	4819.7
837.932	4805.69
838.258	4826.71
838.583	4854.73
838.908	4797.56
839.233	4822.42
839.558	4801.4
839.883	4802.53
840.208	4788.07
840.533	4749.88
840.858	4769.54
841.182	4759.37
841.507	4765.92
841.832	4748.29
842.156	4730.21
842.481	4739.25
842.805	4724.57
843.13	4704.9
843.454	4706.94
843.778	4650.22
844.103	4613.83
844.427	4654.74
844.751	4647.96
845.075	4614.29
845.399	4666.04
845.723	4665.58
846.047	4617
846.371	4612.25
846.695	4606.6
847.019	4551.46
847.343	4571.35
847.666	4515.76
847.99	4485.02
848.313	4484.35
848.637	4427.85
848.96	4411.8
849.284	4442.31
849.607	4392.37
849.931	4440.96
850.254	4386.95
850.577	4347.4
850.9	4336.1
851.223	4358.7
851.546	4294.52
851.869	4334.07
852.192	4334.97
852.515	4235.99
852.838	4243.22
853.161	4257.68
853.483	4229.66
853.806	4255.2
854.129	4225.6
854.451	4209.55
854.774	4204.8
855.096	4165.03
855.419	4179.27
855.741	4165.71
856.063	4143.34
856.385	4185.82
856.708	4138.59
857.03	4092.49
857.352	4107.41
857.674	4094.75
857.996	4047.07
858.318	4084.81
858.64	4074.64
858.961	4076.67
859.283	4058.59
859.605	4059.95
859.926	4039.39
860.248	3986.96
860.57	4018.59
860.891	4010.23
861.212	3986.05
861.534	4015.21
861.855	3959.16
862.176	3987.86
862.498	3977.92
862.819	3977.24
863.14	3951.7
863.461	3931.59
863.782	3961.65
864.103	3943.79
864.424	3945.15
864.745	3963
865.065	3920.74
865.386	3924.59
865.707	3929.33
866.027	3901.76
866.348	3894.3
866.668	3890.91
866.989	3846.62
867.309	3888.2
867.63	3896.79
867.95	3842.55
868.27	3825.15
868.59	3859.28
868.91	3857.24
869.23	3815.66
869.55	3819.05
869.87	3811.59
870.19	3840.97
870.51	3813.18
870.83	3840.29
871.15	3759.39
871.469	3773.18
871.789	3774.99
872.109	3782.67
872.428	3739.05
872.748	3760.75
873.067	3765.95
873.386	3685.04
873.706	3736.57
874.025	3697.7
874.344	3706.96
874.663	3722.56
874.982	3662.9
875.301	3700.64
875.62	3694.08
875.939	3654.99
876.258	3688.66
876.577	3645.27
876.896	3628.55
877.214	3677.81
877.533	3665.61
877.852	3672.16
878.17	3634.2
878.489	3639.62
878.807	3647.31
879.125	3661.32
879.444	3651.37
879.762	3622.9
880.08	3623.13
880.398	3619.74
880.716	3652.73
881.034	3594.2
881.352	3611.15
881.67	3592.84
881.988	3619.96
882.306	3546.29
882.624	3603.69
882.941	3586.74
883.259	3596.69
883.577	3601.43
883.894	3577.25
884.212	3582.9
884.529	3567.08
884.846	3611.6
885.164	3580.41
885.481	3565.05
885.798	3554.43
886.115	3540.87
886.432	3558.95
886.75	3556.23
887.067	3535.22
887.383	3491.15
887.7	3492.06
888.017	3494.77
888.334	3488.89
888.651	3482.34
888.967	3486.63
889.284	3458.38
889.6	3450.47
889.917	3422.68
890.233	3436.69
890.55	3436.46
890.866	3434.2
891.182	3424.49
891.498	3417.03
891.815	3398.05
892.131	3390.14
892.447	3388.33
892.763	3376.58
893.079	3341.78
893.395	3311.95
893.71	3328.9
894.026	3303.36
894.342	3295.45
894.657	3278.73
894.973	3284.83
895.289	3257.48
895.604	3294.32
895.92	3290.03
896.235	3234.21
896.55	3286.18
896.865	3234.21
897.181	3212.74
897.496	3211.84
897.811	3186.3
898.126	3177.49
898.441	3191.05
898.756	3145.85
899.071	3089.81
899.386	3099.07
899.7	3048.45
900.015	3069.02
900.33	3057.26
900.644	3058.85
900.959	3014.78
901.273	3029.92
901.588	3001.67
901.902	3013.88
902.216	3019.3
902.531	3000.54
902.845	2993.31
903.159	2978.85
903.473	2919.87
903.787	2956.7
904.101	2925.06
904.415	2918.74
904.729	2904.5
905.042	2876.93
905.356	2847.55
905.67	2861.79
905.984	2863.37
906.297	2870.38
906.611	2843.26
906.924	2874.67
907.237	2808.91
907.551	2841.68
907.864	2805.07
908.177	2846.87
908.491	2805.75
908.804	2788.8
909.117	2775.01
909.43	2753.77
909.743	2751.06
910.056	2749.7
910.368	2724.84
910.681	2766.2
910.994	2726.43
911.307	2726.2
911.619	2720.78
911.932	2723.04
912.244	2703.6
912.557	2703.6
912.869	2709.7
913.181	2697.73
913.494	2714.67
913.806	2655.47
914.118	2672.19
914.43	2661.12
914.742	2664.51
915.054	2626.54
915.366	2629.48
915.678	2663.6
915.99	2606.65
916.302	2601.68
916.613	2593.77
916.925	2567.79
917.236	2620.67
917.548	2584.28
917.859	2618.63
918.171	2597.62
918.482	2615.02
918.794	2582.47
919.105	2541.57
919.416	2534.34
919.727	2524.17
920.038	2543.83
920.349	2529.59
920.66	2479.65
920.971	2544.51
921.282	2493.89
921.593	2486.43
921.903	2456.6
922.214	2439.88
922.525	2447.56
922.835	2383.84
923.146	2429.26
923.456	2419.31
923.767	2393.78
924.077	2429.48
924.387	2405.53
924.697	2361.01
925.008	2379.32
925.318	2371.18
925.628	2354.91
925.938	2349.03
926.248	2345.19
926.558	2312.43
926.867	2320.56
927.177	2281.47
927.487	2296.83
927.796	2299.54
928.106	2241.01
928.416	2262.26
928.725	2255.25
929.034	2230.85
929.344	2210.73
929.653	2195.37
929.962	2188.36
930.271	2172.54
930.581	2177.74
930.89	2143.16
931.199	2149.49
931.508	2149.04
931.817	2166.89
932.125	2140.23
932.434	2111.07
932.743	2086.44
933.051	2102.49
933.36	2081.47
933.669	2081.47
933.977	2114.92
934.286	2066.33
934.594	2060.45
934.902	2027.91
935.21	2044.18
935.519	2038.08
935.827	2027.91
936.135	2003.28
936.443	1979.55
936.751	1987.91
937.059	1979.1
937.367	1957.63
937.674	1988.82
937.982	1952.66
938.29	1923.96
938.597	1928.48
938.905	1937.07
939.213	1951.3
939.52	1940.91
939.827	1926.22
940.135	1889.61
940.442	1916.96
940.749	1903.17
941.056	1893.68
941.363	1869.72
941.67	1854.81
941.977	1862.27
942.284	1851.19
942.591	1847.35
942.898	1852.1
943.205	1850.29
943.511	1852.55
943.818	1812.78
944.125	1842.61
944.431	1835.15
944.738	1813.23
945.044	1816.39
945.35	1809.16
945.657	1809.61
945.963	1795.6
946.269	1820.91
946.575	1777.75
946.881	1773
947.187	1781.82
947.493	1771.87
947.799	1773.23
948.105	1790.63
948.41	1769.61
948.716	1745.43
949.022	1737.52
949.327	1750.86
949.633	1740.91
949.938	1741.59
950.244	1701.59
950.549	1750.63
950.854	1721.25
951.16	1720.58
951.465	1728.94
951.77	1723.51
952.075	1676.74
952.38	1700.92
952.685	1662.95
952.99	1689.16
953.294	1670.41
953.599	1679.67
953.904	1662.72
954.209	1658.43
954.513	1632.44
954.818	1652.33
955.122	1596.96
955.426	1645.55
955.731	1601.71
956.035	1631.09
956.339	1600.13
956.643	1620.01
956.948	1607.81
957.252	1600.81
957.556	1589.73
957.86	1608.71
958.163	1608.71
958.467	1606.45
958.771	1542.73
959.075	1571.65
959.378	1551.32
959.682	1547.02
959.985	1496.85
960.289	1546.8
960.592	1495.95
960.896	1528.94
961.199	1514.93
961.502	1507.02
961.805	1500.24
962.108	1488.94
962.411	1473.13
962.714	1492.33
963.017	1486.01
963.32	1468.38
963.623	1437.19
963.926	1425.89
964.228	1429.74
964.531	1418.44
964.833	1417.31
965.136	1393.13
965.438	1425.67
965.741	1370.98
966.043	1421.6
966.345	1375.73
966.648	1396.52
966.95	1374.14
967.252	1361.04
967.554	1359.68
967.856	1345.9
968.158	1357.2
968.46	1362.62
968.761	1358.1
969.063	1343.41
969.365	1326.46
969.666	1322.39
969.968	1323.3
970.269	1304.54
970.571	1336.18
970.872	1311.55
971.174	1342.73
971.475	1291.89
971.776	1287.82
972.077	1297.76
972.378	1291.66
972.679	1295.5
972.98	1273.58
973.281	1298.89
973.582	1254.37
973.883	1231.55
974.183	1265.9
974.484	1249.63
974.785	1235.62
975.085	1279.46
975.386	1243.07
975.686	1232.45
975.986	1271.1
976.287	1250.76
976.587	1197.65
976.887	1234.71
977.187	1227.03
977.487	1237.2
977.787	1226.58
978.087	1230.42
978.387	1182.74
978.687	1225.22
978.987	1217.54
979.286	1194.71
979.586	1211.66
979.885	1200.14
980.185	1205.11
980.484	1175.28
980.784	1167.6
981.083	1184.55
981.382	1167.6
981.682	1157.65
981.981	1160.59
982.28	1173.92
982.579	1170.08
982.878	1163.08
983.177	1142.74
983.475	1170.99
983.774	1147.94
984.073	1154.26
984.372	1146.35
984.67	1170.08
984.969	1130.31
985.267	1121.95
985.566	1150.65
985.864	1133.92
986.162	1126.92
986.461	1113.59
986.759	1117.43
987.057	1111.78
987.355	1116.07
987.653	1107.71
987.951	1092.57
988.249	1111.1
988.547	1107.94
988.844	1079.92
989.142	1096.86
989.44	1058.45
989.737	1056.86
990.035	1072.68
990.332	1074.72
990.63	1059.8
990.927	1058.9
991.224	1058.22
991.521	1037.43
991.819	1055.51
992.116	1060.03
992.413	1039.24
992.71	1010.31
993.006	1046.02
993.303	1024.55
993.6	1024.55
993.897	993.36
994.193	1007.37
994.49	977.54
994.787	985.91
995.083	1026.81
995.379	982.29
995.676	975.74
995.972	969.41
996.268	963.76
996.565	957.21
996.861	970.54
997.157	936.87
997.453	961.27
997.749	946.81
998.044	968.96
998.34	968.96
998.636	923.99
998.932	943.42
999.227	942.52
999.523	914.5
999.818	898.45
1000.114	921.95
1000.409	923.76
1000.704	892.35
1001	918.56
1001.295	907.94
1001.59	909.52
1001.885	883.99
1002.18	895.74
1002.475	871.11
1002.77	891.9
1003.065	872.01
1003.359	881.28
1003.654	854.61
1003.949	854.84
1004.243	869.53
1004.538	848.96
1004.832	835.4
1005.127	840.6
1005.421	874.04
1005.715	866.81
1006.009	849.41
1006.304	822.07
1006.598	837.89
1006.892	821.62
1007.186	817.1
1007.48	812.13
1007.773	848.96
1008.067	806.48
1008.361	824.33
1008.655	806.93
1008.948	809.64
1009.242	824.78
1009.535	795.4
1009.829	791.34
1010.122	799.47
1010.415	796.98
1010.708	779.81
1011.001	802.63
1011.295	796.98
1011.588	790.21
1011.881	775.06
1012.173	778.68
1012.466	784.56
1012.759	775.74
1013.052	755.86
1013.344	771
1013.637	775.74
1013.93	761.73
1014.222	745.69
1014.514	762.41
1014.807	751.34
1015.099	766.7
1015.391	739.59
1015.683	751.79
1015.976	746.14
1016.268	740.71
1016.56	737.33
1016.851	738
1017.143	748.4
1017.435	720.6
1017.727	731
1018.018	715.18
1018.31	715.63
1018.602	735.74
1018.893	706.82
1019.185	710.89
1019.476	724.44
1019.767	691.22
1020.058	691.68
1020.35	692.13
1020.641	689.87
1020.932	696.42
1021.223	653.26
1021.514	662.52
1021.804	659.81
1022.095	674.05
1022.386	684.22
1022.677	661.17
1022.967	685.8
1023.258	686.71
1023.548	672.24
1023.839	649.64
1024.129	651.68
1024.419	658.01
1024.709	663.65
1025	644.9
1025.29	643.54
1025.58	637.67
1025.87	627.05
1026.16	643.54
1026.449	635.86
1026.739	608.29
1027.029	644.67
1027.319	594.73
1027.608	645.12
1027.898	634.5
1028.187	643.77
1028.477	588.18
1028.766	624.79
1029.055	616.65
1029.344	600.38
1029.634	598.35
1029.923	589.76
1030.212	573.26
1030.501	597.89
1030.79	593.37
1031.078	573.26
1031.367	588.63
1031.656	603.09
1031.945	566.26
1032.233	561.74
1032.522	567.84
1032.81	567.84
1033.099	589.31
1033.387	563.09
1033.675	574.17
1033.963	557.22
1034.251	528.74
1034.54	575.75
1034.828	541.17
1035.116	542.3
1035.403	553.38
1035.691	543.43
1035.979	539.59
1036.267	521.96
1036.554	516.77
1036.842	553.83
1037.129	528.52
1037.417	538.46
1037.704	512.47
1037.992	524.22
1038.279	535.97
1038.566	523.32
1038.853	523.32
1039.14	523.32
