Data from foam1_polythene_foam_FLMS001491_00057.txt Node
Date: Wed Feb 08 10:55:04 GMT 2017
User: dcchb
Spectrometer: FLMS00149
Trigger mode: 0
Integration Time (sec): 2.000000E-2
Scans to average: 10
Electric dark correction enabled: true
Nonlinearity correction enabled: false
Boxcar width: 0
XAxis mode: Wavelengths
Number of Pixels in Spectrum: 2048
>>>>>Begin Spectral Data<<<<<
341.393	-15.17
341.776	-15.17
342.16	-15.17
342.543	-87.03
342.927	-61.95
343.31	-66.24
343.693	-62.17
344.077	-60.37
344.46	-75.05
344.843	-30.31
345.226	-40.71
345.61	-38.9
345.993	-26.24
346.376	-18.11
346.759	25.96
347.142	27.99
347.525	32.06
347.908	59.86
348.291	50.14
348.674	100.08
349.057	122
349.44	123.58
349.823	143.02
350.206	153.87
350.588	184.15
350.971	204.26
351.354	204.71
351.737	229.34
352.119	223.24
352.502	254.2
352.884	246.52
353.267	287.65
353.65	293.98
354.032	263.92
354.414	297.82
354.797	288.78
355.179	300.75
355.562	316.35
355.944	321.32
356.326	300.98
356.709	311.38
357.091	308.44
357.473	326.97
357.855	319.74
358.238	317.25
358.62	329.23
359.002	324.93
359.384	343.69
359.766	321.09
360.148	314.54
360.53	331.71
360.912	303.01
361.294	309.57
361.676	315.67
362.057	305.95
362.439	298.95
362.821	305.73
363.203	309.79
363.584	313.41
363.966	317.7
364.348	300.53
364.729	297.59
365.111	311.38
365.493	311.15
365.874	314.77
366.256	311.15
366.637	296.69
367.019	296.01
367.4	317.03
367.781	295.78
368.163	292.39
368.544	314.54
368.925	282.22
369.306	297.37
369.688	270.25
370.069	301.21
370.45	284.48
370.831	307.99
371.212	304.14
371.593	294.43
371.974	292.39
372.355	296.24
372.736	308.89
373.117	286.97
373.498	315.9
373.879	301.66
374.26	296.01
374.641	295.78
375.021	295.56
375.402	306.63
375.783	326.74
376.163	307.31
376.544	314.99
376.925	307.08
377.305	309.12
377.686	319.96
378.066	303.24
378.447	325.84
378.827	323.81
379.208	333.3
379.588	331.94
379.968	301.88
380.349	325.61
380.729	324.26
381.109	327.19
381.489	357.02
381.87	322.9
382.25	324.48
382.63	313.64
383.01	336.91
383.39	336.91
383.77	317.48
384.15	331.49
384.53	363.35
384.91	331.94
385.29	341.43
385.67	340.75
386.049	333.97
386.429	338.27
386.809	363.35
387.189	352.28
387.568	341.88
387.948	320.19
388.328	349.57
388.707	349.79
389.087	347.99
389.466	325.84
389.846	360.41
390.225	349.34
390.605	357.48
390.984	347.99
391.363	355.67
391.743	362.22
392.122	363.13
392.501	358.83
392.881	360.87
393.26	373.3
393.639	364.26
394.018	366.06
394.397	373.07
394.776	379.17
395.155	367.87
395.534	393.86
395.913	376.01
396.292	392.05
396.671	394.99
397.05	389.79
397.429	381.66
397.808	387.08
398.186	373.07
398.565	390.47
398.944	379.62
399.323	412.84
399.701	386.4
400.08	390.24
400.458	416.91
400.837	366.06
401.215	410.81
401.594	403.8
401.972	416.68
402.351	388.89
402.729	413.75
403.107	419.85
403.486	412.16
403.864	413.52
404.242	416.23
404.62	427.76
404.999	426.85
405.377	437.7
405.755	415.33
406.133	443.58
406.511	441.99
406.889	436.34
407.267	439.06
407.645	427.08
408.023	452.39
408.401	450.81
408.779	456.46
409.156	433.86
409.534	446.74
409.912	449.23
410.29	479.96
410.667	471.6
411.045	448.32
411.422	463.24
411.8	467.53
412.178	474.76
412.555	479.51
412.933	502.33
413.31	500.07
413.687	482.9
414.065	498.26
414.442	504.37
414.819	497.36
415.197	496.46
415.574	497.59
415.951	511.14
416.328	532.61
416.705	504.37
417.082	529.22
417.46	509.79
417.837	543.23
418.214	523.8
418.591	541.43
418.967	547.3
419.344	556.79
419.721	535.55
420.098	531.03
420.475	541.2
420.852	523.35
421.228	547.75
421.605	555.44
421.982	571.03
422.358	563.57
422.735	589.11
423.111	559.05
423.488	582.1
423.864	571.71
424.241	589.56
424.617	585.72
424.994	593.4
425.37	616.45
425.746	599.96
426.123	611.93
426.499	614.64
426.875	614.64
427.251	629.56
427.627	624.59
428.003	607.41
428.379	630.46
428.756	646.96
429.132	636.34
429.507	662.55
429.883	657.81
430.259	680.86
430.635	693.74
431.011	664.59
431.387	688.99
431.763	699.61
432.138	696.68
432.514	712.5
432.89	709.11
433.265	733.06
433.641	714.76
434.016	740.52
434.392	720.86
434.767	759.73
435.143	761.76
435.518	774.64
435.894	771.93
436.269	788.65
436.644	773.28
437.02	801.08
437.395	768.77
437.77	814.41
438.145	814.87
438.52	822.77
438.895	836.56
439.271	835.66
439.646	860.06
440.021	841.53
440.395	865.03
440.77	845.6
441.145	857.8
441.52	878.37
441.895	870.46
442.27	872.49
442.645	899.84
443.019	920.85
443.394	903.9
443.769	914.3
444.143	923.79
444.518	936.67
444.892	901.19
445.267	948.87
445.641	947.74
446.016	950
446.39	982.77
446.764	970.12
447.139	977.57
447.513	992.49
447.887	1013.96
448.262	993.39
448.636	995.65
449.01	1015.54
449.384	1047.18
449.758	1027.97
450.132	1020.96
450.506	1027.52
450.88	1054.18
451.254	1071.81
451.628	1078.59
452.002	1077.91
452.376	1088.98
452.75	1121.98
453.123	1116.33
453.497	1108.42
453.871	1117.46
454.244	1138.92
454.618	1124.46
454.992	1170.34
455.365	1152.94
455.739	1170.79
456.112	1154.74
456.486	1179.15
456.859	1185.48
457.232	1206.49
457.606	1219.83
457.979	1220.5
458.352	1264.12
458.725	1272.93
459.099	1259.15
459.472	1273.84
459.845	1272.25
460.218	1277
460.591	1295.76
460.964	1317.45
461.337	1354.06
461.71	1325.59
462.083	1356.77
462.456	1374.85
462.829	1341.63
463.201	1390.67
463.574	1405.58
463.947	1400.84
464.32	1435.19
464.692	1421.86
465.065	1441.97
465.438	1464.11
465.81	1477.45
466.183	1484
466.555	1501.18
466.928	1500.27
467.3	1534.17
467.672	1548.18
468.045	1592.47
468.417	1572.13
468.789	1590.66
469.161	1615.75
469.534	1626.82
469.906	1660.04
470.278	1674.05
470.65	1660.95
471.022	1726.71
471.394	1757.67
471.766	1753.6
472.138	1763.09
472.51	1781.85
472.882	1794.27
473.253	1815.07
473.625	1853.03
473.997	1876.08
474.369	1917.21
474.74	1928.06
475.112	1945.01
475.484	1953.37
475.855	2003.08
476.227	2036.98
476.598	2060.93
476.97	2110.2
477.341	2130.31
477.713	2154.04
478.084	2150.65
478.455	2172.12
478.827	2229.74
479.198	2295.73
479.569	2318.1
479.94	2349.29
480.311	2389.74
480.682	2418.67
481.053	2463.18
481.424	2484.88
481.795	2549.74
482.166	2518.78
482.537	2586.57
482.908	2648.04
483.279	2686.23
483.65	2710.41
484.021	2770.07
484.391	2811.88
484.762	2830.63
485.133	2830.63
485.503	2866.11
485.874	2923.74
486.244	2956.05
486.615	3030.63
486.985	3023.85
487.356	3121.25
487.726	3116.73
488.097	3177.06
488.467	3186.78
488.837	3271.07
489.207	3296.16
489.578	3334.8
489.948	3386.1
490.318	3418.19
490.688	3442.14
491.058	3455.02
491.428	3483.95
491.798	3542.03
492.168	3654.11
492.538	3691.17
492.908	3703.83
493.278	3689.37
493.648	3755.35
494.017	3795.13
494.387	3826.09
494.757	3838.97
495.126	3874.45
495.496	3897.04
495.866	3917.83
496.235	3937.95
496.605	3993.09
496.974	4047.1
497.344	4078.28
497.713	4095.01
498.082	4152.86
498.452	4181.1
498.821	4207.09
499.19	4193.08
499.559	4307.43
499.928	4261.1
500.298	4314.21
500.667	4368.44
501.036	4369.57
501.405	4392.62
501.774	4449.12
502.143	4480.31
502.512	4520.76
502.88	4556.69
503.249	4574.54
503.618	4584.26
503.987	4644.14
504.356	4620.19
504.724	4640.98
505.093	4743.35
505.462	4702
505.83	4777.02
506.199	4812.5
506.567	4871.93
506.936	4863.57
507.304	4903.35
507.672	4962.33
508.041	4979.5
508.409	5010.46
508.777	5049.33
509.145	5097.69
509.514	5102.44
509.882	5158.03
510.25	5189.44
510.618	5234.86
510.986	5283
511.354	5294.52
511.722	5374.07
512.09	5386.72
512.458	5349.89
512.826	5435.54
513.193	5492.93
513.561	5443.9
513.929	5535.65
514.297	5598.92
514.664	5619.71
515.032	5628.98
515.4	5709.2
515.767	5744.91
516.135	5756.43
516.502	5768.86
516.869	5915.97
517.237	5898.35
517.604	5917.78
517.972	5971.11
518.339	5989.87
518.706	6012.47
519.073	6070.55
519.44	6128.4
519.808	6162.07
520.175	6164.56
520.542	6262.18
520.909	6305.34
521.276	6331.56
521.643	6358.22
522.009	6381.5
522.376	6488.16
522.743	6533.13
523.11	6589.4
523.477	6680.02
523.843	6659.68
524.21	6800.24
524.577	6805.67
524.943	6828.49
525.31	6873.92
525.676	6898.55
526.043	6960.24
526.409	7002.5
526.776	7097.41
527.142	7117.98
527.508	7142.16
527.874	7213.34
528.241	7281.14
528.607	7257.63
528.973	7362.49
529.339	7369.5
529.705	7464.86
530.071	7508.7
530.437	7489.27
530.803	7587.12
531.169	7610.62
531.535	7616.72
531.901	7743.5
532.267	7780.78
532.632	7828.47
532.998	7824.17
533.364	7879.09
533.73	7877.05
534.095	7965.64
534.461	7984.17
534.826	7959.54
535.192	8037.27
535.557	8099.65
535.923	8088.57
536.288	8202.24
536.653	8114.79
537.019	8188.23
537.384	8191.17
537.749	8291.96
538.114	8248.57
538.479	8250.15
538.845	8344.84
539.21	8338.06
539.575	8399.75
539.94	8368.11
540.305	8447.43
540.67	8428.45
541.034	8547.77
541.399	8561.78
541.764	8628.67
542.129	8619.41
542.494	8631.84
542.858	8675.22
543.223	8707.77
543.587	8750.7
543.952	8711.83
544.316	8733.3
544.681	8787.76
545.045	8804.49
545.41	8844.26
545.774	8898.72
546.138	8907.53
546.503	8950.02
546.867	8936.69
547.231	9036.57
547.595	9084.03
547.959	9044.93
548.324	9123.35
548.688	9128.55
549.052	9138.49
549.416	9214.19
549.779	9134.19
550.143	9237.92
550.507	9325.83
550.871	9298.71
551.235	9337.81
551.599	9441.53
551.962	9409.89
552.326	9481.98
552.689	9529.21
553.053	9463.23
553.417	9543.9
553.78	9625.71
554.143	9659.83
554.507	9684.69
554.87	9703.67
555.234	9864.8
555.597	9767.62
555.96	9830
556.323	9871.35
556.686	9862.54
557.05	9954.96
557.413	9964
557.776	10037.9
558.139	10114.06
558.502	10087.84
558.865	10141.63
559.228	10194.51
559.59	10199.03
559.953	10228.4
560.316	10341.85
560.679	10342.75
561.041	10343.65
561.404	10440.38
561.767	10523.76
562.129	10486.02
562.492	10676.53
562.854	10651.22
563.217	10616.87
563.579	10667.04
563.941	10739.35
564.304	10750.2
564.666	10864.77
565.028	10940.93
565.39	10899.57
565.753	11005.33
566.115	11042.39
566.477	11155.84
566.839	11145.67
567.201	11228.15
567.563	11253.01
567.925	11340.24
568.287	11309.96
568.648	11293.69
569.01	11342.5
569.372	11447.81
569.734	11409.16
570.095	11534.13
570.457	11622.94
570.819	11594.24
571.18	11642.38
571.542	11689.61
571.903	11653.45
572.265	11717.63
572.626	11708.36
572.987	11785.42
573.349	11760.79
573.71	11851.86
574.071	11918.53
574.432	11871.75
574.794	11965.98
575.155	12012.31
575.516	11952.2
575.877	12043.72
576.238	12108.13
576.599	12215.7
576.96	12133.89
577.32	12154.23
577.681	12199.65
578.042	12182.7
578.403	12317.16
578.763	12201.01
579.124	12203.72
579.485	12306.31
579.845	12356.71
580.206	12337.05
580.566	12269.71
580.927	12438.97
581.287	12373.66
581.648	12441.9
582.008	12388.12
582.368	12473.09
582.728	12426.99
583.089	12436.48
583.449	12419.08
583.809	12424.5
584.169	12462.47
584.529	12487.33
584.889	12485.75
585.249	12343.6
585.609	12430.61
585.969	12542.47
586.329	12485.29
586.688	12467.89
587.048	12560.32
587.408	12539.3
587.768	12561.68
588.127	12493.2
588.487	12402.36
588.846	12486.88
589.206	12442.58
589.565	12398.74
589.925	12521
590.284	12537.5
590.643	12526.65
591.003	12612.97
591.362	12619.53
591.721	12581.11
592.08	12533.2
592.44	12573.2
592.799	12549.92
593.158	12533.88
593.517	12543.14
593.876	12480.32
594.235	12482.13
594.593	12615.91
594.952	12582.47
595.311	12581.11
595.67	12695.01
596.029	12640.32
596.387	12724.16
596.746	12749.69
597.104	12641.9
597.463	12619.3
597.822	12709.92
598.18	12654.1
598.538	12659.53
598.897	12702.69
599.255	12649.36
599.613	12819.3
599.972	12657.04
600.33	12737.04
600.688	12688
601.046	12732.97
601.404	12772.74
601.762	12804.61
602.12	12869.92
602.478	12907.65
602.836	12786.98
603.194	12878.28
603.552	12792.86
603.91	12764.83
604.268	12772.29
604.625	12799.18
604.983	12858.62
605.341	12789.69
605.698	12957.82
606.056	12928.9
606.413	12919.41
606.771	13010.25
607.128	13018.16
607.485	12858.62
607.843	12838.5
608.2	12945.17
608.557	13029.46
608.914	12933.87
609.272	12969.57
609.629	13073.07
609.986	13037.82
610.343	12963.02
610.7	13107.88
611.057	13042.57
611.414	13067.65
611.771	13162.56
612.127	13132.51
612.484	13162.11
612.841	13202.56
613.198	13082.34
613.554	13150.81
613.911	13213.86
614.267	13174.31
614.624	13134.09
614.98	13203.92
615.337	13225.61
615.693	13218.16
616.05	13332.28
616.406	13323.01
616.762	13279.17
617.118	13272.39
617.475	13344.48
617.831	13293.18
618.187	13307.87
618.543	13360.07
618.899	13373.41
619.255	13395.1
619.611	13311.26
619.967	13464.02
620.323	13364.59
620.678	13426.74
621.034	13312.16
621.39	13333.41
621.746	13312.16
622.101	13547.86
622.457	13330.24
622.812	13477.58
623.168	13472.84
623.523	13453.63
623.879	13417.92
624.234	13324.59
624.589	13405.27
624.945	13389.68
625.3	13415.44
625.655	13435.1
626.01	13399.62
626.365	13423.12
626.72	13378.83
627.075	13354.65
627.43	13374.54
627.785	13341.32
628.14	13358.49
628.495	13352.62
628.85	13413.86
629.205	13307.64
629.559	13409.56
629.914	13350.81
630.269	13297.7
630.623	13254.31
630.978	13322.56
631.332	13330.24
631.687	13358.26
632.041	13305.84
632.396	13279.17
632.75	13155.56
633.104	13222.22
633.459	13216.35
633.813	13114.2
634.167	13215.44
634.521	13195.33
634.875	13217.48
635.229	13180.87
635.583	13073.98
635.937	13179.51
636.291	13137.48
636.645	13151.49
636.999	13095.9
637.352	13037.37
637.706	12975.22
638.06	13108.78
638.413	12997.82
638.767	12966.64
639.121	12983.13
639.474	12878.73
639.828	12942.46
640.181	12998.05
640.534	12988.33
640.888	12969.57
641.241	12831.72
641.594	12957.6
641.947	12933.42
642.301	12928.67
642.654	12914.66
643.007	12973.87
643.36	12829.24
643.713	12833.08
644.066	12793.31
644.419	12756.92
644.771	12607.55
645.124	12600.09
645.477	12576.36
645.83	12563.03
646.182	12481.23
646.535	12370.72
646.888	12391.06
647.24	12279.65
647.593	12292.76
647.945	12322.36
648.298	12227.67
648.65	12290.72
649.002	12163.27
649.355	12245.53
649.707	12219.31
650.059	12281.91
650.411	12384.28
650.763	12422.92
651.115	12534.78
651.467	12394
651.819	12454.56
652.171	12511.73
652.523	12469.25
652.875	12486.2
653.227	12364.17
653.578	12435.58
653.93	12437.61
654.282	12412.3
654.633	12309.48
654.985	12452.98
655.337	12388.12
655.688	12353.55
656.039	12384.28
656.391	12317.16
656.742	12352.64
657.094	12314.9
657.445	12347.22
657.796	12271.51
658.147	12202.14
658.498	12201.91
658.849	12256.6
659.2	12210.95
659.551	12214.79
659.902	12284.39
660.253	12253.89
660.604	12331.85
660.955	12197.84
661.306	12274.68
661.656	12280.1
662.007	12303.6
662.358	12240.1
662.708	12238.75
663.059	12231.29
663.409	12083.04
663.76	12184.51
664.11	12153.32
664.461	12045.3
664.811	12112.42
665.161	12180.22
665.511	12141.8
665.862	12168.47
666.212	12211.4
666.562	12249.14
666.912	12075.81
667.262	12080.78
667.612	12126.43
667.962	12079.2
668.312	12128.47
668.662	12116.49
669.011	12098.18
669.361	12126.88
669.711	12118.52
670.06	12096.15
670.41	12056.83
670.76	12010.05
671.109	12015.7
671.459	12014.12
671.808	12036.49
672.157	12001.24
672.507	11945.19
672.856	11937.96
673.205	11961.01
673.554	12077.85
673.904	11945.42
674.253	12060.45
674.602	12052.54
674.951	11867.23
675.3	11754.92
675.649	12024.29
675.998	11897.29
676.346	11900.68
676.695	11988.36
677.044	11862.48
677.393	11871.52
677.741	11881.92
678.09	11851.86
678.438	11826.1
678.787	11850.96
679.135	11867.91
679.484	11859.32
679.832	11860
680.181	11806.44
680.529	11772.32
680.877	11784.07
681.225	11782.49
681.573	11928.92
681.922	11743.84
682.27	11679.21
682.618	11704.97
682.966	11699.55
683.314	11695.71
683.661	11656.39
684.009	11520.35
684.357	11540.23
684.705	11513.79
685.053	11495.49
685.4	11559.22
685.748	11437.19
686.095	11436.28
686.443	11299.34
686.79	11412.78
687.138	11425.89
687.485	11419.33
687.832	11361.48
688.18	11405.1
688.527	11317.64
688.874	11370.07
689.221	11291.2
689.568	11300.92
689.915	11217.98
690.262	11208.94
690.609	11166.68
690.956	11163.29
691.303	11113.58
691.65	10986.58
691.997	10966.46
692.344	10964.88
692.69	10984.54
693.037	11041.49
693.383	10876.3
693.73	11022.51
694.077	10967.37
694.423	10951.1
694.769	10868.39
695.116	10959.91
695.462	10910.19
695.808	10815.96
696.155	10814.6
696.501	10740.03
696.847	10726.02
697.193	10652.8
697.539	10689.63
697.885	10540.26
698.231	10545.23
698.577	10500.03
698.923	10453.48
699.269	10433.37
699.614	10370.09
699.96	10377.1
700.306	10439.7
700.651	10369.87
700.997	10371.68
701.342	10313.37
701.688	10370.32
702.033	10291.45
702.379	10251.91
702.724	10314.05
703.069	10288.29
703.415	10139.37
703.76	10196.99
704.105	10201.96
704.45	10145.69
704.795	10082.42
705.14	10008.07
705.485	10063.44
705.83	10044
706.175	10001.74
706.52	9947.28
706.865	9887.4
707.209	9935.3
707.554	9903.89
707.899	9945.02
708.243	9915.42
708.588	9930.56
708.932	9847.62
709.277	9835.65
709.621	9823.22
709.966	9684.24
710.31	9829.09
710.654	9622.77
710.998	9691.47
711.342	9658.93
711.687	9662.99
712.031	9590.68
712.375	9552.94
712.719	9577.57
713.063	9565.37
713.407	9553.62
713.75	9485.37
714.094	9562.21
714.438	9458.48
714.782	9469.55
715.125	9415.32
715.469	9483.34
715.812	9341.2
716.156	9390.91
716.499	9424.13
716.843	9466.16
717.186	9371.25
717.53	9324.25
717.873	9375.77
718.216	9333.74
718.559	9282.44
718.902	9145.27
719.246	9246.28
719.589	9189.79
719.932	9173.29
720.275	9146.4
720.617	9127.87
720.96	9102.78
721.303	9164.93
721.646	9082.67
721.989	9039.96
722.331	9041.99
722.674	9078.15
723.016	9113.4
723.359	9060.52
723.701	9087.19
724.044	9057.36
724.386	9011.49
724.729	9087.42
725.071	9009.45
725.413	9010.81
725.755	8966.52
726.097	8943.69
726.439	8924.03
726.782	8859.63
727.124	8865.73
727.465	8902.34
727.807	8810.59
728.149	8839.06
728.491	8818.27
728.833	8784.83
729.175	8808.78
729.516	8787.54
729.858	8809.23
730.199	8763.58
730.541	8731.72
730.882	8742.79
731.224	8779.4
731.565	8735.11
731.906	8688.78
732.248	8683.81
732.589	8713.41
732.93	8642.23
733.271	8658.05
733.612	8725.39
733.953	8694.88
734.294	8640.87
734.635	8656.69
734.976	8637.94
735.317	8589.8
735.658	8543.93
735.999	8586.41
736.339	8498.28
736.68	8540.31
737.021	8530.82
737.361	8461.22
737.702	8466.64
738.042	8513.42
738.383	8429.13
738.723	8436.36
739.063	8475
739.404	8470.94
739.744	8462.8
740.084	8439.07
740.424	8430.03
740.764	8397.94
741.104	8424.38
741.444	8407.21
741.784	8334.67
742.124	8400.65
742.464	8326.98
742.804	8289.02
743.143	8283.37
743.483	8284.5
743.823	8238.63
744.162	8218.96
744.502	8279.53
744.841	8192.3
745.181	8217.61
745.52	8159.53
745.86	8173.32
746.199	8161.11
746.538	8154.79
746.877	8231.39
747.216	8188.46
747.556	8141.9
747.895	8156.37
748.234	8155.01
748.573	8058.29
748.911	8108.01
749.25	8118.18
749.589	8034.79
749.928	8118.4
750.267	8106.43
750.605	8014.45
750.944	8068.01
751.283	7958.41
751.621	7927.67
751.96	7892.65
752.298	7919.09
752.636	7940.1
752.975	7842.7
753.313	7824.85
753.651	7876.37
753.989	7857.62
754.327	7872.99
754.666	7726.55
755.004	7768.58
755.342	7832.08
755.679	7818.07
756.017	7733.55
756.355	7772.42
756.693	7798.86
757.031	7786.43
757.368	7690.62
757.706	7682.93
758.044	7613.33
758.381	7706.66
758.719	7620.79
759.056	7675.25
759.394	7620.56
759.731	7526.55
760.068	7530.85
760.405	7487.01
760.743	7482.03
761.08	7508.93
761.417	7426.22
761.754	7464.41
762.091	7376.73
762.428	7403.17
762.765	7324.75
763.102	7413.34
763.438	7364.07
763.775	7359.78
764.112	7327.91
764.449	7303.73
764.785	7320.46
765.122	7215.83
765.458	7176.73
765.795	7179.67
766.131	7187.35
766.467	7205.66
766.804	7156.17
767.14	7105.55
767.476	7087.92
767.812	7059.45
768.148	7113.68
768.485	7013.35
768.821	6974.93
769.157	6986.91
769.492	6953.69
769.828	6907.36
770.164	6846.35
770.5	6854.48
770.836	6819
771.171	6816.29
771.507	6781.26
771.842	6761.15
772.178	6733.81
772.513	6772.68
772.849	6757.76
773.184	6706.01
773.519	6689.51
773.855	6639.8
774.19	6676.86
774.525	6647.03
774.86	6654.94
775.195	6597.76
775.53	6575.17
775.865	6542.17
776.2	6467.6
776.535	6485
776.87	6438.67
777.205	6434.38
777.539	6406.58
777.874	6409.07
778.209	6398.67
778.543	6317.32
778.878	6284.1
779.212	6269.19
779.547	6260.82
779.881	6235.74
780.215	6230.99
780.55	6216.53
780.884	6240.26
781.218	6235.74
781.552	6176.31
781.886	6203.65
782.22	6102.18
782.554	6125.01
782.888	6058.12
783.222	5997.78
783.556	5998.01
783.889	6027.16
784.223	5947.84
784.557	5955.75
784.89	5961.17
785.224	5982.87
785.557	5948.29
785.891	5912.36
786.224	5929.08
786.558	5890.66
786.891	5849.76
787.224	5834.85
787.557	5779.48
787.891	5753.04
788.224	5782.42
788.557	5756.88
788.89	5734.51
789.223	5734.96
789.556	5647.51
789.888	5638.47
790.221	5633.27
790.554	5594.4
790.887	5612.93
791.219	5603.67
791.552	5511.47
791.884	5553.95
792.217	5526.61
792.549	5478.47
792.882	5471.24
793.214	5506.27
793.546	5457.46
793.879	5399.83
794.211	5469.43
794.543	5412.03
794.875	5441.18
795.207	5391.02
795.539	5414.97
795.871	5354.86
796.203	5396.89
796.535	5324.58
796.867	5297.91
797.198	5309.44
797.53	5257.23
797.862	5279.61
798.193	5266.5
798.525	5228.99
798.856	5220.4
799.188	5183.34
799.519	5158.03
799.85	5158.71
800.182	5121.64
800.513	5113.51
800.844	5060.86
801.175	5096.79
801.506	5087.07
801.837	5036.9
802.168	5025.6
802.499	5070.35
802.83	5037.81
803.161	5003.68
803.491	5018.14
803.822	4985.15
804.153	5027.64
804.483	4981.31
804.814	4934.53
805.145	4958.71
805.475	4937.24
805.805	4956
806.136	4948.99
806.466	4871.71
806.796	4932.27
807.126	4849.34
807.457	4849.34
807.787	4806.4
808.117	4818.15
808.447	4810.69
808.777	4841.2
809.107	4743.35
809.436	4744.48
809.766	4736.57
810.096	4728.89
810.426	4737.7
810.755	4735.89
811.085	4702
811.414	4689.57
811.744	4671.26
812.073	4679.17
812.403	4645.05
812.732	4616.12
813.061	4685.27
813.39	4577.25
813.719	4602.79
814.049	4658.15
814.378	4627.42
814.707	4595.78
815.036	4619.74
815.365	4580.64
815.693	4584.94
816.022	4576.12
816.351	4557.37
816.68	4507.65
817.008	4506.75
817.337	4459.06
817.665	4468.1
817.994	4487.76
818.322	4473.75
818.651	4434.43
818.979	4423.36
819.307	4440.76
819.636	4462.91
819.964	4363.25
820.292	4433.53
820.62	4395.79
820.948	4379.29
821.276	4399.4
821.604	4353.76
821.932	4381.1
822.259	4361.44
822.587	4371.16
822.915	4379.07
823.243	4415.45
823.57	4376.13
823.898	4412.51
824.225	4362.12
824.553	4390.14
824.88	4385.17
825.207	4408.44
825.535	4386.98
825.862	4396.47
826.189	4351.72
826.516	4339.29
826.843	4379.97
827.17	4372.74
827.497	4375.45
827.824	4409.57
828.151	4379.74
828.478	4397.37
828.805	4395.34
829.131	4375
829.458	4347.43
829.785	4337.26
830.111	4331.84
830.438	4320.54
830.764	4359.63
831.09	4342
831.417	4343.81
831.743	4336.58
832.069	4322.34
832.395	4306.07
832.722	4347.43
833.048	4363.25
833.374	4338.61
833.7	4364.38
834.026	4367.99
834.351	4382
834.677	4327.09
835.003	4373.87
835.329	4357.6
835.654	4351.27
835.98	4371.16
836.306	4345.39
836.631	4332.74
836.956	4330.93
837.282	4323.7
837.607	4276.7
837.932	4295.68
838.258	4243.25
838.583	4242.8
838.908	4190.6
839.233	4257.26
839.558	4236.92
839.883	4214.1
840.208	4165.06
840.533	4172.97
840.858	4178.17
841.182	4193.53
841.507	4146.3
841.832	4158.28
842.156	4193.31
842.481	4164.83
842.805	4165.96
843.13	4140.88
843.454	4168.9
843.778	4115.57
844.103	4102.01
844.427	4139.98
844.751	4112.41
845.075	4108.79
845.399	4099.75
845.723	4066.76
846.047	4081.9
846.371	4066.31
846.695	4060.43
847.019	4043.26
847.343	3958.29
847.666	3980.21
847.99	3971.62
848.313	3965.52
848.637	3914.9
848.96	3886.88
849.284	3927.33
849.607	3891.39
849.931	3857.5
850.254	3797.39
850.577	3802.36
850.9	3818.4
851.223	3795.13
851.546	3790.61
851.869	3784.73
852.192	3787.44
852.515	3779.31
852.838	3777.5
853.161	3802.58
853.483	3774.34
853.806	3777.5
854.129	3788.57
854.451	3710.61
854.774	3731.63
855.096	3672.87
855.419	3692.53
855.741	3652.98
856.063	3684.62
856.385	3669.71
856.708	3607.56
857.03	3615.7
857.352	3606.43
857.674	3649.59
857.996	3611.4
858.318	3558.75
858.64	3534.34
858.961	3537.28
859.283	3528.01
859.605	3491.41
859.926	3516.72
860.248	3497.96
860.57	3500.44
860.891	3483.27
861.212	3484.63
861.534	3476.94
861.855	3429.26
862.176	3447.56
862.498	3468.36
862.819	3469.26
863.14	3469.26
863.461	3474
863.782	3476.26
864.103	3472.65
864.424	3472.42
864.745	3502.7
865.065	3472.65
865.386	3457.28
865.707	3448.02
866.027	3438.53
866.348	3443.5
866.668	3457.06
866.989	3452.76
867.309	3419.32
867.63	3438.07
867.95	3406.44
868.27	3376.38
868.59	3382.03
868.91	3350.17
869.23	3345.87
869.55	3356.27
869.87	3318.53
870.19	3297.51
870.51	3334.35
870.83	3287.34
871.15	3307.23
871.469	3294.12
871.789	3280.56
872.109	3292.09
872.428	3309.04
872.748	3321.47
873.067	3333.9
873.386	3312.65
873.706	3357.17
874.025	3290.51
874.344	3273.33
874.663	3276.72
874.982	3292.31
875.301	3283.95
875.62	3342.71
875.939	3266.1
876.258	3296.83
876.577	3301.58
876.896	3250.51
877.214	3284.41
877.533	3258.87
877.852	3281.69
878.17	3215.93
878.489	3266.78
878.807	3222.94
879.125	3207.8
879.444	3247.8
879.762	3185.2
880.08	3213.22
880.398	3196.27
880.716	3181.36
881.034	3158.76
881.352	3133.9
881.67	3147.01
881.988	3165.54
882.306	3159.89
882.624	3162.83
882.941	3134.35
883.259	3158.98
883.577	3120.79
883.894	3114.69
884.212	3120.57
884.529	3114.24
884.846	3109.04
885.164	3094.35
885.481	3116.05
885.798	3110.85
886.115	3100
886.432	3073.79
886.75	3132.77
887.067	3139.32
887.383	3099.55
887.7	3123.28
888.017	3082.6
888.334	3050.74
888.651	3039.89
888.967	3063.39
889.284	3035.6
889.6	3043.06
889.917	3043.96
890.233	3028.59
890.55	3021.36
890.866	2988.59
891.182	2996.05
891.498	2972.32
891.815	2946.56
892.131	2938.65
892.447	2951.76
892.763	2884.87
893.079	2905.43
893.395	2883.29
893.71	2901.36
894.026	2891.2
894.342	2911.53
894.657	2920.57
894.973	2862.5
895.289	2892.55
895.604	2891.87
895.92	2840.35
896.235	2839.9
896.55	2866.79
896.865	2841.93
897.181	2830.86
897.496	2861.82
897.811	2806
898.126	2829.73
898.441	2813.68
898.756	2813.01
899.071	2793.12
899.386	2788.37
899.7	2781.14
900.015	2760.35
900.33	2732.78
900.644	2707.92
900.959	2737.75
901.273	2726.91
901.588	2753.57
901.902	2706.12
902.216	2667.47
902.531	2675.83
902.845	2692.78
903.159	2703.4
903.473	2658.21
903.787	2678.09
904.101	2604.2
904.415	2615.95
904.729	2594.03
905.042	2570.98
905.356	2617.53
905.67	2590.86
905.984	2573.92
906.297	2610.07
906.611	2575.95
906.924	2564.65
907.237	2524.2
907.551	2498.44
907.864	2507.02
908.177	2538.21
908.491	2535.95
908.804	2507.93
909.117	2504.54
909.43	2487.14
909.743	2489.17
910.056	2528.49
910.368	2481.26
910.681	2489.17
910.994	2462.51
911.307	2463.41
911.619	2439.23
911.932	2463.41
912.244	2486.46
912.557	2409.85
912.869	2391.55
913.181	2429.51
913.494	2384.09
913.806	2393.36
914.118	2372.79
914.43	2371.21
914.742	2336.41
915.054	2342.51
915.366	2304.09
915.678	2347.03
915.99	2328.27
916.302	2302.74
916.613	2296.63
916.925	2287.37
917.236	2273.36
917.548	2270.19
917.859	2290.98
918.171	2247.82
918.482	2271.78
918.794	2247.14
919.105	2234.04
919.416	2234.94
919.727	2198.33
920.038	2193.81
920.349	2233.59
920.66	2195.17
920.971	2234.72
921.282	2184.55
921.593	2118.33
921.903	2164.43
922.214	2152.91
922.525	2144.77
922.835	2104.1
923.146	2154.94
923.456	2124.89
923.767	2130.31
924.077	2132.8
924.387	2114.94
924.697	2071.33
925.008	2101.84
925.318	2078.34
925.628	2087.15
925.938	2091.89
926.248	2058.45
926.558	2065.91
926.867	2046.47
927.177	2024.33
927.487	2020.71
927.796	1983.87
928.106	2006.92
928.416	1982.29
928.725	2029.07
929.034	1989.07
929.344	1998.34
929.653	1994.27
929.962	1971.22
930.271	1956.08
930.581	1940.71
930.89	1937.55
931.199	1924.89
931.508	1920.6
931.817	1895.74
932.125	1936.19
932.434	1920.83
932.743	1890.54
933.051	1893.71
933.36	1896.42
933.669	1878.57
933.977	1872.24
934.286	1869.75
934.594	1874.5
934.902	1859.13
935.21	1886.02
935.519	1881.96
935.827	1828.85
936.135	1849.64
936.443	1828.62
936.751	1813.94
937.059	1855.52
937.367	1828.4
937.674	1801.73
937.982	1786.14
938.29	1818
938.597	1783.65
938.905	1776.2
939.213	1770.09
939.52	1741.17
939.827	1757.67
940.135	1751.34
940.442	1762.86
940.749	1781.39
941.056	1724.67
941.363	1713.82
941.67	1712.92
941.977	1712.02
942.284	1695.07
942.591	1669.53
942.898	1684.22
943.205	1723.32
943.511	1676.31
943.818	1649.65
944.125	1668.4
944.431	1663.2
944.738	1645.35
945.044	1651.91
945.35	1638.8
945.657	1644.67
945.963	1619.36
946.269	1614.39
946.575	1637.44
946.881	1632.25
947.187	1615.75
947.493	1623.21
947.799	1583.21
948.105	1606.48
948.41	1580.27
948.716	1566.94
949.022	1576.65
949.327	1566.94
949.633	1564
949.938	1557.22
950.244	1583.66
950.549	1539.59
950.854	1526.49
951.16	1536.65
951.465	1550.89
951.77	1537.78
952.075	1542.98
952.38	1533.72
952.685	1542.98
952.99	1503.21
953.294	1501.4
953.599	1507.95
953.904	1525.36
954.209	1438.35
954.513	1478.58
954.818	1493.04
955.122	1470.22
955.426	1471.57
955.731	1465.7
956.035	1464.11
956.339	1474.06
956.643	1458.92
956.948	1429.99
957.252	1431.35
957.556	1437.67
957.86	1428.63
958.163	1428.18
958.467	1402.87
958.771	1404.68
959.075	1398.35
959.378	1422.08
959.682	1388.86
959.985	1409.88
960.289	1394.96
960.592	1397.9
960.896	1362.42
961.199	1361.29
961.502	1358.35
961.805	1365.59
962.108	1370.11
962.411	1352.48
962.714	1357.9
963.017	1347.96
963.32	1318.81
963.623	1340.73
963.926	1342.08
964.228	1333.72
964.531	1355.42
964.833	1329.2
965.136	1328.3
965.438	1294.4
965.741	1313.84
966.043	1343.44
966.345	1304.8
966.648	1284.23
966.95	1277.68
967.252	1275.42
967.554	1274.06
967.856	1275.19
968.158	1254.85
968.46	1255.08
968.761	1240.84
969.063	1245.14
969.365	1265.48
969.666	1252.82
969.968	1267.51
970.269	1220.28
970.571	1226.61
970.872	1225.7
971.174	1240.84
971.475	1205.14
971.776	1203.1
972.077	1208.53
972.378	1202.65
972.679	1195.19
972.98	1215.76
973.281	1189.32
973.582	1200.17
973.883	1178.25
974.183	1162.2
974.484	1180.28
974.785	1189.77
975.085	1152.94
975.386	1176.44
975.686	1174.4
975.986	1138.02
976.287	1166.27
976.587	1126.95
976.887	1163.33
977.187	1132.15
977.487	1147.74
977.787	1131.02
978.087	1141.41
978.387	1136.21
978.687	1120.62
978.987	1123.78
979.286	1117.46
979.586	1097.8
979.885	1102.54
980.185	1121.3
980.484	1104.12
980.784	1082.43
981.083	1100.96
981.382	1103.9
981.682	1088.53
981.981	1092.6
982.28	1077.91
982.579	1068.42
982.878	1074.52
983.177	1059.83
983.475	1077.46
983.774	1065.03
984.073	1065.25
984.372	1058.25
984.67	1072.26
984.969	1026.16
985.267	1020.06
985.566	1032.26
985.864	1048.76
986.162	1039.27
986.461	1028.19
986.759	1008.98
987.057	1038.59
987.355	1013.05
987.653	1017.35
987.951	1027.52
988.249	999.49
988.547	988.19
988.844	1001.75
989.142	982.77
989.44	973.96
989.737	991.58
990.035	959.95
990.332	986.16
990.63	986.16
990.927	970.57
991.224	952.26
991.521	970.12
991.819	962.88
992.116	980.51
992.413	945.94
992.71	940.74
993.006	956.78
993.303	953.17
993.6	959.72
993.897	948.42
994.193	924.47
994.49	924.02
994.787	936.44
995.083	938.03
995.379	918.82
995.676	920.17
995.972	910.46
996.268	899.61
996.565	934.86
996.861	890.34
997.157	912.04
997.453	901.87
997.749	905.26
998.044	889.21
998.34	874.53
998.636	883.79
998.932	890.57
999.227	872.27
999.523	878.37
999.818	880.85
1000.114	872.72
1000.409	864.36
1000.704	861.19
1001	857.8
1001.295	867.97
1001.59	859.61
1001.885	845.37
1002.18	843.34
1002.475	839.72
1002.77	839.95
1003.065	856.22
1003.359	827.75
1003.654	821.87
1003.949	802.21
1004.243	844.24
1004.538	839.05
1004.832	804.7
1005.127	808.76
1005.421	802.21
1005.715	825.71
1006.009	818.48
1006.304	776.22
1006.598	796.79
1006.892	818.48
1007.186	787.97
1007.48	770.57
1007.773	770.12
1008.067	787.97
1008.361	778.48
1008.655	763.57
1008.948	780.52
1009.242	755.21
1009.535	754.53
1009.829	756.79
1010.122	770.12
1010.415	757.69
1010.708	764.02
1011.001	761.99
1011.295	736.9
1011.588	756.79
1011.881	768.54
1012.173	740.97
1012.466	747.75
1012.759	726.51
1013.052	722.66
1013.344	751.59
1013.637	725.83
1013.93	710.01
1014.222	728.54
1014.514	734.87
1014.807	694.87
1015.099	726.05
1015.391	699.84
1015.683	707.07
1015.976	699.61
1016.268	703.91
1016.56	695.55
1016.851	691.93
1017.143	671.14
1017.435	678.82
1017.727	678.82
1018.018	673.4
1018.31	676.34
1018.602	679.73
1018.893	691.48
1019.185	695.09
1019.476	687.64
1019.767	688.99
1020.058	656.9
1020.35	653.51
1020.641	676.11
1020.932	652.16
1021.223	657.36
1021.514	633.4
1021.804	639.73
1022.095	627.3
1022.386	647.41
1022.677	629.11
1022.967	625.72
1023.258	665.72
1023.548	646.06
1023.839	617.36
1024.129	613.29
1024.419	601.99
1024.709	618.03
1025	634.53
1025.29	607.87
1025.58	615.77
1025.87	629.79
1026.16	637.47
1026.449	615.32
1026.739	604.93
1027.029	614.87
1027.319	581.43
1027.608	604.93
1027.898	614.42
1028.187	576
1028.477	603.57
1028.766	591.59
1029.055	586.4
1029.344	590.92
1029.634	577.81
1029.923	587.3
1030.212	578.71
1030.501	580.75
1030.79	597.7
1031.078	569.22
1031.367	572.16
1031.656	568.54
1031.945	542.33
1032.233	549.34
1032.522	549.79
1032.81	567.64
1033.099	569
1033.387	552.73
1033.675	555.44
1033.963	550.01
1034.251	540.97
1034.54	548.66
1034.828	530.58
1035.116	540.75
1035.403	530.13
1035.691	562.22
1035.979	524.93
1036.267	505.72
1036.554	543.23
1036.842	541.65
1037.129	532.39
1037.417	525.61
1037.704	531.48
1037.992	526.29
1038.279	529.9
1038.566	515.44
1038.853	515.44
1039.14	515.44
