Data from foam_black_FLMS001491_00014.txt Node
Date: Wed Feb 08 10:43:35 GMT 2017
User: dcchb
Spectrometer: FLMS00149
Trigger mode: 0
Integration Time (sec): 2.000000E-2
Scans to average: 10
Electric dark correction enabled: true
Nonlinearity correction enabled: false
Boxcar width: 0
XAxis mode: Wavelengths
Number of Pixels in Spectrum: 2048
>>>>>Begin Spectral Data<<<<<
341.393	-14.01
341.776	-14.01
342.16	-14.01
342.543	-48.36
342.927	-57.4
343.31	-72.99
343.693	-71.64
344.077	-70.28
344.46	-59.66
344.843	-49.26
345.226	-36.38
345.61	-24.41
345.993	-27.34
346.376	-7.68
346.759	9.94
347.142	22.6
347.525	44.74
347.908	70.96
348.291	74.35
348.674	77.96
349.057	119.09
349.44	118.87
349.823	144.63
350.206	159.77
350.588	190.96
350.971	195.02
351.354	199.77
351.737	226.43
352.119	232.76
352.502	252.2
352.884	270.28
353.267	265.3
353.65	275.92
354.032	306.66
354.414	285.19
354.797	304.62
355.179	326.09
355.562	310.05
355.944	316.15
356.326	313.89
356.709	318.64
357.091	317.28
357.473	345.3
357.855	341.23
358.238	339.88
358.62	328.35
359.002	348.47
359.384	319.54
359.766	343.49
360.148	343.04
360.53	339.43
360.912	332.87
361.294	319.31
361.676	339.2
362.057	345.75
362.439	317.73
362.821	307.56
363.203	316.83
363.584	320.67
363.966	330.61
364.348	326.32
364.729	303.04
365.111	318.41
365.493	331.74
365.874	316.38
366.256	306.21
366.637	312.99
367.019	301.01
367.4	311.63
367.781	309.82
368.163	328.58
368.544	325.64
368.925	310.27
369.306	317.28
369.688	319.99
370.069	322.7
370.45	333.1
370.831	331.74
371.212	320.22
371.593	310.27
371.974	320.44
372.355	315.7
372.736	325.19
373.117	311.63
373.498	313.89
373.879	331.52
374.26	320.44
374.641	333.78
375.021	329.93
375.402	327
375.783	320.67
376.163	325.19
376.544	331.97
376.925	367.67
377.305	359.09
377.686	344.17
378.066	342.14
378.447	347.56
378.827	324.29
379.208	353.21
379.588	353.44
379.968	333.1
380.349	348.69
380.729	337.84
381.109	339.65
381.489	354.34
381.87	341.91
382.25	372.19
382.63	364.74
383.01	355.47
383.39	373.32
383.77	374.68
384.15	346.43
384.53	370.16
384.91	380.78
385.29	374
385.67	364.06
386.049	389.37
386.429	390.05
386.809	358.41
387.189	384.85
387.568	380.1
387.948	392.08
388.328	377.84
388.707	369.93
389.087	384.62
389.466	398.18
389.846	391.85
390.225	406.09
390.605	358.18
390.984	386.66
391.363	418.29
391.743	409.03
392.122	409.71
392.501	397.5
392.881	423.27
393.26	403.15
393.639	411.97
394.018	399.99
394.397	442.7
394.776	406.32
395.155	417.62
395.534	425.07
395.913	430.5
396.292	445.19
396.671	452.42
397.05	416.26
397.429	456.49
397.808	435.47
398.186	438.41
398.565	430.72
398.944	435.24
399.323	451.97
399.701	456.71
400.08	432.08
400.458	444.51
400.837	448.12
401.215	450.16
401.594	470.04
401.972	453.1
402.351	473.66
402.729	464.17
403.107	490.83
403.486	463.49
403.864	452.64
404.242	480.44
404.62	481.57
404.999	499.87
405.377	493.09
405.755	486.54
406.133	480.89
406.511	481.57
406.889	492.42
407.267	492.64
407.645	496.03
408.023	540.55
408.401	529.48
408.779	514.34
409.156	527.67
409.534	538.06
409.912	547.33
410.29	528.57
410.667	519.08
411.045	537.61
411.422	525.18
411.8	540.1
412.178	562.25
412.555	571.96
412.933	550.27
413.31	592.53
413.687	565.63
414.065	561.57
414.442	575.13
414.819	574
415.197	587.33
415.574	595.46
415.951	573.32
416.328	593.43
416.705	621.9
417.082	583.94
417.46	611.96
417.837	643.37
418.214	638.4
418.591	608.57
418.967	625.75
419.344	616.03
419.721	633.2
420.098	623.26
420.475	630.49
420.852	663.03
421.228	664.39
421.605	655.58
421.982	667.33
422.358	679.98
422.735	658.97
423.111	653.54
423.488	678.63
423.864	685.41
424.241	689.7
424.617	718.17
424.994	693.32
425.37	693.77
425.746	705.74
426.123	700.09
426.499	715.01
426.875	701
427.251	724.73
427.627	737.61
428.003	767.89
428.379	748.91
428.756	758.62
429.132	764.5
429.507	785.29
429.883	800.88
430.259	772.86
430.635	794.56
431.011	807.21
431.387	802.24
431.763	822.35
432.138	829.81
432.514	825.52
432.89	806.31
433.265	831.16
433.641	853.99
434.016	868.23
434.392	877.49
434.767	894.67
435.143	845.18
435.518	912.97
435.894	897.38
436.269	914.55
436.644	950.94
437.02	927.89
437.395	916.13
437.77	950.94
438.145	955
438.52	954.55
438.895	938.28
439.271	963.36
439.646	977.83
440.021	970.37
440.395	977.83
440.77	962.69
441.145	987.09
441.52	1018.05
441.895	1022.57
442.27	994.1
442.645	1019.18
443.019	1032.97
443.394	1006.3
443.769	1025.06
444.143	1039.75
444.518	1055.79
444.892	1060.99
445.267	1059.41
445.641	1067.99
446.016	1064.15
446.39	1095.79
446.764	1067.32
447.139	1104.83
447.513	1072.06
447.887	1088.78
448.262	1098.95
448.636	1097.6
449.01	1109.12
449.384	1107.99
449.758	1107.09
450.132	1117.71
450.506	1136.69
450.88	1115.45
451.254	1132.85
451.628	1155.9
452.002	1173.98
452.376	1189.8
452.75	1195.45
453.123	1202.23
453.497	1188.67
453.871	1222.79
454.244	1242.23
454.618	1250.59
454.992	1280.42
455.365	1274.32
455.739	1289.46
456.112	1296.24
456.486	1314.99
456.859	1319.29
457.232	1320.87
457.606	1342.11
457.979	1382.34
458.352	1358.83
458.725	1378.95
459.099	1420.98
459.472	1425.95
459.845	1426.4
460.218	1417.82
460.591	1468.66
460.964	1463.46
461.337	1501.88
461.71	1522.22
462.083	1527.19
462.456	1519.06
462.829	1496.68
463.201	1584.14
463.574	1572.61
463.947	1576.23
464.32	1606.51
464.692	1627.75
465.065	1629.56
465.438	1639.73
465.81	1678.37
466.183	1685.38
466.555	1723.12
466.928	1754.98
467.3	1714.31
467.672	1779.39
468.045	1784.59
468.417	1798.6
468.789	1830.46
469.161	1850.57
469.534	1882.21
469.906	1903.68
470.278	1900.29
470.65	1909.78
471.022	1939.38
471.394	1973.06
471.766	1994.07
472.138	2043.56
472.51	2064.13
472.882	2071.13
473.253	2102.77
473.625	2102.54
473.997	2164.69
474.369	2198.81
474.74	2188.42
475.112	2239.49
475.484	2270
475.855	2325.36
476.227	2320.39
476.598	2350.22
476.97	2409.2
477.341	2429.54
477.713	2497.79
478.084	2482.42
478.455	2556.09
478.827	2539.37
479.198	2636.99
479.569	2622.53
479.94	2711.34
480.311	2702.75
480.682	2760.61
481.053	2837.89
481.424	2878.34
481.795	2904.56
482.166	2948.85
482.537	2965.35
482.908	3039.24
483.279	3036.76
483.65	3100.03
484.021	3161.72
484.391	3180.26
484.762	3223.42
485.133	3226.58
485.503	3298.9
485.874	3335.51
486.244	3402.62
486.615	3466.8
486.985	3485.78
487.356	3533.69
487.726	3540.92
488.097	3632.9
488.467	3609.4
488.837	3697.53
489.207	3747.92
489.578	3776.17
489.948	3778.43
490.318	3865.21
490.688	3896.85
491.058	3944.98
491.428	4004.87
491.798	4017.75
492.168	4100.01
492.538	4100.68
492.908	4179.55
493.278	4264.75
493.648	4213.67
494.017	4281.7
494.387	4335.25
494.757	4364.18
495.126	4403.5
495.496	4401.01
495.866	4413.22
496.235	4471.29
496.605	4523.27
496.974	4535.47
497.344	4615.02
497.713	4615.7
498.082	4678.52
498.452	4685.07
498.821	4711.06
499.19	4730.72
499.559	4811.85
499.928	4822.47
500.298	4823.15
500.667	4890.94
501.036	4856.14
501.405	4894.33
501.774	4924.39
502.143	4989.02
502.512	5022.92
502.88	5091.17
503.249	5075.57
503.618	5100.88
503.987	5100.43
504.356	5167.1
504.724	5165.51
505.093	5195.8
505.462	5195.57
505.83	5316.92
506.199	5367.54
506.567	5400.31
506.936	5369.58
507.304	5451.61
507.672	5440.76
508.041	5521.66
508.409	5515.79
508.777	5600.98
509.145	5663.58
509.514	5683.01
509.882	5736.12
510.25	5710.36
510.618	5697.48
510.986	5752.84
511.354	5835.33
511.722	5822.67
512.09	5863.35
512.458	5888.21
512.826	5953.06
513.193	6000.52
513.561	6108.99
513.929	6112.61
514.297	6125.26
514.664	6128.88
515.032	6228.54
515.4	6232.38
515.767	6279.16
516.135	6289.55
516.502	6357.12
516.869	6420.62
517.237	6423.56
517.604	6441.19
517.972	6556.89
518.339	6602.76
518.706	6610.22
519.073	6686.15
519.44	6734.29
519.808	6831.68
520.175	6834.17
520.542	6913.04
520.909	6924.56
521.276	6967.95
521.643	7014.96
522.009	7042.75
522.376	7074.39
522.743	7125.91
523.11	7188.06
523.477	7244.33
523.843	7306.02
524.21	7372.24
524.577	7391.67
524.943	7452.69
525.31	7461.05
525.676	7579.69
526.043	7620.59
526.409	7638.67
526.776	7750.98
527.142	7732.9
527.508	7851.77
527.874	7957.53
528.241	7926.12
528.607	8037.75
528.973	8101.93
529.339	8110.75
529.705	8210.86
530.071	8298.99
530.437	8345.09
530.803	8356.84
531.169	8454.92
531.535	8451.08
531.901	8519.1
532.267	8552.54
532.632	8597.06
532.998	8610.85
533.364	8656.5
533.73	8702.37
534.095	8691.3
534.461	8726.32
534.826	8744.85
535.192	8774.01
535.557	8850.84
535.923	8822.14
536.288	8911.4
536.653	8880.22
537.019	8911.86
537.384	8981.01
537.749	9007.45
538.114	9044.51
538.479	9100.33
538.845	9206.76
539.21	9181.45
539.575	9265.29
539.94	9303.48
540.305	9384.39
540.67	9322.01
541.034	9444.95
541.399	9467.1
541.764	9562.46
542.129	9589.58
542.494	9594.78
542.858	9665.51
543.223	9670.93
543.587	9743.47
543.952	9731.95
544.316	9794.77
544.681	9764.94
545.045	9755.68
545.41	9766.3
545.774	9868.67
546.138	9797.26
546.503	9911.83
546.867	9804.26
547.231	9929.46
547.595	10030.7
547.959	10069.57
548.324	10055.55
548.688	10095.1
549.052	10132.39
549.416	10097.14
549.779	10177.13
550.143	10208.32
550.507	10349.11
550.871	10392.27
551.235	10360.63
551.599	10522.44
551.962	10506.62
552.326	10666.61
552.689	10654.64
553.053	10629.78
553.417	10675.2
553.78	10843.56
554.143	10838.81
554.507	10870.45
554.87	10909.09
555.234	10932.14
555.597	10801.75
555.96	10973.95
556.323	11027.73
556.686	10990.45
557.05	11100.05
557.413	11147.5
557.776	11147.28
558.139	11222.98
558.502	11196.54
558.865	11226.6
559.228	11338.23
559.59	11385.92
559.953	11435.86
560.316	11585.46
560.679	11610.99
561.041	11674.72
561.404	11735.06
561.767	11882.85
562.129	11787.26
562.492	11954.26
562.854	11912.68
563.217	11965.34
563.579	12055.05
563.941	12102.73
564.304	12266.34
564.666	12275.38
565.028	12265.21
565.39	12379.56
565.753	12473.57
566.115	12524.19
566.477	12567.81
566.839	12604.87
567.201	12654.36
567.563	12752.89
567.925	12754.24
568.287	12804.41
568.648	12885.31
569.01	12895.93
569.372	12932.32
569.734	12987.68
570.095	13135.7
570.457	13062.03
570.819	13157.85
571.18	13166.89
571.542	13219.77
571.903	13267.9
572.265	13336.37
572.626	13335.24
572.987	13401.68
573.349	13378.63
573.71	13474
574.071	13536.59
574.432	13607.33
574.794	13714.44
575.155	13722.35
575.516	13607.78
575.877	13732.07
576.238	13756.7
576.599	13805.51
576.96	13765.97
577.32	13821.78
577.681	13889.8
578.042	13922.8
578.403	13936.58
578.763	14068.33
579.124	14017.03
579.485	14092.06
579.845	14154.66
580.206	14145.84
580.566	14173.19
580.927	14156.24
581.287	14200.3
581.648	14203.24
582.008	14252.73
582.368	14274.65
582.728	14211.83
583.089	14323.01
583.449	14201.43
583.809	14226.74
584.169	14245.28
584.529	14268.55
584.889	14334.76
585.249	14217.71
585.609	14151.04
585.969	14282.79
586.329	14200.53
586.688	14189.23
587.048	14259.06
587.408	14249.79
587.768	14214.54
588.127	14246.18
588.487	14121.21
588.846	14319.62
589.206	14186.75
589.565	14199.4
589.925	14256.8
590.284	14249.12
590.643	14313.07
591.003	14301.54
591.362	14288.66
591.721	14368.66
592.08	14345.61
592.44	14400.53
592.799	14452.28
593.158	14463.12
593.517	14444.59
593.876	14464.03
594.235	14581.54
594.593	14561.88
594.952	14544.7
595.311	14567.98
595.67	14514.19
596.029	14657.24
596.387	14651.37
596.746	14637.81
597.104	14550.58
597.463	14581.54
597.822	14735.66
598.18	14647.98
598.538	14588.09
598.897	14732.95
599.255	14578.6
599.613	14767.3
599.972	14714.19
600.33	14698.37
600.688	14680.07
601.046	14640.29
601.404	14766.17
601.762	14610.46
602.12	14716.22
602.478	14669.44
602.836	14619.28
603.194	14741.53
603.552	14607.98
603.91	14519.62
604.268	14716.45
604.625	14657.69
604.983	14705.83
605.341	14623.34
605.698	14825.82
606.056	14797.35
606.413	14770.69
606.771	14813.85
607.128	14960.96
607.485	14868.31
607.843	14905.82
608.2	14969.78
608.557	15000.51
608.914	15009.32
609.272	15015.88
609.629	15129.77
609.986	15170.45
610.343	15133.39
610.7	15231.24
611.057	15093.16
611.414	15201.63
611.771	15199.6
612.127	15242.99
612.484	15319.6
612.841	15279.37
613.198	15201.18
613.554	15268.98
613.911	15257
614.267	15270.78
614.624	15295.42
614.98	15290.67
615.337	15425.81
615.693	15317.11
616.05	15328.86
616.406	15426.94
616.762	15348.52
617.118	15332.7
617.475	15259.94
617.831	15362.31
618.187	15329.09
618.543	15392.14
618.899	15441.18
619.255	15434.85
619.611	15451.12
619.967	15483.89
620.323	15506.71
620.678	15474.4
621.034	15495.64
621.39	15516.65
621.746	15417.9
622.101	15724.11
622.457	15615.86
622.812	15536.31
623.168	15621.96
623.523	15699.25
623.879	15763.2
624.234	15693.6
624.589	15725.69
624.945	15760.94
625.3	15755.97
625.655	15712.13
626.01	15772.47
626.365	15739.25
626.72	15717.55
627.075	15719.13
627.43	15784.9
627.785	15694.05
628.14	15730.89
628.495	15733.37
628.85	15637.33
629.205	15665.35
629.559	15671.23
629.914	15623.09
630.269	15635.3
630.623	15557.78
630.978	15579.48
631.332	15546.26
631.687	15602.08
632.041	15436.88
632.396	15503.32
632.75	15293.84
633.104	15377.9
633.459	15364.79
633.813	15211.8
634.167	15287.96
634.521	15278.02
634.875	15347.17
635.229	15247.73
635.583	15149.21
635.937	15253.61
636.291	15180.39
636.645	15172.48
636.999	15155.99
637.352	15208.19
637.706	15228.07
638.06	15197.79
638.413	15074.18
638.767	15185.59
639.121	15131.13
639.474	15042.54
639.828	15076.21
640.181	15090.9
640.534	15127.06
640.888	15134.97
641.241	14972.71
641.594	15050
641.947	15186.27
642.301	15108.98
642.654	15033.73
643.007	15074.18
643.36	15112.15
643.713	15123.44
644.066	15059.27
644.419	15018.81
644.771	14807.52
645.124	14736.34
645.477	14618.15
645.83	14607.98
646.182	14592.61
646.535	14595.1
646.888	14630.58
647.24	14530.01
647.593	14709.9
647.945	14647.07
648.298	14559.39
648.65	14476.23
649.002	14419.96
649.355	14545.15
649.707	14378.38
650.059	14369.79
650.411	14600.07
650.763	14564.36
651.115	14702.21
651.467	14668.09
651.819	14589.22
652.171	14598.94
652.523	14604.59
652.875	14589.9
653.227	14505.38
653.578	14613.4
653.93	14545.83
654.282	14525.95
654.633	14363.69
654.985	14475.1
655.337	14455.44
655.688	14541.09
656.039	14523.23
656.391	14297.25
656.742	14448.43
657.094	14370.7
657.445	14476.46
657.796	14393.97
658.147	14378.83
658.498	14426.29
658.849	14482.33
659.2	14389.23
659.551	14454.54
659.902	14473.29
660.253	14460.64
660.604	14489.11
660.955	14419.73
661.306	14484.59
661.656	14519.84
662.007	14476.46
662.358	14567.75
662.708	14499.96
663.059	14524.59
663.409	14392.84
663.76	14588.09
664.11	14426.97
664.461	14635.32
664.811	14593.97
665.161	14453.86
665.511	14449.79
665.862	14411.15
666.212	14467.19
666.562	14438.49
666.912	14478.49
667.262	14444.82
667.612	14491.6
667.962	14406.17
668.312	14350.36
668.662	14391.49
669.011	14371.37
669.361	14308.1
669.711	14195.78
670.06	14302.22
670.41	14185.62
670.76	14072.85
671.109	14200.53
671.459	14151.27
671.808	14035.11
672.157	14136.13
672.507	14099.74
672.856	14056.58
673.205	14086.41
673.554	14161.89
673.904	14082.34
674.253	14025.17
674.602	14080.31
674.951	13855
675.3	13673.31
675.649	13998.95
675.998	14081.21
676.346	14042.12
676.695	14085.73
677.044	13980.65
677.393	14045.51
677.741	14074.43
678.09	14104.71
678.438	14003.02
678.787	14044.6
679.135	14072.62
679.484	13996.47
679.832	14086.86
680.181	13995.34
680.529	14005.06
680.877	13978.16
681.225	14004.6
681.573	14003.02
681.922	14055.22
682.27	13911.95
682.618	13916.7
682.966	13916.92
683.314	13903.14
683.661	13873.53
684.009	13782.91
684.357	13748.57
684.705	13731.16
685.053	13801.67
685.4	13733.65
685.748	13634.44
686.095	13611.62
686.443	13600.32
686.79	13538.4
687.138	13496.59
687.485	13538.18
687.832	13410.04
688.18	13441.23
688.527	13259.76
688.874	13294.57
689.221	13306.77
689.568	13227.67
689.915	13191.29
690.262	13217.96
690.609	13094.12
690.956	13122.82
691.303	13104.29
691.65	13046.89
691.997	12962.15
692.344	12938.19
692.69	13008.92
693.037	12995.14
693.383	12868.59
693.73	12930.73
694.077	12857.74
694.423	12953.33
694.769	12860.68
695.116	12792.43
695.462	12798.08
695.808	12785.65
696.155	12753.34
696.501	12698.88
696.847	12708.37
697.193	12674.24
697.539	12709.72
697.885	12633.79
698.231	12637.41
698.577	12642.38
698.923	12603.51
699.269	12574.58
699.614	12509.05
699.96	12546.11
700.306	12458.66
700.651	12425.21
700.997	12384.99
701.342	12398.54
701.688	12412.55
702.033	12293.91
702.379	12334.82
702.724	12271.77
703.069	12253.24
703.415	12061.83
703.76	12149.74
704.105	12001.49
704.45	12036.97
704.795	11943.87
705.14	11939.8
705.485	11848.05
705.83	11835.17
706.175	11854.38
706.52	11782.06
706.865	11674.04
707.209	11723.31
707.554	11614.38
707.899	11681.05
708.243	11526.93
708.588	11498.91
708.932	11543.88
709.277	11541.62
709.621	11497.1
709.966	11414.16
710.31	11481.28
710.654	11372.58
710.998	11459.81
711.342	11453.03
711.687	11375.29
712.031	11274.05
712.375	11312.7
712.719	11333.04
713.063	11398.8
713.407	11314.96
713.75	11267.73
714.094	11290.32
714.438	11332.13
714.782	11294.84
715.125	11213.04
715.469	11355.63
715.812	11236.31
716.156	11145.02
716.499	11170.78
716.843	11238.12
717.186	11184.11
717.53	11222.53
717.873	11213.26
718.216	11176.66
718.559	11044.91
718.902	11042.87
719.246	11083.32
719.589	10977.11
719.932	11081.29
720.275	10973.72
720.617	10992.93
720.96	10988.41
721.303	10937.57
721.646	10964.46
721.989	10837.46
722.331	10922.42
722.674	10898.47
723.016	10861.86
723.359	10814.63
723.701	10768.53
724.044	10695.99
724.386	10633.62
724.729	10708.87
725.071	10637.91
725.413	10662.09
725.755	10577.8
726.097	10524.7
726.439	10570.8
726.782	10496
727.124	10587.52
727.465	10461.87
727.807	10398.37
728.149	10439.27
728.491	10344.13
728.833	10382.78
729.175	10292.38
729.516	10342.1
729.858	10319.28
730.199	10348.88
730.541	10338.94
730.882	10291.25
731.224	10275.89
731.565	10235.89
731.906	10262.33
732.248	10250.8
732.589	10266.4
732.93	10290.12
733.271	10197.02
733.612	10311.59
733.953	10238.6
734.294	10177.59
734.635	10200.18
734.976	10217.36
735.317	10229.56
735.658	10223.69
735.999	10242.44
736.339	10207.19
736.68	10202.44
737.021	10190.47
737.361	10199.51
737.702	10271.14
738.042	10184.36
738.383	10141.88
738.723	10182.33
739.063	10253.52
739.404	10156.34
739.744	10145.72
740.084	10110.47
740.424	10132.16
740.764	10008.55
741.104	10114.76
741.444	9975.56
741.784	10036.57
742.124	10054.42
742.464	9983.69
742.804	9950.25
743.143	9928.1
743.483	9900.3
743.823	9861.89
744.162	9851.72
744.502	9867.54
744.841	9766.3
745.181	9857.59
745.52	9813.08
745.86	9804.49
746.199	9706.86
746.538	9772.17
746.877	9721.1
747.216	9690.82
747.556	9680.2
747.895	9667.09
748.234	9544.16
748.573	9594.32
748.911	9547.77
749.25	9633.87
749.589	9497.15
749.928	9547.09
750.267	9564.72
750.605	9588.9
750.944	9503.48
751.283	9459.64
751.621	9492.41
751.96	9423.03
752.298	9479.07
752.636	9466.19
752.975	9421.22
753.313	9326.31
753.651	9369.25
753.989	9319.53
754.327	9283.37
754.666	9260.77
755.004	9255.8
755.342	9275.69
755.679	9337.16
756.017	9156.14
756.355	9226.2
756.693	9158.18
757.031	9243.82
757.368	9152.3
757.706	9068.01
758.044	9131.74
758.381	9154.56
758.719	9127.44
759.056	9171.74
759.394	9094.22
759.731	9024.17
760.068	9026.88
760.405	8925.64
760.743	8934.68
761.08	9006.77
761.417	8896.26
761.754	8859.65
762.091	8838.86
762.428	8804.06
762.765	8817.17
763.102	8749.83
763.438	8768.58
763.775	8708.47
764.112	8728.58
764.449	8672.54
764.785	8672.77
765.122	8615.82
765.458	8553.22
765.795	8575.82
766.131	8569.72
766.467	8522.26
766.804	8504.18
767.14	8473.9
767.476	8469.38
767.812	8426.67
768.148	8448.37
768.485	8417.41
768.821	8298.76
769.157	8335.83
769.492	8308.03
769.828	8256.28
770.164	8216.51
770.5	8134.7
770.836	8184.19
771.171	8127.24
771.507	8082.27
771.842	8074.82
772.178	8027.59
772.513	8091.99
772.849	8087.7
773.184	7983.97
773.519	8057.42
773.855	7957.76
774.19	7956.4
774.525	7908.27
774.86	7863.07
775.195	7845.22
775.53	7820.81
775.865	7749.17
776.2	7754.6
776.535	7660.59
776.87	7637.09
777.205	7655.17
777.539	7555.28
777.874	7619.69
778.209	7579.91
778.543	7599.35
778.878	7504.21
779.212	7446.36
779.547	7432.12
779.881	7409.97
780.215	7390.54
780.55	7405.91
780.884	7331.78
781.218	7268.96
781.552	7327.49
781.886	7266.02
782.22	7263.99
782.554	7244.78
782.888	7199.81
783.222	7119.59
783.556	7088.18
783.889	7136.54
784.223	7065.35
784.557	7046.82
784.89	7045.01
785.224	7040.27
785.557	6977.44
785.891	6959.37
786.224	6964.79
786.558	6986.48
786.891	6915.3
787.224	6889.76
787.557	6880.27
787.891	6859.71
788.224	6891.8
788.557	6892.25
788.89	6842.31
789.223	6823.78
789.556	6774.74
789.888	6763.44
790.221	6783.55
790.554	6694.51
790.887	6682.31
791.219	6701.97
791.552	6637.79
791.884	6680.05
792.217	6646.15
792.549	6616.32
792.882	6548.53
793.214	6600.5
793.546	6492.71
793.879	6483.22
794.211	6480.73
794.543	6472.37
794.875	6456.1
795.207	6480.51
795.539	6433.28
795.871	6409.32
796.203	6392.15
796.535	6355.09
796.867	6263.56
797.198	6265.6
797.53	6330.91
797.862	6256.56
798.193	6239.84
798.525	6244.36
798.856	6277.8
799.188	6175.88
799.519	6154.87
799.85	6092.04
800.182	6111.25
800.513	6107.64
800.844	6052.27
801.175	6087.52
801.506	6069.67
801.837	6007.75
802.168	6019.5
802.499	6012.95
802.83	5959.17
803.161	5948.77
803.491	5968.66
803.822	5971.59
804.153	5864.25
804.483	5889.79
804.814	5855.21
805.145	5877.36
805.475	5821.54
805.805	5806.85
806.136	5821.99
806.466	5835.78
806.796	5813.41
807.126	5746.06
807.457	5763.69
807.787	5705.16
808.117	5694.54
808.447	5642.34
808.777	5666.07
809.107	5638.27
809.436	5637.37
809.766	5630.13
810.096	5570.02
810.426	5632.85
810.755	5617.25
811.085	5598.5
811.414	5567.09
811.744	5528.89
812.073	5579.51
812.403	5562.57
812.732	5517.82
813.061	5518.72
813.39	5519.4
813.719	5479.18
814.049	5522.11
814.378	5508.33
814.707	5479.18
815.036	5498.61
815.365	5440.99
815.693	5392.4
816.022	5407.32
816.351	5399.18
816.68	5338.84
817.008	5399.63
817.337	5276.02
817.665	5341.1
817.994	5348.11
818.322	5391.27
818.651	5292.06
818.979	5306.08
819.307	5337.94
819.636	5359.63
819.964	5302.01
820.292	5303.82
820.62	5328.22
820.948	5316.02
821.276	5283.02
821.604	5258.62
821.932	5267.88
822.259	5231.73
822.587	5309.46
822.915	5257.49
823.243	5292.74
823.57	5225.17
823.898	5242.35
824.225	5199.64
824.553	5260.88
824.88	5245.29
825.207	5217.72
825.535	5237.15
825.862	5198.06
826.189	5213.65
826.516	5254.78
826.843	5236.02
827.17	5243.48
827.497	5183.59
827.824	5215.23
828.151	5248.9
828.478	5197.83
828.805	5271.5
829.131	5197.6
829.458	5193.99
829.785	5197.6
830.111	5250.71
830.438	5220.88
830.764	5213.87
831.09	5184.04
831.417	5161.67
831.743	5194.67
832.069	5213.42
832.395	5165.74
832.722	5198.96
833.048	5104.95
833.374	5137.72
833.7	5148.57
834.026	5126.87
834.351	5149.92
834.677	5160.54
835.003	5146.31
835.329	5118.28
835.654	5155.57
835.98	5126.19
836.306	5142.92
836.631	5085.97
836.956	5116.25
837.282	5075.12
837.607	5116.7
837.932	5044.61
838.258	5114.44
838.583	5072.63
838.908	5032.64
839.233	5066.76
839.558	5028.34
839.883	4996.93
840.208	5024.27
840.533	5018.85
840.858	4997.38
841.182	5018.17
841.507	4994.44
841.832	4983.37
842.156	4997.16
842.481	4955.58
842.805	4915.8
843.13	4959.42
843.454	4906.09
843.778	4877.39
844.103	4879.65
844.427	4881.91
844.751	4913.54
845.075	4877.61
845.399	4876.03
845.723	4817.95
846.047	4810.72
846.371	4754.68
846.695	4807.78
847.019	4773.43
847.343	4777.05
847.666	4727.79
847.99	4710.61
848.313	4719.88
848.637	4693.89
848.96	4664.51
849.284	4671.52
849.607	4665.41
849.931	4644.4
850.254	4612.31
850.577	4608.69
850.9	4562.82
851.223	4585.64
851.546	4556.72
851.869	4499.54
852.192	4525.98
852.515	4468.81
852.838	4492.09
853.161	4456.15
853.483	4413.44
853.806	4442.82
854.129	4426.55
854.451	4410.73
854.774	4392.88
855.096	4419.54
855.419	4408.92
855.741	4361.69
856.063	4344.52
856.385	4356.72
856.708	4330.51
857.03	4317.63
857.352	4344.07
857.674	4312.65
857.996	4305.42
858.318	4237.4
858.64	4316.5
858.961	4281.7
859.283	4279.44
859.605	4251.19
859.926	4237.18
860.248	4240.79
860.57	4248.93
860.891	4217.06
861.212	4213.22
861.534	4237.4
861.855	4204.18
862.176	4197.4
862.498	4152.89
862.819	4197.18
863.14	4169.61
863.461	4135.48
863.782	4155.14
864.103	4155.82
864.424	4127.58
864.745	4152.66
865.065	4118.08
865.386	4100.91
865.707	4104.3
866.027	4119.21
866.348	4101.36
866.668	4097.07
866.989	4093
867.309	4019.33
867.63	4051.19
867.95	4027.92
868.27	4000.57
868.59	4016.62
868.91	4038.76
869.23	4022.27
869.55	3985.21
869.87	4032.89
870.19	4013.91
870.51	3956.96
870.83	3988.37
871.15	3979.1
871.469	3946.11
871.789	3934.36
872.109	3961.03
872.428	3892.55
872.748	3918.77
873.067	3904.08
873.386	3911.54
873.706	3946.79
874.025	3913.8
874.344	3887.81
874.663	3881.93
874.982	3869.95
875.301	3886
875.62	3862.5
875.939	3865.44
876.258	3865.44
876.577	3863.4
876.896	3849.62
877.214	3809.62
877.533	3896.39
877.852	3806.45
878.17	3850.07
878.489	3857.3
878.807	3845.77
879.125	3799.45
879.444	3797.41
879.762	3803.74
880.08	3772.78
880.398	3857.3
880.716	3810.75
881.034	3754.03
881.352	3766.68
881.67	3797.41
881.988	3770.07
882.306	3798.09
882.624	3771.43
882.941	3754.7
883.259	3749.96
883.577	3736.62
883.894	3730.75
884.212	3745.44
884.529	3743.4
884.846	3757.64
885.164	3721.03
885.481	3763.06
885.798	3774.14
886.115	3729.39
886.432	3712.9
886.75	3703.63
887.067	3726.23
887.383	3730.07
887.7	3679.9
888.017	3663.18
888.334	3698.89
888.651	3678.1
888.967	3665.89
889.284	3621.15
889.6	3643.75
889.917	3625.89
890.233	3612.56
890.55	3575.27
890.866	3618.21
891.182	3593.35
891.498	3597.42
891.815	3574.14
892.131	3574.82
892.447	3597.19
892.763	3543.86
893.079	3513.58
893.395	3490.3
893.71	3480.81
894.026	3475.39
894.342	3512.45
894.657	3462.51
894.973	3423.64
895.289	3436.97
895.604	3411.66
895.92	3416.18
896.235	3440.14
896.55	3446.46
896.865	3332.79
897.181	3337.09
897.496	3365.79
897.811	3330.31
898.126	3356.3
898.441	3313.13
898.756	3313.81
899.071	3260.25
899.386	3266.81
899.7	3250.31
900.015	3223.42
900.33	3242.85
900.644	3174.61
900.959	3170.54
901.273	3177.09
901.588	3154.27
901.902	3144.78
902.216	3126.02
902.531	3147.49
902.845	3133.48
903.159	3079.92
903.473	3065
903.787	3051.67
904.101	3045.57
904.415	3043.99
904.729	3014.61
905.042	3017.77
905.356	3008.73
905.67	3037.21
905.984	2996.53
906.297	3024.55
906.611	2955.4
906.924	2989.75
907.237	2979.13
907.551	2960.37
907.864	2932.13
908.177	2956.31
908.491	2912.69
908.804	2932.58
909.117	2906.82
909.43	2889.64
909.743	2861.17
910.056	2874.27
910.368	2883.09
910.681	2858.46
910.994	2836.76
911.307	2836.08
911.619	2853.94
911.932	2852.35
912.244	2842.19
912.557	2843.09
912.869	2829.98
913.181	2844.9
913.494	2825.01
913.806	2805.58
914.118	2793.6
914.43	2781.62
914.742	2785.92
915.054	2772.36
915.366	2779.59
915.678	2735.07
915.99	2735.3
916.302	2746.37
916.613	2689.42
916.925	2708.86
917.236	2728.97
917.548	2726.93
917.859	2697.56
918.171	2717.44
918.482	2687.16
918.794	2705.01
919.105	2685.13
919.416	2670.89
919.727	2664.34
920.038	2655.07
920.349	2669.99
920.66	2651.91
920.971	2625.47
921.282	2613.49
921.593	2590.21
921.903	2594.51
922.214	2581.18
922.525	2584.34
922.835	2579.14
923.146	2572.14
923.456	2528.52
923.767	2559.03
924.077	2535.98
924.387	2542.08
924.697	2510.89
925.008	2484.45
925.318	2507.28
925.628	2515.64
925.938	2444.68
926.248	2475.64
926.558	2446.26
926.867	2434.29
927.177	2444.46
927.487	2432.48
927.796	2410.33
928.106	2379.37
928.416	2412.59
928.725	2378.24
929.034	2362.42
929.344	2326.49
929.653	2332.37
929.962	2321.52
930.271	2304.12
930.581	2308.19
930.89	2296.66
931.199	2290.79
931.508	2245.36
931.817	2277.23
932.125	2270.45
932.434	2214.63
932.743	2217.12
933.051	2197.23
933.36	2164.91
933.669	2173.73
933.977	2164.69
934.286	2162.66
934.594	2160.17
934.902	2144.35
935.21	2101.41
935.519	2142.54
935.827	2108.87
936.135	2114.75
936.443	2097.12
936.751	2088.98
937.059	2071.81
937.367	2082.66
937.674	2063.9
937.982	2059.15
938.29	2036.33
938.597	2016.9
938.905	2024.13
939.213	1999.27
939.52	2036.33
939.827	2022.32
940.135	2016.9
940.442	1974.41
940.749	1994.75
941.056	2008.31
941.363	1946.84
941.67	1969.89
941.977	1935.77
942.284	1922.89
942.591	1919.05
942.898	1945.26
943.205	1925.37
943.511	1929.21
943.818	1916.56
944.125	1904.36
944.431	1906.84
944.738	1910.68
945.044	1889.67
945.35	1931.47
945.657	1860.29
945.963	1878.14
946.269	1885.37
946.575	1879.95
946.881	1823
947.187	1865.49
947.493	1853.74
947.799	1823.91
948.105	1804.02
948.41	1832.04
948.716	1800.63
949.022	1837.01
949.327	1798.37
949.633	1813.06
949.938	1806.96
950.244	1797.47
950.549	1783.91
950.854	1791.14
951.16	1764.02
951.465	1790.01
951.77	1767.19
952.075	1774.42
952.38	1787.52
952.685	1785.72
952.99	1765.6
953.294	1750.46
953.599	1752.5
953.904	1756.11
954.209	1741.2
954.513	1728.99
954.818	1728.99
955.122	1719.05
955.426	1722.89
955.731	1694.64
956.035	1690.8
956.339	1689.45
956.643	1670.92
956.948	1634.99
957.252	1655.1
957.556	1669.79
957.86	1649.45
958.163	1650.13
958.467	1676.57
958.771	1661.65
959.075	1641.99
959.378	1625.95
959.682	1608.09
959.985	1616.91
960.289	1616.23
960.592	1619.17
960.896	1564.25
961.199	1570.81
961.502	1568.09
961.805	1579.39
962.108	1566.06
962.411	1560.86
962.714	1548.89
963.017	1533.74
963.32	1547.08
963.623	1540.75
963.926	1509.34
964.228	1520.41
964.531	1477.7
964.833	1487.19
965.136	1499.85
965.438	1482.67
965.741	1498.04
966.043	1465.95
966.345	1467.98
966.648	1463.01
966.95	1449
967.252	1428.21
967.554	1437.25
967.856	1440.87
968.158	1448.32
968.46	1399.29
968.761	1405.16
969.063	1417.14
969.365	1408.32
969.666	1420.08
969.968	1402
970.269	1385.05
970.571	1393.18
970.872	1365.61
971.174	1345.95
971.475	1385.5
971.776	1343.69
972.077	1338.5
972.378	1339.4
972.679	1348.44
972.98	1349.57
973.281	1307.54
973.582	1314.32
973.883	1326.29
974.183	1297.82
974.484	1285.16
974.785	1301.66
975.085	1304.6
975.386	1268.44
975.686	1312.73
975.986	1297.82
976.287	1286.52
976.587	1272.28
976.887	1307.54
977.187	1290.36
977.487	1277.25
977.787	1268.22
978.087	1249.46
978.387	1258.72
978.687	1256.92
978.987	1238.61
979.286	1228.89
979.586	1251.04
979.885	1221.21
980.185	1236.13
980.484	1223.02
980.784	1228.44
981.083	1193.19
981.382	1208.1
981.682	1211.04
981.981	1202.45
982.28	1225.28
982.579	1200.65
982.878	1209.69
983.177	1205.84
983.475	1213.08
983.774	1199.52
984.073	1178.95
984.372	1174.88
984.67	1155.22
984.969	1165.39
985.267	1179.4
985.566	1175.34
985.864	1197.03
986.162	1177.6
986.461	1158.39
986.759	1152.29
987.057	1145.05
987.355	1169.91
987.653	1148.22
987.951	1164.04
988.249	1137.6
988.547	1141.66
988.844	1126.07
989.142	1113.87
989.44	1097.15
989.737	1107.54
990.035	1107.32
990.332	1124.04
990.63	1109.12
990.927	1095.11
991.224	1099.86
991.521	1098.05
991.819	1084.94
992.116	1095.11
992.413	1073.19
992.71	1059.18
993.006	1073.87
993.303	1073.19
993.6	1065.06
993.897	1063.47
994.193	1026.19
994.49	1062.34
994.787	1024.61
995.083	1034.55
995.379	1030.71
995.676	1037.71
995.972	1035
996.268	1029.8
996.565	1010.59
996.861	1000.2
997.157	1015.57
997.453	1032.97
997.749	999.75
998.044	998.39
998.34	998.39
998.636	1005.62
998.932	1007.21
999.227	970.14
999.523	973.76
999.818	936.25
1000.114	953.42
1000.409	945.29
1000.704	981.44
1001	948.45
1001.295	928.11
1001.59	957.26
1001.885	948.45
1002.18	940.31
1002.475	931.27
1002.77	944.38
1003.065	918.62
1003.359	919.52
1003.654	912.52
1003.949	898.06
1004.243	916.36
1004.538	896.02
1004.832	897.6
1005.127	897.83
1005.421	925.63
1005.715	888.56
1006.009	864.61
1006.304	868
1006.598	891.05
1006.892	858.96
1007.186	868.9
1007.48	863.03
1007.773	848.57
1008.067	846.98
1008.361	867.1
1008.655	868.9
1008.948	837.04
1009.242	856.25
1009.535	826.42
1009.829	816.93
1010.122	830.71
1010.415	811.28
1010.708	784.39
1011.001	797.72
1011.295	794.78
1011.588	825.97
1011.881	808.11
1012.173	805.63
1012.466	805.85
1012.759	792.75
1013.052	819.41
1013.344	814.89
1013.637	783.03
1013.93	794.78
1014.222	774.89
1014.514	779.64
1014.807	780.32
1015.099	766.31
1015.391	752.3
1015.683	755.46
1015.976	765.86
1016.268	749.81
1016.56	751.17
1016.851	736.7
1017.143	765.86
1017.435	743.71
1017.727	723.6
1018.018	745.52
1018.31	737.83
1018.602	742.35
1018.893	729.47
1019.185	730.6
1019.476	717.27
1019.767	712.98
1020.058	741.68
1020.35	720.89
1020.641	706.42
1020.932	705.52
1021.223	698.51
1021.514	703.03
1021.804	707.78
1022.095	684.5
1022.386	710.72
1022.677	686.54
1022.967	694.67
1023.258	695.12
1023.548	661.23
1023.839	676.14
1024.129	681.79
1024.419	685.86
1024.709	638.85
1025	681.11
1025.29	670.26
1025.58	655.12
1025.87	638.63
1026.16	664.39
1026.449	665.75
1026.739	661.9
1027.029	639.53
1027.319	627.1
1027.608	643.6
1027.898	625.07
1028.187	636.14
1028.477	619.87
1028.766	616.71
1029.055	619.87
1029.344	616.93
1029.634	605.63
1029.923	617.61
1030.212	643.82
1030.501	631.85
1030.79	608.35
1031.078	587.56
1031.367	618.74
1031.656	591.17
1031.945	604.96
1032.233	612.19
1032.522	608.57
1032.81	573.54
1033.099	583.04
1033.387	593.66
1033.675	603.83
1033.963	570.38
1034.251	568.35
1034.54	572.87
1034.828	560.44
1035.116	569.93
1035.403	561.12
1035.691	571.74
1035.979	571.74
1036.267	571.06
1036.554	562.7
1036.842	549.82
1037.129	559.08
1037.417	548.23
1037.704	540.32
1037.992	544.39
1038.279	532.42
1038.566	563.15
1038.853	563.15
1039.14	563.15
