Data from foam2_polystyrene_foam_FLMS001491_00027.txt Node
Date: Wed Feb 08 10:57:44 GMT 2017
User: dcchb
Spectrometer: FLMS00149
Trigger mode: 0
Integration Time (sec): 2.000000E-2
Scans to average: 10
Electric dark correction enabled: true
Nonlinearity correction enabled: false
Boxcar width: 0
XAxis mode: Wavelengths
Number of Pixels in Spectrum: 2048
>>>>>Begin Spectral Data<<<<<
341.393	-13.88
341.776	-13.88
342.16	-13.88
342.543	-71.96
342.927	-65.63
343.31	-52.98
343.693	-63.6
344.077	-58.63
344.46	-64.5
344.843	-59.53
345.226	-43.71
345.61	-33.32
345.993	-8.23
346.376	-14.34
346.759	17.53
347.142	43.52
347.525	23.4
347.908	49.17
348.291	68.15
348.674	87.13
349.057	109.95
349.44	130.29
349.823	154.93
350.206	163.51
350.588	185.43
350.971	231.31
351.354	243.51
351.737	241.7
352.119	272.44
352.502	267.46
352.884	290.51
353.267	304.3
353.65	301.59
354.032	297.97
354.414	310.4
354.797	348.14
355.179	338.88
355.562	364.19
355.944	359.21
356.326	358.99
356.709	354.69
357.091	367.12
357.473	366.45
357.855	359.67
358.238	366.67
358.62	362.38
359.002	375.26
359.384	366.22
359.766	335.94
360.148	354.24
360.53	365.77
360.912	382.94
361.294	372.09
361.676	365.09
362.057	361.02
362.439	391.76
362.821	363.28
363.203	371.64
363.584	378.2
363.966	338.65
364.348	347.01
364.729	362.38
365.111	347.24
365.493	366.9
365.874	361.93
366.256	356.28
366.637	354.02
367.019	334.58
367.4	364.19
367.781	363.51
368.163	350.17
368.544	347.01
368.925	352.21
369.306	373.9
369.688	374.13
370.069	371.87
370.45	375.03
370.831	394.47
371.212	384.3
371.593	382.26
371.974	382.94
372.355	386.33
372.736	377.74
373.117	378.87
373.498	372.09
373.879	372.55
374.26	365.32
374.641	360.8
375.021	380.91
375.402	361.02
375.783	385.88
376.163	404.18
376.544	408.48
376.925	405.54
377.305	405.54
377.686	408.03
378.066	414.58
378.447	409.83
378.827	396.27
379.208	413.22
379.588	402.6
379.968	433.56
380.349	424.75
380.729	421.58
381.109	434.92
381.489	443.51
381.87	419.78
382.25	451.41
382.63	468.36
383.01	434.47
383.39	449.15
383.77	456.39
384.15	450.96
384.53	466.33
384.91	471.53
385.29	466.33
385.67	457.52
386.049	467.46
386.429	493.67
386.809	473.56
387.189	497.74
387.568	475.14
387.948	471.53
388.328	485.31
388.707	477.63
389.087	505.42
389.466	514.92
389.846	519.21
390.225	531.64
390.605	515.14
390.984	504.07
391.363	508.36
391.743	547.01
392.122	540.9
392.501	513.33
392.881	534.8
393.26	553.11
393.639	567.34
394.018	550.4
394.397	572.32
394.776	560.79
395.155	586.55
395.534	565.08
395.913	567.8
396.292	585.65
396.671	593.33
397.05	599.21
397.429	599.43
397.808	592.88
398.186	588.59
398.565	621.13
398.944	612.31
399.323	625.42
399.701	619.09
400.08	644.86
400.458	648.02
400.837	661.35
401.215	634.69
401.594	655.93
401.972	651.18
402.351	678.75
402.729	660.22
403.107	653.9
403.486	697.06
403.864	676.27
404.242	691.41
404.62	697.51
404.999	711.75
405.377	701.8
405.755	735.25
406.133	767.56
406.511	709.94
406.889	755.36
407.267	763.5
407.645	733.89
408.023	771.86
408.401	771.18
408.779	781.58
409.156	781.8
409.534	808.47
409.912	800.78
410.29	822.48
410.667	819.31
411.045	827.45
411.422	847.56
411.8	857.28
412.178	858.64
412.555	874.23
412.933	892.31
413.31	921.46
413.687	894.11
414.065	931.85
414.442	915.58
414.819	925.3
415.197	929.59
415.574	959.65
415.951	954.23
416.328	963.94
416.705	966.43
417.082	958.97
417.46	1006.2
417.837	1014.56
418.214	1038.07
418.591	1010.72
418.967	1027.44
419.344	1041
419.721	1047.56
420.098	1057.73
420.475	1088.01
420.852	1071.74
421.228	1094.56
421.605	1109.7
421.982	1129.59
422.358	1135.24
422.735	1154.45
423.111	1151.74
423.488	1149.02
423.864	1173.2
424.241	1179.31
424.617	1153.54
424.994	1187.44
425.37	1215.69
425.746	1212.98
426.123	1247.78
426.499	1225.86
426.875	1255.69
427.251	1260.43
427.627	1300.21
428.003	1282.13
428.379	1300.43
428.756	1367.77
429.132	1352.63
429.507	1409.13
429.883	1398.51
430.259	1399.86
430.635	1436.93
431.011	1414.78
431.387	1465.4
431.763	1518.96
432.138	1490.94
432.514	1547.21
432.89	1506.98
433.265	1544.72
433.641	1578.16
434.016	1589.92
434.392	1630.14
434.767	1641.44
435.143	1643.25
435.518	1664.26
435.894	1675.79
436.269	1697.48
436.644	1756.24
437.02	1738.61
437.395	1744.26
437.77	1768.89
438.145	1786.29
438.52	1801.44
438.895	1828.1
439.271	1830.14
439.646	1861.32
440.021	1890.92
440.395	1918.04
440.77	1905.61
441.145	1891.83
441.52	1942.22
441.895	1925.27
442.27	1953.3
442.645	1967.53
443.019	2032.62
443.394	2015.44
443.769	2047.3
444.143	2000.07
444.518	2056.12
444.892	2075.78
445.267	2089.56
445.641	2082.11
446.016	2100.86
446.39	2100.18
446.764	2126.4
447.139	2146.06
447.513	2151.93
447.887	2188.77
448.262	2198.04
448.636	2199.17
449.01	2251.82
449.384	2266.28
449.758	2291.37
450.132	2316.68
450.506	2344.92
450.88	2325.49
451.254	2344.25
451.628	2357.81
452.002	2429.67
452.376	2411.36
452.75	2466.95
453.123	2463.34
453.497	2519.38
453.871	2525.03
454.244	2619.04
454.618	2592.38
454.992	2600.28
455.365	2577.69
455.739	2674.18
456.112	2687.06
456.486	2720.06
456.859	2744.69
457.232	2789.43
457.606	2798.7
457.979	2808.64
458.352	2894.74
458.725	2931.12
459.099	2920.95
459.472	3002.99
459.845	3017.67
460.218	3038.47
460.591	3075.53
460.964	3085.47
461.337	3146.49
461.71	3178.35
462.083	3226.03
462.456	3253.6
462.829	3262.64
463.201	3306.93
463.574	3314.62
463.947	3390.32
464.32	3449.98
464.692	3448.17
465.065	3496.08
465.438	3523.42
465.81	3577.43
466.183	3649.97
466.555	3726.13
466.928	3733.36
467.3	3732.68
467.672	3754.38
468.045	3861.49
468.417	3867.6
468.789	3953.7
469.161	3940.81
469.534	4059.68
469.906	4093.35
470.278	4146.91
470.65	4216.06
471.022	4285.44
471.394	4359.33
471.766	4360.24
472.138	4412.44
472.51	4529.05
472.882	4590.97
473.253	4609.27
473.625	4735.14
473.997	4784.18
474.369	4834.58
474.74	4905.08
475.112	5023.72
475.484	5071.63
475.855	5103.04
476.227	5194.79
476.598	5299.65
476.97	5392.53
477.341	5464.62
477.713	5557.95
478.084	5589.13
478.455	5746.42
478.827	5798.39
479.198	5930.37
479.569	5938.05
479.94	6097.14
480.311	6167.2
480.682	6274.09
481.053	6412.39
481.424	6547.98
481.795	6616.45
482.166	6718.82
482.537	6843.56
482.908	6935.99
483.279	7020.51
483.65	7158.58
484.021	7250.56
484.391	7444.68
484.762	7428.86
485.133	7503.88
485.503	7678.12
485.874	7751.56
486.244	7901.39
486.615	7954.49
486.985	8104.77
487.356	8216.86
487.726	8313.58
488.097	8541.82
488.467	8491.66
488.837	8678.54
489.207	8761.7
489.578	9008.93
489.948	8948.37
490.318	9084.18
490.688	9196.72
491.058	9308.81
491.428	9431.07
491.798	9561.91
492.168	9655.92
492.538	9685.97
492.908	9894.1
493.278	9980.2
493.648	9990.15
494.017	10181.1
494.387	10218.39
494.757	10283.92
495.126	10495.44
495.496	10493.86
495.866	10585.84
496.235	10644.37
496.605	10784.02
496.974	10796.91
497.344	10971.82
497.713	11021.08
498.082	11096.78
498.452	11251.58
498.821	11267.85
499.19	11342.43
499.559	11382.65
499.928	11508.53
500.298	11607.05
500.667	11786.48
501.036	11656.32
501.405	11878.46
501.774	11856.99
502.143	12031
502.512	12114.16
502.88	12183.31
503.249	12195.29
503.618	12275.28
503.987	12299.01
504.356	12414.04
504.724	12576.97
505.093	12604.54
505.462	12746.68
505.83	12798.21
506.199	12842.05
506.567	13066.45
506.936	13099.9
507.304	13241.59
507.672	13226.45
508.041	13400.68
508.409	13484.29
508.777	13554.35
509.145	13641.8
509.514	13657.85
509.882	13712.76
510.25	13828.01
510.618	13946.65
510.986	14063.49
511.354	14129.25
511.722	14296.47
512.09	14376.25
512.458	14403.82
512.826	14545.96
513.193	14735.56
513.561	14658.72
513.929	14912.96
514.297	15021.43
514.664	15128.54
515.032	15222.1
515.4	15232.72
515.767	15361.98
516.135	15408.76
516.502	15377.35
516.869	15755.87
517.237	15829.99
517.604	15845.13
517.972	15994.06
518.339	16112.25
518.706	16165.13
519.073	16267.72
519.44	16364.22
519.808	16546.13
520.175	16693.02
520.542	16789.52
520.909	16970.53
521.276	16980.02
521.643	17151.77
522.009	17281.48
522.376	17465.66
522.743	17587.24
523.11	17656.61
523.477	17876.49
523.843	17936.15
524.21	18169.59
524.577	18245.07
524.943	18471.28
525.31	18542.46
525.676	18703.82
526.043	18824.04
526.409	18960.76
526.776	19185.16
527.142	19171.37
527.508	19237.36
527.874	19463.57
528.241	19506.05
528.607	19606.39
528.973	19758.25
529.339	19795.76
529.705	20075.31
530.071	20231.01
530.437	20355.07
530.803	20369.54
531.169	20536.54
531.535	20545.12
531.901	20584.9
532.267	20793.25
532.632	21000.03
532.998	21081.61
533.364	21048.16
533.73	21160.25
534.095	21244.09
534.461	21320.02
534.826	21560.69
535.192	21658.54
535.557	21819.67
535.923	21774.47
536.288	21934.69
536.653	22009.72
537.019	21956.16
537.384	22149.15
537.749	22251.07
538.114	22281.58
538.479	22383.95
538.845	22537.39
539.21	22504.39
539.575	22705.74
539.94	22629.81
540.305	22879.98
540.67	22895.57
541.034	23105.51
541.399	23102.34
541.764	23197.03
542.129	23326.29
542.494	23399.51
542.858	23444.03
543.223	23517.25
543.587	23672.05
543.952	23620.75
544.316	23700.29
544.681	23721.76
545.045	23824.59
545.41	23887.18
545.774	23929.44
546.138	24095.31
546.503	24180.96
546.867	24270
547.231	24560.39
547.595	24630.89
547.959	24686.71
548.324	24626.37
548.688	24750.21
549.052	24930.32
549.416	24915.63
549.779	24987.94
550.143	25045.57
550.507	25226.36
550.871	25318.56
551.235	25283.76
551.599	25378.44
551.962	25529.4
552.326	25645.1
552.689	25791.09
553.053	25602.17
553.417	25849.16
553.78	26149.72
554.143	26044.64
554.507	26266.1
554.87	26392.43
555.234	26585.19
555.597	26574.12
555.96	26660.22
556.323	26761.46
556.686	26944.96
557.05	27055.23
557.413	27104.05
557.776	27157.83
558.139	27388.79
558.502	27333.87
558.865	27502.91
559.228	27716.91
559.59	27813.86
559.953	27844.14
560.316	28093.63
560.679	28140.4
561.041	28299.5
561.404	28436.22
561.767	28698.81
562.129	28565.7
562.492	28839.37
562.854	28954.39
563.217	29022.19
563.579	29194.61
563.941	29331.11
564.304	29420.37
564.666	29645.68
565.028	29762.51
565.39	29878.21
565.753	29953.69
566.115	30140.35
566.477	30238.65
566.839	30297.86
567.201	30480.68
567.563	30463.51
567.925	30767.68
568.287	30698.3
568.648	30868.69
569.01	31011.52
569.372	31139.65
569.734	31023.72
570.095	31320.43
570.457	31486.3
570.819	31563.82
571.18	31630.48
571.542	31685.62
571.903	31691.72
572.265	31884.49
572.626	31937.37
572.987	32009.45
573.349	32077.93
573.71	32297.81
574.071	32359.5
574.432	32393.63
574.794	32608.76
575.155	32648.31
575.516	32549.55
575.877	32719.94
576.238	32777.34
576.599	32876.32
576.96	32974.4
577.32	33114.06
577.681	33035.64
578.042	33062.53
578.403	33212.81
578.763	33244.45
579.124	33336.2
579.485	33423.88
579.845	33344.34
580.206	33302.75
580.566	33366.93
580.927	33416.65
581.287	33554.5
581.648	33331
582.008	33718.34
582.368	33524.9
582.728	33702.29
583.089	33620.94
583.449	33637.21
583.809	33718.11
584.169	33840.82
584.529	33620.94
584.889	34031.77
585.249	33708.62
585.609	33822.29
585.969	33907.94
586.329	33805.11
586.688	33887.6
587.048	33896.41
587.408	33836.53
587.768	33862.74
588.127	33756.08
588.487	33812.57
588.846	34105.45
589.206	33762.86
589.565	33942.51
589.925	33973.7
590.284	33871.55
590.643	33882.85
591.003	34056.86
591.362	34036.97
591.721	33975.73
592.08	33927.6
592.44	33988.39
592.799	34036.29
593.158	33892.34
593.517	34018.89
593.876	34102.73
594.235	34033.36
594.593	33952.91
594.952	34200.58
595.311	34016.18
595.67	34020.48
596.029	34380.47
596.387	34239.23
596.746	34289.85
597.104	34173.69
597.463	34139.12
597.822	34423.4
598.18	34337.98
598.538	34246.46
598.897	34553.34
599.255	34163.75
599.613	34609.16
599.972	34290.75
600.33	34550.41
600.688	34323.29
601.046	34417.75
601.404	34498.43
601.762	34397.41
602.12	34643.74
602.478	34632.44
602.836	34674.24
603.194	34668.59
603.552	34615.94
603.91	34424.98
604.268	34741.59
604.625	34646.9
604.983	34716.73
605.341	34575.26
605.698	34753.34
606.056	34831.98
606.413	34871.3
606.771	34971.18
607.128	35077.85
607.485	34823.84
607.843	34959.66
608.2	35205.3
608.557	35184.06
608.914	35117.4
609.272	35262.93
609.629	35165.3
609.986	35322.59
610.343	35118.07
610.7	35521.23
611.057	35317.16
611.414	35171.41
611.771	35450.72
612.127	35453.88
612.484	35335.92
612.841	35699.75
613.198	35361.91
613.554	35488.23
613.911	35699.08
614.267	35635.35
614.624	35531.4
614.98	35685.06
615.337	35905.62
615.693	35759.86
616.05	35769.13
616.406	35969.8
616.762	35877.6
617.118	35831.28
617.475	35885.51
617.831	36038.5
618.187	35977.71
618.543	36031.5
618.899	36244.15
619.255	36119.86
619.611	36106.75
619.967	36319.85
620.323	36404.14
620.678	36074.66
621.034	36121.44
621.39	36186.29
621.746	36063.59
622.101	36511.71
622.457	36217.71
622.812	36427.64
623.168	36431.71
623.523	36423.8
623.879	36592.61
624.234	36189.91
624.589	36412.95
624.945	36471.71
625.3	36393.52
625.655	36374.76
626.01	36467.42
626.365	36428.1
626.72	36447.53
627.075	36392.16
627.43	36297.7
627.785	36256.57
628.14	36360.3
628.495	36439.85
628.85	36334.99
629.205	36233.3
629.559	36522.33
629.914	36314.88
630.269	36237.14
630.623	36077.6
630.978	36085.51
631.332	36239.17
631.687	36249.12
632.041	36103.58
632.396	36145.62
632.75	35974.1
633.104	35883.25
633.459	35794.67
633.813	35874.21
634.167	35748.11
634.521	35821.11
634.875	35758.06
635.229	35709.24
635.583	35555.58
635.937	35584.5
636.291	35513.54
636.645	35703.37
636.999	35493.43
637.352	35645.52
637.706	35304.28
638.06	35554.67
638.413	35427.44
638.767	35230.16
639.121	35381.57
639.474	35140.67
639.828	35227.68
640.181	35247.56
640.534	35257.28
640.888	35114.01
641.241	34854.58
641.594	35039.66
641.947	35119.66
642.301	34946.33
642.654	34950.17
643.007	34830.4
643.36	34778.65
643.713	34601.7
644.066	34865.2
644.419	34609.84
644.771	34291.88
645.124	33993.81
645.477	33837.88
645.83	33678.56
646.182	33550.21
646.535	33460.94
646.888	33654.38
647.24	33472.92
647.593	33734.16
647.945	33669.07
648.298	33431.56
648.65	33316.09
649.002	33327.84
649.355	33473.82
649.707	33131.23
650.059	33330.32
650.411	33804.89
650.763	33817.99
651.115	34261.37
651.467	34039.46
651.819	33974.83
652.171	33910.42
652.523	33857.54
652.875	33869.52
653.227	33854.6
653.578	33890.31
653.93	33863.87
654.282	33616.42
654.633	33655.06
654.985	33709.07
655.337	33655.06
655.688	33635.63
656.039	33801.05
656.391	33491.22
656.742	33572.58
657.094	33639.24
657.445	33599.7
657.796	33501.39
658.147	33555.18
658.498	33446.25
658.849	33460.49
659.2	33372.36
659.551	33284.22
659.902	33477.89
660.253	33336.43
660.604	33346.59
660.955	33175.53
661.306	33346.82
661.656	33245.58
662.007	33195.19
662.358	33187.73
662.708	33326.03
663.059	33105.92
663.409	32979.6
663.76	33144.79
664.11	32988.86
664.461	33165.13
664.811	33054.63
665.161	33032.03
665.511	32902.09
665.862	32959.71
666.212	33042.65
666.562	32979.37
666.912	32953.61
667.262	32870.9
667.612	32916.1
667.962	32912.03
668.312	32833.16
668.662	33010.78
669.011	32901.41
669.361	32840.62
669.711	32857.79
670.06	32848.98
670.41	32728.31
670.76	32636.33
671.109	32846.5
671.459	32682.66
671.808	32674.97
672.157	32731.24
672.507	32568.54
672.856	32507.97
673.205	32451.25
673.554	32588.2
673.904	32390.01
674.253	32617.12
674.602	32385.94
674.951	32045.39
675.3	31805.84
675.649	32360.41
675.998	32225.95
676.346	32406.28
676.695	32306.4
677.044	32025.73
677.393	32032.96
677.741	32275.44
678.09	32012.62
678.438	32008.33
678.787	32076.35
679.135	31992.05
679.484	31923.13
679.832	31961.77
680.181	31759.97
680.529	31904.15
680.877	31784.83
681.225	31791.61
681.573	31946.41
681.922	31860.08
682.27	31651.95
682.618	31882
682.966	31712.74
683.314	31833.64
683.661	31699.86
684.009	31563.82
684.357	31543.93
684.705	31428
685.053	31496.7
685.4	31481.11
685.748	31351.62
686.095	31185.07
686.443	31015.13
686.79	31049.03
687.138	31063.04
687.485	31009.71
687.832	30823.5
688.18	30847.23
688.527	30746.21
688.874	30636.16
689.221	30654.01
689.568	30513.9
689.915	30338.76
690.262	30258.09
690.609	30306.67
690.956	30237.52
691.303	30217.64
691.65	30124.76
691.997	30089.28
692.344	29888.38
692.69	29758.21
693.037	29859.23
693.383	29679.35
693.73	29689.97
694.077	29614.26
694.423	29604.55
694.769	29542.85
695.116	29439.81
695.462	29402.29
695.808	29402.52
696.155	29289.75
696.501	29082.07
696.847	29100.15
697.193	29074.16
697.539	28944.9
697.885	28758.69
698.231	28831.69
698.577	28701.75
698.923	28682.08
699.269	28591.69
699.614	28484.35
699.96	28471.92
700.306	28460.85
700.651	28346.05
700.997	28121.2
701.342	28070.8
701.688	27970.01
702.033	27849.56
702.379	27984.7
702.724	27744.93
703.069	27843.24
703.415	27469.46
703.76	27527.99
704.105	27451.83
704.45	27466.52
704.795	27226.98
705.14	27125.06
705.485	27237.15
705.83	27075.8
706.175	27082.8
706.52	27027.44
706.865	26898.4
707.209	27033.99
707.554	26761.91
707.899	26811.85
708.243	26726.66
708.588	26615.02
708.932	26525.08
709.277	26438.3
709.621	26432.88
709.966	26384.74
710.31	26376.38
710.654	26155.37
710.998	26222.71
711.342	26247.12
711.687	26135.49
712.031	26105.88
712.375	26022.49
712.719	25964.64
713.063	26005.55
713.407	25982.04
713.75	25813.91
714.094	25842.61
714.438	25725.78
714.782	25652.79
715.125	25532.79
715.469	25560.81
715.812	25401.04
716.156	25303.42
716.499	25363.3
716.843	25472.45
717.186	25180.03
717.53	25185.68
717.873	25368.05
718.216	25104.55
718.559	25091.67
718.902	24934.61
719.246	24942.75
719.589	24933.48
719.932	24744.34
720.275	24747.05
720.617	24703.21
720.96	24774.39
721.303	24801.96
721.646	24757.67
721.989	24576.2
722.331	24673.6
722.674	24652.36
723.016	24677.9
723.359	24530.56
723.701	24714.73
724.044	24435.19
724.386	24430.22
724.729	24387.28
725.071	24307.28
725.413	24343.89
725.755	24234.52
726.097	24203.33
726.439	24098.48
726.782	24088.08
727.124	24220.96
727.465	23966.5
727.807	24041.08
728.149	23966.28
728.491	23878.14
728.833	23966.73
729.175	23714.98
729.516	23691.03
729.858	23747.75
730.199	23704.36
730.541	23688.09
730.882	23700.52
731.224	23665.04
731.565	23555.67
731.906	23516.8
732.248	23611.03
732.589	23398.83
732.93	23425.05
733.271	23351.38
733.612	23377.59
733.953	23395.22
734.294	23267.31
734.635	23199.07
734.976	23230.7
735.317	23036.81
735.658	23172.63
735.999	23176.69
736.339	23060.99
736.68	23110.93
737.021	22982.57
737.361	22972.86
737.702	23051.95
738.042	22972.86
738.383	23008.56
738.723	22956.36
739.063	22837.04
739.404	22884.27
739.744	22821.9
740.084	22807.21
740.424	22714.56
740.764	22705.29
741.104	22857.83
741.444	22661.68
741.784	22545.07
742.124	22603.83
742.464	22641.79
742.804	22583.04
743.143	22447.67
743.483	22497.84
743.823	22412.87
744.162	22441.34
744.502	22495.58
744.841	22336.26
745.181	22472.98
745.52	22333.33
745.86	22281.58
746.199	22145.76
746.538	22272.31
746.877	22130.17
747.216	22200.45
747.556	22058.76
747.895	22088.36
748.234	22042.03
748.573	21951.64
748.911	21909.61
749.25	21771.53
749.589	21732.89
749.928	21822.38
750.267	21856.28
750.605	21624.64
750.944	21580.8
751.283	21536.96
751.621	21568.83
751.96	21473.46
752.298	21409.96
752.636	21427.81
752.975	21301.26
753.313	21230.3
753.651	21482.5
753.989	21241.15
754.327	21178.33
754.666	21101.04
755.004	20971.1
755.342	21110.31
755.679	21116.63
756.017	20889.52
756.355	20936.75
756.693	20835.06
757.031	20865.57
757.368	20623.31
757.706	20655.18
758.044	20692.24
758.381	20600.04
758.719	20506.93
759.056	20433.71
759.394	20342.42
759.731	20319.59
760.068	20264.45
760.405	20265.36
760.743	20153.5
761.08	20155.53
761.417	20004.12
761.754	20091.8
762.091	19887.97
762.428	19944.69
762.765	19714.19
763.102	19846.61
763.438	19776.1
763.775	19615.88
764.112	19686.39
764.449	19600.52
764.785	19553.74
765.122	19382.67
765.458	19352.16
765.795	19364.82
766.131	19319.85
766.467	19288.66
766.804	19106.52
767.14	19054.77
767.476	19041.21
767.812	18958.05
768.148	19011.38
768.485	18747.2
768.821	18712.4
769.157	18688.68
769.492	18699.75
769.828	18585.18
770.164	18566.19
770.5	18480.32
770.836	18458.85
771.171	18262.02
771.507	18326.2
771.842	18133.66
772.178	18078.97
772.513	18132.53
772.849	18077.62
773.184	17898.87
773.519	18000.56
773.855	17842.14
774.19	17716.95
774.525	17707.46
774.86	17700.68
775.195	17748.59
775.53	17498.88
775.865	17555.6
776.2	17408.71
776.535	17252.55
776.87	17348.82
777.205	17236.06
777.539	17104.76
777.874	17193.57
778.209	17013.69
778.543	16963.3
778.878	16818.67
779.212	16847.82
779.547	16695.28
779.881	16861.38
780.215	16593.59
780.55	16667.49
780.884	16523.08
781.218	16523.99
781.552	16543.19
781.886	16314.05
782.22	16210.32
782.554	16228.85
782.888	16055.07
783.222	15946.37
783.556	16038.12
783.889	15886.72
784.223	15830.45
784.557	15878.13
784.89	15845.13
785.224	15725.59
785.557	15616.89
785.891	15624.58
786.224	15524.01
786.558	15600.62
786.891	15423
787.224	15361.76
787.557	15346.84
787.891	15324.24
788.224	15375.77
788.557	15260.74
788.89	15129.67
789.223	15223
789.556	15036.57
789.888	15006.06
790.221	14973.29
790.554	14917.25
790.887	14855.78
791.219	14797.25
791.552	14775.56
791.884	14695.79
792.217	14619.86
792.549	14554.32
792.882	14537.6
793.214	14494.21
793.546	14453.53
793.879	14452.18
794.211	14293.99
794.543	14360.43
794.875	14338.96
795.207	14309.13
795.539	14217.15
795.871	14201.11
796.203	14041.11
796.535	14050.83
796.867	13952.75
797.198	13931.29
797.53	13895.13
797.862	13800.89
798.193	13804.28
798.525	13628.47
798.856	13651.52
799.188	13517.51
799.519	13579.21
799.85	13476.61
800.182	13428.02
800.513	13463.73
800.844	13354.8
801.175	13370.62
801.506	13374.69
801.837	13370.62
802.168	13270.96
802.499	13251.08
802.83	13153.23
803.161	13119.78
803.491	13140.57
803.822	13146.45
804.153	13035.49
804.483	12893.35
804.814	12826.23
805.145	12910.97
805.475	12802.5
805.805	12856.74
806.136	12892.67
806.466	12802.28
806.796	12812.9
807.126	12619.46
807.457	12703.97
807.787	12591.21
808.117	12561.83
808.447	12579.68
808.777	12562.06
809.107	12504.66
809.436	12491.32
809.766	12460.59
810.096	12398.45
810.426	12329.97
810.755	12348.05
811.085	12315.74
811.414	12267.6
811.744	12195.96
812.073	12105.8
812.403	12100.37
812.732	12089.75
813.061	12138.79
813.39	11953.94
813.719	11985.57
814.049	12029.19
814.378	12069.64
814.707	11897.44
815.036	11887.5
815.365	11873.04
815.693	11716.88
816.022	11765.47
816.351	11700.38
816.68	11671.01
817.008	11666.49
817.337	11599.37
817.665	11579.03
817.994	11632.36
818.322	11611.12
818.651	11499.94
818.979	11489.77
819.307	11564.79
819.636	11442.99
819.964	11452.93
820.292	11447.96
820.62	11456.55
820.948	11384.91
821.276	11497
821.604	11458.81
821.932	11467.4
822.259	11396.66
822.587	11425.36
822.915	11434.18
823.243	11445.25
823.57	11428.08
823.898	11390.34
824.225	11355.76
824.553	11424.69
824.88	11395.76
825.207	11405.25
825.535	11451.58
825.862	11393.27
826.189	11340.17
826.516	11441.41
826.843	11405.93
827.17	11367.29
827.497	11388.53
827.824	11411.8
828.151	11382.65
828.478	11356.89
828.805	11364.35
829.131	11373.16
829.458	11365.7
829.785	11348.98
830.111	11324.8
830.438	11410.22
830.764	11404.57
831.09	11334.52
831.417	11273.5
831.743	11396.21
832.069	11299.72
832.395	11242.54
832.722	11333.39
833.048	11262.43
833.374	11290.23
833.7	11237.12
834.026	11222.43
834.351	11268.98
834.677	11241.87
835.003	11188.53
835.329	11184.01
835.654	11192.15
835.98	11127.97
836.306	11116.67
836.631	11116.44
836.956	11165.94
837.282	11218.82
837.607	11130.91
837.932	11030.35
838.258	11072.6
838.583	11049.1
838.908	11005.71
839.233	11054.75
839.558	10984.02
839.883	10939.05
840.208	10923.91
840.533	10950.57
840.858	10951.7
841.182	10999.39
841.507	10971.59
841.832	10927.07
842.156	10921.42
842.481	10863.12
842.805	10786.74
843.13	10859.5
843.454	10855.43
843.778	10776.11
844.103	10705.38
844.427	10694.54
844.751	10824.25
845.075	10668.77
845.399	10634.2
845.723	10563.47
846.047	10628.32
846.371	10507.65
846.695	10534.09
847.019	10483.24
847.343	10396.46
847.666	10370.02
847.99	10266.98
848.313	10250.25
848.637	10160.09
848.96	10151.5
849.284	10167.77
849.607	10079.41
849.931	10072.86
850.254	9921.22
850.577	9956.48
850.9	9808.91
851.223	9795.58
851.546	9729.14
851.869	9742.02
852.192	9750.83
852.515	9713.09
852.838	9646.43
853.161	9673.32
853.483	9684.84
853.806	9586.32
854.129	9489.14
854.451	9512.19
854.774	9513.55
855.096	9384.97
855.419	9495.24
855.741	9360.56
856.063	9348.81
856.385	9321.69
856.708	9335.7
857.03	9306.1
857.352	9304.52
857.674	9335.93
857.996	9296.61
858.318	9151.07
858.64	9174.12
858.961	9130.73
859.283	9126.21
859.605	9086.67
859.926	9163.05
860.248	9163.5
860.57	9007.12
860.891	9105.42
861.212	9027.46
861.534	8963.96
861.855	8946.33
862.176	9004.41
862.498	8918.54
862.819	8957.41
863.14	8857.3
863.461	8880.35
863.782	8919.67
864.103	8821.36
864.424	8887.58
864.745	8837.63
865.065	8813
865.386	8815.94
865.707	8766
866.027	8786.34
866.348	8747.02
866.668	8710.63
866.989	8729.16
867.309	8656.85
867.63	8645.78
867.95	8666.79
868.27	8667.47
868.59	8650.07
868.91	8598.32
869.23	8617.3
869.55	8546.57
869.87	8608.94
870.19	8527.13
870.51	8528.94
870.83	8530.3
871.15	8458.44
871.469	8460.02
871.789	8488.27
872.109	8518.55
872.428	8471.09
872.748	8476.97
873.067	8420.7
873.386	8441.26
873.706	8448.49
874.025	8355.84
874.344	8331.43
874.663	8331.89
874.982	8318.55
875.301	8355.39
875.62	8318.78
875.939	8242.4
876.258	8276.52
876.577	8304.54
876.896	8261.38
877.214	8235.62
877.533	8265.22
877.852	8251.21
878.17	8236.75
878.489	8221.61
878.807	8183.41
879.125	8157.65
879.444	8182.28
879.762	8097.54
880.08	8138.44
880.398	8016.64
880.716	8072.68
881.034	8062.06
881.352	8072.68
881.67	7999.92
881.988	8088.28
882.306	8046.92
882.624	7971.89
882.941	7932.35
883.259	7932.35
883.577	7938.22
883.894	7954.27
884.212	7936.87
884.529	7915.85
884.846	7850.99
885.164	7858.23
885.481	7854.16
885.798	7898.22
886.115	7773.93
886.432	7835.4
886.75	7740.94
887.067	7786.82
887.383	7676.54
887.7	7671.79
888.017	7725.57
888.334	7692.13
888.651	7688.06
888.967	7607.16
889.284	7632.02
889.6	7566.93
889.917	7518.57
890.233	7534.62
890.55	7587.95
890.866	7540.04
891.182	7469.31
891.498	7476.31
891.815	7443.77
892.131	7392.02
892.447	7343.44
892.763	7404.45
893.079	7321.74
893.395	7288.3
893.71	7308.86
894.026	7274.74
894.342	7269.77
894.657	7212.59
894.973	7196.1
895.289	7139.15
895.604	7154.29
895.92	7091.92
896.235	7150.67
896.55	7119.04
896.865	7114.06
897.181	7058.7
897.496	7098.47
897.811	6999.49
898.126	6992.26
898.441	7015.99
898.756	6912.94
899.071	6860.06
899.386	6885.82
899.7	6851.47
900.015	6825.48
900.33	6790.91
900.644	6789.33
900.959	6733.51
901.273	6709.1
901.588	6707.3
901.902	6681.99
902.216	6722.66
902.531	6699.16
902.845	6697.58
903.159	6551.59
903.473	6625.04
903.787	6580.75
904.101	6526.74
904.415	6519.5
904.729	6498.71
905.042	6468.21
905.356	6466.17
905.67	6452.16
905.984	6392.05
906.297	6397.7
906.611	6335.78
906.924	6365.84
907.237	6312.73
907.551	6288.1
907.864	6265.95
908.177	6297.36
908.491	6245.61
908.804	6214.65
909.117	6130.59
909.43	6146.86
909.743	6130.81
910.056	6124.49
910.368	6068.22
910.681	6032.28
910.994	6048.78
911.307	6013.3
911.619	5931.95
911.932	5967.65
912.244	5867.54
912.557	5907.77
912.869	5880.42
913.181	5879.97
913.494	5891.27
913.806	5822.8
914.118	5798.39
914.43	5723.14
914.742	5773.53
915.054	5719.75
915.366	5664.16
915.678	5671.62
915.99	5663.26
916.302	5561.79
916.613	5569.92
916.925	5557.72
917.236	5562.01
917.548	5495.12
917.859	5556.37
918.171	5515.24
918.482	5437.27
918.794	5408.57
919.105	5407.67
919.416	5364.73
919.727	5364.05
920.038	5352.08
920.349	5328.12
920.66	5265.3
920.971	5280.21
921.282	5248.35
921.593	5239.76
921.903	5142.14
922.214	5204.28
922.525	5174
922.835	5137.62
923.146	5099.43
923.456	5123.16
923.767	5081.8
924.077	5026.21
924.387	5031.63
924.697	5002.03
925.008	4999.09
925.318	4993.89
925.628	4993.89
925.938	4973.1
926.248	4918.19
926.558	4930.39
926.867	4893.56
927.177	4869.6
927.487	4811.98
927.796	4766.1
928.106	4815.59
928.416	4737.4
928.725	4742.83
929.034	4742.38
929.344	4737.86
929.653	4720
929.962	4701.02
930.271	4655.6
930.581	4584.19
930.89	4584.41
931.199	4570.63
931.508	4571.08
931.817	4559.1
932.125	4524.98
932.434	4504.42
932.743	4502.83
933.051	4476.17
933.36	4433.68
933.669	4374.7
933.977	4441.82
934.286	4460.57
934.594	4376.96
934.902	4343.74
935.21	4343.06
935.519	4378.09
935.827	4353.91
936.135	4336.74
936.443	4254.25
936.751	4273.69
937.059	4228.72
937.367	4221.26
937.674	4217.42
937.982	4209.73
938.29	4168.61
938.597	4161.83
938.905	4122.96
939.213	4142.17
939.52	4082.96
939.827	4062.39
940.135	4050.87
940.442	4078.44
940.749	4082.28
941.056	4072.56
941.363	4027.59
941.67	3961.15
941.977	4004.99
942.284	3986.24
942.591	3928.84
942.898	3920.93
943.205	3955.73
943.511	3882.74
943.818	3864.43
944.125	3825.11
944.431	3828.95
944.738	3838.22
945.044	3835.28
945.35	3797.54
945.657	3816.52
945.963	3749.41
946.269	3758.45
946.575	3746.92
946.881	3727.03
947.187	3700.37
947.493	3735.17
947.799	3678.67
948.105	3656.3
948.41	3635.74
948.716	3642.29
949.022	3635.06
949.327	3604.78
949.633	3599.13
949.938	3569.52
950.244	3569.3
950.549	3511.9
950.854	3512.35
951.16	3507.38
951.465	3523.65
951.77	3484.56
952.075	3472.8
952.38	3473.48
952.685	3473.48
952.99	3454.73
953.294	3385.8
953.599	3367.5
953.904	3402.3
954.209	3384.44
954.513	3408.85
954.818	3381.51
955.122	3310.32
955.426	3342.64
955.731	3313.03
956.035	3268.06
956.339	3276.65
956.643	3261.51
956.948	3231.45
957.252	3259.7
957.556	3179.03
957.86	3162.53
958.163	3194.17
958.467	3175.86
958.771	3189.42
959.075	3139.48
959.378	3140.16
959.682	3132.7
959.985	3125.47
960.289	3090.44
960.592	3081.18
960.896	3084.79
961.199	3045.7
961.502	3050.44
961.805	2981.29
962.108	3008.64
962.411	3018.58
962.714	2948.98
963.017	2978.58
963.32	3008.86
963.623	2987.17
963.926	2927.73
964.228	2926.83
964.531	2915.53
964.833	2914.85
965.136	2900.39
965.438	2889.32
965.741	2873.72
966.043	2846.61
966.345	2810.22
966.648	2860.16
966.95	2841.18
967.252	2793.73
967.554	2805.48
967.856	2778.81
968.158	2781.52
968.46	2793.73
968.761	2748.98
969.063	2722.54
969.365	2741.98
969.666	2714.41
969.968	2704.91
970.269	2708.08
970.571	2704.01
970.872	2661.98
971.174	2674.63
971.475	2648.87
971.776	2640.28
972.077	2622.88
972.378	2612.94
972.679	2587.63
972.98	2620.17
973.281	2564.58
973.582	2567.74
973.883	2553.05
974.183	2543.34
974.484	2566.39
974.785	2559.16
975.085	2538.37
975.386	2534.3
975.686	2518.7
975.986	2509.21
976.287	2513.73
976.587	2495.43
976.887	2486.39
977.187	2442.55
977.487	2455.66
977.787	2439.39
978.087	2451.59
978.387	2435.77
978.687	2404.36
978.987	2387.18
979.286	2369.56
979.586	2384.7
979.885	2359.84
980.185	2338.6
980.484	2326.17
980.784	2327.75
981.083	2326.39
981.382	2328.88
981.682	2292.04
981.981	2287.07
982.28	2260.18
982.579	2291.37
982.878	2255.66
983.177	2269.67
983.475	2244.81
983.774	2238.03
984.073	2205.72
984.372	2203.01
984.67	2180.86
984.969	2213.85
985.267	2179.28
985.566	2162.56
985.864	2188.77
986.162	2137.25
986.461	2146.74
986.759	2107.42
987.057	2116.91
987.355	2095.89
987.653	2122.56
987.951	2050.69
988.249	2057.47
988.547	2078.72
988.844	2078.72
989.142	2044.59
989.44	2042.33
989.737	2013.63
990.035	2008.66
990.332	2034.42
990.63	2038.27
990.927	2005.72
991.224	2026.51
991.521	2011.83
991.819	1989.91
992.116	1968.21
992.413	1963.24
992.71	2002.79
993.006	1922.79
993.303	1925.5
993.6	1905.61
993.897	1903.58
994.193	1919.4
994.49	1893.18
994.787	1897.48
995.083	1859.97
995.379	1883.47
995.676	1861.1
995.972	1865.61
996.268	1851.38
996.565	1829.01
996.861	1836.69
997.157	1843.02
997.453	1787.42
997.749	1819.06
998.044	1782.91
998.34	1770.48
998.636	1769.12
998.932	1768.89
999.227	1740.42
999.523	1757.14
999.818	1746.75
1000.114	1737.93
1000.409	1729.12
1000.704	1738.16
1001	1742.68
1001.295	1720.08
1001.59	1716.01
1001.885	1663.13
1002.18	1669.91
1002.475	1686.64
1002.77	1657.94
1003.065	1660.2
1003.359	1659.74
1003.654	1629.69
1003.949	1622.68
1004.243	1621.78
1004.538	1590.14
1004.832	1607.99
1005.127	1593.08
1005.421	1545.85
1005.715	1576.36
1006.009	1573.65
1006.304	1544.95
1006.598	1562.35
1006.892	1524.61
1007.186	1517.83
1007.48	1517.6
1007.773	1518.73
1008.067	1506.08
1008.361	1525.96
1008.655	1496.58
1008.948	1465.4
1009.242	1476.02
1009.535	1465.17
1009.829	1482.8
1010.122	1473.31
1010.415	1448.68
1010.708	1456.36
1011.001	1403.71
1011.295	1443.03
1011.588	1443.93
1011.881	1398.96
1012.173	1410.71
1012.466	1396.25
1012.759	1401.22
1013.052	1387.21
1013.344	1385.63
1013.637	1359.64
1013.93	1336.14
1014.222	1338.4
1014.514	1354.22
1014.807	1350.37
1015.099	1332.97
1015.391	1286.42
1015.683	1349.47
1015.976	1294.33
1016.268	1295.69
1016.56	1271.51
1016.851	1272.18
1017.143	1283.48
1017.435	1237.61
1017.727	1244.16
1018.018	1249.13
1018.31	1222.92
1018.602	1207.1
1018.893	1215.24
1019.185	1191.51
1019.476	1236.7
1019.767	1170.04
1020.058	1173.43
1020.35	1185.18
1020.641	1181.34
1020.932	1150.38
1021.223	1144.73
1021.514	1145.41
1021.804	1153.09
1022.095	1154.45
1022.386	1162.81
1022.677	1144.28
1022.967	1137.95
1023.258	1145.41
1023.548	1129.59
1023.839	1116.03
1024.129	1091.62
1024.419	1090.27
1024.709	1104.96
1025	1104.73
1025.29	1080.32
1025.58	1045.75
1025.87	1058.4
1026.16	1058.63
1026.449	1034.22
1026.739	1071.29
1027.029	1027.44
1027.319	1021.12
1027.608	1021.34
1027.898	1031.29
1028.187	1001.68
1028.477	1011.4
1028.766	990.61
1029.055	982.47
1029.344	978.41
1029.634	974.79
1029.923	955.36
1030.212	954.9
1030.501	955.58
1030.79	966.43
1031.078	919.65
1031.367	929.82
1031.656	938.41
1031.945	916.26
1032.233	921.01
1032.522	881.46
1032.81	907
1033.099	902.93
1033.387	929.82
1033.675	906.77
1033.963	907
1034.251	886.21
1034.54	880.56
1034.828	875.13
1035.116	881.01
1035.403	869.93
1035.691	872.87
1035.979	859.77
1036.267	843.04
1036.554	859.77
1036.842	836.04
1037.129	872.19
1037.417	819.99
1037.704	828.13
1037.992	821.8
1038.279	827
1038.566	832.42
1038.853	832.42
1039.14	832.42
