Data from foam1_polythene_foam_FLMS001491_00071.txt Node
Date: Wed Feb 08 10:55:21 GMT 2017
User: dcchb
Spectrometer: FLMS00149
Trigger mode: 0
Integration Time (sec): 2.000000E-2
Scans to average: 10
Electric dark correction enabled: true
Nonlinearity correction enabled: false
Boxcar width: 0
XAxis mode: Wavelengths
Number of Pixels in Spectrum: 2048
>>>>>Begin Spectral Data<<<<<
341.393	-2.77
341.776	-2.77
342.16	-2.77
342.543	-33.73
342.927	-53.39
343.31	-60.39
343.693	-53.84
344.077	-67.85
344.46	-62.2
344.843	-23.11
345.226	-49.77
345.61	-9.1
345.993	-33.28
346.376	-8.19
346.759	20.51
347.142	15.99
347.525	39.49
347.908	34.29
348.291	69.32
348.674	77.23
349.057	110.9
349.44	124.46
349.823	142.31
350.206	184.57
350.588	198.58
350.971	208.53
351.354	208.07
351.737	229.54
352.119	237.45
352.502	248.07
352.884	261.18
353.267	271.57
353.65	265.7
354.032	285.36
354.414	279.03
354.797	298.69
355.179	286.72
355.562	314.51
355.944	319.26
356.326	328.75
356.709	326.26
357.091	328.75
357.473	347.73
357.855	347.5
358.238	333.49
358.62	333.04
359.002	332.59
359.384	318.81
359.766	317.22
360.148	343.21
360.53	331.23
360.912	332.82
361.294	338.01
361.676	342.31
362.057	307.73
362.439	317.9
362.821	307.96
363.203	314.96
363.584	314.51
363.966	310.22
364.348	327.39
364.729	322.65
365.111	316.32
365.493	318.58
365.874	332.59
366.256	316.77
366.637	312.93
367.019	308.86
367.4	311.8
367.781	309.31
368.163	303.66
368.544	299.82
368.925	312.93
369.306	308.86
369.688	305.25
370.069	318.81
370.45	319.26
370.831	305.25
371.212	316.77
371.593	327.62
371.974	309.77
372.355	310.44
372.736	320.16
373.117	304.12
373.498	294.85
373.879	324.68
374.26	304.12
374.641	309.54
375.021	322.87
375.402	315.64
375.783	312.25
376.163	322.19
376.544	338.24
376.925	328.3
377.305	310.44
377.686	310.67
378.066	328.07
378.447	332.14
378.827	356.54
379.208	349.31
379.588	317
379.968	339.14
380.349	333.95
380.729	337.11
381.109	328.3
381.489	343.21
381.87	330.1
382.25	352.02
382.63	339.37
383.01	335.98
383.39	357.9
383.77	348.18
384.15	336.66
384.53	349.09
384.91	339.82
385.29	334.17
385.67	352.48
386.049	364.23
386.429	371.23
386.809	375.53
387.189	361.29
387.568	359.71
387.948	363.1
388.328	382.08
388.707	385.92
389.087	380.27
389.466	386.37
389.846	382.53
390.225	400.61
390.605	382.53
390.984	385.24
391.363	396.77
391.743	377.33
392.122	371.69
392.501	381.63
392.881	409.2
393.26	410.55
393.639	388.86
394.018	407.84
394.397	411.68
394.776	401.29
395.155	403.1
395.534	401.97
395.913	423.66
396.292	436.32
396.671	416.66
397.05	414.85
397.429	423.44
397.808	414.62
398.186	387.5
398.565	406.71
398.944	416.43
399.323	429.76
399.701	422.76
400.08	436.77
400.458	444.23
400.837	445.36
401.215	469.76
401.594	458.69
401.972	455.07
402.351	452.81
402.729	449.88
403.107	463.89
403.486	474.73
403.864	476.54
404.242	477.9
404.62	493.26
404.999	476.09
405.377	485.13
405.755	495.98
406.133	470.21
406.511	503.66
406.889	497.56
407.267	490.78
407.645	515.86
408.023	499.59
408.401	521.96
408.779	498.91
409.156	524.68
409.534	520.16
409.912	531
410.29	516.77
410.667	531.68
411.045	538.46
411.422	552.47
411.8	548.86
412.178	539.59
412.555	557.22
412.933	549.08
413.31	556.77
413.687	564
414.065	567.16
414.442	584.79
414.819	585.69
415.197	602.64
415.574	598.57
415.951	594.73
416.328	600.38
416.705	583.88
417.082	593.6
417.46	602.64
417.837	594.28
418.214	608.74
418.591	615.29
418.967	634.28
419.344	623.43
419.721	620.94
420.098	639.93
420.475	638.8
420.852	655.52
421.228	654.62
421.605	661.17
421.982	648.06
422.358	660.72
422.735	658.91
423.111	684.67
423.488	683.54
423.864	664.56
424.241	707.27
424.617	678.34
424.994	722.86
425.37	713.37
425.746	726.7
426.123	741.62
426.499	707.04
426.875	736.2
427.251	753.14
427.627	767.15
428.003	774.39
428.379	762.64
428.756	763.31
429.132	780.71
429.507	782.97
429.883	810.09
430.259	795.18
430.635	821.39
431.011	833.37
431.387	813.03
431.763	854.38
432.138	854.38
432.514	867.72
432.89	888.73
433.265	886.25
433.641	914.95
434.016	925.12
434.392	924.89
434.767	925.57
435.143	952.69
435.518	953.36
435.894	953.59
436.269	938
436.644	961.73
437.02	998.56
437.395	975.74
437.77	1016.87
438.145	1021.61
438.52	1005.11
438.895	1040.37
439.271	1041.95
439.646	1051.44
440.021	1053.02
440.395	1049.18
440.77	1058.9
441.145	1043.53
441.52	1089.41
441.895	1110.2
442.27	1095.28
442.645	1132.34
443.019	1113.36
443.394	1126.69
443.769	1126.24
444.143	1134.83
444.518	1165.79
444.892	1159.46
445.267	1187.48
445.641	1200.14
446.016	1187.71
446.39	1192.68
446.764	1211.21
447.139	1207.6
447.513	1204.88
447.887	1234.49
448.262	1242.4
448.636	1262.28
449.01	1294.6
449.384	1295.73
449.758	1313.81
450.132	1310.42
450.506	1316.75
450.88	1310.64
451.254	1309.74
451.628	1342.06
452.002	1337.08
452.376	1396.74
452.75	1366.46
453.123	1388.61
453.497	1420.25
453.871	1434.48
454.244	1462.73
454.618	1455.95
454.992	1455.05
455.365	1487.81
455.739	1496.85
456.112	1520.58
456.486	1516.29
456.859	1530.3
457.232	1558.32
457.606	1554.25
457.979	1559.68
458.352	1609.84
458.725	1601.48
459.099	1612.1
459.472	1640.8
459.845	1637.41
460.218	1632.22
460.591	1669.73
460.964	1674.93
461.337	1730.97
461.71	1726.9
462.083	1722.61
462.456	1735.94
462.829	1755.38
463.201	1810.29
463.574	1780.01
463.947	1802.16
464.32	1863.85
464.692	1865.66
465.065	1882.38
465.438	1905.66
465.81	1936.16
466.183	1936.62
466.555	1984.98
466.928	2022.26
467.3	2023.85
467.672	2031.3
468.045	2060.23
468.417	2091.41
468.789	2087.12
469.161	2128.25
469.534	2131.19
469.906	2216.61
470.278	2208.02
470.65	2218.64
471.022	2244.4
471.394	2301.8
471.766	2324.18
472.138	2320.56
472.51	2391.07
472.882	2415.47
473.253	2456.6
473.625	2465.19
473.997	2527.33
474.369	2522.82
474.74	2535.24
475.112	2619.31
475.484	2637.16
475.855	2697.05
476.227	2691.4
476.598	2786.08
476.97	2815.01
477.341	2845.74
477.713	2876.25
478.084	2927.55
478.455	2975.91
478.827	3013.88
479.198	3103.82
479.569	3117.38
479.94	3183.81
480.311	3220.42
480.682	3234.43
481.053	3382
481.424	3378.39
481.795	3438.05
482.166	3463.58
482.537	3505.61
482.908	3601.2
483.279	3648.44
483.65	3685.27
484.021	3738.15
484.391	3784.48
484.762	3830.58
485.133	3893.63
485.503	3895.66
485.874	3979.27
486.244	4050.01
486.615	4175.2
486.985	4199.83
487.356	4279.6
487.726	4291.36
488.097	4289.1
488.467	4318.02
488.837	4407.96
489.207	4462.43
489.578	4524.34
489.948	4588.52
490.318	4667.17
490.688	4703.77
491.058	4761.4
491.428	4819.25
491.798	4871.45
492.168	4999.59
492.538	4977.44
492.908	5041.39
493.278	5116.19
493.648	5168.17
494.017	5212.46
494.387	5241.84
494.757	5309.86
495.126	5339.01
495.496	5437.09
495.866	5403.19
496.235	5463.08
496.605	5512.11
496.974	5521.61
497.344	5582.85
497.713	5675.05
498.082	5767.7
498.452	5843.41
498.821	5807.7
499.19	5784.42
499.559	5873.01
499.928	5909.84
500.298	5936.51
500.667	6014.25
501.036	5975.83
501.405	6123.17
501.774	6124.98
502.143	6203.85
502.512	6193.23
502.88	6282.49
503.249	6277.74
503.618	6302.15
503.987	6320.46
504.356	6356.61
504.724	6445.88
505.093	6460.34
505.462	6505.54
505.83	6555.03
506.199	6650.39
506.567	6713.21
506.936	6716.83
507.304	6797.96
507.672	6795.47
508.041	6861.68
508.409	6900.33
508.777	6967.67
509.145	7000.44
509.514	7034.79
509.882	7153.65
510.25	7159.3
510.618	7210.15
510.986	7221.67
511.354	7273.2
511.722	7366.98
512.09	7408.56
512.458	7418.28
512.826	7502.57
513.193	7535.34
513.561	7670.93
513.929	7724.26
514.297	7693.07
514.664	7802.45
515.032	7891.26
515.4	7875.22
515.767	7922.45
516.135	7981.88
516.502	7975.1
516.869	8095.55
517.237	8166.51
517.604	8135.55
517.972	8322.66
518.339	8293.28
518.706	8372.6
519.073	8352.94
519.44	8477.91
519.808	8554.75
520.175	8589.32
520.542	8632.03
520.909	8764.01
521.276	8785.02
521.643	8810.56
522.009	8926.94
522.376	8986.37
522.743	9074.96
523.11	9141.17
523.477	9241.73
523.843	9281.28
524.21	9329.64
524.577	9345.69
524.943	9480.37
525.31	9578.22
525.676	9605.57
526.043	9722.4
526.409	9759.46
526.776	9859.8
527.142	9904.77
527.508	9961.49
527.874	9979.79
528.241	10075.61
528.607	10051.2
528.973	10208.49
529.339	10177.75
529.705	10346.34
530.071	10424.3
530.437	10560.34
530.803	10580.91
531.169	10557.86
531.535	10657.29
531.901	10659.32
532.267	10769.38
532.632	10779.32
532.998	10730.28
533.364	10949.26
533.73	10927.57
534.095	11083.27
534.461	11077.17
534.826	11103.15
535.192	11185.41
535.557	11334.79
535.923	11249.14
536.288	11319.42
536.653	11335.46
537.019	11344.73
537.384	11441.45
537.749	11450.94
538.114	11437.61
538.479	11546.08
538.845	11589.24
539.21	11583.14
539.575	11663.14
539.94	11634.21
540.305	11758.73
540.67	11808.9
541.034	11815.23
541.399	11839.63
541.764	11906.98
542.129	11963.92
542.494	12033.07
542.858	11951.95
543.223	12058.84
543.587	12162.34
543.952	12121.21
544.316	12257.47
544.681	12215.44
545.045	12260.19
545.41	12375.21
545.774	12386.74
546.138	12417.47
546.503	12403.91
546.867	12373.4
547.231	12576.34
547.595	12559.16
547.959	12641.19
548.324	12665.6
548.688	12740.63
549.052	12729.33
549.416	12736.78
549.779	12736.78
550.143	12827.63
550.507	12988.08
550.871	12918.7
551.235	12900.4
551.599	13083.89
551.962	13095.87
552.326	13160.5
552.689	13236.43
553.053	13141.97
553.417	13270.78
553.78	13451.79
554.143	13387.16
554.507	13461.51
554.87	13411.79
555.234	13602.98
555.597	13494.5
555.96	13566.37
556.323	13735.85
556.686	13723.2
557.05	13778.11
557.413	13826.7
557.776	13844.78
558.139	13933.36
558.502	14009.97
558.865	14001.61
559.228	14094.49
559.59	14128.39
559.953	14164.99
560.316	14343.3
560.679	14424.2
561.041	14432.11
561.404	14471.43
561.767	14580.13
562.129	14516.85
562.492	14706
562.854	14674.13
563.217	14760.01
563.579	14780.12
563.941	14917.07
564.304	14922.94
564.666	15018.31
565.028	15083.61
565.39	15096.5
565.753	15167
566.115	15275.25
566.477	15357.51
566.839	15344.62
567.201	15555.01
567.563	15506.88
567.925	15581.68
568.287	15645.41
568.648	15760.21
569.01	15795.23
569.372	15811.28
569.734	15800.21
570.095	16004.72
570.457	16027.09
570.819	16044.72
571.18	15995
571.542	16098.05
571.903	16135.34
572.265	16208.56
572.626	16231.38
572.987	16231.16
573.349	16332.17
573.71	16394.54
574.071	16492.17
574.432	16446.29
574.794	16721.76
575.155	16678.38
575.516	16468.44
575.877	16637.47
576.238	16643.12
576.599	16703.01
576.96	16743.23
577.32	16746.17
577.681	16725.61
578.042	16782.55
578.403	16772.16
578.763	16858.26
579.124	16896.45
579.485	16998.37
579.845	16932.61
580.206	17001.76
580.566	17023.68
580.927	17003.79
581.287	17046.05
581.648	17044.02
582.008	17151.81
582.368	17014.86
582.728	17135.31
583.089	17090.12
583.449	17156.55
583.809	17149.1
584.169	17199.94
584.529	17201.3
584.889	17267.29
585.249	17154.75
585.609	17203.11
585.969	17231.13
586.329	17105.26
586.688	17177.57
587.048	17127.18
587.408	17123.79
587.768	17181.19
588.127	17118.14
588.487	17081.98
588.846	17245.37
589.206	17265.93
589.565	17272.26
589.925	17269.32
590.284	17209.43
590.643	17241.07
591.003	17286.04
591.362	17383.67
591.721	17271.58
592.08	17190.9
592.44	17228.87
592.799	17234.07
593.158	17281.3
593.517	17204.91
593.876	17190
594.235	17189.77
594.593	17293.73
594.952	17426.38
595.311	17210.34
595.67	17311.13
596.029	17427.73
596.387	17441.07
596.746	17433.16
597.104	17328.75
597.463	17210.79
597.822	17477.45
598.18	17357.68
598.538	17420.95
598.897	17450.78
599.255	17381.86
599.613	17581.18
599.972	17381.86
600.33	17455.08
600.688	17389.77
601.046	17460.73
601.404	17518.13
601.762	17428.86
602.12	17592.48
602.478	17557.67
602.836	17679.93
603.194	17569.43
603.552	17558.13
603.91	17467.96
604.268	17516.55
604.625	17547.96
604.983	17729.19
605.341	17545.02
605.698	17694.39
606.056	17668.18
606.413	17541.63
606.771	17658.24
607.128	17686.03
607.485	17626.37
607.843	17747.05
608.2	17809.64
608.557	17872.69
608.914	17731.68
609.272	17844.67
609.629	17917.89
609.986	17982.52
610.343	17842.41
610.7	17999.24
611.057	17975.97
611.414	17952.92
611.771	17942.97
612.127	18015.29
612.484	18055.29
612.841	18053.71
613.198	17942.52
613.554	17975.52
613.911	18105.23
614.267	18130.31
614.624	18134.16
614.98	18048.51
615.337	18188.17
615.693	18124.89
616.05	18008.28
616.406	18245.34
616.762	18171.22
617.118	18161.5
617.475	18181.61
617.831	18248.96
618.187	18242.63
618.543	18311.78
618.899	18352.68
619.255	18291.21
619.611	18302.51
619.967	18378.67
620.323	18420.93
620.678	18333.02
621.034	18314.94
621.39	18406.92
621.746	18328.5
622.101	18470.64
622.457	18313.13
622.812	18357.2
623.168	18351.1
623.523	18426.8
623.879	18380.48
624.234	18295.73
624.589	18340.03
624.945	18366.01
625.3	18375.51
625.655	18422.06
626.01	18392.91
626.365	18330.31
626.72	18375.28
627.075	18319.24
627.43	18347.71
627.785	18288.5
628.14	18272.46
628.495	18279.01
628.85	18306.81
629.205	18216.41
629.559	18280.59
629.914	18229.75
630.269	18198.11
630.623	18143.87
630.978	18086.02
631.332	18207.15
631.687	18267.26
632.041	18154.27
632.396	18201.05
632.75	18155.85
633.104	18195.85
633.459	18086.02
633.813	18013.26
634.167	18006.7
634.521	17964.44
634.875	17999.02
635.229	18001.96
635.583	17884.67
635.937	17878.57
636.291	17898.68
636.645	17888.51
636.999	17779.81
637.352	17913.82
637.706	17921.96
638.06	17934.61
638.413	17818.91
638.767	17767.16
639.121	17843.54
639.474	17686.71
639.828	17667.73
640.181	17649.87
640.534	17584.34
640.888	17470.22
641.241	17449.2
641.594	17447.39
641.947	17560.39
642.301	17444.46
642.654	17530.56
643.007	17615.98
643.36	17444.68
643.713	17398.58
644.066	17498.92
644.419	17451.91
644.771	17409.88
645.124	17271.58
645.477	17166.5
645.83	17067.74
646.182	16874.98
646.535	16860.29
646.888	16726.96
647.24	16639.28
647.593	16677.92
647.945	16655.1
648.298	16617.59
648.65	16576.23
649.002	16509.34
649.355	16646.74
649.707	16712.05
650.059	16788.43
650.411	16938.26
650.763	17086.95
651.115	17131.47
651.467	17161.07
651.819	17007.41
652.171	16980.74
652.523	17015.54
652.875	16857.81
653.227	16808.32
653.578	16896.22
653.93	16851.7
654.282	16721.09
654.633	16659.39
654.985	16737.81
655.337	16840.86
655.688	16768.77
656.039	16879.5
656.391	16724.48
656.742	16771.25
657.094	16769.9
657.445	16924.02
657.796	16825.49
658.147	16648.09
658.498	16634.31
658.849	16759.28
659.2	16664.82
659.551	16637.25
659.902	16557.93
660.253	16646.74
660.604	16597.02
660.955	16543.92
661.306	16517.93
661.656	16565.61
662.007	16562.67
662.358	16609.68
662.708	16606.51
663.059	16586.63
663.409	16538.72
663.76	16617.59
664.11	16545.72
664.461	16480.64
664.811	16575.55
665.161	16444.03
665.511	16393.64
665.862	16410.59
666.212	16471.37
666.562	16473.86
666.912	16313.64
667.262	16306.18
667.612	16345.95
667.962	16379.63
668.312	16323.58
668.662	16424.82
669.011	16440.19
669.361	16345.05
669.711	16338.72
670.06	16308.67
670.41	16378.95
670.76	16329.91
671.109	16441.09
671.459	16362.23
671.808	16322.9
672.157	16378.04
672.507	16327.2
672.856	16187.09
673.205	16280.42
673.554	16260.76
673.904	16224.83
674.253	16201.78
674.602	16142.57
674.951	16009.24
675.3	15840.43
675.649	16072.29
675.998	16078.84
676.346	16151.61
676.695	16175.79
677.044	16052.63
677.393	16161.1
677.741	16133.76
678.09	16098.5
678.438	16049.47
678.787	16067.77
679.135	15980.09
679.484	15903.93
679.832	15963.59
680.181	15862.8
680.529	16019.18
680.877	15937.15
681.225	15839.53
681.573	15855.57
681.922	15667.33
682.27	15791.84
682.618	15739.19
682.966	15699.64
683.314	15781.9
683.661	15636.59
684.009	15663.03
684.357	15687.21
684.705	15618.06
685.053	15711.62
685.4	15644.28
685.748	15519.76
686.095	15545.3
686.443	15530.38
686.79	15416.49
687.138	15450.84
687.485	15449.25
687.832	15348.47
688.18	15278.19
688.527	15255.81
688.874	15180.34
689.221	15215.81
689.568	15101.02
689.915	15100.34
690.262	15133.78
690.609	15067.34
690.956	14991.64
691.303	15039.55
691.65	14974.47
691.997	14955.71
692.344	14800.01
692.69	14909.61
693.037	15002.49
693.383	14861.7
693.73	14822.6
694.077	14693.79
694.423	14727.01
694.769	14660.35
695.116	14586
695.462	14563.85
695.808	14520.69
696.155	14532.44
696.501	14363.41
696.847	14346.68
697.193	14222.17
697.539	14352.56
697.885	14322.96
698.231	14190.98
698.577	14296.29
698.923	14218.55
699.269	14094.26
699.614	14110.08
699.96	14065.56
700.306	14067.14
700.651	14082.96
700.997	14015.62
701.342	13966.36
701.688	14008.16
702.033	13859.92
702.379	13769.07
702.724	13771.11
703.069	13811.56
703.415	13600.94
703.76	13612.92
704.105	13605.69
704.45	13554.84
704.795	13457.89
705.14	13435.07
705.485	13463.32
705.83	13361.85
706.175	13448.86
706.52	13373.6
706.865	13350.55
707.209	13312.14
707.554	13385.58
707.899	13408.4
708.243	13328.86
708.588	13348.07
708.932	13225.81
709.277	13245.02
709.621	13210.67
709.966	13116.21
710.31	13099.49
710.654	12960.51
710.998	12999.83
711.342	12936.55
711.687	12907.85
712.031	12749.44
712.375	12698.82
712.719	12868.98
713.063	12777.23
713.407	12768.2
713.75	12648.42
714.094	12701.3
714.438	12638.26
714.782	12774.07
715.125	12678.71
715.469	12701.98
715.812	12667.63
716.156	12687.97
716.499	12585.38
716.843	12604.58
717.186	12567.3
717.53	12621.76
717.873	12585.38
718.216	12470.35
718.559	12432.84
718.902	12341.09
719.246	12389.45
719.589	12229.23
719.932	12221.54
720.275	12142.45
720.617	12240.3
720.96	12166.63
721.303	12201.2
721.646	12184.93
721.989	12147.65
722.331	12141.55
722.674	12032.62
723.016	12153.75
723.359	12186.97
723.701	12140.42
724.044	12176.8
724.386	12013.41
724.729	12119.85
725.071	12045.05
725.413	12109.68
725.755	12005.73
726.097	11850.93
726.439	11864.26
726.782	11897.94
727.124	11931.61
727.465	11796.47
727.807	11780.65
728.149	11719.64
728.491	11677.15
728.833	11706.75
729.175	11662.69
729.516	11625.4
729.858	11697.26
730.199	11646.64
730.541	11668.56
730.882	11651.84
731.224	11653.65
731.565	11634.44
731.906	11561.22
732.248	11706.53
732.589	11588.11
732.93	11592.86
733.271	11626.53
733.612	11558.74
733.953	11593.76
734.294	11538.4
734.635	11390.15
734.976	11417.95
735.317	11345.86
735.658	11326.2
735.999	11297.73
736.339	11264.05
736.68	11290.49
737.021	11218.86
737.361	11170.27
737.702	11200.33
738.042	11290.27
738.383	11297.5
738.723	11192.64
739.063	11247.33
739.404	11270.83
739.744	11215.92
740.084	11104.96
740.424	11213.66
740.764	11140.44
741.104	11213.66
741.444	11147.67
741.784	11096.15
742.124	11177.5
742.464	11038.75
742.804	11087.56
743.143	11032.2
743.483	11003.5
743.823	10956.49
744.162	10905.42
744.502	10803.95
744.841	10820.68
745.181	10959.43
745.52	10801.02
745.86	10795.82
746.199	10770.73
746.538	10850.73
746.877	10806.89
747.216	10858.19
747.556	10813.67
747.895	10781.81
748.234	10751.3
748.573	10717.18
748.911	10742.71
749.25	10739.1
749.589	10638.31
749.928	10651.41
750.267	10692.54
750.605	10707.68
750.944	10601.25
751.283	10603.05
751.621	10521.02
751.96	10488.48
752.298	10444.19
752.636	10511.98
752.975	10413.91
753.313	10459.33
753.651	10389.95
753.989	10288.94
754.327	10249.84
754.666	10292.78
755.004	10355.83
755.342	10291.88
755.679	10252.56
756.017	10188.38
756.355	10259.79
756.693	10237.87
757.031	10238.54
757.368	10138.89
757.706	10140.69
758.044	10147.25
758.381	10142.95
758.719	10146.12
759.056	10082.39
759.394	10029.28
759.731	9919.91
760.068	9959.91
760.405	9883.07
760.743	9886.92
761.08	9829.74
761.417	9849.85
761.754	9763.08
762.091	9742.96
762.428	9708.16
762.765	9613.7
763.102	9717.2
763.438	9680.37
763.775	9575.28
764.112	9617.09
764.449	9582.52
764.785	9564.66
765.122	9541.39
765.458	9446.47
765.795	9429.3
766.131	9442.86
766.467	9420.94
766.804	9395.18
767.14	9349.08
767.476	9454.61
767.812	9354.5
768.148	9318.12
768.485	9305.01
768.821	9186.37
769.157	9191.57
769.492	9123.77
769.828	9131.23
770.164	9039.03
770.5	9032.02
770.836	8937.34
771.171	8880.16
771.507	8921.06
771.842	8827.51
772.178	8837.45
772.513	8882.65
772.849	8762.65
773.184	8761.97
773.519	8843.55
773.855	8774.18
774.19	8718.13
774.525	8715.87
774.86	8709.09
775.195	8776.66
775.53	8670.68
775.865	8586.84
776.2	8531.7
776.535	8501.41
776.87	8522.66
777.205	8445.37
777.539	8378.71
777.874	8471.13
778.209	8318.82
778.543	8259.84
778.878	8234.98
779.212	8248.77
779.547	8249.9
779.881	8237.47
780.215	8133.29
780.55	8099.17
780.884	8082.67
781.218	8068.21
781.552	8059.84
781.886	8112.95
782.22	8113.63
782.554	7989.11
782.888	7956.34
783.222	7887.42
783.556	7887.65
783.889	7850.81
784.223	7811.72
784.557	7804.94
784.89	7879.74
785.224	7820.3
785.557	7747.99
785.891	7747.99
786.224	7727.42
786.558	7725.39
786.891	7615.11
787.224	7539.86
787.557	7503.7
787.891	7493.76
788.224	7500.09
788.557	7513.87
788.89	7413.99
789.223	7418.51
789.556	7399.75
789.888	7352.29
790.221	7302.58
790.554	7245.63
790.887	7261
791.219	7253.31
791.552	7204.95
791.884	7189.36
792.217	7160.89
792.549	7152.75
792.882	7125.63
793.214	7111.85
793.546	7148.46
793.879	7085.41
794.211	7086.76
794.543	7095.8
794.875	7096.48
795.207	7093.77
795.539	7009.93
795.871	7044.05
796.203	6977.61
796.535	6885.41
796.867	6877.28
797.198	6860.1
797.53	6832.98
797.862	6802.93
798.193	6822.81
798.525	6750.05
798.856	6734.23
799.188	6648.58
799.519	6651.29
799.85	6650.39
800.182	6684.51
800.513	6640.9
800.844	6613.78
801.175	6618.07
801.506	6598.41
801.837	6613.78
802.168	6550.51
802.499	6530.62
802.83	6509.15
803.161	6513.67
803.491	6464.41
803.822	6444.29
804.153	6469.83
804.483	6432.77
804.814	6444.52
805.145	6414.46
805.475	6392.77
805.805	6388.7
806.136	6393.45
806.466	6288.37
806.796	6318.2
807.126	6293.79
807.457	6288.82
807.787	6220.34
808.117	6244.3
808.447	6150.29
808.777	6193.68
809.107	6194.13
809.436	6098.54
809.766	6134.92
810.096	6082.27
810.426	6057.86
810.755	6125.21
811.085	6070.07
811.414	6090.18
811.744	5991.2
812.073	6023.06
812.403	6013.12
812.732	5990.52
813.061	5975.15
813.39	5967.47
813.719	5986.68
814.049	6017.41
814.378	5940.8
814.707	5935.61
815.036	5953.91
815.365	5895.16
815.693	5894.7
816.022	5853.35
816.351	5839.79
816.68	5833.24
817.008	5758.89
817.337	5731.54
817.665	5710.53
817.994	5752.33
818.322	5724.99
818.651	5730.19
818.979	5701.26
819.307	5713.69
819.636	5686.35
819.964	5680.92
820.292	5649.96
820.62	5629.63
820.948	5654.26
821.276	5687.25
821.604	5636.41
821.932	5642.28
822.259	5703.07
822.587	5732.22
822.915	5651.09
823.243	5677.76
823.57	5620.36
823.898	5643.18
824.225	5654.48
824.553	5693.58
824.88	5694.03
825.207	5675.5
825.535	5671.88
825.862	5676.86
826.189	5592.56
826.516	5667.14
826.843	5643.64
827.17	5652.68
827.497	5669.85
827.824	5658.78
828.151	5657.65
828.478	5647.48
828.805	5626.46
829.131	5628.95
829.458	5627.37
829.785	5572.68
830.111	5591.43
830.438	5626.91
830.764	5625.78
831.09	5567.48
831.417	5551.21
831.743	5640.02
832.069	5597.76
832.395	5581.04
832.722	5620.59
833.048	5663.98
833.374	5570.19
833.7	5578.33
834.026	5601.83
834.351	5596.63
834.677	5542.4
835.003	5587.37
835.329	5552.34
835.654	5574.26
835.98	5529.06
836.306	5560.7
836.631	5524.54
836.956	5570.87
837.282	5556.86
837.607	5514.37
837.932	5530.42
838.258	5525.67
838.583	5500.14
838.908	5415.17
839.233	5448.84
839.558	5463.75
839.883	5365.68
840.208	5355.96
840.533	5396.86
840.858	5408.39
841.182	5417.88
841.507	5393.93
841.832	5387.15
842.156	5354.38
842.481	5358.45
842.805	5313.93
843.13	5296.98
843.454	5266.92
843.778	5277.54
844.103	5255.62
844.427	5239.81
844.751	5253.36
845.075	5234.83
845.399	5209.3
845.723	5221.73
846.047	5214.27
846.371	5155.51
846.695	5180.6
847.019	5141.28
847.343	5097.89
847.666	5108.96
847.99	5120.49
848.313	5098.57
848.637	5065.35
848.96	5014.05
849.284	5021.51
849.607	5009.3
849.931	4984.67
850.254	4894.28
850.577	4969.53
850.9	4885.92
851.223	4899.48
851.546	4863.54
851.869	4848.4
852.192	4876.2
852.515	4796.88
852.838	4790.33
853.161	4781.51
853.483	4737.9
853.806	4780.38
854.129	4723.21
854.451	4700.61
854.774	4663.1
855.096	4658.35
855.419	4684.79
855.741	4647.73
856.063	4604.79
856.385	4644.12
856.708	4588.3
857.03	4564.34
857.352	4613.83
857.674	4608.18
857.996	4578.13
858.318	4530.22
858.64	4566.38
858.961	4517.79
859.283	4560.05
859.605	4503.55
859.926	4521.63
860.248	4511.24
860.57	4513.05
860.891	4506.94
861.212	4518.24
861.534	4503.55
861.855	4466.94
862.176	4485.93
862.498	4398.02
862.819	4418.36
863.14	4429.88
863.461	4425.59
863.782	4390.56
864.103	4384.24
864.424	4365.03
864.745	4395.31
865.065	4350.34
865.386	4361.86
865.707	4339.04
866.027	4348.53
866.348	4350.56
866.668	4301.75
866.989	4293.39
867.309	4248.87
867.63	4278.25
867.95	4313.73
868.27	4282.99
868.59	4302.66
868.91	4274.41
869.23	4281.64
869.55	4252.26
869.87	4256.33
870.19	4289.1
870.51	4264.24
870.83	4287.06
871.15	4252.04
871.469	4233.05
871.789	4243.22
872.109	4254.75
872.428	4223.11
872.748	4211.13
873.067	4232.6
873.386	4226.27
873.706	4222.43
874.025	4207.29
874.344	4221.3
874.663	4137.69
874.982	4205.93
875.301	4185.82
875.62	4128.2
875.939	4169.78
876.258	4133.62
876.577	4095.43
876.896	4069.89
877.214	4078.71
877.533	4084.13
877.852	4075.77
878.17	4081.64
878.489	4074.41
878.807	4047.75
879.125	4027.41
879.444	4027.86
879.762	4010.23
880.08	4050.91
880.398	4034.19
880.716	4037.8
881.034	3998.03
881.352	4028.76
881.67	3974.75
881.988	3989.44
882.306	4000.97
882.624	4009.78
882.941	4003.45
883.259	3969.78
883.577	3927.75
883.894	3945.6
884.212	4005.94
884.529	3945.6
884.846	3977.69
885.164	3889.33
885.481	3955.77
885.798	3918.48
886.115	3848.43
886.432	3922.55
886.75	3902.67
887.067	3887.75
887.383	3860.18
887.7	3847.07
888.017	3827.19
888.334	3822.22
888.651	3839.62
888.967	3818.6
889.284	3787.64
889.6	3768.66
889.917	3793.29
890.233	3746.29
890.55	3758.26
890.866	3766.62
891.182	3757.58
891.498	3725.72
891.815	3679.39
892.131	3658.6
892.447	3678.72
892.763	3656.8
893.079	3646.18
893.395	3623.58
893.71	3670.81
894.026	3620.64
894.342	3641.88
894.657	3605.27
894.973	3603.46
895.289	3578.15
895.604	3631.71
895.92	3607.53
896.235	3582
896.55	3598.94
896.865	3580.87
897.181	3544.94
897.496	3540.64
897.811	3514.88
898.126	3522.11
898.441	3510.36
898.756	3511.26
899.071	3494.99
899.386	3520.75
899.7	3466.07
900.015	3487.54
900.33	3444.82
900.644	3435.79
900.959	3437.37
901.273	3387.2
901.588	3402.79
901.902	3393.75
902.216	3370.25
902.531	3359.63
902.845	3366.63
903.159	3331.61
903.473	3333.87
903.787	3313.75
904.101	3246.41
904.415	3292.06
904.729	3269.01
905.042	3257.48
905.356	3240.54
905.67	3261.33
905.984	3214.77
906.297	3236.02
906.611	3182.23
906.924	3211.84
907.237	3191.72
907.551	3186.75
907.864	3181.78
908.177	3157.15
908.491	3188.11
908.804	3112.86
909.117	3153.53
909.43	3112.4
909.743	3123.93
910.056	3127.77
910.368	3080.99
910.681	3099.07
910.994	3104.27
911.307	3076.7
911.619	3087.32
911.932	3100.65
912.244	3037.15
912.557	3052.97
912.869	3032.41
913.181	3025.4
913.494	2992.41
913.806	2991.28
914.118	2942.69
914.43	2926.87
914.742	2976.36
915.054	2886.87
915.366	2872.18
915.678	2894.1
915.99	2873.54
916.302	2833.54
916.613	2819.53
916.925	2842.35
917.236	2843.48
917.548	2824.28
917.859	2814.78
918.171	2819.08
918.482	2812.98
918.794	2776.82
919.105	2803.71
919.416	2761.45
919.727	2765.52
920.038	2793.09
920.349	2735.24
920.66	2732.08
920.971	2723.49
921.282	2714
921.593	2731.17
921.903	2711.06
922.214	2668.8
922.525	2669.7
922.835	2623.38
923.146	2664.05
923.456	2629.03
923.767	2646.2
924.077	2650.27
924.387	2638.29
924.697	2601.46
925.008	2620.89
925.318	2600.55
925.628	2550.84
925.938	2588.8
926.248	2570.27
926.558	2519.65
926.867	2544.28
927.177	2546.32
927.487	2515.58
927.796	2511.97
928.106	2507.9
928.416	2477.17
928.725	2491.4
929.034	2450.95
929.344	2501.57
929.653	2431.97
929.962	2415.47
930.271	2427
930.581	2409.6
930.89	2368.92
931.199	2386.55
931.508	2366.89
931.817	2360.56
932.125	2343.61
932.434	2321.24
932.743	2336.15
933.051	2278.3
933.36	2361.46
933.669	2279.88
933.977	2323.95
934.286	2289.15
934.594	2279.88
934.902	2282.82
935.21	2279.66
935.519	2266.32
935.827	2251.18
936.135	2235.36
936.443	2269.04
936.751	2226.1
937.059	2243.5
937.367	2248.7
937.674	2225.42
937.982	2204.86
938.29	2197.63
938.597	2246.89
938.905	2142.26
939.213	2148.59
939.52	2156.27
939.827	2167.8
940.135	2125.99
940.442	2123.05
940.749	2104.29
941.056	2134.12
941.363	2136.38
941.67	2136.84
941.977	2117.85
942.284	2090.28
942.591	2095.26
942.898	2066.33
943.205	2084.86
943.511	2054.35
943.818	2027.01
944.125	2053.22
944.431	2024.52
944.738	2056.61
945.044	1993.56
945.35	2003.28
945.657	2017.29
945.963	2019.1
946.269	1997.86
946.575	2002.83
946.881	1954.24
947.187	1958.54
947.493	1974.35
947.799	1936.16
948.105	1928.25
948.41	1919.44
948.716	1934.36
949.022	1931.64
949.327	1910.4
949.633	1906.33
949.938	1922.6
950.244	1907.92
950.549	1893.23
950.854	1875.6
951.16	1878.31
951.465	1898.42
951.77	1869.72
952.075	1868.37
952.38	1848.48
952.685	1853.68
952.99	1833.57
953.294	1855.71
953.599	1815.71
953.904	1818.2
954.209	1773.91
954.513	1804.19
954.818	1814.59
955.122	1791.31
955.426	1769.84
955.731	1763.29
956.035	1774.81
956.339	1774.81
956.643	1749.05
956.948	1751.99
957.252	1773.46
957.556	1740.91
957.86	1724.87
958.163	1674.7
958.467	1688.94
958.771	1697.53
959.075	1734.81
959.378	1682.39
959.682	1669.5
959.985	1691.65
960.289	1688.03
960.592	1669.96
960.896	1655.49
961.199	1633.57
961.502	1640.13
961.805	1627.7
962.108	1636.51
962.411	1633.57
962.714	1595.61
963.017	1625.66
963.32	1587.02
963.623	1597.87
963.926	1615.27
964.228	1589.96
964.531	1578.66
964.833	1595.61
965.136	1579.56
965.438	1575.27
965.741	1555.16
966.043	1556.29
966.345	1543.41
966.648	1553.57
966.95	1555.38
967.252	1534.37
967.554	1542.5
967.856	1519.68
968.158	1486.91
968.46	1503.41
968.761	1497.53
969.063	1482.62
969.365	1501.82
969.666	1500.47
969.968	1483.75
970.269	1494.59
970.571	1488.27
970.872	1480.81
971.174	1464.54
971.475	1464.99
971.776	1458.89
972.077	1442.39
972.378	1461.83
972.679	1445.56
972.98	1442.84
973.281	1411.66
973.582	1426.35
973.883	1416.4
974.183	1404.88
974.484	1401.49
974.785	1373.47
975.085	1418.44
975.386	1420.92
975.686	1393.58
975.986	1382.28
976.287	1398.1
976.587	1341.6
976.887	1356.74
977.187	1351.77
977.487	1343.41
977.787	1356.07
978.087	1359.68
978.387	1332.56
978.687	1328.72
978.987	1291.21
979.286	1309.97
979.586	1318.33
979.885	1316.07
980.185	1275.62
980.484	1281.04
980.784	1276.29
981.083	1290.76
981.382	1267.71
981.682	1295.73
981.981	1240.59
982.28	1267.48
982.579	1264.54
982.878	1246.24
983.177	1269.51
983.475	1264.32
983.774	1248.05
984.073	1254.15
984.372	1242.17
984.67	1287.82
984.969	1262.74
985.267	1251.66
985.566	1238.56
985.864	1230.19
986.162	1218.89
986.461	1220.25
986.759	1210.31
987.057	1206.01
987.355	1175.05
987.653	1212.34
987.951	1189.29
988.249	1222.06
988.547	1195.39
988.844	1183.87
989.142	1170.99
989.44	1185.22
989.737	1147.71
990.035	1159.46
990.332	1152.46
990.63	1159.24
990.927	1129.86
991.224	1134.38
991.521	1152.91
991.819	1112.68
992.116	1133.47
992.413	1116.75
992.71	1130.08
993.006	1120.14
993.303	1103.64
993.6	1089.41
993.897	1090.08
994.193	1102.97
994.49	1095.51
994.787	1072.46
995.083	1094.83
995.379	1053.48
995.676	1070.65
995.972	1051.44
996.268	1066.58
996.565	1064.55
996.861	1061.38
997.157	1040.59
997.453	1027.04
997.749	1005.57
998.044	1021.84
998.34	1017.32
998.636	1022.29
998.932	1029.07
999.227	1012.12
999.523	1015.74
999.818	996.53
1000.114	1030.88
1000.409	1019.8
1000.704	1003.53
1001	1016.64
1001.295	1015.51
1001.59	1010.54
1001.885	1003.76
1002.18	979.8
1002.475	985.68
1002.77	959.47
1003.065	972.35
1003.359	962.63
1003.654	957.88
1003.949	947.72
1004.243	949.3
1004.538	966.02
1004.832	963.76
1005.127	941.39
1005.421	953.59
1005.715	926.25
1006.009	937.09
1006.304	914.27
1006.598	951.1
1006.892	902.52
1007.186	885.57
1007.48	912.24
1007.773	911.78
1008.067	914.04
1008.361	898.22
1008.655	893.48
1008.948	906.13
1009.242	895.74
1009.535	880.6
1009.829	860.49
1010.122	889.64
1010.415	864.33
1010.708	852.58
1011.001	856.87
1011.295	870.66
1011.588	854.84
1011.881	845.8
1012.173	836.53
1012.466	839.47
1012.759	854.61
1013.052	824.78
1013.344	855.29
1013.637	844.89
1013.93	822.52
1014.222	822.75
1014.514	829.75
1014.807	818.45
1015.099	814.16
1015.391	834.05
1015.683	827.72
1015.976	827.27
1016.268	779.58
1016.56	817.32
1016.851	807.15
1017.143	787.04
1017.435	768.51
1017.727	797.66
1018.018	810.32
1018.31	776.19
1018.602	790.66
1018.893	783.65
1019.185	787.04
1019.476	785.46
1019.767	770.54
1020.058	754.95
1020.35	755.63
1020.641	743.43
1020.932	762.64
1021.223	757.44
1021.514	753.37
1021.804	735.52
1022.095	717.44
1022.386	709.98
1022.677	713.82
1022.967	731.68
1023.258	697.55
1023.548	717.89
1023.839	723.99
1024.129	682.41
1024.419	698.46
1024.709	695.07
1025	689.87
1025.29	678.34
1025.58	685.12
1025.87	667.27
1026.16	676.99
1026.449	680.15
1026.739	671.11
1027.029	654.84
1027.319	673.82
1027.608	648.51
1027.898	659.36
1028.187	665.24
1028.477	657.78
1028.766	641.73
1029.055	648.97
1029.344	645.58
1029.634	650.1
1029.923	648.06
1030.212	631.34
1030.501	643.77
1030.79	647.16
1031.078	619.14
1031.367	624.79
1031.656	642.86
1031.945	616.88
1032.233	613.26
1032.522	638.12
1032.81	615.52
1033.099	608.97
1033.387	613.26
1033.675	617.33
1033.963	613.26
1034.251	612.81
1034.54	613.71
1034.828	598.12
1035.116	592.92
1035.403	607.84
1035.691	590.21
1035.979	588.18
1036.267	577.56
1036.554	586.37
1036.842	587.95
1037.129	578.91
1037.417	598.8
1037.704	577.1
1037.992	581.85
1038.279	565.35
1038.566	561.96
1038.853	561.96
1039.14	561.96
