Data from foam_black_FLMS001491_00008.txt Node
Date: Wed Feb 08 10:43:26 GMT 2017
User: dcchb
Spectrometer: FLMS00149
Trigger mode: 0
Integration Time (sec): 2.000000E-2
Scans to average: 10
Electric dark correction enabled: true
Nonlinearity correction enabled: false
Boxcar width: 0
XAxis mode: Wavelengths
Number of Pixels in Spectrum: 2048
>>>>>Begin Spectral Data<<<<<
341.393	-6.55
341.776	-6.55
342.16	-6.55
342.543	-34.35
342.927	-66.66
343.31	-59.89
343.693	-60.79
344.077	-78.87
344.46	-63.95
344.843	-49.49
345.226	-24.86
345.61	-30.06
345.993	-7.23
346.376	-14.24
346.759	-1.58
347.142	29.38
347.525	36.61
347.908	67.79
348.291	72.77
348.674	89.04
349.057	95.36
349.44	128.36
349.823	138.08
350.206	151.41
350.588	186.21
350.971	225.76
351.354	232.99
351.737	225.53
352.119	269.15
352.502	273.89
352.884	285.64
353.267	271.18
353.65	281.8
354.032	299.65
354.414	321.57
354.797	329.26
355.179	327.22
355.562	323.61
355.944	324.29
356.326	342.82
356.709	335.36
357.091	352.53
357.473	341.69
357.855	335.36
358.238	327
358.62	352.53
359.002	340.78
359.384	337.17
359.766	341.46
360.148	365.64
360.53	347.56
360.912	360.89
361.294	342.14
361.676	351.4
362.057	352.76
362.439	334.45
362.821	341.01
363.203	336.26
363.584	338.07
363.966	336.94
364.348	330.84
364.729	338.3
365.111	329.03
365.493	321.12
365.874	335.13
366.256	324.96
366.637	344.62
367.019	325.42
367.4	354.34
367.781	325.64
368.163	321.57
368.544	354.34
368.925	336.26
369.306	336.71
369.688	348.47
370.069	336.04
370.45	325.87
370.831	338.52
371.212	337.17
371.593	336.04
371.974	346.21
372.355	335.36
372.736	349.37
373.117	351.86
373.498	344.62
373.879	329.26
374.26	330.84
374.641	335.36
375.021	343.95
375.402	340.56
375.783	369.26
376.163	345.75
376.544	374.45
376.925	367
377.305	352.31
377.686	380.78
378.066	355.24
378.447	352.31
378.827	373.78
379.208	370.16
379.588	377.17
379.968	382.59
380.349	358.86
380.729	368.35
381.109	377.17
381.489	367.67
381.87	398.41
382.25	388.92
382.63	403.83
383.01	398.41
383.39	376.26
383.77	383.49
384.15	399.54
384.53	402.7
384.91	404.96
385.29	402.25
385.67	383.94
386.049	418.52
386.429	404.51
386.809	396.83
387.189	388.01
387.568	404.96
387.948	416.71
388.328	410.61
388.707	412.19
389.087	434.56
389.466	429.37
389.846	424.62
390.225	418.29
390.605	423.49
390.984	418.97
391.363	420.33
391.743	434.34
392.122	454.23
392.501	457.62
392.881	468.46
393.26	454.45
393.639	456.03
394.018	488.8
394.397	466.88
394.776	478.18
395.155	490.16
395.534	449.93
395.913	474.11
396.292	485.41
396.671	487.67
397.05	490.38
397.429	485.18
397.808	476.6
398.186	510.95
398.565	498.97
398.944	482.7
399.323	517.73
399.701	513.66
400.08	512.98
400.458	507.11
400.837	514.11
401.215	517.27
401.594	524.51
401.972	504.17
402.351	519.31
402.729	530.83
403.107	532.87
403.486	534.68
403.864	534
404.242	535.13
404.62	540.32
404.999	577.84
405.377	540.55
405.755	564.28
406.133	571.96
406.511	570.61
406.889	591.85
407.267	588.23
407.645	589.36
408.023	557.95
408.401	598.4
408.779	608.12
409.156	626.88
409.534	614
409.912	613.54
410.29	631.85
410.667	628.91
411.045	655.35
411.422	651.96
411.8	638.18
412.178	633.66
412.555	652.64
412.933	652.86
413.31	667.55
413.687	692.86
414.065	668.46
414.442	679.3
414.819	707.1
415.197	712.3
415.574	721.79
415.951	724.27
416.328	710.04
416.705	731.51
417.082	736.03
417.46	741
417.837	755.91
418.214	763.37
418.591	735.8
418.967	724.95
419.344	753.2
419.721	759.08
420.098	776.25
420.475	768.34
420.852	801.11
421.228	810.6
421.605	760.66
421.982	797.72
422.358	805.63
422.735	795.91
423.111	807.89
423.488	832.07
423.864	849.7
424.241	838.4
424.617	825.74
424.994	835.91
425.37	839.75
425.746	856.25
426.123	864.61
426.499	877.94
426.875	895.12
427.251	900.99
427.627	936.7
428.003	909.13
428.379	911.39
428.756	944.83
429.132	943.25
429.507	959.07
429.883	963.59
430.259	984.15
430.635	967.66
431.011	967.66
431.387	1023.02
431.763	1033.42
432.138	1019.18
432.514	1029.8
432.89	1025.96
433.265	1038.84
433.641	1072.06
434.016	1087.2
434.392	1070.48
434.767	1099.41
435.143	1073.42
435.518	1102.57
435.894	1110.48
436.269	1142.12
436.644	1147.09
437.02	1165.17
437.395	1141.44
437.77	1144.6
438.145	1181.66
438.52	1190.25
438.895	1202.68
439.271	1209.91
439.646	1220.31
440.021	1239.06
440.395	1251.49
440.77	1231.15
441.145	1249.91
441.52	1229.12
441.895	1289.68
442.27	1282.9
442.645	1251.04
443.019	1309.12
443.394	1296.46
443.769	1303.47
444.143	1326.29
444.518	1325.61
444.892	1363.81
445.267	1322
445.641	1376.91
446.016	1387.31
446.39	1400.42
446.764	1345.5
447.139	1390.02
447.513	1391.38
447.887	1397.7
448.262	1419.4
448.636	1425.5
449.01	1420.98
449.384	1465.27
449.758	1463.69
450.132	1467.76
450.506	1450.81
450.88	1493.07
451.254	1474.31
451.628	1499.62
452.002	1505.05
452.376	1496.91
452.75	1548.66
453.123	1527.87
453.497	1558.15
453.871	1575.33
454.244	1630.24
454.618	1584.82
454.992	1651.71
455.365	1629.34
455.739	1653.74
456.112	1654.42
456.486	1691.71
456.859	1703.23
457.232	1734.42
457.606	1709.11
457.979	1751.59
458.352	1799.5
458.725	1815.55
459.099	1837.24
459.472	1875.43
459.845	1860.29
460.218	1861.42
460.591	1910.46
460.964	1880.85
461.337	1942.32
461.71	1964.92
462.083	2000.85
462.456	2011.92
462.829	2022.55
463.201	2070.45
463.574	2042.43
463.947	2070.23
464.32	2151.36
464.692	2131.47
465.065	2175.99
465.438	2147.74
465.81	2188.19
466.183	2235.87
466.555	2275.65
466.928	2287.17
467.3	2271.35
467.672	2301.86
468.045	2368.3
468.417	2390.67
468.789	2382.99
469.161	2397.9
469.534	2407.17
469.906	2494.17
470.278	2509.09
470.65	2568.07
471.022	2604.45
471.394	2643.09
471.766	2627.05
472.138	2663.66
472.51	2668.4
472.882	2734.39
473.253	2764.22
473.625	2851
473.997	2870.21
474.369	2871.56
474.74	2938.68
475.112	2973.93
475.484	3032.91
475.855	3072.46
476.227	3094.38
476.598	3128.96
476.97	3173.48
477.341	3239.46
477.713	3290.99
478.084	3302.51
478.455	3399.68
478.827	3457.99
479.198	3504.99
479.569	3488.95
479.94	3635.84
480.311	3648.27
480.682	3757.19
481.053	3810.3
481.424	3893
481.795	3898.65
482.166	3968.94
482.537	4005.54
482.908	4112.43
483.279	4113.11
483.65	4165.77
484.021	4270.62
484.391	4302.94
484.762	4347.68
485.133	4355.37
485.503	4437.85
485.874	4556.49
486.244	4571.86
486.615	4620.22
486.985	4677.17
487.356	4699.09
487.726	4850.72
488.097	4871.06
488.467	4947.67
488.837	4977.72
489.207	5071.05
489.578	5121.9
489.948	5131.16
490.318	5265.4
490.688	5256.36
491.058	5305.62
491.428	5404.15
491.798	5400.31
492.168	5565.96
492.538	5584.94
492.908	5643.92
493.278	5731.6
493.648	5669.23
494.017	5748.1
494.387	5794.2
494.757	5835.55
495.126	5939.28
495.496	5998.26
495.866	6067.64
496.235	6040.97
496.605	6087.07
496.974	6110.12
497.344	6218.37
497.713	6204.81
498.082	6270.8
498.452	6374.07
498.821	6358.02
499.19	6324.81
499.559	6420.17
499.928	6529.32
500.298	6517.79
500.667	6583.33
501.036	6615.87
501.405	6662.65
501.774	6724.12
502.143	6752.14
502.512	6806.37
502.88	6839.59
503.249	6914.17
503.618	6998.91
503.987	6942.42
504.356	7054.28
504.724	7105.12
505.093	7101.73
505.462	7126.37
505.83	7160.72
506.199	7179.7
506.567	7301.73
506.936	7282.52
507.304	7492.91
507.672	7445.68
508.041	7484.55
508.409	7553.7
508.777	7621.95
509.145	7625.34
509.514	7655.17
509.882	7749.17
510.25	7790.76
510.618	7781.04
510.986	7825.1
511.354	7970.64
511.722	7985.33
512.09	8082.73
512.458	8068.49
512.826	8060.81
513.193	8227.81
513.561	8182.61
513.929	8229.84
514.297	8365.2
514.664	8395.26
515.032	8442.04
515.4	8470.74
515.767	8566.78
516.135	8600.45
516.502	8525.2
516.869	8808.36
517.237	8762.48
517.604	8754.35
517.972	8814.01
518.339	8963.83
518.706	8956.37
519.073	8991.85
519.44	9115.69
519.808	9196.14
520.175	9202.02
520.542	9337.83
520.909	9446.98
521.276	9328.57
521.643	9537.15
522.009	9558.62
522.376	9602.46
522.743	9740.08
523.11	9773.53
523.477	9854.43
523.843	9959.29
524.21	10032.05
524.577	10092.16
524.943	10242.22
525.31	10184.36
525.676	10225.27
526.043	10383.68
526.409	10377.81
526.776	10551.59
527.142	10553.17
527.508	10657.35
527.874	10663
528.241	10768.98
528.607	10892.59
528.973	10923.55
529.339	10981.41
529.705	11126.04
530.071	11173.04
530.437	11159.03
530.803	11262.53
531.169	11265.01
531.535	11323.77
531.901	11397.21
532.267	11425.69
532.632	11524.22
532.998	11578.9
533.364	11594.27
533.73	11692.57
534.095	11808.5
534.461	11848.28
534.826	11862.74
535.192	11959.01
535.557	11989.97
535.923	11983.19
536.288	12055.05
536.653	12172.56
537.019	12139.57
537.384	12219.79
537.749	12293.69
538.114	12249.17
538.479	12337.75
538.845	12455.27
539.21	12352.9
539.575	12495.72
539.94	12489.62
540.305	12700.01
540.67	12626.79
541.034	12668.14
541.399	12740
541.764	12718.54
542.129	12803.28
542.494	12835.82
542.858	12988.36
543.223	12992.2
543.587	13121.69
543.952	13022.71
544.316	13114.91
544.681	13110.16
545.045	13213.66
545.41	13213.89
545.774	13362.36
546.138	13303.38
546.503	13323.94
546.867	13408.24
547.231	13475.13
547.595	13587.21
547.959	13483.49
548.324	13562.13
548.688	13632.18
549.052	13708.11
549.416	13665.86
549.779	13724.84
550.143	13824.72
550.507	13920.54
550.871	13994.21
551.235	14005.51
551.599	14049.57
551.962	14100.42
552.326	14263.81
552.689	14165.28
553.053	14200.53
553.417	14283.01
553.78	14471.48
554.143	14393.97
554.507	14477.13
554.87	14561.65
555.234	14708.77
555.597	14565.27
555.96	14638.94
556.323	14750.57
556.686	14750.57
557.05	14974.52
557.413	14969.78
557.776	14964.13
558.139	15123.22
558.502	15122.09
558.865	15314.4
559.228	15313.5
559.59	15420.84
559.953	15401.63
560.316	15565.01
560.679	15588.29
561.041	15703.77
561.404	15760.26
561.767	15865.12
562.129	15887.49
562.492	15971.78
562.854	16041.39
563.217	15969.52
563.579	16105.79
563.941	16188.05
564.304	16288.16
564.666	16396.86
565.028	16375.39
565.39	16465.1
565.753	16611.77
566.115	16634.59
566.477	16710.97
566.839	16873.23
567.201	16910.74
567.563	16847.47
567.925	16998.88
568.287	17060.57
568.648	17067.35
569.01	17120.68
569.372	17274.12
569.734	17305.53
570.095	17353.89
570.457	17417.4
570.819	17486.55
571.18	17487.22
571.542	17510.73
571.903	17621.46
572.265	17709.82
572.626	17696.71
572.987	17824.84
573.349	17823.49
573.71	17879.53
574.071	17994.78
574.432	18011.28
574.794	18044.95
575.155	18089.02
575.516	18119.3
575.877	18151.39
576.238	18189.58
576.599	18271.84
576.96	18235.23
577.32	18243.36
577.681	18414.88
578.042	18440.65
578.403	18332.17
578.763	18405.62
579.124	18507.54
579.485	18573.3
579.845	18623.01
580.206	18498.72
580.566	18573.3
580.927	18546.4
581.287	18565.16
581.648	18510.47
582.008	18697.36
582.368	18648.78
582.728	18689.23
583.089	18673.63
583.449	18578.49
583.809	18625.27
584.169	18754.54
584.529	18580.98
584.889	18816
585.249	18666.63
585.609	18730.58
585.969	18802.44
586.329	18746.4
586.688	18814.65
587.048	18777.36
587.408	18700.75
587.768	18737.59
588.127	18794.31
588.487	18633.63
588.846	18813.74
589.206	18772.39
589.565	18844.7
589.925	19032.27
590.284	18861.42
590.643	18884.7
591.003	18982.78
591.362	18980.97
591.721	19026.62
592.08	18997.01
592.44	19073.62
592.799	19072.04
593.158	19129.67
593.517	19062.1
593.876	19013.74
594.235	19074.07
594.593	19102.32
594.952	19240.4
595.311	19149.78
595.67	19126.5
596.029	19271.13
596.387	19230.45
596.746	19314.97
597.104	19211.92
597.463	19271.36
597.822	19267.52
598.18	19267.29
598.538	19316.33
598.897	19395.42
599.255	19232.71
599.613	19454.86
599.972	19403.56
600.33	19537.11
600.688	19471.8
601.046	19560.84
601.404	19515.19
601.762	19536.66
602.12	19513.61
602.478	19612.14
602.836	19544.57
603.194	19544.57
603.552	19647.62
603.91	19500.5
604.268	19702.76
604.625	19603.1
604.983	19693.95
605.341	19517
605.698	19715.64
606.056	19762.87
606.413	19680.16
606.771	19788.86
607.128	19799.93
607.485	19609.65
607.843	19647.39
608.2	19833.38
608.557	19869.99
608.914	19765.36
609.272	19840.61
609.629	19893.49
609.986	19951.34
610.343	19865.01
610.7	19952.7
611.057	19954.96
611.414	19934.62
611.771	20056.65
612.127	19962.41
612.484	19960.38
612.841	20013.94
613.198	19966.03
613.554	19830.89
613.911	20044.9
614.267	20052.35
614.624	20017.55
614.98	19971
615.337	20111.11
615.693	20048.29
616.05	20070.88
616.406	20194.27
616.762	20025.69
617.118	20147.72
617.475	20225
617.831	20152.01
618.187	20163.99
618.543	20129.19
618.899	20214.61
619.255	20235.4
619.611	20170.32
619.967	20260.48
620.323	20354.72
620.678	20199.02
621.034	20123.76
621.39	20172.35
621.746	20153.37
622.101	20406.24
622.457	20136.87
622.812	20180.94
623.168	20323.53
623.523	20232.69
623.879	20240.82
624.234	20118.34
624.589	20211.9
624.945	20236.76
625.3	20356.07
625.655	20187.27
626.01	20196.08
626.365	20192.01
626.72	20167.38
627.075	20035.18
627.43	20158.11
627.785	20194.05
628.14	20074.05
628.495	20204.44
628.85	20138
629.205	20094.61
629.559	20202.86
629.914	20096.65
630.269	20143.88
630.623	20154.05
630.978	20040.15
631.332	20193.82
631.687	20129.87
632.041	20054.61
632.396	20093.93
632.75	19990.43
633.104	19903.21
633.459	19914.28
633.813	19854.39
634.167	19834.05
634.521	19886.48
634.875	19926.71
635.229	19767.62
635.583	19805.13
635.937	19766.26
636.291	19715.41
636.645	19782.08
636.999	19759.25
637.352	19706.83
637.706	19611.46
638.06	19623.44
638.413	19697.56
638.767	19661.4
639.121	19747.05
639.474	19575.3
639.828	19672.25
640.181	19571.01
640.534	19495.76
640.888	19539.37
641.241	19516.55
641.594	19595.87
641.947	19634.29
642.301	19516.1
642.654	19617.56
643.007	19517.23
643.36	19503.22
643.713	19472.48
644.066	19586.6
644.419	19416.89
644.771	19411.24
645.124	19081.98
645.477	19054.64
645.83	18926.28
646.182	18889.22
646.535	18844.48
646.888	18914.08
647.24	18793.4
647.593	19015.55
647.945	18869.79
648.298	18882.67
648.65	18766.96
649.002	18737.36
649.355	18868.88
649.707	18760.18
650.059	18798.6
650.411	19101.87
650.763	19112.27
651.115	19394.52
651.467	19195.88
651.819	19253.51
652.171	19177.8
652.523	19208.31
652.875	19223.68
653.227	19024.81
653.578	19135.32
653.93	19060.97
654.282	18922.44
654.633	19084.24
654.985	19044.92
655.337	19073.62
655.688	19016.9
656.039	19148.2
656.391	18912.5
656.742	19039.95
657.094	18939.84
657.445	18971.25
657.796	18949.78
658.147	18961.08
658.498	18972.61
658.849	19011.25
659.2	18881.31
659.551	18809.22
659.902	18921.76
660.253	18843.12
660.604	18863.68
660.955	18805.16
661.306	18856.23
661.656	18847.87
662.007	18827.75
662.358	18802.67
662.708	18723.8
663.059	18684.93
663.409	18574.43
663.76	18764.48
664.11	18702.56
664.461	18639.96
664.811	18736.23
665.161	18680.64
665.511	18657.81
665.862	18648.1
666.212	18734.87
666.562	18581.66
666.912	18634.31
667.262	18680.86
667.612	18641.32
667.962	18612.17
668.312	18517.25
668.662	18507.54
669.011	18479.06
669.361	18498.5
669.711	18479.06
670.06	18323.36
670.41	18277.71
670.76	18352.51
671.109	18423.02
671.459	18394.54
671.808	18332.17
672.157	18339.4
672.507	18260.54
672.856	18270.48
673.205	18295.79
673.554	18221.89
673.904	18208.33
674.253	18279.07
674.602	18100.09
674.951	17936.03
675.3	17940.77
675.649	18170.37
675.998	18080.88
676.346	18034.78
676.695	18122.24
677.044	18017.38
677.393	18052.86
677.741	17939.19
678.09	17901.68
678.438	17971.5
678.787	17868.68
679.135	17980.32
679.484	17933.54
679.832	17889.7
680.181	17742.13
680.529	17826.2
680.877	17721.79
681.225	17764.28
681.573	17857.84
681.922	17670.5
682.27	17649.93
682.618	17627.33
682.966	17598.86
683.314	17738.06
683.661	17565.41
684.009	17454
684.357	17463.27
684.705	17360.22
685.053	17427.34
685.4	17356.38
685.748	17257.4
686.095	17361.35
686.443	17268.7
686.79	17231.19
687.138	17253.33
687.485	17202.94
687.832	17262.37
688.18	17254.91
688.527	17174.92
688.874	17201.81
689.221	17079.78
689.568	17063.28
689.915	16928.82
690.262	17040.91
690.609	17014.02
690.956	17011.98
691.303	16851.08
691.65	16804.76
691.997	16823.06
692.344	16828.03
692.69	16809.5
693.037	16688.15
693.383	16613.12
693.73	16607.47
694.077	16493.13
694.423	16527.93
694.769	16485.44
695.116	16454.03
695.462	16408.61
695.808	16466.23
696.155	16386.91
696.501	16324.54
696.847	16315.28
697.193	16213.81
697.539	16230.99
697.885	16183.98
698.231	16112.12
698.577	16090.42
698.923	16095.4
699.269	16056.08
699.614	16049.75
699.96	16022.63
700.306	16068.96
700.651	15867.38
700.997	15836.19
701.342	15815.18
701.688	15823.54
702.033	15706.48
702.379	15755.97
702.724	15732.69
703.069	15746.93
703.415	15505.81
703.76	15572.25
704.105	15510.1
704.45	15460.84
704.795	15468.97
705.14	15385.81
705.485	15405.92
705.83	15337.9
706.175	15329.31
706.52	15209.09
706.865	15151.69
707.209	15214.97
707.554	15112.82
707.899	15236.44
708.243	15123.9
708.588	15133.84
708.932	15027.63
709.277	15026.95
709.621	14988.53
709.966	14860.17
710.31	14890.46
710.654	14841.42
710.998	14838.25
711.342	14906.27
711.687	14750.8
712.031	14764.13
712.375	14722.1
712.719	14707.41
713.063	14676
713.407	14830.8
713.75	14636.9
714.094	14644.81
714.438	14515.32
714.782	14678.94
715.125	14526.62
715.469	14618.15
715.812	14393.97
716.156	14312.62
716.499	14356.68
716.843	14356.01
717.186	14331.15
717.53	14308.1
717.873	14345.39
718.216	14243.92
718.559	14262.45
718.902	14069.69
719.246	14212.28
719.589	14063.36
719.932	13983.59
720.275	14072.85
720.617	14008.67
720.96	13968.67
721.303	13921.89
721.646	13988.33
721.989	13929.13
722.331	13950.37
722.674	13898.17
723.016	13848.45
723.359	13811.39
723.701	13782.46
724.044	13741.33
724.386	13601.9
724.729	13730.71
725.071	13677.61
725.413	13641
725.755	13623.6
726.097	13553.09
726.439	13554.9
726.782	13539.08
727.124	13601.22
727.465	13527.55
727.807	13475.13
728.149	13513.32
728.491	13377.28
728.833	13490.72
729.175	13329.37
729.516	13348.58
729.858	13335.24
730.199	13340.89
730.541	13346.32
730.882	13359.42
731.224	13324.85
731.565	13290.95
731.906	13229.71
732.248	13218.86
732.589	13098.41
732.93	13142.48
733.271	13056.38
733.612	13196.72
733.953	13129.37
734.294	13045.53
734.635	13029.94
734.976	13044.4
735.317	12874.01
735.658	12942.71
735.999	13001.01
736.339	12876.27
736.68	12980.45
737.021	12861.36
737.361	12927.57
737.702	12930.51
738.042	12743.17
738.383	12710.4
738.723	12733
739.063	12721.7
739.404	12768.93
739.744	12745.65
740.084	12566.45
740.424	12651.42
740.764	12671.53
741.104	12661.59
741.444	12664.07
741.784	12472.89
742.124	12427.24
742.464	12424.53
742.804	12551.31
743.143	12406
743.483	12445.77
743.823	12420.92
744.162	12399
744.502	12364.42
744.841	12279.23
745.181	12336.17
745.52	12280.13
745.86	12233.12
746.199	12278.55
746.538	12302.28
746.877	12284.65
747.216	12271.77
747.556	12210.53
747.895	12164.65
748.234	12125.78
748.573	12114.26
748.911	12057.99
749.25	12132.34
749.589	12050.53
749.928	12070.64
750.267	12023.41
750.605	12027.71
750.944	11992.9
751.283	11914.04
751.621	11905.9
751.96	11894.83
752.298	11813.25
752.636	11889.4
752.975	11836.75
753.313	11770.99
753.651	11823.19
753.989	11701.84
754.327	11759.69
754.666	11595.63
755.004	11660.71
755.342	11699.35
755.679	11661.61
756.017	11559.47
756.355	11558.11
756.693	11467.5
757.031	11543.2
757.368	11441.51
757.706	11465.91
758.044	11445.8
758.381	11461.39
758.719	11388.18
759.056	11406.03
759.394	11366.03
759.731	11243.55
760.068	11154.73
760.405	11208.07
760.743	11134.4
761.08	11232.02
761.417	11078.35
761.754	11152.25
762.091	11109.99
762.428	11037
762.765	10984.34
763.102	11024.79
763.438	10995.42
763.775	10906.15
764.112	10862.31
764.449	10945.7
764.785	10872.48
765.122	10760.62
765.458	10824.35
765.795	10834.52
766.131	10721.53
766.467	10666.84
766.804	10702.09
767.14	10557.91
767.476	10565.15
767.812	10541.87
768.148	10535.09
768.485	10533.96
768.821	10433.17
769.157	10480.4
769.492	10412.38
769.828	10405.38
770.164	10334.87
770.5	10330.35
770.836	10380.29
771.171	10279.05
771.507	10291.93
771.842	10217.58
772.178	10189.34
772.513	10198.6
772.849	10140.07
773.184	10037.25
773.519	10062.33
773.855	9998.16
774.19	9940.08
774.525	9895.33
774.86	9877.71
775.195	9889.23
775.53	9886.52
775.865	9869.57
776.2	9838.61
776.535	9832.96
776.87	9770.14
777.205	9704.38
777.539	9672.06
777.874	9706.19
778.209	9625.28
778.543	9598.17
778.878	9509.81
779.212	9607.43
779.547	9485.17
779.881	9464.84
780.215	9430.49
780.55	9491.5
780.884	9330.15
781.218	9371.5
781.552	9362.47
781.886	9313.43
782.22	9227.55
782.554	9267.33
782.888	9188.23
783.222	9184.39
783.556	9149.14
783.889	9152.98
784.223	9111.62
784.557	9049.71
784.89	9063.26
785.224	9025.07
785.557	9020.78
785.891	9000.67
786.224	8930.61
786.558	8917.96
786.891	8850.39
787.224	8799.54
787.557	8745.31
787.891	8830.5
788.224	8748.24
788.557	8792.31
788.89	8720.45
789.223	8714.8
789.556	8706.44
789.888	8612.88
790.221	8598.19
790.554	8571.75
790.887	8574.92
791.219	8567.01
791.552	8481.58
791.884	8459.44
792.217	8467.35
792.549	8423.96
792.882	8297.63
793.214	8287.01
793.546	8355.94
793.879	8291.08
794.211	8214.7
794.543	8259.22
794.875	8233
795.207	8207.24
795.539	8157.3
795.871	8168.82
796.203	8064.65
796.535	8030.07
796.867	8095.61
797.198	8062.61
797.53	8019.68
797.862	7932.9
798.193	7969.06
798.525	7897.19
798.856	7892.45
799.188	7855.39
799.519	7854.48
799.85	7752.34
800.182	7786.46
800.513	7717.31
800.844	7578.78
801.175	7721.6
801.506	7706.92
801.837	7652.68
802.168	7577.88
802.499	7584.21
802.83	7566.13
803.161	7529.29
803.491	7534.49
803.822	7551.67
804.153	7425.79
804.483	7417.88
804.814	7365.68
805.145	7428.96
805.475	7373.37
805.805	7320.49
806.136	7369.98
806.466	7327.04
806.796	7243.88
807.126	7335.85
807.457	7238
807.787	7183.77
808.117	7165.91
808.447	7141.73
808.777	7110.77
809.107	7115.07
809.436	7141.06
809.766	7064
810.096	7055.41
810.426	7057.67
810.755	6984.68
811.085	6991.45
811.414	6981.96
811.744	6931.8
812.073	6879.59
812.403	6881.63
812.732	6844.34
813.061	6819.26
813.39	6769.77
813.719	6769.77
814.049	6814.51
814.378	6853.83
814.707	6742.87
815.036	6753.72
815.365	6719.37
815.693	6680.5
816.022	6682.54
816.351	6660.84
816.68	6574.52
817.008	6683.89
817.337	6559.38
817.665	6538.81
817.994	6552.82
818.322	6516.66
818.651	6494.07
818.979	6466.27
819.307	6519.83
819.636	6466.27
819.964	6382.43
820.292	6463.33
820.62	6423.56
820.948	6456.33
821.276	6424.01
821.604	6419.27
821.932	6461.07
822.259	6416.78
822.587	6382.88
822.915	6374.97
823.243	6389.66
823.57	6389.21
823.898	6372.94
824.225	6375.88
824.553	6306.95
824.88	6299.5
825.207	6350.12
825.535	6375.65
825.862	6351.02
826.189	6342.21
826.516	6384.92
826.843	6380.17
827.17	6338.14
827.497	6359.15
827.824	6309.66
828.151	6353.96
828.478	6353.28
828.805	6344.92
829.131	6370.68
829.458	6359.15
829.785	6332.26
830.111	6320.06
830.438	6366.39
830.764	6351.92
831.09	6391.02
831.417	6301.53
831.743	6325.26
832.069	6367.97
832.395	6330.68
832.722	6323.9
833.048	6304.02
833.374	6383.33
833.7	6311.92
834.026	6320.51
834.351	6302.21
834.677	6315.31
835.003	6338.82
835.329	6288.65
835.654	6340.62
835.98	6276.45
836.306	6267.41
836.631	6262.43
836.956	6302.21
837.282	6313.05
837.607	6266.05
837.932	6286.16
838.258	6239.38
838.583	6247.75
838.908	6192.83
839.233	6185.15
839.558	6195.32
839.883	6191.93
840.208	6176.79
840.533	6167.75
840.858	6215.66
841.182	6196.67
841.507	6200.74
841.832	6164.13
842.156	6109.9
842.481	6140.86
842.805	6054.53
843.13	6064.02
843.454	6094.3
843.778	6092.95
844.103	6050.46
844.427	6035.1
844.751	6032.84
845.075	6050.24
845.399	6058.15
845.723	5992.38
846.047	6000.52
846.371	6015.21
846.695	5998.49
847.019	5966.4
847.343	5906.51
847.666	5882.78
847.99	5906.06
848.313	5824.03
848.637	5854.76
848.96	5759.85
849.284	5782.9
849.607	5750.58
849.931	5765.95
850.254	5741.54
850.577	5754.42
850.9	5681.21
851.223	5654.54
851.546	5650.47
851.869	5578.61
852.192	5655.22
852.515	5544.26
852.838	5556.24
853.161	5506.75
853.483	5509.46
853.806	5532.74
854.129	5480.31
854.451	5522.79
854.774	5473.75
855.096	5459.52
855.419	5468.1
855.741	5424.49
856.063	5415.22
856.385	5397.37
856.708	5415.22
857.03	5380.88
857.352	5367.77
857.674	5360.09
857.996	5319.41
858.318	5320.31
858.64	5334.55
858.961	5347.66
859.283	5316.7
859.605	5248.68
859.926	5305.4
860.248	5280.09
860.57	5244.16
860.891	5249.58
861.212	5231.27
861.534	5226.3
861.855	5229.02
862.176	5227.89
862.498	5203.93
862.819	5156.93
863.14	5212.97
863.461	5177.94
863.782	5224.5
864.103	5190.82
864.424	5136.81
864.745	5161.45
865.065	5160.54
865.386	5099.53
865.707	5134.1
866.027	5173.88
866.348	5083.26
866.668	5112.63
866.989	5055.91
867.309	5081
867.63	5111.28
867.95	5073.99
868.27	5010.94
868.59	5044.61
868.91	5042.81
869.23	5085.29
869.55	5003.48
869.87	5040.09
870.19	5081.9
870.51	5050.49
870.83	5055.01
871.15	4984.73
871.469	5010.49
871.789	5009.36
872.109	4932.75
872.428	4963.26
872.748	4970.49
873.067	4966.42
873.386	4953.09
873.706	4891.85
874.025	4882.13
874.344	4864.05
874.663	4888.46
874.982	4905.63
875.301	4902.47
875.62	4876.48
875.939	4893.88
876.258	4892.75
876.577	4884.39
876.896	4887.56
877.214	4802.36
877.533	4821.12
877.852	4803.49
878.17	4899.31
878.489	4830.38
878.807	4821.57
879.125	4782.25
879.444	4811.4
879.762	4817.05
880.08	4767.11
880.398	4778.86
880.716	4738.41
881.034	4736.82
881.352	4774.11
881.67	4734.56
881.988	4779.54
882.306	4708.12
882.624	4716.94
882.941	4659.76
883.259	4647.34
883.577	4646.43
883.894	4663.83
884.212	4658.86
884.529	4649.82
884.846	4636.26
885.164	4570.05
885.481	4608.01
885.798	4574.34
886.115	4562.59
886.432	4601.01
886.75	4574.79
887.067	4563.72
887.383	4499.32
887.7	4509.26
888.017	4475.36
888.334	4457.96
888.651	4498.19
888.967	4470.16
889.284	4452.31
889.6	4421.58
889.917	4386.33
890.233	4426.32
890.55	4411.18
890.866	4435.14
891.182	4378.87
891.498	4359.89
891.815	4342.48
892.131	4321.02
892.447	4303.39
892.763	4298.64
893.079	4295.25
893.395	4274.46
893.71	4253.9
894.026	4222.04
894.342	4232.66
894.657	4203.73
894.973	4228.82
895.289	4191.3
895.604	4198.08
895.92	4130.74
896.235	4116.73
896.55	4131.64
896.865	4095.94
897.181	4050.29
897.496	4144.98
897.811	4046.9
898.126	4069.5
898.441	4035.37
898.756	4032.89
899.071	4032.44
899.386	3963.74
899.7	4005.32
900.015	3967.35
900.33	3932.1
900.644	3939.78
900.959	3912.21
901.273	3879.9
901.588	3886.45
901.902	3851.2
902.216	3848.26
902.531	3838.77
902.845	3864.31
903.159	3765.78
903.473	3832.22
903.787	3824.98
904.101	3739.11
904.415	3769.62
904.729	3766.45
905.042	3690.98
905.356	3736.17
905.67	3692.11
905.984	3704.31
906.297	3679.68
906.611	3625.67
906.924	3634.25
907.237	3626.12
907.551	3614.82
907.864	3574.6
908.177	3565.78
908.491	3524.88
908.804	3563.75
909.117	3528.95
909.43	3513.35
909.743	3533.01
910.056	3485.78
910.368	3500.25
910.681	3469.74
910.994	3459.34
911.307	3456.41
911.619	3426.12
911.932	3408.5
912.244	3379.35
912.557	3431.1
912.869	3410.31
913.181	3363.08
913.494	3317.88
913.806	3361.72
914.118	3309.52
914.43	3355.84
914.742	3328.73
915.054	3307.71
915.366	3301.61
915.678	3294.38
915.99	3292.79
916.302	3231.33
916.613	3217.09
916.925	3187.49
917.236	3188.62
917.548	3225.68
917.859	3199.24
918.171	3180.93
918.482	3171.22
918.794	3126.02
919.105	3136.41
919.416	3103.65
919.727	3108.62
920.038	3097.32
920.349	3097.55
920.66	3065
920.971	3065.91
921.282	3048.96
921.593	3048.06
921.903	3012.35
922.214	3014.61
922.525	2994.27
922.835	3000.15
923.146	2954.27
923.456	2966.7
923.767	2933.71
924.077	2939.81
924.387	2947.27
924.697	2901.17
925.008	2907.49
925.318	2904.1
925.628	2905.23
925.938	2893.71
926.248	2892.35
926.558	2834.05
926.867	2829.53
927.177	2794.28
927.487	2809.64
927.796	2753.15
928.106	2784.33
928.416	2767.16
928.725	2751.79
929.034	2757.44
929.344	2749.31
929.653	2750.66
929.962	2693.49
930.271	2707.73
930.581	2691.45
930.89	2693.26
931.199	2693.26
931.508	2651.68
931.817	2661.4
932.125	2665.47
932.434	2638.57
932.743	2646.03
933.051	2597.9
933.36	2612.59
933.669	2587.05
933.977	2610.1
934.286	2606.49
934.594	2597.45
934.902	2577.56
935.21	2557.67
935.519	2541.4
935.827	2546.15
936.135	2532.14
936.443	2496.43
936.751	2496.88
937.059	2495.3
937.367	2507.05
937.674	2506.37
937.982	2450.56
938.29	2453.72
938.597	2486.04
938.905	2401.97
939.213	2414.85
939.52	2381.86
939.827	2430.44
940.135	2397
940.442	2421.41
940.749	2384.57
941.056	2427.28
941.363	2348.86
941.67	2384.57
941.977	2348.86
942.284	2315.42
942.591	2325.14
942.898	2327.4
943.205	2342.31
943.511	2288.75
943.818	2348.64
944.125	2310.67
944.431	2304.12
944.738	2290.11
945.044	2265.25
945.35	2259.38
945.657	2262.31
945.963	2253.05
946.269	2260.51
946.575	2244.46
946.881	2226.16
947.187	2237.91
947.493	2222.54
947.799	2204.69
948.105	2174.63
948.41	2178.02
948.716	2117.23
949.022	2133.28
949.327	2160.17
949.633	2150.68
949.938	2154.29
950.244	2142.54
950.549	2164.01
950.854	2095.31
951.16	2125.59
951.465	2105.93
951.77	2083.79
952.075	2111.13
952.38	2095.09
952.685	2083.11
952.99	2073.84
953.294	2078.36
953.599	2074.3
953.904	2031.59
954.209	2015.99
954.513	2043.56
954.818	2020.74
955.122	2001.08
955.426	1992.49
955.731	2039.04
956.035	2006.5
956.339	2010.79
956.643	1978.03
956.948	1959.27
957.252	2008.31
957.556	1992.04
957.86	1967.18
958.163	1932.83
958.467	1931.47
958.771	1931.7
959.075	1928.99
959.378	1909.78
959.682	1926.05
959.985	1909.55
960.289	1865.04
960.592	1907.97
960.896	1900.51
961.199	1881.53
961.502	1878.37
961.805	1891.02
962.108	1856.67
962.411	1863.23
962.714	1802.44
963.017	1829.33
963.32	1854.41
963.623	1848.76
963.926	1809.9
964.228	1784.81
964.531	1795.88
964.833	1783
965.136	1787.52
965.438	1809.44
965.741	1769.67
966.043	1761.76
966.345	1771.03
966.648	1763.57
966.95	1734.64
967.252	1738.71
967.554	1749.56
967.856	1732.16
968.158	1729.45
968.46	1700.75
968.761	1717.92
969.063	1708.66
969.365	1695.77
969.666	1725.83
969.968	1695.1
970.269	1678.37
970.571	1688.09
970.872	1664.59
971.174	1690.35
971.475	1649.9
971.776	1662.78
972.077	1656
972.378	1671.59
972.679	1646.06
972.98	1627.08
973.281	1640.86
973.582	1617.13
973.883	1607.42
974.183	1621.2
974.484	1574.42
974.785	1580.3
975.085	1577.81
975.386	1603.35
975.686	1562.9
975.986	1533.97
976.287	1586.62
976.587	1560.18
976.887	1569
977.187	1563.12
977.487	1529.23
977.787	1521.09
978.087	1548.21
978.387	1534.42
978.687	1519.51
978.987	1512.73
979.286	1537.59
979.586	1533.52
979.885	1488.77
980.185	1492.39
980.484	1484.03
980.784	1504.82
981.083	1474.54
981.382	1472.96
981.682	1463.92
981.981	1460.3
982.28	1463.69
982.579	1440.41
982.878	1430.92
983.177	1451.26
983.475	1426.63
983.774	1414.2
984.073	1426.18
984.372	1426.86
984.67	1425.05
984.969	1402.67
985.267	1391.83
985.566	1386.86
985.864	1384.37
986.162	1387.08
986.461	1367.65
986.759	1371.26
987.057	1360.64
987.355	1380.53
987.653	1336.24
987.951	1332.62
988.249	1335.78
988.547	1331.26
988.844	1329.91
989.142	1323.81
989.44	1307.99
989.737	1319.51
990.035	1310.02
990.332	1332.85
990.63	1325.84
990.927	1308.21
991.224	1286.75
991.521	1288.55
991.819	1255.33
992.116	1276.12
992.413	1258.95
992.71	1249.46
993.006	1263.92
993.303	1256.01
993.6	1236.8
993.897	1249.91
994.193	1244.04
994.49	1238.39
994.787	1232.06
995.083	1198.61
995.379	1222.57
995.676	1199.74
995.972	1214.21
996.268	1193.19
996.565	1190.7
996.861	1189.57
997.157	1205.84
997.453	1164.26
997.749	1180.99
998.044	1154.09
998.34	1171.95
998.636	1174.88
998.932	1159.07
999.227	1159.74
999.523	1119.52
999.818	1114.77
1000.114	1100.08
1000.409	1122.23
1000.704	1106.19
1001	1094.43
1001.295	1086.3
1001.59	1097.6
1001.885	1105.96
1002.18	1094.43
1002.475	1088.11
1002.77	1072.97
1003.065	1084.27
1003.359	1071.84
1003.654	1063.93
1003.949	1063.7
1004.243	1058.05
1004.538	1053.31
1004.832	1049.46
1005.127	1054.66
1005.421	1040.42
1005.715	1040.88
1006.009	1003.59
1006.304	1028.67
1006.598	1006.08
1006.892	1006.98
1007.186	1006.98
1007.48	1004.95
1007.773	1000.43
1008.067	999.75
1008.361	975.12
1008.655	988
1008.948	970.37
1009.242	969.01
1009.535	979.64
1009.829	947.32
1010.122	965.85
1010.415	926.3
1010.708	956.13
1011.001	939.86
1011.295	915.46
1011.588	933.08
1011.881	939.41
1012.173	896.7
1012.466	913.42
1012.759	911.61
1013.052	933.76
1013.344	927.21
1013.637	920.2
1013.93	910.03
1014.222	897.38
1014.514	890.82
1014.807	860.09
1015.099	898.28
1015.391	871.84
1015.683	851.28
1015.976	858.96
1016.268	850.15
1016.56	865.97
1016.851	846.98
1017.143	866.19
1017.435	843.59
1017.727	806.31
1018.018	849.7
1018.31	838.4
1018.602	817.38
1018.893	824.16
1019.185	808.34
1019.476	816.7
1019.767	816.02
1020.058	810.83
1020.35	819.64
1020.641	797.72
1020.932	786.42
1021.223	797.49
1021.514	813.54
1021.804	773.31
1022.095	772.18
1022.386	761.56
1022.677	768.79
1022.967	753.2
1023.258	752.3
1023.548	747.78
1023.839	746.42
1024.129	748.45
1024.419	739.64
1024.709	737.83
1025	730.6
1025.29	716.59
1025.58	722.01
1025.87	704.84
1026.16	723.14
1026.449	729.7
1026.739	717.5
1027.029	717.5
1027.319	705.97
1027.608	710.04
1027.898	696.93
1028.187	688.8
1028.477	702.35
1028.766	665.75
1029.055	689.7
1029.344	699.64
1029.634	702.13
1029.923	668.23
1030.212	663.03
1030.501	669.59
1030.79	660.77
1031.078	675.24
1031.367	653.77
1031.656	650.38
1031.945	654.9
1032.233	631.85
1032.522	661.45
1032.81	645.41
1033.099	654.9
1033.387	632.98
1033.675	636.14
1033.963	629.36
1034.251	646.54
1034.54	622.36
1034.828	624.16
1035.116	628.23
1035.403	627.78
1035.691	615.13
1035.979	606.76
1036.267	616.71
1036.554	632.3
1036.842	605.63
1037.129	633.43
1037.417	601.57
1037.704	589.82
1037.992	615.13
1038.279	603.83
1038.566	577.39
1038.853	577.39
1039.14	577.39
