Data from foam_black_FLMS001491_00083.txt Node
Date: Wed Feb 08 10:44:50 GMT 2017
User: dcchb
Spectrometer: FLMS00149
Trigger mode: 0
Integration Time (sec): 2.000000E-2
Scans to average: 10
Electric dark correction enabled: true
Nonlinearity correction enabled: false
Boxcar width: 0
XAxis mode: Wavelengths
Number of Pixels in Spectrum: 2048
>>>>>Begin Spectral Data<<<<<
341.393	-4.15
341.776	-4.15
342.16	-4.15
342.543	-64.04
342.927	-77.82
343.31	-56.58
343.693	-62.46
344.077	-43.93
344.46	-59.74
344.843	-73.3
345.226	-33.3
345.61	-32.85
345.993	-19.75
346.376	-19.97
346.759	9.63
347.142	7.6
347.525	49.63
347.908	70.2
348.291	72.23
348.674	75.39
349.057	117.2
349.44	119.01
349.823	133.92
350.206	167.82
350.588	177.09
350.971	190.19
351.354	194.71
351.737	233.13
352.119	241.26
352.502	272.68
352.884	274.03
353.267	265.44
353.65	282.39
354.032	294.6
354.414	308.16
354.797	291.43
355.179	314.26
355.562	311.77
355.944	330.08
356.326	321.49
356.709	318.78
357.091	322.39
357.473	333.69
357.855	323.97
358.238	347.93
358.62	326.91
359.002	352
359.384	336.63
359.766	324.43
360.148	344.54
360.53	316.52
360.912	344.76
361.294	329.85
361.676	349.28
362.057	318.55
362.439	315.84
362.821	333.01
363.203	329.17
363.584	315.84
363.966	316.07
364.348	323.07
364.729	335.5
365.111	322.17
365.493	299.79
365.874	325.56
366.256	310.42
366.637	328.95
367.019	312
367.4	328.27
367.781	331.88
368.163	317.65
368.544	306.35
368.925	318.55
369.306	346.35
369.688	317.65
370.069	316.29
370.45	316.97
370.831	308.38
371.212	311.55
371.593	329.4
371.974	315.61
372.355	301.83
372.736	322.17
373.117	319.45
373.498	310.42
373.879	298.66
374.26	325.1
374.641	307.93
375.021	311.77
375.402	320.13
375.783	330.3
376.163	331.66
376.544	326.69
376.925	325.33
377.305	336.18
377.686	349.74
378.066	330.53
378.447	333.24
378.827	351.77
379.208	345.22
379.588	359.23
379.968	349.74
380.349	352.67
380.729	361.49
381.109	368.95
381.489	351.54
381.87	351.77
382.25	353.13
382.63	346.12
383.01	346.57
383.39	341.83
383.77	369.4
384.15	366.91
384.53	359.45
384.91	370.53
385.29	387.93
385.67	368.49
386.049	384.31
386.429	384.99
386.809	380.92
387.189	384.09
387.568	371.88
387.948	381.83
388.328	367.36
388.707	393.13
389.087	402.39
389.466	389.51
389.846	387.7
390.225	404.42
390.605	406.46
390.984	397.87
391.363	407.14
391.743	407.36
392.122	424.76
392.501	406.01
392.881	414.59
393.26	413.01
393.639	422.95
394.018	419.57
394.397	409.85
394.776	411.2
395.155	429.28
395.534	431.54
395.913	425.44
396.292	427.7
396.671	439.9
397.05	470.64
397.429	441.94
397.808	431.32
398.186	429.06
398.565	449.17
398.944	438.77
399.323	445.1
399.701	433.12
400.08	443.97
400.458	473.12
400.837	474.93
401.215	452.11
401.594	446.23
401.972	477.64
402.351	458.89
402.729	488.72
403.107	477.87
403.486	493.01
403.864	487.81
404.242	483.97
404.62	498.43
404.999	499.34
405.377	485.1
405.755	492.56
406.133	490.98
406.511	516.74
406.889	512.67
407.267	516.96
407.645	506.57
408.023	527.81
408.401	528.71
408.779	545.66
409.156	563.52
409.534	540.24
409.912	550.86
410.29	533.91
410.667	544.31
411.045	552.44
411.422	568.49
411.8	577.98
412.178	550.18
412.555	565.78
412.933	587.24
413.31	600.13
413.687	604.65
414.065	566
414.442	603.29
414.819	603.52
415.197	589.73
415.574	594.7
415.951	591.99
416.328	613.23
416.705	612.55
417.082	606.45
417.46	635.6
417.837	638.09
418.214	615.49
418.591	642.61
418.967	653.68
419.344	640.8
419.721	659.78
420.098	645.77
420.475	658.65
420.852	678.99
421.228	671.99
421.605	678.77
421.982	681.71
422.358	724.64
422.735	655.94
423.111	707.69
423.488	706.79
423.864	707.47
424.241	709.05
424.617	699.78
424.994	714.92
425.37	749.05
425.746	737.52
426.123	751.08
426.499	694.36
426.875	726.68
427.251	759.67
427.627	765.32
428.003	762.16
428.379	784.53
428.756	786.79
429.132	804.87
429.507	794.24
429.883	794.47
430.259	817.29
430.635	817.97
431.011	804.41
431.387	828.82
431.763	860.91
432.138	815.49
432.514	859.33
432.89	874.02
433.265	873.11
433.641	900.23
434.016	910.63
434.392	928.03
434.767	907.24
435.143	920.79
435.518	922.6
435.894	906.33
436.269	946.78
436.644	957.4
437.02	969.38
437.395	962.15
437.77	982.94
438.145	986.33
438.52	1004.63
438.895	1013.22
439.271	1006.67
439.646	1010.96
440.021	1028.36
440.395	1055.25
440.77	1038.53
441.145	1031.07
441.52	1056.61
441.895	1062.94
442.27	1058.19
442.645	1066.1
443.019	1073.33
443.394	1073.33
443.769	1068.14
444.143	1104.29
444.518	1086.89
444.892	1101.58
445.267	1123.95
445.641	1133.22
446.016	1115.37
446.39	1135.7
446.764	1133.22
447.139	1140.9
447.513	1168.47
447.887	1137.29
448.262	1150.17
448.636	1142.48
449.01	1150.39
449.384	1161.69
449.758	1184.74
450.132	1231.3
450.506	1223.16
450.88	1201.92
451.254	1205.08
451.628	1251.41
452.002	1217.06
452.376	1251.86
452.75	1268.36
453.123	1262.03
453.497	1272.2
453.871	1302.03
454.244	1337.73
454.618	1343.83
454.992	1330.28
455.365	1354.91
455.739	1369.82
456.112	1374.57
456.486	1392.42
456.859	1397.84
457.232	1434.68
457.606	1423.15
457.979	1457.05
458.352	1463.61
458.725	1469.03
459.099	1493.89
459.472	1523.72
459.845	1549.25
460.218	1551.51
460.591	1551.06
460.964	1574.56
461.337	1595.81
461.71	1610.95
462.083	1626.54
462.456	1626.09
462.829	1617.95
463.201	1630.61
463.574	1654.34
463.947	1717.84
464.32	1708.57
464.692	1726.65
465.065	1728.01
465.438	1756.48
465.81	1761
466.183	1782.69
466.555	1844.61
466.928	1841.22
467.3	1863.37
467.672	1876.25
468.045	1894.1
468.417	1952.41
468.789	1964.61
469.161	1962.58
469.534	1977.94
469.906	1998.96
470.278	2022.23
470.65	2042.57
471.022	2085.28
471.394	2127.99
471.766	2133.64
472.138	2146.98
472.51	2210.93
472.882	2202.57
473.253	2241.21
473.625	2287.99
473.997	2290.7
474.369	2322.34
474.74	2363.02
475.112	2378.61
475.484	2399.4
475.855	2438.95
476.227	2455.22
476.598	2558.27
476.97	2579.28
477.341	2582.9
477.713	2629.45
478.084	2628.77
478.455	2738.6
478.827	2770.24
479.198	2824.47
479.569	2796
479.94	2900.18
480.311	2946.28
480.682	2997.35
481.053	3022.66
481.424	3085.48
481.795	3127.06
482.166	3155.31
482.537	3157.8
482.908	3235.76
483.279	3241.41
483.65	3298.81
484.021	3372.71
484.391	3371.58
484.762	3394.18
485.133	3471.01
485.503	3502.65
485.874	3587.62
486.244	3597.11
486.615	3669.42
486.985	3671.68
487.356	3744.68
487.726	3757.33
488.097	3885.01
488.467	3870.55
488.837	3944.22
489.207	4021.73
489.578	4005.46
489.948	4062.86
490.318	4137.66
490.688	4092.69
491.058	4130.43
491.428	4230.31
491.798	4222.86
492.168	4351.21
492.538	4384.66
492.908	4361.16
493.278	4437.31
493.648	4518.89
494.017	4498.55
494.387	4601.6
494.757	4591.21
495.126	4656.74
495.496	4680.47
495.866	4661.04
496.235	4704.2
496.605	4758.66
496.974	4793.01
497.344	4874.82
497.713	4854.48
498.082	4966.11
498.452	4976.06
498.821	4985.77
499.19	5013.57
499.559	5064.87
499.928	5107.35
500.298	5094.02
500.667	5168.59
501.036	5185.54
501.405	5206.56
501.774	5181.47
502.143	5261.47
502.512	5295.14
502.88	5328.81
503.249	5321.13
503.618	5396.84
503.987	5407.23
504.356	5411.98
504.724	5487.45
505.093	5477.96
505.462	5538.75
505.83	5558.41
506.199	5574.68
506.567	5691.74
506.936	5620.56
507.304	5707.56
507.672	5682.93
508.041	5761.35
508.409	5766.77
508.777	5874.11
509.145	5891.96
509.514	5894.68
509.882	5937.84
510.25	6019.87
510.618	6055.58
510.986	6022.58
511.354	6109.81
511.722	6126.99
512.09	6245.17
512.458	6146.42
512.826	6233.88
513.193	6279.07
513.561	6304.38
513.929	6387.77
514.297	6434.32
514.664	6540.31
515.032	6500.08
515.4	6572.17
515.767	6634.77
516.135	6595
516.502	6638.16
516.869	6768.32
517.237	6804.48
517.604	6736.24
517.972	6800.87
518.339	6883.12
518.706	6924.25
519.073	6945.27
519.44	6964.93
519.808	7103.68
520.175	7106.62
520.542	7132.16
520.909	7213.74
521.276	7250.12
521.643	7271.59
522.009	7358.37
522.376	7397.69
522.743	7425.93
523.11	7569.89
523.477	7599.49
523.843	7652.37
524.21	7683.1
524.577	7768.07
524.943	7849.65
525.31	7932.81
525.676	7993.6
526.043	7941.63
526.409	8057.78
526.776	8128.74
527.142	8194.95
527.508	8203.77
527.874	8300.04
528.241	8351.11
528.607	8338
528.973	8383.42
529.339	8473.36
529.705	8539.8
530.071	8594.72
530.437	8672.68
530.803	8690.31
531.169	8728.5
531.535	8796.97
531.901	8810.76
532.267	8833.58
532.632	8882.17
532.998	8960.13
533.364	8954.71
533.73	9046.23
534.095	9091.65
534.461	9184.31
534.826	9234.7
535.192	9163.06
535.557	9311.53
535.923	9278.54
536.288	9369.16
536.653	9340.91
537.019	9394.02
537.384	9390.4
537.749	9478.54
538.114	9522.83
538.479	9486.9
538.845	9587.69
539.21	9555.14
539.575	9626.1
539.94	9652.99
540.305	9723.05
540.67	9722.6
541.034	9783.16
541.399	9787
541.764	9879.2
542.129	9912.65
542.494	9864.29
542.858	9860.67
543.223	9966.88
543.587	10030.84
543.952	10046.88
544.316	10051.4
544.681	10106.99
545.045	10154.22
545.41	10176.6
545.774	10210.27
546.138	10220.44
546.503	10330.04
546.867	10297.95
547.231	10422.69
547.595	10442.8
547.959	10421.79
548.324	10511.73
548.688	10523.03
549.052	10590.6
549.416	10658.17
549.779	10550.6
550.143	10625.17
550.507	10694.55
550.871	10709.92
551.235	10732.97
551.599	10876.92
551.962	10896.58
552.326	10939.06
552.689	11016.57
553.053	10979.97
553.417	10946.29
553.78	11126.85
554.143	11176.12
554.507	11204.14
554.87	11262.22
555.234	11390.35
555.597	11354.19
555.96	11432.61
556.323	11527.52
556.686	11550.8
557.05	11514.64
557.413	11685.71
557.776	11619.72
558.139	11849.55
558.502	11782.66
558.865	11919.6
559.228	11988.3
559.59	12074.63
559.953	12091.12
560.316	12171.57
560.679	12251.12
561.041	12273.04
561.404	12350.55
561.767	12419.7
562.129	12376.76
562.492	12522.98
562.854	12507.61
563.217	12665.12
563.579	12687.72
563.941	12755.51
564.304	12761.61
564.666	12875.28
565.028	12802.29
565.39	12965.22
565.753	13030.08
566.115	13099.01
566.477	13186.91
566.839	13195.5
567.201	13367.93
567.563	13447.47
567.925	13370.86
568.287	13461.26
568.648	13497.87
569.01	13559.33
569.372	13692.44
569.734	13543.74
570.095	13701.25
570.457	13858.99
570.819	13825.99
571.18	13787.35
571.542	13977.85
571.903	13913.22
572.265	14042.03
572.626	14143.5
572.987	14096.72
573.349	14201.12
573.71	14244.06
574.071	14318.63
574.432	14240.44
574.794	14404.28
575.155	14392.53
575.516	14291.97
575.877	14466.65
576.238	14532.41
576.599	14579.87
576.96	14626.65
577.32	14637.27
577.681	14653.09
578.042	14710.26
578.403	14666.2
578.763	14733.09
579.124	14832.52
579.485	14829.13
579.845	14894.21
580.206	14852.41
580.566	14799.53
580.927	14838.62
581.287	14988.22
581.648	14989.35
582.008	14995
582.368	14972.4
582.728	15024.6
583.089	14952.29
583.449	14916.81
583.809	14946.19
584.169	15010.14
584.529	15002.23
584.889	15101.21
585.249	15024.38
585.609	14960.2
585.969	15042.46
586.329	15066.41
586.688	15234.54
587.048	15098.73
587.408	15080.2
587.768	15052.17
588.127	15061.44
588.487	15115.45
588.846	15120.2
589.206	15103.7
589.565	15099.41
589.925	15253.53
590.284	15169.01
590.643	15194.32
591.003	15293.07
591.362	15258.5
591.721	15230.25
592.08	15271.15
592.44	15264.37
592.799	15249.91
593.158	15215.79
593.517	15329.46
593.876	15323.58
594.235	15262.56
594.593	15300.98
594.952	15349.12
595.311	15193.19
595.67	15282.68
596.029	15320.19
596.387	15307.76
596.746	15402.9
597.104	15268.21
597.463	15422.79
597.822	15452.84
598.18	15381.21
598.538	15355.67
598.897	15415.1
599.255	15324.03
599.613	15567.87
599.972	15560.64
600.33	15521.54
600.688	15489.23
601.046	15477.93
601.404	15605.61
601.762	15620.97
602.12	15668.66
602.478	15595.66
602.836	15564.25
603.194	15545.72
603.552	15543.01
603.91	15507.98
604.268	15623.01
604.625	15608.77
604.983	15715.43
605.341	15632.95
605.698	15756.79
606.056	15790.01
606.413	15720.18
606.771	15727.41
607.128	15818.26
607.485	15620.3
607.843	15776.9
608.2	15826.62
608.557	15856.9
608.914	15798.14
609.272	15950.46
609.629	15915.88
609.986	15932.38
610.343	15940.51
610.7	15982.77
611.057	15969.44
611.414	15947.97
611.771	15988.2
612.127	16122.2
612.484	16006.73
612.841	16089.21
613.198	16066.61
613.554	15970.12
613.911	16052.15
614.267	16127.17
614.624	16112.26
614.98	16174.86
615.337	16223.44
615.693	16152.26
616.05	16054.63
616.406	16369.2
616.762	16311.58
617.118	16219.83
617.475	16212.37
617.831	16310.67
618.187	16362.2
618.543	16364
618.899	16352.25
619.255	16368.3
619.611	16297.11
619.967	16348.64
620.323	16336.89
620.678	16321.29
621.034	16335.98
621.39	16241.97
621.746	16341.86
622.101	16442.19
622.457	16325.36
622.812	16338.47
623.168	16315.19
623.523	16400.84
623.879	16289.88
624.234	16281.97
624.589	16406.26
624.945	16372.82
625.3	16444.91
625.655	16558.35
626.01	16489.65
626.365	16462.31
626.72	16337.79
627.075	16429.77
627.43	16379.82
627.785	16307.96
628.14	16356.1
628.495	16441.06
628.85	16397
629.205	16317
629.559	16379.15
629.914	16305.25
630.269	16318.13
630.623	16346.6
630.978	16295.76
631.332	16396.55
631.687	16323.55
632.041	16311.35
632.396	16236.55
632.75	16258.92
633.104	16258.02
633.459	16208.75
633.813	16172.6
634.167	16208.3
634.521	16203.11
634.875	16220.51
635.229	16160.85
635.583	16031.36
635.937	15999.27
636.291	16050.57
636.645	16090.11
636.999	15967.86
637.352	16100.96
637.706	16023.67
638.06	16003.56
638.413	16100.06
638.767	16007.86
639.121	15976.9
639.474	15896.67
639.828	15892.83
640.181	16006.05
640.534	15975.31
640.888	15906.16
641.241	15784.36
641.594	15861.42
641.947	15893.96
642.301	15775.77
642.654	15822.55
643.007	15790.91
643.36	15686.96
643.713	15738.26
644.066	15733.06
644.419	15614.65
644.771	15504.59
645.124	15283.58
645.477	15208.78
645.83	15220.53
646.182	15205.17
646.535	15239.97
646.888	15255.79
647.24	15152.74
647.593	15232.96
647.945	15265.05
648.298	15243.13
648.65	15127.65
649.002	15097.82
649.355	15107.09
649.707	15025.28
650.059	15075.45
650.411	15220.53
650.763	15205.62
651.115	15495.55
651.467	15354.99
651.819	15278.84
652.171	15268.89
652.523	15319.06
652.875	15154.32
653.227	15179.86
653.578	15232.06
653.93	15312.51
654.282	15206.97
654.633	15149.57
654.985	15211.94
655.337	15206.3
655.688	15160.19
656.039	15175.79
656.391	15104.38
656.742	15131.49
657.094	15158.61
657.445	15160.19
657.796	15127.65
658.147	15089.01
658.498	15085.85
658.849	15183.7
659.2	15143.92
659.551	14999.07
659.902	15116.35
660.253	15125.85
660.604	15015.57
660.955	14939.86
661.306	15007.88
661.656	15004.04
662.007	14959.3
662.358	15024.15
662.708	14994.32
663.059	14986.64
663.409	14885.4
663.76	14985.06
664.11	15038.62
664.461	14980.31
664.811	14923.14
665.161	14916.13
665.511	14916.13
665.862	14984.61
666.212	14988.45
666.562	15001.33
666.912	14985.74
667.262	14875.23
667.612	14876.59
667.962	14899.18
668.312	14840.65
668.662	14926.53
669.011	14844.95
669.361	14966.3
669.711	14949.35
670.06	14830.94
670.41	14795.01
670.76	14807.21
671.109	14919.52
671.459	14955
671.808	14811.5
672.157	14830.49
672.507	14781.67
672.856	14763.14
673.205	14810.6
673.554	14867.09
673.904	14741.45
674.253	14821.22
674.602	14759.3
674.951	14588.01
675.3	14509.14
675.649	14677.04
675.998	14645.86
676.346	14668.46
676.695	14675.46
677.044	14620.32
677.393	14655.35
677.741	14696.25
678.09	14619.42
678.438	14575.35
678.787	14667.33
679.135	14652.86
679.484	14484.96
679.832	14569.7
680.181	14500.32
680.529	14555.69
680.877	14456.26
681.225	14412.42
681.573	14488.8
681.922	14357.05
682.27	14371.97
682.618	14281.57
682.966	14343.49
683.314	14425.98
683.661	14313.44
684.009	14276.6
684.357	14123.84
684.705	14152.31
685.053	14225.76
685.4	14148.47
685.748	14109.15
686.095	14122.26
686.443	14057.62
686.79	14007.46
687.138	14024.18
687.485	14035.48
687.832	13954.35
688.18	14024.41
688.527	13945.99
688.874	13915.48
689.221	13864.64
689.568	13835.03
689.915	13778.08
690.262	13807.91
690.609	13798.65
690.956	13749.16
691.303	13660.57
691.65	13627.81
691.997	13565.21
692.344	13517.3
692.69	13399.79
693.037	13517.75
693.383	13396.63
693.73	13382.84
694.077	13292.45
694.423	13357.08
694.769	13294.25
695.116	13268.94
695.462	13220.36
695.808	13179.23
696.155	13140.59
696.501	13057.43
696.847	13062.17
697.193	12946.02
697.539	13072.79
697.885	12896.75
698.231	12865.11
698.577	12883.42
698.923	12844.55
699.269	12747.83
699.614	12720.26
699.96	12711.22
700.306	12656.76
700.651	12670.54
700.997	12613.59
701.342	12556.42
701.688	12535.63
702.033	12576.76
702.379	12535.86
702.724	12577.44
703.069	12469.64
703.415	12252.7
703.76	12322.53
704.105	12259.93
704.45	12287.28
704.795	12179.48
705.14	12210.44
705.485	12213.61
705.83	12167.05
706.175	12133.61
706.52	12084.12
706.865	12071.46
707.209	12033.72
707.554	11897.68
707.899	11976.55
708.243	11945.14
708.588	11904.46
708.932	11798.7
709.277	11757.35
709.621	11788.98
709.966	11680.96
710.31	11675.54
710.654	11621.08
710.998	11717.12
711.342	11607.07
711.687	11578.14
712.031	11538.59
712.375	11502.89
712.719	11453.17
713.063	11499.05
713.407	11466.73
713.75	11476.9
714.094	11470.8
714.438	11380.41
714.782	11356.23
715.125	11274.65
715.469	11336.34
715.812	11255.44
716.156	11154.2
716.499	11150.36
716.843	11216.8
717.186	11087.99
717.53	11201.43
717.873	11207.98
718.216	11161.2
718.559	11110.81
718.902	11059.96
719.246	11028.1
719.589	11034.88
719.932	10941.55
720.275	10891.38
720.617	10928.89
720.96	10995.56
721.303	10921.66
721.646	10917.59
721.989	10849.57
722.331	10895.67
722.674	10778.61
723.016	10835.79
723.359	10817.94
723.701	10861.55
724.044	10732.74
724.386	10649.58
724.729	10781.1
725.071	10794.89
725.413	10754.43
725.755	10718.5
726.097	10647.32
726.439	10619.3
726.782	10639.18
727.124	10663.82
727.465	10561.22
727.807	10551.05
728.149	10549.69
728.491	10525.29
728.833	10562.58
729.175	10494.33
729.516	10429.7
729.858	10465.18
730.199	10481.45
730.541	10508.57
730.882	10431.96
731.224	10430.83
731.565	10286.88
731.906	10287.55
732.248	10332.98
732.589	10259.53
732.93	10196.03
733.271	10219.76
733.612	10235.58
733.953	10230.83
734.294	10213.43
734.635	10198.07
734.976	10234.67
735.317	10180.66
735.658	10236.03
735.999	10152.87
736.339	10127.56
736.68	10179.53
737.021	10085.98
737.361	10015.02
737.702	10095.02
738.042	10024.06
738.383	10045.75
738.723	10078.52
739.063	9989.26
739.404	10040.78
739.744	9991.97
740.084	9958.98
740.424	9908.36
740.764	9919.2
741.104	9942.93
741.444	9885.08
741.784	9897.28
742.124	9844.4
742.464	9905.64
742.804	9881.69
743.143	9819.54
743.483	9801.92
743.823	9786.78
744.162	9791.52
744.502	9709.72
744.841	9717.85
745.181	9736.38
745.52	9707
745.86	9724.63
746.199	9683.73
746.538	9620.68
746.877	9703.39
747.216	9630.4
747.556	9611.64
747.895	9627.46
748.234	9548.82
748.573	9593.79
748.911	9538.2
749.25	9600.57
749.589	9536.16
749.928	9534.58
750.267	9529.61
750.605	9429.5
750.944	9419.78
751.283	9438.54
751.621	9474.24
751.96	9376.17
752.298	9371.87
752.636	9388.82
752.975	9293.46
753.313	9264.08
753.651	9290.97
753.989	9264.98
754.327	9249.16
754.666	9222.95
755.004	9191.31
755.342	9195.38
755.679	9145.44
756.017	9110.18
756.355	9132.33
756.693	9102.5
757.031	9116.51
757.368	9050.75
757.706	9113.12
758.044	9000.58
758.381	9019.11
758.719	8966.01
759.056	9020.47
759.394	8932.56
759.731	8862.51
760.068	8881.26
760.405	8833.36
760.743	8872.9
761.08	8762.17
761.417	8718.56
761.754	8668.39
762.091	8758.1
762.428	8649.86
762.765	8631.78
763.102	8661.83
763.438	8575.51
763.775	8593.59
764.112	8552.68
764.449	8558.56
764.785	8506.36
765.122	8483.31
765.458	8449.86
765.795	8397.66
766.131	8456.19
766.467	8399.92
766.804	8370.77
767.14	8309.08
767.476	8387.72
767.812	8296.19
768.148	8269.75
768.485	8251.45
768.821	8138.68
769.157	8124.9
769.492	8149.08
769.828	8178.46
770.164	8110.21
770.5	8010.33
770.836	8007.84
771.171	8007.39
771.507	8017.33
771.842	7947.28
772.178	7894.62
772.513	7897.56
772.849	7885.81
773.184	7853.72
773.519	7932.14
773.855	7841.07
774.19	7787.28
774.525	7715.42
774.86	7749.54
775.195	7719.26
775.53	7664.57
775.865	7681.97
776.2	7564.46
776.535	7631.35
776.87	7578.93
777.205	7600.39
777.539	7542.77
777.874	7526.72
778.209	7446.95
778.543	7415.31
778.878	7438.82
779.212	7388.87
779.547	7381.87
779.881	7332.38
780.215	7376.22
780.55	7340.29
780.884	7237.24
781.218	7261.87
781.552	7220.29
781.886	7177.13
782.22	7170.35
782.554	7131.48
782.888	7136.45
783.222	7063.23
783.556	7072.27
783.889	7016.23
784.223	6987.08
784.557	6966.96
784.89	7004.7
785.224	6919.96
785.557	6840.41
785.891	6835.22
786.224	6875.67
786.558	6851.71
786.891	6829.79
787.224	6863.46
787.557	6795.44
787.891	6738.04
788.224	6699.85
788.557	6757.93
788.89	6737.82
789.223	6696.46
789.556	6638.38
789.888	6580.08
790.221	6622.79
790.554	6577.6
790.887	6576.24
791.219	6567.65
791.552	6522.68
791.884	6477.26
792.217	6442.68
792.549	6452.17
792.882	6416.7
793.214	6331.73
793.546	6405.85
793.879	6423.93
794.211	6283.37
794.543	6323.14
794.875	6313.42
795.207	6290.15
795.539	6277.49
795.871	6291.5
796.203	6217.6
796.535	6206.76
796.867	6161.11
797.198	6155.46
797.53	6207.44
797.862	6107.33
798.193	6161.11
798.525	6108.46
798.856	6165.18
799.188	6062.35
799.519	6055.8
799.85	6007.67
800.182	6033.88
800.513	5978.97
800.844	6009.7
801.175	5950.72
801.506	5962.47
801.837	5930.38
802.168	5887.67
802.499	5837.73
802.83	5788.01
803.161	5840.67
803.491	5880.44
803.822	5843.38
804.153	5831.17
804.483	5766.09
804.814	5719.54
805.145	5786.66
805.475	5752.08
805.805	5695.36
806.136	5714.79
806.466	5818.07
806.796	5696.04
807.126	5679.77
807.457	5673.21
807.787	5692.65
808.117	5657.62
808.447	5632.99
808.777	5660.33
809.107	5630.5
809.436	5649.94
809.766	5601.8
810.096	5598.19
810.426	5559.32
810.755	5556.83
811.085	5564.97
811.414	5536.27
811.744	5494.69
812.073	5468.92
812.403	5475.93
812.732	5436.83
813.061	5468.7
813.39	5407.91
813.719	5397.97
814.049	5452.43
814.378	5419.89
814.707	5401.81
815.036	5433.44
815.365	5381.69
815.693	5351.41
816.022	5352.54
816.351	5317.97
816.68	5285.2
817.008	5305.99
817.337	5233.22
817.665	5221.47
817.994	5287.01
818.322	5236.39
818.651	5212.66
818.979	5196.16
819.307	5204.3
819.636	5174.47
819.964	5162.94
820.292	5197.52
820.62	5151.87
820.948	5167.01
821.276	5188.25
821.604	5133.34
821.932	5144.64
822.259	5100.12
822.587	5156.39
822.915	5133.79
823.243	5132.21
823.57	5110.97
823.898	5130.63
824.225	5102.38
824.553	5161.36
824.88	5104.64
825.207	5142.15
825.535	5114.13
825.862	5123.4
826.189	5146.22
826.516	5153.45
826.843	5137.86
827.17	5184.86
827.497	5140.8
827.824	5100.57
828.151	5159.78
828.478	5151.42
828.805	5173.79
829.131	5136.5
829.458	5071.19
829.785	5151.19
830.111	5103.74
830.438	5153
830.764	5146.9
831.09	5161.59
831.417	5140.35
831.743	5148.71
832.069	5080.01
832.395	5099.22
832.722	5085.43
833.048	5124.75
833.374	5062.16
833.7	5104.64
834.026	5108.26
834.351	5135.15
834.677	5075.71
835.003	5070.06
835.329	5103.96
835.654	5046.11
835.98	5055.38
836.306	5077.75
836.631	5037.52
836.956	5097.41
837.282	4986
837.607	5027.35
837.932	4997.75
838.258	5028.71
838.583	4994.81
838.908	4950.52
839.233	4957.53
839.558	4995.26
839.883	4975.83
840.208	5020.12
840.533	4937.86
840.858	4979.67
841.182	4988.71
841.507	4942.16
841.832	4944.64
842.156	4888.37
842.481	4890.86
842.805	4911.88
843.13	4896.06
843.454	4871.43
843.778	4923.4
844.103	4863.29
844.427	4825.33
844.751	4857.19
845.075	4875.72
845.399	4821.48
845.723	4813.57
846.047	4812.9
846.371	4750.07
846.695	4697.87
847.019	4711.88
847.343	4699.45
847.666	4673.01
847.99	4675.5
848.313	4717.98
848.637	4659.23
848.96	4649.28
849.284	4609.74
849.607	4622.62
849.931	4583.75
850.254	4585.33
850.577	4541.04
850.9	4557.08
851.223	4535.39
851.546	4517.54
851.869	4469.85
852.192	4516.41
852.515	4444.54
852.838	4432.34
853.161	4410.87
853.483	4386.47
853.806	4379.69
854.129	4389.4
854.451	4343.08
854.774	4321.38
855.096	4359.12
855.419	4310.99
855.741	4321.61
856.063	4290.2
856.385	4324.32
856.708	4317.32
857.03	4278.9
857.352	4229.63
857.674	4241.61
857.996	4233.7
858.318	4214.95
858.64	4223.76
858.961	4193.48
859.283	4151.9
859.605	4167.49
859.926	4163.65
860.248	4214.95
860.57	4172.46
860.891	4182.4
861.212	4121.39
861.534	4101.28
861.855	4095.85
862.176	4117.55
862.498	4116.64
862.819	4113.25
863.14	4054.5
863.461	4100.15
863.782	4071.67
864.103	4052.01
864.424	4016.98
864.745	4035.06
865.065	3983.77
865.386	3985.8
865.707	4056.31
866.027	4022.63
866.348	4036.42
866.668	4046.81
866.989	3999.13
867.309	3989.87
867.63	4009.98
867.95	3982.18
868.27	3945.8
868.59	3985.35
868.91	3940.6
869.23	3996.19
869.55	3950.77
869.87	3993.03
870.19	3942.86
870.51	3922.07
870.83	3916.42
871.15	3877.33
871.469	3878.01
871.789	3934.05
872.109	3923.65
872.428	3897.44
872.748	3901.51
873.067	3925.46
873.386	3916.42
873.706	3925.01
874.025	3887.5
874.344	3893.37
874.663	3856.54
874.982	3890.43
875.301	3845.69
875.62	3851.57
875.939	3824.67
876.258	3855.63
876.577	3759.36
876.896	3825.58
877.214	3796.2
877.533	3786.48
877.852	3820.83
878.17	3788.06
878.489	3788.29
878.807	3788.97
879.125	3789.65
879.444	3767.73
879.762	3785.35
880.08	3787.16
880.398	3762.3
880.716	3732.92
881.034	3725.69
881.352	3745.58
881.67	3752.58
881.988	3775.64
882.306	3721.85
882.624	3716.2
882.941	3700.16
883.259	3697.22
883.577	3646.15
883.894	3656.99
884.212	3679.37
884.529	3649.76
884.846	3630.55
885.164	3665.13
885.481	3605.92
885.798	3630.55
886.115	3607.05
886.432	3602.08
886.75	3609.99
887.067	3626.49
887.383	3605.47
887.7	3593.27
888.017	3580.16
888.334	3561.18
888.651	3570.44
888.967	3556.88
889.284	3541.07
889.6	3554.17
889.917	3478.47
890.233	3513.04
890.55	3518.69
890.866	3530.22
891.182	3480.05
891.498	3457.68
891.815	3489.99
892.131	3421.29
892.447	3457.68
892.763	3445.02
893.079	3422.2
893.395	3422.2
893.71	3412.25
894.026	3395.31
894.342	3395.53
894.657	3376.32
894.973	3341.75
895.289	3363.22
895.604	3333.16
895.92	3345.36
896.235	3355.31
896.55	3362.76
896.865	3297.91
897.181	3300.85
897.496	3316.44
897.811	3234.18
898.126	3276.44
898.441	3252.03
898.756	3252.94
899.071	3224.46
899.386	3227.18
899.7	3274.86
900.015	3243.9
900.33	3172.26
900.644	3221.98
900.959	3229.21
901.273	3177.46
901.588	3135.2
901.902	3155.99
902.216	3155.99
902.531	3121.64
902.845	3142.21
903.159	3122.55
903.473	3071.02
903.787	3092.94
904.101	3080.96
904.415	3115.77
904.729	3075.31
905.042	3030.12
905.356	3039.38
905.67	3011.81
905.984	3021.98
906.297	3016.11
906.611	2944.92
906.924	2986.28
907.237	2966.62
907.551	2965.94
907.864	2957.13
908.177	2935.43
908.491	2960.97
908.804	2931.14
909.117	2918.71
909.43	2877.81
909.743	2889.33
910.056	2894.08
910.368	2880.97
910.681	2813.17
910.994	2877.35
911.307	2814.08
911.619	2801.88
911.932	2810.24
912.244	2842.1
912.557	2801.65
912.869	2823.57
913.181	2771.37
913.494	2769.33
913.806	2755.77
914.118	2776.79
914.43	2749.67
914.742	2753.29
915.054	2710.58
915.366	2744.02
915.678	2713.52
915.99	2716.91
916.302	2674.87
916.613	2652.05
916.925	2699.05
917.236	2677.13
917.548	2652.05
917.859	2644.14
918.171	2621.09
918.482	2618.83
918.794	2571.6
919.105	2624.7
919.416	2588.77
919.727	2580.19
920.038	2605.5
920.349	2545.84
920.66	2514.88
920.971	2569.11
921.282	2543.58
921.593	2547.19
921.903	2510.58
922.214	2494.76
922.525	2513.07
922.835	2488.66
923.146	2427.65
923.456	2462.45
923.767	2471.26
924.077	2445.73
924.387	2462.9
924.697	2425.16
925.008	2452.51
925.318	2389.91
925.628	2403.47
925.938	2398.27
926.248	2399.85
926.558	2376.58
926.867	2393.07
927.177	2363.02
927.487	2334.77
927.796	2336.13
928.106	2334.09
928.416	2323.47
928.725	2332.06
929.034	2278.05
929.344	2309.01
929.653	2278.73
929.962	2278.73
930.271	2234.66
930.581	2278.27
930.89	2256.81
931.199	2199.86
931.508	2255.9
931.817	2208.9
932.125	2173.42
932.434	2206.18
932.743	2207.54
933.051	2154.66
933.36	2156.69
933.669	2169.35
933.977	2161.67
934.286	2162.57
934.594	2179.52
934.902	2118.96
935.21	2117.6
935.519	2119.41
935.827	2087.77
936.135	2090.93
936.443	2110.37
936.751	2090.71
937.059	2119.18
937.367	2090.93
937.674	2078.05
937.982	2048.45
938.29	2069.47
938.597	2070.14
938.905	2058.17
939.213	2045.29
939.52	2025.4
939.827	1993.54
940.135	2008
940.442	2010.71
940.749	1991.28
941.056	1986.53
941.363	1988.11
941.67	1954.67
941.977	1969.58
942.284	1955.8
942.591	1944.95
942.898	1929.58
943.205	1978.39
943.511	1935.68
943.818	1942.92
944.125	1921.45
944.431	1936.81
944.738	1900.88
945.044	1871.5
945.35	1872.41
945.657	1878.74
945.963	1867.89
946.269	1841
946.575	1869.47
946.881	1864.27
947.187	1834.44
947.493	1822.92
947.799	1830.38
948.105	1804.39
948.41	1788.12
948.716	1852.97
949.022	1822.24
949.327	1802.81
949.633	1796.48
949.938	1775.01
950.244	1799.19
950.549	1768
950.854	1761.9
951.16	1748.12
951.465	1745.18
951.77	1727.78
952.075	1727.33
952.38	1750.6
952.685	1711.73
952.99	1711.96
953.294	1728.23
953.599	1677.39
953.904	1710.15
954.209	1695.92
954.513	1688.68
954.818	1709.25
955.122	1668.35
955.426	1670.61
955.731	1656.82
956.035	1668.57
956.339	1648.01
956.643	1626.99
956.948	1648.91
957.252	1640.78
957.556	1649.82
957.86	1622.7
958.163	1618.86
958.467	1626.99
958.771	1650.72
959.075	1606.88
959.378	1606.65
959.682	1594.22
959.985	1562.81
960.289	1558.52
960.592	1570.27
960.896	1544.28
961.199	1564.85
961.502	1563.49
961.805	1575.24
962.108	1530.04
962.411	1503.38
962.714	1524.39
963.017	1539.99
963.32	1522.81
963.623	1530.27
963.926	1482.59
964.228	1483.27
964.531	1508.8
964.833	1490.5
965.136	1474.68
965.438	1460.89
965.741	1448.46
966.043	1464.96
966.345	1470.84
966.648	1449.82
966.95	1475.13
967.252	1421.57
967.554	1446.43
967.856	1429.71
968.158	1414.79
968.46	1419.54
968.761	1415.25
969.063	1406.21
969.365	1414.57
969.666	1408.47
969.968	1389.48
970.269	1379.54
970.571	1397.17
970.872	1377.96
971.174	1339.54
971.475	1379.77
971.776	1388.13
972.077	1373.21
972.378	1363.27
972.679	1365.76
972.98	1362.82
973.281	1360.11
973.582	1363.5
973.883	1371.4
974.183	1338.64
974.484	1328.24
974.785	1335.25
975.085	1313.33
975.386	1333.89
975.686	1309.03
975.986	1300.45
976.287	1304.51
976.587	1289.15
976.887	1285.76
977.187	1294.57
977.487	1298.41
977.787	1268.13
978.087	1271.29
978.387	1292.08
978.687	1265.42
978.987	1260.45
979.286	1242.82
979.586	1244.4
979.885	1236.72
980.185	1243.95
980.484	1245.31
980.784	1241.92
981.083	1231.3
981.382	1230.39
981.682	1217.74
981.981	1210.73
982.28	1195.59
982.579	1199.43
982.878	1180.68
983.177	1193.33
983.475	1174.57
983.774	1201.01
984.073	1180.45
984.372	1184.74
984.67	1140.68
984.969	1183.39
985.267	1166.21
985.566	1111.07
985.864	1152.2
986.162	1150.62
986.461	1125.76
986.759	1127.12
987.057	1127.34
987.355	1145.2
987.653	1151.75
987.951	1130.06
988.249	1109.04
988.547	1128.93
988.844	1105.2
989.142	1115.37
989.44	1089.15
989.737	1092.99
990.035	1095.25
990.332	1079.43
990.63	1088.7
990.927	1057.06
991.224	1058.42
991.521	1111.75
991.819	1083.95
992.116	1061.58
992.413	1031.98
992.71	1070.17
993.006	1069.27
993.303	1042.6
993.6	1054.35
993.897	1031.07
994.193	1023.17
994.49	997.63
994.787	1019.78
995.083	994.24
995.379	1001.24
995.676	1028.36
995.972	1000.34
996.268	1003.96
996.565	1003.28
996.861	991.98
997.157	998.31
997.453	989.72
997.749	984.3
998.044	983.62
998.34	980.68
998.636	1008.02
998.932	997.4
999.227	979.32
999.523	948.36
999.818	962.6
1000.114	969.16
1000.409	948.14
1000.704	933.9
1001	949.49
1001.295	914.92
1001.59	927.57
1001.885	924.41
1002.18	926.67
1002.475	908.37
1002.77	901.81
1003.065	925.09
1003.359	890.74
1003.654	916.05
1003.949	901.36
1004.243	903.17
1004.538	888.93
1004.832	906.33
1005.127	907.01
1005.421	905.65
1005.715	907.69
1006.009	889.61
1006.304	871.08
1006.598	864.98
1006.892	865.43
1007.186	864.07
1007.48	873.56
1007.773	855.94
1008.067	884.64
1008.361	869.04
1008.655	853
1008.948	831.53
1009.242	831.31
1009.535	850.97
1009.829	825.43
1010.122	818.88
1010.415	831.53
1010.708	823.4
1011.001	805.09
1011.295	816.84
1011.588	799.89
1011.881	802.83
1012.173	772.55
1012.466	786.79
1012.759	803.96
1013.052	790.85
1013.344	809.39
1013.637	786.34
1013.93	777.07
1014.222	795.6
1014.514	761.93
1014.807	768.93
1015.099	769.16
1015.391	765.54
1015.683	757.86
1015.976	767.8
1016.268	747.92
1016.56	734.36
1016.851	759.44
1017.143	745.66
1017.435	741.14
1017.727	755.15
1018.018	736.85
1018.31	760.35
1018.602	722.38
1018.893	713.79
1019.185	734.36
1019.476	693.68
1019.767	716.05
1020.058	734.59
1020.35	714.02
1020.641	726.68
1020.932	688.03
1021.223	705.21
1021.514	701.37
1021.804	669.95
1022.095	684.64
1022.386	676.73
1022.677	682.16
1022.967	695.72
1023.258	677.86
1023.548	660.91
1023.839	686.68
1024.129	683.74
1024.419	637.64
1024.709	642.16
1025	643.97
1025.29	662.27
1025.58	653.91
1025.87	649.84
1026.16	653.23
1026.449	639.45
1026.739	623.4
1027.029	623.18
1027.319	627.47
1027.608	649.84
1027.898	622.05
1028.187	611.2
1028.477	627.24
1028.766	620.92
1029.055	606.23
1029.344	607.81
1029.634	643.97
1029.923	629.28
1030.212	624.76
1030.501	621.14
1030.79	602.39
1031.078	594.7
1031.367	603.06
1031.656	590.18
1031.945	604.87
1032.233	582.72
1032.522	575.04
1032.81	598.54
1033.099	575.72
1033.387	579.34
1033.675	564.87
1033.963	576.17
1034.251	576.62
1034.54	591.76
1034.828	576.85
1035.116	545.44
1035.403	550.18
1035.691	554.25
1035.979	577.3
1036.267	545.21
1036.554	544.99
1036.842	531.88
1037.129	523.29
1037.417	552.22
1037.704	554.25
1037.992	551.09
1038.279	538.21
1038.566	539.34
1038.853	539.34
1039.14	539.34
