Data from foam_black_FLMS001491_00036.txt Node
Date: Wed Feb 08 10:43:48 GMT 2017
User: dcchb
Spectrometer: FLMS00149
Trigger mode: 0
Integration Time (sec): 2.000000E-2
Scans to average: 10
Electric dark correction enabled: true
Nonlinearity correction enabled: false
Boxcar width: 0
XAxis mode: Wavelengths
Number of Pixels in Spectrum: 2048
>>>>>Begin Spectral Data<<<<<
341.393	-23.43
341.776	-23.43
342.16	-23.43
342.543	-42.19
342.927	-59.59
343.31	-70.89
343.693	-75.18
344.077	-74.73
344.46	-59.14
344.843	-45.58
345.226	-59.59
345.61	-22.3
345.993	-13.26
346.376	-11.91
346.759	28.32
347.142	26.74
347.525	32.16
347.908	69.22
348.291	66.51
348.674	91.14
349.057	118.49
349.44	144.7
349.823	139.05
350.206	176.11
350.588	178.82
350.971	189.22
351.354	203.68
351.737	233.06
352.119	239.16
352.502	253.4
352.884	278.03
353.267	260.18
353.65	281.87
354.032	275.09
354.414	291.81
354.797	290.46
355.179	311.02
355.562	303.11
355.944	319.84
356.326	316.22
356.709	313.28
357.091	327.52
357.473	320.97
357.855	330.91
358.238	325.94
358.62	327.07
359.002	341.08
359.384	358.93
359.766	307.41
360.148	315.09
360.53	317.58
360.912	318.71
361.294	336.11
361.676	309.44
362.057	313.28
362.439	297.24
362.821	313.73
363.203	317.8
363.584	317.12
363.966	308.76
364.348	318.71
364.729	302.66
365.111	283.23
365.493	297.92
365.874	308.09
366.256	330.46
366.637	311.7
367.019	308.54
367.4	269.22
367.781	306.96
368.163	313.96
368.544	299.5
368.925	298.14
369.306	321.87
369.688	300.85
370.069	296.11
370.45	316.45
370.831	317.8
371.212	312.6
371.593	309.22
371.974	302.89
372.355	315.99
372.736	296.56
373.117	312.38
373.498	278.26
373.879	319.16
374.26	300.63
374.641	290.91
375.021	299.95
375.402	303.79
375.783	312.15
376.163	314.41
376.544	304.7
376.925	309.22
377.305	324.81
377.686	296.33
378.066	299.72
378.447	305.37
378.827	310.12
379.208	309.89
379.588	300.4
379.968	320.97
380.349	305.6
380.729	304.02
381.109	315.99
381.489	320.97
381.87	328.88
382.25	321.42
382.63	325.49
383.01	328.65
383.39	315.77
383.77	325.03
384.15	331.36
384.53	330.01
384.91	329.55
385.29	328.88
385.67	314.19
386.049	318.93
386.429	342.66
386.809	317.8
387.189	341.08
387.568	333.85
387.948	332.72
388.328	308.31
388.707	317.12
389.087	346.28
389.466	358.03
389.846	318.71
390.225	340.85
390.605	336.78
390.984	319.16
391.363	370
391.743	345.15
392.122	353.06
392.501	327.29
392.881	336.56
393.26	355.77
393.639	350.57
394.018	340.4
394.397	359.61
394.776	340.17
395.155	345.37
395.534	349.44
395.913	365.94
396.292	355.77
396.671	349.67
397.05	344.47
397.429	345.37
397.808	344.02
398.186	360.97
398.565	348.08
398.944	357.58
399.323	362.55
399.701	373.62
400.08	372.72
400.458	368.87
400.837	351.47
401.215	387.86
401.594	378.37
401.972	357.35
402.351	375.43
402.729	369.55
403.107	357.58
403.486	376.11
403.864	388.53
404.242	392.83
404.62	387.41
404.999	396.67
405.377	398.03
405.755	395.09
406.133	370
406.511	373.62
406.889	394.18
407.267	376.56
407.645	398.48
408.023	387.18
408.401	382.66
408.779	390.57
409.156	417.23
409.534	417.46
409.912	414.97
410.29	402.77
410.667	421.53
411.045	419.72
411.422	405.26
411.8	414.75
412.178	405.48
412.555	402.77
412.933	423.56
413.31	419.95
413.687	440.06
414.065	415.43
414.442	410.46
414.819	431.7
415.197	443.45
415.574	435.99
415.951	447.52
416.328	443.67
416.705	442.32
417.082	448.65
417.46	465.82
417.837	460.17
418.214	454.3
418.591	438.03
418.967	446.61
419.344	453.17
419.721	465.82
420.098	439.83
420.475	450
420.852	435.09
421.228	469.44
421.605	466.5
421.982	474.41
422.358	474.63
422.735	489.1
423.111	479.83
423.488	491.36
423.864	492.49
424.241	468.31
424.617	492.04
424.994	488.65
425.37	506.95
425.746	498.59
426.123	503.33
426.499	496.55
426.875	505.59
427.251	497.23
427.627	527.29
428.003	525.93
428.379	520.28
428.756	507.63
429.132	520.73
429.507	515.99
429.883	518.7
430.259	536.55
430.635	540.85
431.011	537.91
431.387	533.39
431.763	536.55
432.138	559.83
432.514	561.64
432.89	565.25
433.265	545.37
433.641	548.53
434.016	575.65
434.392	576.55
434.767	556.44
435.143	577.91
435.518	586.95
435.894	580.39
436.269	584.91
436.644	568.64
437.02	581.07
437.395	566.61
437.77	581.52
438.145	604.57
438.52	607.96
438.895	595.31
439.271	605.48
439.646	627.85
440.021	603.22
440.395	631.69
440.77	616.33
441.145	601.41
441.52	608.87
441.895	602.54
442.27	635.08
442.645	631.01
443.019	623.56
443.394	618.81
443.769	625.14
444.143	640.51
444.518	643.44
444.892	644.35
445.267	649.77
445.641	670.11
446.016	680.05
446.39	649.09
446.764	645.7
447.139	680.05
447.513	644.57
447.887	671.69
448.262	666.95
448.636	663.1
449.01	694.06
449.384	681.18
449.758	670.56
450.132	702.65
450.506	678.7
450.88	683.89
451.254	675.99
451.628	694.74
452.002	705.14
452.376	699.94
452.75	721.63
453.123	694.52
453.497	718.47
453.871	727.28
454.244	741.75
454.618	732.93
454.992	733.16
455.365	739.49
455.739	741.29
456.112	798.02
456.486	744.46
456.859	777
457.232	777.23
457.606	768.19
457.979	774.97
458.352	764.34
458.725	794.85
459.099	798.02
459.472	798.69
459.845	785.81
460.218	833.95
460.591	810.9
460.964	826.04
461.337	848.64
461.71	847.05
462.083	852.7
462.456	864
462.829	850.67
463.201	851.12
463.574	853.83
463.947	884.34
464.32	883.44
464.692	904.45
465.065	882.31
465.438	913.94
465.81	928.63
466.183	935.41
466.555	943.1
466.928	941.97
467.3	932.48
467.672	973.6
468.045	966.37
468.417	970.67
468.789	968.18
469.161	973.6
469.534	994.17
469.906	1035.98
470.278	1037.78
470.65	1021.06
471.022	1044.56
471.394	1044.79
471.766	1064.68
472.138	1068.74
472.51	1100.38
472.882	1085.69
473.253	1088.18
473.625	1113.04
473.997	1117.1
474.369	1142.41
474.74	1135.63
475.112	1170.44
475.484	1169.08
475.855	1188.97
476.227	1197.78
476.598	1234.61
476.97	1232.13
477.341	1230.32
477.713	1271.45
478.084	1249.76
478.455	1302.18
478.827	1311
479.198	1341.05
479.569	1330.88
479.94	1355.29
480.311	1349.87
480.682	1374.05
481.053	1387.38
481.424	1409.3
481.795	1428.73
482.166	1456.08
482.537	1474.83
482.908	1472.12
483.279	1502.86
483.65	1493.82
484.021	1545.79
484.391	1564.1
484.762	1588.28
485.133	1577.2
485.503	1610.88
485.874	1642.74
486.244	1668.73
486.615	1682.74
486.985	1695.62
487.356	1706.24
487.726	1720.93
488.097	1736.97
488.467	1752.11
488.837	1782.4
489.207	1762.28
489.578	1835.28
489.948	1848.16
490.318	1844.09
490.688	1851.77
491.058	1849.51
491.428	1892.68
491.798	1919.12
492.168	1962.96
492.538	1949.17
492.908	1956.63
493.278	1996.63
493.648	1955.95
494.017	2013.35
494.387	2022.84
494.757	2037.53
495.126	2086.34
495.496	2071.88
495.866	2070.75
496.235	2115.95
496.605	2118.21
496.974	2147.81
497.344	2147.36
497.713	2164.53
498.082	2185.55
498.452	2201.59
498.821	2196.4
499.19	2193.46
499.559	2207.24
499.928	2233.68
500.298	2245.44
500.667	2252.21
501.036	2244.53
501.405	2262.84
501.774	2264.87
502.143	2317.52
502.512	2312.78
502.88	2307.13
503.249	2328.37
503.618	2327.92
503.987	2360.46
504.356	2383.96
504.724	2398.43
505.093	2423.28
505.462	2411.98
505.83	2428.26
506.199	2418.31
506.567	2467.8
506.936	2442.72
507.304	2511.42
507.672	2491.98
508.041	2531.3
508.409	2540.57
508.777	2559.33
509.145	2575.82
509.514	2570.62
509.882	2603.84
510.25	2597.29
510.618	2608.59
510.986	2665.54
511.354	2640
511.722	2647.01
512.09	2667.57
512.458	2668.93
512.826	2744.41
513.193	2729.04
513.561	2693.79
513.929	2792.77
514.297	2762.94
514.664	2742.82
515.032	2795.93
515.4	2825.76
515.767	2825.99
516.135	2833.44
516.502	2835.02
516.869	2913.44
517.237	2886.1
517.604	2914.57
517.972	2929.94
518.339	2935.36
518.706	2953.67
519.073	2950.28
519.44	2983.72
519.808	3037.28
520.175	3070.05
520.542	3034.12
520.909	3082.25
521.276	3082.48
521.643	3084.28
522.009	3101.91
522.376	3157.5
522.743	3195.69
523.11	3188.69
523.477	3226.65
523.843	3267.78
524.21	3275.92
524.577	3298.29
524.943	3333.09
525.31	3284.73
525.676	3393.43
526.043	3352.98
526.409	3393.43
526.776	3426.2
527.142	3435.91
527.508	3449.02
527.874	3444.95
528.241	3477.49
528.607	3425.74
528.973	3539.64
529.339	3523.37
529.705	3538.06
530.071	3563.14
530.437	3596.36
530.803	3620.99
531.169	3691.27
531.535	3664.16
531.901	3683.36
532.267	3673.65
532.632	3696.47
532.998	3733.53
533.364	3728.11
533.73	3774.21
534.095	3749.12
534.461	3831.61
534.826	3823.92
535.192	3827.54
535.557	3844.49
535.923	3805.39
536.288	3881.55
536.653	3894.88
537.019	3885.84
537.384	3912.96
537.749	3954.09
538.114	3909.57
538.479	3952.74
538.845	3998.84
539.21	3983.47
539.575	3987.76
539.94	4021.66
540.305	4016.69
540.67	4031.83
541.034	4034.31
541.399	4079.29
541.764	4059.17
542.129	4063.47
542.494	4099.85
542.858	4118.38
543.223	4114.99
543.587	4190.92
543.952	4150.92
544.316	4163.8
544.681	4182.79
545.045	4212.84
545.41	4190.02
545.774	4248.09
546.138	4194.54
546.503	4260.3
546.867	4239.06
547.231	4291.71
547.595	4267.76
547.959	4264.59
548.324	4317.92
548.688	4310.69
549.052	4327.19
549.416	4313.4
549.779	4393.4
550.143	4416.9
550.507	4379.39
550.871	4421.65
551.235	4454.64
551.599	4427.3
551.962	4521.99
552.326	4491.25
552.689	4517.01
553.053	4513.85
553.417	4559.05
553.78	4597.69
554.143	4596.79
554.507	4604.47
554.87	4600.18
555.234	4621.42
555.597	4667.74
555.96	4637.91
556.323	4657.12
556.686	4654.41
557.05	4712.04
557.413	4727.18
557.776	4695.99
558.139	4776.67
558.502	4816.22
558.865	4823.22
559.228	4834.97
559.59	4834.75
559.953	4879.94
560.316	4962.2
560.679	4949.32
561.041	4936.44
561.404	4944.57
561.767	4977.79
562.129	5022.54
562.492	5008.53
562.854	5046.04
563.217	5065.02
563.579	5078.36
563.941	5110.22
564.304	5128.98
564.666	5142.31
565.028	5152.03
565.39	5185.02
565.753	5231.12
566.115	5246.49
566.477	5271.34
566.839	5309.08
567.201	5332.81
567.563	5337.33
567.925	5352.02
568.287	5361.51
568.648	5403.09
569.01	5387.95
569.372	5444
569.734	5401.06
570.095	5457.78
570.457	5493.94
570.819	5518.57
571.18	5533.48
571.542	5606.02
571.903	5544.33
572.265	5567.16
572.626	5598.34
572.987	5630.88
573.349	5627.04
573.71	5594.73
574.071	5627.49
574.432	5736.42
574.794	5694.16
575.155	5738.22
575.516	5654.61
575.877	5706.14
576.238	5749.75
576.599	5775.96
576.96	5769.18
577.32	5817.54
577.681	5799.01
578.042	5824.78
578.403	5778.22
578.763	5784.78
579.124	5808.51
579.485	5846.7
579.845	5869.29
580.206	5895.73
580.566	5867.03
580.927	5832.91
581.287	5943.19
581.648	5880.59
582.008	5950.42
582.368	5909.52
582.728	5932.12
583.089	5918.56
583.449	5951.55
583.809	5980.7
584.169	5953.59
584.529	5919.69
584.889	5976.64
585.249	5905.45
585.609	5944.32
585.969	5986.81
586.329	5963.76
586.688	6006.92
587.048	5982.74
587.408	5981.61
587.768	5919.01
588.127	5955.62
588.487	5997.65
588.846	5954.04
589.206	5938.45
589.565	5944.32
589.925	5960.14
590.284	5962.17
590.643	5967.37
591.003	5919.24
591.362	5991.33
591.721	5923.3
592.08	5947.26
592.44	6006.47
592.799	5992.23
593.158	5986.13
593.517	5880.82
593.876	5974.83
594.235	5930.31
594.593	5957.65
594.952	5963.3
595.311	5913.36
595.67	5971.67
596.029	6019.8
596.387	5973.02
596.746	6036.3
597.104	6005.79
597.463	5959.24
597.822	6029.06
598.18	5975.28
598.538	5981.38
598.897	6071.1
599.255	6041.72
599.613	6080.59
599.972	6017.99
600.33	6051.21
600.688	6053.92
601.046	6051.89
601.404	6091.21
601.762	6062.96
602.12	6081.04
602.478	6136.86
602.836	6081.94
603.194	6110.42
603.552	6057.31
603.91	6086.69
604.268	6168.95
604.625	6092.57
604.983	6102.96
605.341	6059.8
605.698	6176.63
606.056	6095.5
606.413	6106.58
606.771	6163.52
607.128	6136.41
607.485	6086.01
607.843	6134.82
608.2	6150.87
608.557	6144.09
608.914	6062.74
609.272	6137.54
609.629	6141.38
609.986	6206.24
610.343	6169.4
610.7	6227.25
611.057	6203.3
611.414	6206.91
611.771	6153.36
612.127	6251.43
612.484	6266.57
612.841	6256.63
613.198	6267.7
613.554	6249.85
613.911	6343.18
614.267	6310.19
614.624	6340.24
614.98	6353.58
615.337	6409.17
615.693	6346.8
616.05	6360.13
616.406	6418.66
616.762	6382.95
617.118	6369.39
617.475	6454.14
617.831	6394.25
618.187	6401.03
618.543	6390.41
618.899	6482.39
619.255	6451.43
619.611	6454.82
619.967	6508.15
620.323	6468.6
620.678	6472.44
621.034	6411.2
621.39	6449.62
621.746	6411.88
622.101	6454.59
622.457	6383.63
622.812	6366.91
623.168	6345.67
623.523	6402.39
623.879	6419.56
624.234	6301.37
624.589	6348.38
624.945	6344.54
625.3	6327.36
625.655	6343.41
626.01	6276.97
626.365	6324.42
626.72	6277.42
627.075	6314.71
627.43	6329.17
627.785	6228.61
628.14	6285.1
628.495	6280.58
628.85	6272.67
629.205	6250.75
629.559	6263.86
629.914	6299.57
630.269	6255.27
630.623	6291.2
630.978	6228.61
631.332	6216.63
631.687	6306.12
632.041	6279.23
632.396	6299.79
632.75	6296.4
633.104	6273.58
633.459	6308.61
633.813	6296.18
634.167	6341.82
634.521	6330.3
634.875	6292.11
635.229	6309.28
635.583	6316.74
635.937	6373.91
636.291	6308.83
636.645	6337.76
636.999	6294.59
637.352	6397.64
637.706	6260.02
638.06	6341.15
638.413	6322.39
638.767	6324.88
639.121	6339.56
639.474	6268.83
639.828	6290.07
640.181	6306.35
640.534	6264.54
640.888	6226.57
641.241	6255.95
641.594	6235.16
641.947	6253.92
642.301	6262.5
642.654	6169.4
643.007	6158.55
643.36	6192.45
643.713	6244.43
644.066	6158.55
644.419	6115.39
644.771	6051.66
645.124	5968.5
645.477	5977.31
645.83	5909.52
646.182	5921.5
646.535	5931.89
646.888	5957.65
647.24	5894.83
647.593	5917.66
647.945	5937.77
648.298	5856.41
648.65	5873.59
649.002	5862.74
649.355	5896.41
649.707	5838.34
650.059	5901.61
650.411	5872.68
650.763	5928.05
651.115	6014.38
651.467	6008.5
651.819	5984.55
652.171	6000.59
652.523	5962.17
652.875	5941.84
653.227	5973.47
653.578	6016.41
653.93	6032.45
654.282	5945.9
654.633	6001.49
654.985	5999.46
655.337	5971.21
655.688	6005.79
656.039	6016.64
656.391	5950.42
656.742	5966.92
657.094	5946.81
657.445	5988.16
657.796	5949.74
658.147	5982.51
658.498	5946.35
658.849	5967.15
659.2	5891.22
659.551	5871.55
659.902	5951.33
660.253	5904.32
660.604	5871.78
660.955	5872.01
661.306	5856.64
661.656	5842.85
662.007	5840.37
662.358	5867.03
662.708	5924.89
663.059	5885.11
663.409	5819.35
663.76	5833.14
664.11	5880.14
664.461	5834.49
664.811	5858.22
665.161	5838.79
665.511	5781.61
665.862	5853.02
666.212	5863.19
666.562	5812.57
666.912	5811.44
667.262	5799.01
667.612	5775.74
667.962	5774.83
668.312	5783.2
668.662	5825.68
669.011	5818.9
669.361	5772.57
669.711	5803.31
670.06	5832.23
670.41	5817.54
670.76	5796.08
671.109	5805.79
671.459	5848.05
671.808	5819.13
672.157	5897.54
672.507	5803.99
672.856	5813.48
673.205	5860.26
673.554	5902.97
673.904	5874.27
674.253	5878.56
674.602	5874.27
674.951	5791.56
675.3	5827.04
675.649	5850.31
675.998	5860.26
676.346	5867.71
676.695	5888.5
677.044	5797.21
677.393	5865.91
677.741	5865.91
678.09	5888.05
678.438	5733.71
678.787	5801.27
679.135	5822.52
679.484	5833.14
679.832	5766.25
680.181	5746.13
680.529	5771.44
680.877	5721.28
681.225	5706.14
681.573	5694.16
681.922	5682.86
682.27	5669.75
682.618	5640.15
682.966	5664.55
683.314	5657.77
683.661	5564.22
684.009	5552.02
684.357	5560.38
684.705	5529.64
685.053	5552.47
685.4	5566.48
685.748	5486.03
686.095	5463.66
686.443	5452.13
686.79	5439.93
687.138	5453.94
687.485	5450.55
687.832	5463.43
688.18	5427.05
688.527	5377.78
688.874	5366.94
689.221	5397.89
689.568	5401.51
689.915	5385.01
690.262	5362.87
690.609	5392.25
690.956	5344.34
691.303	5338.69
691.65	5340.04
691.997	5282.42
692.344	5274.73
692.69	5301.17
693.037	5337.11
693.383	5327.16
693.73	5367.39
694.077	5280.84
694.423	5265.92
694.769	5328.07
695.116	5255.3
695.462	5273.15
695.808	5248.97
696.155	5257.33
696.501	5239.03
696.847	5284.68
697.193	5235.41
697.539	5252.81
697.885	5194.28
698.231	5159.48
698.577	5157
698.923	5150.44
699.269	5118.81
699.614	5157
699.96	5154.51
700.306	5119.48
700.651	5149.31
700.997	5093.27
701.342	5131.46
701.688	5059.15
702.033	5056.89
702.379	5077.9
702.724	5039.26
703.069	5019.15
703.415	4984.8
703.76	5005.81
704.105	4971.92
704.45	5030.9
704.795	4954.29
705.14	4938.02
705.485	4912.48
705.83	4867.74
706.175	4894.41
706.52	4858.25
706.865	4842.43
707.209	4804.01
707.554	4844.24
707.899	4787.52
708.243	4808.98
708.588	4799.72
708.932	4803.33
709.277	4761.75
709.621	4787.97
709.966	4776.22
710.31	4768.31
710.654	4707.07
710.998	4686.95
711.342	4701.87
711.687	4637.91
712.031	4658.48
712.375	4641.76
712.719	4659.84
713.063	4646.28
713.407	4687.18
713.75	4653.28
714.094	4710.91
714.438	4620.06
714.782	4634.98
715.125	4668.42
715.469	4634.3
715.812	4636.33
716.156	4553.85
716.499	4604.7
716.843	4627.52
717.186	4597.01
717.53	4588.88
717.873	4587.75
718.216	4577.13
718.559	4563.34
718.902	4576.22
719.246	4586.62
719.589	4526.96
719.932	4543.68
720.275	4538.48
720.617	4523.79
720.96	4530.35
721.303	4557.46
721.646	4519.73
721.989	4496.9
722.331	4462.55
722.674	4487.64
723.016	4486.05
723.359	4488.99
723.701	4446.73
724.044	4495.09
724.386	4466.62
724.729	4429.11
725.071	4449.67
725.413	4483.12
725.755	4383.68
726.097	4402.44
726.439	4370.8
726.782	4388.66
727.124	4429.56
727.465	4352.95
727.807	4384.81
728.149	4408.99
728.491	4327.41
728.833	4342.1
729.175	4346.17
729.516	4371.03
729.858	4287.87
730.199	4286.06
730.541	4258.49
730.882	4298.04
731.224	4298.49
731.565	4286.96
731.906	4271.37
732.248	4296
732.589	4251.03
732.93	4216.68
733.271	4241.09
733.612	4284.03
733.953	4266.4
734.294	4243.57
734.635	4169.45
734.976	4190.02
735.317	4183.69
735.658	4173.29
735.999	4204.93
736.339	4202.22
736.68	4187.53
737.021	4179.17
737.361	4089.91
737.702	4187.53
738.042	4156.8
738.383	4158.83
738.723	4143.92
739.063	4175.78
739.404	4151.83
739.744	4131.26
740.084	4075.67
740.424	4152.28
740.764	4115.89
741.104	4107.99
741.444	4114.76
741.784	4069.34
742.124	4109.57
742.464	4082.22
742.804	4106.4
743.143	4070.25
743.483	4086.29
743.823	4061.43
744.162	4058.49
744.502	4065.95
744.841	4051.72
745.181	4087.19
745.52	4050.36
745.86	4054.88
746.199	4061.66
746.538	4040.64
746.877	4075.22
747.216	4045.16
747.556	4035.44
747.895	4041.55
748.234	4014.43
748.573	4019.17
748.911	4039.29
749.25	3996.8
749.589	4000.19
749.928	3982.79
750.267	4030.7
750.605	4014.88
750.944	4003.13
751.283	3994.77
751.621	4008.1
751.96	3954.77
752.298	3954.54
752.636	3926.97
752.975	3926.52
753.313	3948.89
753.651	3934.2
753.989	3919.29
754.327	3913.64
754.666	3883.58
755.004	3905.73
755.342	3869.57
755.679	3870.25
756.017	3876.58
756.355	3854.88
756.693	3819.18
757.031	3847.65
757.368	3802.46
757.706	3844.49
758.044	3821.67
758.381	3833.64
758.719	3791.84
759.056	3815.11
759.394	3811.95
759.731	3765.4
760.068	3778.28
760.405	3763.36
760.743	3739.86
761.08	3727.43
761.417	3708.9
761.754	3709.8
762.091	3733.76
762.428	3680.43
762.765	3682.91
763.102	3696.02
763.438	3674.78
763.775	3637.72
764.112	3655.57
764.449	3635.68
764.785	3655.12
765.122	3594.1
765.458	3611.95
765.795	3564.27
766.131	3600.2
766.467	3522.92
766.804	3542.58
767.14	3540.09
767.476	3547.77
767.812	3530.15
768.148	3521.11
768.485	3480.43
768.821	3464.61
769.157	3453.77
769.492	3453.99
769.828	3476.59
770.164	3378.29
770.5	3448.79
770.836	3451.05
771.171	3388.91
771.507	3433.43
771.842	3418.51
772.178	3374.67
772.513	3366.31
772.849	3418.96
773.184	3368.12
773.519	3312.75
773.855	3333.32
774.19	3311.17
774.525	3309.81
774.86	3300.32
775.195	3308.68
775.53	3301.23
775.865	3244.73
776.2	3241.57
776.535	3227.56
776.87	3244.96
777.205	3226.43
777.539	3211.74
777.874	3211.06
778.209	3183.49
778.543	3183.49
778.878	3149.37
779.212	3132.19
779.547	3163.6
779.881	3189.37
780.215	3124.51
780.55	3145.52
780.884	3128.8
781.218	3136.03
781.552	3110.05
781.886	3080.89
782.22	3074.34
782.554	3107.56
782.888	3048.13
783.222	3043.61
783.556	3078.63
783.889	3049.03
784.223	3026.21
784.557	3032.08
784.89	3021.01
785.224	2998.86
785.557	3006.09
785.891	3010.84
786.224	2968.81
786.558	3000.9
786.891	2959.09
787.224	2956.15
787.557	2955.93
787.891	2912.54
788.224	2944.17
788.557	2926.32
788.89	2924.51
789.223	2923.84
789.556	2901.01
789.888	2931.74
790.221	2861.24
790.554	2867.79
790.887	2892.2
791.219	2841.13
791.552	2845.42
791.884	2804.06
792.217	2863.72
792.549	2840.9
792.882	2830.5
793.214	2816.04
793.546	2793.9
793.879	2824.18
794.211	2747.79
794.543	2784.18
794.875	2811.07
795.207	2766.55
795.539	2751.41
795.871	2741.92
796.203	2752.77
796.535	2721.35
796.867	2736.27
797.198	2722.26
797.53	2715.25
797.862	2699.89
798.193	2710.28
798.525	2680.45
798.856	2671.86
799.188	2642.26
799.519	2628.7
799.85	2616.5
800.182	2657.85
800.513	2580.57
800.844	2618.31
801.175	2629.61
801.506	2615.6
801.837	2587.35
802.168	2577.18
802.499	2580.12
802.83	2539.44
803.161	2556.84
803.491	2560.68
803.822	2538.08
804.153	2522.72
804.483	2528.59
804.814	2529.95
805.145	2512.32
805.475	2531.3
805.805	2513.9
806.136	2499.89
806.466	2482.94
806.796	2506.9
807.126	2489.72
807.457	2492.43
807.787	2504.64
808.117	2442.04
808.447	2503.73
808.777	2441.36
809.107	2463.51
809.436	2436.62
809.766	2463.51
810.096	2440.68
810.426	2440.68
810.755	2444.75
811.085	2429.84
811.414	2444.07
811.744	2435.26
812.073	2403.17
812.403	2405.88
812.732	2416.73
813.061	2409.27
813.39	2400.23
813.719	2400.91
814.049	2356.39
814.378	2372.21
814.707	2416.73
815.036	2386.45
815.365	2429.16
815.693	2385.54
816.022	2399.1
816.351	2356.84
816.68	2357.75
817.008	2351.65
817.337	2383.06
817.665	2352.55
817.994	2319.33
818.322	2359.78
818.651	2329.73
818.979	2310.97
819.307	2339.44
819.636	2339.22
819.964	2287.47
820.292	2317.98
820.62	2288.15
820.948	2298.32
821.276	2292.89
821.604	2305.09
821.932	2280.24
822.259	2280.01
822.587	2283.85
822.915	2289.73
823.243	2303.29
823.57	2278.43
823.898	2331.08
824.225	2288.82
824.553	2263.97
824.88	2287.24
825.207	2290.86
825.535	2299.9
825.862	2285.43
826.189	2275.94
826.516	2294.25
826.843	2301.03
827.17	2263.97
827.497	2252.89
827.824	2277.07
828.151	2297.41
828.478	2275.94
828.805	2286.34
829.131	2239.11
829.458	2225.32
829.785	2217.87
830.111	2269.39
830.438	2260.58
830.764	2264.42
831.09	2255.6
831.417	2230.52
831.743	2267.13
832.069	2231.88
832.395	2242.95
832.722	2228.49
833.048	2230.52
833.374	2237.3
833.7	2218.54
834.026	2208.6
834.351	2189.62
834.677	2217.64
835.003	2239.11
835.329	2224.64
835.654	2238.2
835.98	2214.02
836.306	2198.43
836.631	2217.41
836.956	2196.4
837.282	2181.26
837.607	2193.01
837.932	2192.56
838.258	2193.23
838.583	2182.84
838.908	2172.67
839.233	2179.67
839.558	2165.21
839.883	2191.88
840.208	2147.36
840.533	2169.28
840.858	2164.99
841.182	2183.74
841.507	2146.23
841.832	2171.76
842.156	2177.87
842.481	2195.95
842.805	2178.32
843.13	2148.94
843.454	2175.83
843.778	2210.18
844.103	2163.63
844.427	2178.09
844.751	2155.95
845.075	2149.39
845.399	2170.64
845.723	2169.73
846.047	2145.1
846.371	2155.49
846.695	2137.42
847.019	2147.58
847.343	2129.96
847.666	2111.65
847.99	2153.91
848.313	2137.19
848.637	2127.92
848.96	2110.3
849.284	2104.42
849.607	2134.25
849.931	2112.33
850.254	2071.43
850.577	2084.76
850.9	2100.58
851.223	2027.36
851.546	2040.24
851.869	2060.13
852.192	2033.24
852.515	2047.25
852.838	2002.5
853.161	2033.24
853.483	1972.67
853.806	2020.13
854.129	2025.55
854.451	1994.37
854.774	1974.71
855.096	1957.08
855.419	1970.64
855.741	1965.67
856.063	1947.36
856.385	1955.5
856.708	1933.13
857.03	1962.28
857.352	1945.78
857.674	1946.46
857.996	1941.71
858.318	1909.4
858.64	1901.72
858.961	1911.66
859.283	1880.25
859.605	1877.31
859.926	1921.6
860.248	1860.81
860.57	1864.43
860.891	1855.84
861.212	1884.77
861.534	1883.86
861.855	1822.62
862.176	1843.41
862.498	1860.59
862.819	1817.88
863.14	1828.95
863.461	1795.5
863.782	1827.37
864.103	1779.01
864.424	1810.87
864.745	1785.11
865.065	1804.99
865.386	1781.49
865.707	1797.09
866.027	1816.29
866.348	1796.41
866.668	1786.69
866.989	1777.2
867.309	1785.33
867.63	1736.75
867.95	1718.22
868.27	1741.49
868.59	1751.89
868.91	1715.96
869.23	1737.65
869.55	1743.98
869.87	1782.4
870.19	1747.82
870.51	1734.71
870.83	1724.77
871.15	1737.65
871.469	1730.19
871.789	1748.05
872.109	1727.26
872.428	1714.38
872.748	1716.86
873.067	1706.24
873.386	1724.32
873.706	1728.84
874.025	1718.22
874.344	1725
874.663	1716.86
874.982	1715.96
875.301	1724.77
875.62	1739.01
875.939	1718.44
876.258	1749.86
876.577	1714.15
876.896	1713.47
877.214	1733.13
877.533	1715.05
877.852	1757.99
878.17	1716.41
878.489	1737.88
878.807	1711.89
879.125	1713.92
879.444	1732.45
879.762	1722.51
880.08	1729.52
880.398	1708.05
880.716	1705.11
881.034	1691.55
881.352	1697.43
881.67	1718.67
881.988	1717.09
882.306	1695.62
882.624	1703.98
882.941	1728.16
883.259	1744.43
883.577	1724.77
883.894	1721.16
884.212	1673.25
884.529	1693.13
884.846	1698.78
885.164	1667.82
885.481	1674.83
885.798	1693.59
886.115	1711.89
886.432	1676.86
886.75	1696.07
887.067	1680.25
887.383	1654.26
887.7	1663.53
888.017	1664.21
888.334	1688.39
888.651	1670.99
888.967	1676.18
889.284	1644.32
889.6	1665.79
889.917	1635.96
890.233	1666.92
890.55	1656.52
890.866	1652.68
891.182	1617.43
891.498	1602.29
891.815	1598.45
892.131	1594.6
892.447	1597.99
892.763	1604.32
893.079	1589.86
893.395	1626.47
893.71	1611.55
894.026	1609.97
894.342	1580.59
894.657	1557.09
894.973	1568.62
895.289	1554.15
895.604	1582.18
895.92	1553.7
896.235	1561.84
896.55	1549.18
896.865	1532.23
897.181	1516.87
897.496	1538.79
897.811	1525.91
898.126	1523.87
898.441	1515.96
898.756	1510.09
899.071	1482.29
899.386	1513.03
899.7	1459.02
900.015	1493.59
900.33	1472.12
900.644	1473.93
900.959	1484.1
901.273	1458.79
901.588	1465.12
901.902	1452.01
902.216	1465.12
902.531	1429.86
902.845	1451.33
903.159	1439.58
903.473	1439.58
903.787	1422.18
904.101	1432.58
904.415	1420.15
904.729	1414.27
905.042	1433.48
905.356	1391.9
905.67	1395.29
905.984	1388.51
906.297	1367.04
906.611	1376.76
906.924	1374.05
907.237	1408.62
907.551	1364.55
907.864	1368.17
908.177	1370.2
908.491	1359.36
908.804	1369.07
909.117	1345.12
909.43	1357.32
909.743	1348.06
910.056	1303.31
910.368	1362.97
910.681	1351.67
910.994	1343.99
911.307	1302.64
911.619	1314.16
911.932	1331.56
912.244	1323.2
912.557	1329.3
912.869	1315.52
913.181	1345.57
913.494	1311.22
913.806	1304.44
914.118	1303.09
914.43	1284.1
914.742	1270.09
915.054	1293.14
915.366	1286.59
915.678	1296.76
915.99	1296.08
916.302	1252.69
916.613	1293.82
916.925	1271.22
917.236	1273.03
917.548	1274.61
917.859	1279.58
918.171	1247.72
918.482	1238.46
918.794	1269.42
919.105	1273.03
919.416	1247.72
919.727	1219.7
920.038	1225.58
920.349	1237.55
920.66	1231
920.971	1245.24
921.282	1193.71
921.593	1201.85
921.903	1205.91
922.214	1200.72
922.525	1214.5
922.835	1200.72
923.146	1224.45
923.456	1214.28
923.767	1175.18
924.077	1214.5
924.387	1179.93
924.697	1200.27
925.008	1157.1
925.318	1176.99
925.628	1147.84
925.938	1156.65
926.248	1143.32
926.558	1165.24
926.867	1158.91
927.177	1158.68
927.487	1139.48
927.796	1156.88
928.106	1130.89
928.416	1141.06
928.725	1106.48
929.034	1107.16
929.344	1133.15
929.653	1106.71
929.962	1110.78
930.271	1116.65
930.581	1099.93
930.89	1083.43
931.199	1095.64
931.508	1075.07
931.817	1095.18
932.125	1068.29
932.434	1105.13
932.743	1095.64
933.051	1058.8
933.36	1066.03
933.669	1066.71
933.977	1052.25
934.286	1098.35
934.594	1058.35
934.902	1041.17
935.21	1047.05
935.519	1028.97
935.827	1024.9
936.135	1037.56
936.443	1028.97
936.751	1021.06
937.059	1007.28
937.367	1026.03
937.674	1014.51
937.982	1012.25
938.29	1004.34
938.597	1000.27
938.905	991.46
939.213	997.78
939.52	1000.27
939.827	998.46
940.135	974.73
940.442	1007.5
940.749	986.94
941.056	971.57
941.363	967.5
941.67	972.02
941.977	981.51
942.284	973.15
942.591	957.33
942.898	962.76
943.205	958.24
943.511	966.15
943.818	933.38
944.125	959.82
944.431	945.81
944.738	937.45
945.044	927.96
945.35	945.81
945.657	952.36
945.963	936.32
946.269	942.42
946.575	942.64
946.881	918.46
947.187	921.63
947.493	955.75
947.799	913.49
948.105	885.25
948.41	905.81
948.716	910.33
949.022	893.38
949.327	926.83
949.633	910.1
949.938	887.73
950.244	896.54
950.549	893.15
950.854	892.02
951.16	911.69
951.465	917.11
951.77	904.23
952.075	878.24
952.38	890.89
952.685	887.96
952.99	868.07
953.294	887.05
953.599	881.63
953.904	870.1
954.209	864.23
954.513	872.82
954.818	896.09
955.122	882.08
955.426	868.3
955.731	863.78
956.035	863.1
956.339	843.21
956.643	876.66
956.948	842.08
957.252	850.9
957.556	827.39
957.86	847.28
958.163	857
958.467	841.63
958.771	823.1
959.075	845.7
959.378	825.36
959.682	834.62
959.985	820.16
960.289	830.33
960.592	814.29
960.896	823.78
961.199	819.26
961.502	825.13
961.805	828.3
962.108	805.02
962.411	789.88
962.714	829.43
963.017	784
963.32	807.06
963.623	831.46
963.926	790.11
964.228	827.62
964.531	816.09
964.833	774.97
965.136	784.91
965.438	779.49
965.741	787.39
966.043	782.42
966.345	783.55
966.648	785.36
966.95	771.12
967.252	767.51
967.554	774.74
967.856	775.42
968.158	761.63
968.46	769.77
968.761	771.35
969.063	751.24
969.365	761.86
969.666	744.68
969.968	765.25
970.269	765.02
970.571	769.99
970.872	744.68
971.174	752.14
971.475	752.82
971.776	732.48
972.077	736.77
972.378	751.46
972.679	742.88
972.98	737.23
973.281	734.74
973.582	720.05
973.883	731.12
974.183	734.74
974.484	690.45
974.785	713.72
975.085	695.19
975.386	738.58
975.686	725.02
975.986	712.14
976.287	700.62
976.587	708.3
976.887	692.48
977.187	720.96
977.487	698.13
977.787	694.06
978.087	729.54
978.387	728.19
978.687	690.22
978.987	701.07
979.286	693.84
979.586	682.09
979.885	676.21
980.185	677.34
980.484	691.35
980.784	671.24
981.083	682.31
981.382	680.96
981.682	666.04
981.981	670.11
982.28	671.69
982.579	678.7
982.878	667.17
983.177	660.39
983.475	647.51
983.774	672.14
984.073	671.47
984.372	650.22
984.67	644.57
984.969	634.86
985.267	651.58
985.566	655.42
985.864	642.31
986.162	626.49
986.461	624.69
986.759	633.05
987.057	612.71
987.355	638.7
987.653	618.81
987.951	615.2
988.249	624.46
988.547	612.94
988.844	607.74
989.142	615.2
989.44	603.22
989.737	634.63
990.035	626.95
990.332	619.26
990.63	605.48
990.927	600.73
991.224	605.7
991.521	604.8
991.819	610.22
992.116	601.64
992.413	605.93
992.71	611.81
993.006	592.6
993.303	604.57
993.6	606.38
993.897	605.7
994.193	593.73
994.49	616.78
994.787	604.57
995.083	600.73
995.379	591.02
995.676	605.03
995.972	577.46
996.268	617.68
996.565	578.13
996.861	591.47
997.157	565.25
997.453	585.82
997.749	585.37
998.044	583.78
998.34	579.49
998.636	563.67
998.932	582.43
999.227	576.1
999.523	574.52
999.818	564.12
1000.114	566.38
1000.409	595.76
1000.704	579.94
1001	569.55
1001.295	559.38
1001.59	544.01
1001.885	557.34
1002.18	576.33
1002.475	550.34
1002.77	584.46
1003.065	556.67
1003.359	549.66
1003.654	567.74
1003.949	554.18
1004.243	547.63
1004.538	537.91
1004.832	535.65
1005.127	535.2
1005.421	537.01
1005.715	539.49
1006.009	533.84
1006.304	542.66
1006.598	509.21
1006.892	541.98
1007.186	531.13
1007.48	550.56
1007.773	534.97
1008.067	535.88
1008.361	508.53
1008.655	516.89
1008.948	537.01
1009.242	550.56
1009.535	527.74
1009.829	512.83
1010.122	518.93
1010.415	523.67
1010.708	506.5
1011.001	523.9
1011.295	509.89
1011.588	526.84
1011.881	532.49
1012.173	514.63
1012.466	516.67
1012.759	524.58
1013.052	520.28
1013.344	508.98
1013.637	522.32
1013.93	508.76
1014.222	517.35
1014.514	509.21
1014.807	504.46
1015.099	491.36
1015.391	482.54
1015.683	469.66
1015.976	491.36
1016.268	483
1016.56	487.74
1016.851	478.7
1017.143	480.96
1017.435	486.39
1017.727	471.7
1018.018	478.25
1018.31	479.15
1018.602	471.24
1018.893	465.37
1019.185	465.82
1019.476	480.74
1019.767	460.17
1020.058	469.21
1020.35	487.06
1020.641	465.82
1020.932	464.24
1021.223	456.33
1021.514	493.39
1021.804	475.09
1022.095	478.25
1022.386	461.53
1022.677	461.53
1022.967	471.02
1023.258	457.91
1023.548	453.62
1023.839	460.62
1024.129	452.26
1024.419	451.13
1024.709	450.68
1025	456.56
1025.29	462.21
1025.58	445.03
1025.87	467.85
1026.16	470.34
1026.449	451.36
1026.739	451.58
1027.029	437.8
1027.319	440.74
1027.608	426.73
1027.898	446.61
1028.187	432.15
1028.477	437.8
1028.766	450
1029.055	424.92
1029.344	424.47
1029.634	438.48
1029.923	438.7
1030.212	423.11
1030.501	453.62
1030.79	451.36
1031.078	405.94
1031.367	441.41
1031.656	427.86
1031.945	427.4
1032.233	445.26
1032.522	441.19
1032.81	409.1
1033.099	420.85
1033.387	414.52
1033.675	413.85
1033.963	406.84
1034.251	427.86
1034.54	410.91
1034.828	429.21
1035.116	412.49
1035.403	398.25
1035.691	428.76
1035.979	426.05
1036.267	408.87
1036.554	397.35
1036.842	417.91
1037.129	409.1
1037.417	393.28
1037.704	407.74
1037.992	405.03
1038.279	403
1038.566	389.89
1038.853	389.89
1039.14	389.89
