Data from foam2_polystyrene_foam_FLMS001491_00075.txt Node
Date: Wed Feb 08 10:58:28 GMT 2017
User: dcchb
Spectrometer: FLMS00149
Trigger mode: 0
Integration Time (sec): 2.000000E-2
Scans to average: 10
Electric dark correction enabled: true
Nonlinearity correction enabled: false
Boxcar width: 0
XAxis mode: Wavelengths
Number of Pixels in Spectrum: 2048
>>>>>Begin Spectral Data<<<<<
341.393	-14.51
341.776	-14.51
342.16	-14.51
342.543	-53.6
342.927	-71.68
343.31	-64
343.693	-79.81
344.077	-67.61
344.46	-50.21
344.843	-59.02
345.226	-35.75
345.61	-24
345.993	-9.76
346.376	0.64
346.759	4.03
347.142	27.75
347.525	59.62
347.908	52.16
348.291	63.23
348.674	81.99
349.057	100.75
349.44	126.06
349.823	124.7
350.206	157.47
350.588	199.5
350.971	244.7
351.354	244.7
351.737	267.52
352.119	258.93
352.502	264.36
352.884	299.84
353.267	299.16
353.65	311.14
354.032	307.75
354.414	332.15
354.797	327.41
355.179	339.38
355.562	355.65
355.944	337.35
356.326	342.32
356.709	350.91
357.091	361.76
357.473	368.08
357.855	375.54
358.238	363.11
358.62	369.44
359.002	357.24
359.384	380.29
359.766	373.73
360.148	359.5
360.53	366.28
360.912	336.9
361.294	363.11
361.676	357.91
362.057	363.56
362.439	380.74
362.821	375.99
363.203	362.89
363.584	345.71
363.966	359.72
364.348	374.19
364.729	368.08
365.111	359.95
365.493	357.46
365.874	362.89
366.256	358.59
366.637	339.38
367.019	360.63
367.4	348.2
367.781	344.36
368.163	339.16
368.544	370.57
368.925	359.27
369.306	361.76
369.688	357.01
370.069	363.11
370.45	362.43
370.831	361.08
371.212	359.72
371.593	353.62
371.974	370.8
372.355	372.83
372.736	396.78
373.117	367.18
373.498	387.52
373.879	369.67
374.26	378.03
374.641	361.53
375.021	355.65
375.402	387.74
375.783	376.9
376.163	396.33
376.544	415.54
376.925	402.43
377.305	396.33
377.686	408.53
378.066	395.43
378.447	418.25
378.827	399.27
379.208	428.87
379.588	418.25
379.968	420.51
380.349	414.64
380.729	426.16
381.109	413.73
381.489	447.4
381.87	434.97
382.25	447.86
382.63	445.6
383.01	426.39
383.39	470
383.77	427.74
384.15	455.09
384.53	446.05
384.91	469.32
385.29	458.02
385.67	484.46
386.049	479.27
386.429	498.7
386.809	466.61
387.189	495.54
387.568	488.53
387.948	503.45
388.328	506.61
388.707	494.18
389.087	495.54
389.466	483.11
389.846	511.36
390.225	523.56
390.605	520.4
390.984	545.48
391.363	520.62
391.743	533.73
392.122	521.3
392.501	547.97
392.881	553.16
393.26	542.32
393.639	553.39
394.018	564.46
394.397	583.9
394.776	562.2
395.155	574.18
395.534	574.41
395.913	596.78
396.292	582.77
396.671	607.63
397.05	600.85
397.429	612.14
397.808	609.66
398.186	598.36
398.565	631.81
398.944	619.38
399.323	613.05
399.701	626.16
400.08	663.22
400.458	655.08
400.837	654.18
401.215	682.43
401.594	695.31
401.972	669.32
402.351	695.98
402.729	679.26
403.107	686.27
403.486	698.02
403.864	682.88
404.242	705.7
404.62	702.31
404.999	730.11
405.377	726.72
405.755	757
406.133	740.05
406.511	740.96
406.889	740.05
407.267	764.01
407.645	768.98
408.023	773.04
408.401	827.05
408.779	818.92
409.156	816.66
409.534	832.25
409.912	822.08
410.29	860.73
410.667	854.62
411.045	846.26
411.422	862.53
411.8	898.69
412.178	879.93
412.555	922.42
412.933	904.57
413.31	923.1
413.687	955.19
414.065	935.53
414.442	961.74
414.819	972.36
415.197	993.15
415.574	969.42
415.951	1019.14
416.328	984.34
416.705	1007.16
417.082	1013.49
417.46	1041.96
417.837	1035.64
418.214	1033.6
418.591	1053.72
418.967	1076.77
419.344	1114.28
419.721	1109.08
420.098	1113.37
420.475	1131
420.852	1121.51
421.228	1144.79
421.605	1141.4
421.982	1159.02
422.358	1180.72
422.735	1201.96
423.111	1202.19
423.488	1186.59
423.864	1210.77
424.241	1216.42
424.617	1259.81
424.994	1248.96
425.37	1280.6
425.746	1295.52
426.123	1306.59
426.499	1313.6
426.875	1328.28
427.251	1355.85
427.627	1351.56
428.003	1358.79
428.379	1401.5
428.756	1398.79
429.132	1418
429.507	1468.62
429.883	1446.25
430.259	1486.02
430.635	1499.35
431.011	1515.4
431.387	1539.13
431.763	1580.48
432.138	1588.84
432.514	1625.45
432.89	1613.93
433.265	1648.5
433.641	1688.95
434.016	1673.59
434.392	1673.81
434.767	1727.37
435.143	1735.73
435.518	1729.63
435.894	1740.93
436.269	1780.48
436.644	1825.9
437.02	1857.76
437.395	1831.32
437.77	1855.5
438.145	1877.87
438.52	1909.74
438.895	1944.77
439.271	1941.6
439.646	1948.15
440.021	2002.84
440.395	2015.05
440.77	1977.76
441.145	2036.06
441.52	2063.18
441.895	2070.64
442.27	2120.13
442.645	2096.17
443.019	2154.48
443.394	2144.76
443.769	2183.18
444.143	2143.63
444.518	2230.41
444.892	2184.31
445.267	2203.06
445.641	2272.21
446.016	2250.97
446.39	2283.51
446.764	2319.22
447.139	2279.45
447.513	2348.82
447.887	2366.9
448.262	2397.41
448.636	2403.74
449.01	2416.39
449.384	2438.54
449.758	2419.1
450.132	2493.23
450.506	2491.64
450.88	2535.94
451.254	2553.79
451.628	2542.49
452.002	2582.26
452.376	2640.34
452.75	2656.38
453.123	2653.22
453.497	2709.72
453.871	2688.02
454.244	2780.68
454.618	2773.22
454.992	2846.44
455.365	2830.62
455.739	2873.78
456.112	2932.08
456.486	2952.2
456.859	2973.66
457.232	3041.01
457.606	2996.04
457.979	3048.01
458.352	3148.8
458.725	3152.19
459.099	3180.66
459.472	3222.02
459.845	3245.3
460.218	3268.8
460.591	3307.22
460.964	3349.02
461.337	3435.35
461.71	3458.17
462.083	3504.05
462.456	3497.27
462.829	3511.96
463.201	3621.33
463.574	3625.85
463.947	3678.28
464.32	3712.63
464.692	3793.3
465.065	3783.36
465.438	3823.13
465.81	3905.39
466.183	3929.57
466.555	4046.18
466.928	4020.87
467.3	4032.17
467.672	4143.58
468.045	4228.1
468.417	4223.12
468.789	4250.47
469.161	4294.31
469.534	4392.84
469.906	4510.12
470.278	4543.57
470.65	4584.7
471.022	4666.05
471.394	4746.27
471.766	4792.83
472.138	4811.13
472.51	4956.21
472.882	4992.14
473.253	5059.03
473.625	5105.59
473.997	5276.2
474.369	5257.9
474.74	5340.61
475.112	5420.61
475.484	5522.52
475.855	5620.83
476.227	5687.27
476.598	5812.46
476.97	5901.5
477.341	6008.61
477.713	6068.27
478.084	6114.37
478.455	6282.5
478.827	6354.37
479.198	6545.32
479.569	6565.43
479.94	6731.31
480.311	6784.86
480.682	6960
481.053	7061.01
481.424	7184.18
481.795	7279.99
482.166	7411.06
482.537	7447.9
482.908	7569.02
483.279	7692.64
483.65	7866.64
484.021	8035.9
484.391	8039.97
484.762	8167.65
485.133	8233.41
485.503	8340.53
485.874	8485.61
486.244	8650.13
486.615	8776.68
486.985	8819.61
487.356	8994.3
487.726	9051.02
488.097	9287.85
488.467	9317.68
488.837	9571.23
489.207	9745.92
489.578	9818.68
489.948	9880.83
490.318	9989.98
490.688	10100.71
491.058	10173.93
491.428	10332.34
491.798	10460.02
492.168	10631.09
492.538	10725.78
492.908	10823.63
493.278	10974.13
493.648	10997.63
494.017	11215.71
494.387	11226.78
494.757	11313.11
495.126	11533.67
495.496	11539.32
495.866	11683.27
496.235	11764.62
496.605	11852.98
496.974	11995.57
497.344	12121.45
497.713	12108.79
498.082	12210.26
498.452	12358.5
498.821	12461.55
499.19	12545.39
499.559	12655.67
499.928	12773.86
500.298	12818.83
500.667	12972.95
501.036	12900.18
501.405	13073.96
501.774	13105.83
502.143	13294.75
502.512	13291.36
502.88	13514.63
503.249	13474.18
503.618	13575.87
503.987	13680.5
504.356	13764.57
504.724	13897.9
505.093	13983.77
505.462	14056.76
505.83	14181.28
506.199	14318.68
506.567	14455.4
506.936	14386.25
507.304	14711.21
507.672	14666.46
508.041	14784.2
508.409	14937.87
508.777	15024.65
509.145	15145.1
509.514	15167.69
509.882	15308.93
510.25	15348.71
510.618	15426.44
510.986	15611.98
511.354	15737.4
511.722	15816.26
512.09	15980.55
512.458	15991.63
512.826	16225.75
513.193	16314.1
513.561	16354.56
513.929	16522.01
514.297	16661.67
514.664	16836.58
515.032	16842.23
515.4	16921.77
515.767	17094.2
516.135	17152.73
516.502	17227.3
516.869	17504.81
517.237	17640.85
517.604	17618.7
517.972	17806.95
518.339	17853.27
518.706	18001.07
519.073	18169.2
519.44	18266.14
519.808	18462.97
520.175	18405.58
520.542	18710.2
520.909	18843.76
521.276	18830.65
521.643	18956.75
522.009	19132.79
522.376	19327.81
522.743	19506.56
523.11	19754.24
523.477	19783.62
523.843	19925.76
524.21	20227.22
524.577	20378.63
524.943	20390.61
525.31	20585.18
525.676	20819.3
526.043	20896.81
526.409	20975.68
526.776	21295.67
527.142	21354.2
527.508	21534.98
527.874	21678.94
528.241	21721.87
528.607	21828.31
528.973	22080.51
529.339	22072.82
529.705	22329.54
530.071	22579.02
530.437	22622.64
530.803	22667.16
531.169	22882.97
531.535	22926.59
531.901	23009.75
532.267	23064.89
532.632	23403.86
532.998	23298.55
533.364	23541.94
533.73	23578.55
534.095	23880.01
534.461	23844.3
534.826	24039.1
535.192	24209.04
535.557	24268.47
535.923	24386.21
536.288	24474.57
536.653	24614.9
537.019	24413.1
537.384	24675.24
537.749	24860.32
538.114	24960.66
538.479	25042.24
538.845	25131.05
539.21	25149.8
539.575	25330.14
539.94	25356.58
540.305	25547.53
540.67	25602
541.034	25580.75
541.399	25754.99
541.764	25818.71
542.129	25896
542.494	26083.34
542.858	26145.71
543.223	26181.87
543.587	26248.08
543.952	26310.68
544.316	26419.83
544.681	26585.7
545.045	26662.08
545.41	26709.31
545.774	26843.09
546.138	26869.08
546.503	26998.57
546.867	27046.48
547.231	27216.64
547.595	27350.65
547.959	27513.81
548.324	27401.72
548.688	27387.49
549.052	27554.04
549.416	27695.05
549.779	27772.11
550.143	27918.09
550.507	28077.64
550.871	28270.63
551.235	28093
551.599	28402.6
551.962	28463.84
552.326	28442.83
552.689	28792.42
553.053	28593.78
553.417	28694.57
553.78	29138.4
554.143	28954.22
554.507	29129.14
554.87	29314.44
555.234	29560.76
555.597	29393.99
555.96	29560.76
556.323	29664.94
556.686	29836.69
557.05	30140.63
557.413	30041.65
557.776	30239.61
558.139	30463.11
558.502	30462.66
558.865	30656.33
559.228	30854.29
559.59	30955.08
559.953	30966.6
560.316	31351.9
560.679	31322.75
561.041	31483.2
561.404	31656.07
561.767	31865.11
562.129	31797.31
562.492	32170.64
562.854	32147.59
563.217	32202.5
563.579	32415.83
563.941	32716.84
564.304	32798.87
564.666	32799.32
565.028	32967.23
565.39	33165.41
565.753	33319.99
566.115	33407.21
566.477	33573.54
566.839	33572.86
567.201	33808.56
567.563	33856.92
567.925	34154.77
568.287	34253.52
568.648	34251.49
569.01	34507.98
569.372	34699.16
569.734	34723.56
570.095	34941.86
570.457	35017.12
570.819	35045.36
571.18	35235.87
571.542	35397.22
571.903	35320.38
572.265	35467.73
572.626	35534.62
572.987	35519.02
573.349	35735.52
573.71	35763.99
574.071	35952.68
574.432	36122.85
574.794	36352.22
575.155	36284.65
575.516	36128.27
575.877	36500.92
576.238	36578.66
576.599	36527.81
576.96	36569.62
577.32	36666.11
577.681	36760.35
578.042	36831.53
578.403	36881.47
578.763	36888.03
579.124	36943.84
579.485	37082.37
579.845	37291.41
580.206	37099.1
580.566	37154.23
580.927	37104.29
581.287	37319.43
581.648	37194.23
582.008	37341.12
582.368	37441.23
582.728	37344.74
583.089	37410.27
583.449	37299.32
583.809	37320.11
584.169	37511.97
584.529	37512.64
584.889	37776.14
585.249	37454.57
585.609	37473.1
585.969	37648.46
586.329	37505.19
586.688	37579.76
587.048	37428.35
587.408	37477.16
587.768	37378.18
588.127	37537.73
588.487	37415.02
588.846	37604.39
589.206	37395.36
589.565	37391.74
589.925	37530.72
590.284	37423.83
590.643	37474.23
591.003	37631.51
591.362	37765.29
591.721	37681.9
592.08	37748.12
592.44	37708.34
592.799	37682.58
593.158	37664.5
593.517	37746.54
593.876	37648.46
594.235	37709.7
594.593	37570.5
594.952	37737.27
595.311	37590.38
595.67	37703.37
596.029	37979.07
596.387	37926.87
596.746	37962.58
597.104	37646.88
597.463	37647.1
597.822	38040.54
598.18	37817.27
598.538	37716.25
598.897	38015.68
599.255	37666.99
599.613	38351.27
599.972	37928.9
600.33	38052.74
600.688	37919.19
601.046	38215.9
601.404	38269.91
601.762	38163.25
602.12	38407.99
602.478	38370.7
602.836	38365.73
603.194	38184.26
603.552	38235.34
603.91	38217.71
604.268	38408.21
604.625	38277.14
604.983	38618.15
605.341	38422.45
605.698	38544.25
606.056	38608.66
606.413	38600.98
606.771	38611.37
607.128	38753.06
607.485	38589.68
607.843	38537.25
608.2	38789.22
608.557	38791.25
608.914	38789.45
609.272	39064.92
609.629	38904.25
609.986	39112.15
610.343	38873.51
610.7	39203.45
611.057	39135.2
611.414	39189.66
611.771	39233.5
612.127	39325.7
612.484	39214.52
612.841	39260.85
613.198	39093.84
613.554	39243.67
613.911	39411.8
614.267	39430.33
614.624	39319.83
614.98	39495.64
615.337	39666.71
615.693	39611.12
616.05	39598.01
616.406	39646.82
616.762	39697.9
617.118	39566.37
617.475	39623.32
617.831	39734.05
618.187	39783.54
618.543	39935.18
618.899	40070.32
619.255	39893.37
619.611	39995.06
619.967	40079.58
620.323	40197.77
620.678	40038
621.034	39847.5
621.39	40006.36
621.746	39862.41
622.101	40398.22
622.457	40072.35
622.812	40100.37
623.168	40226.24
623.523	40205.23
623.879	40321.38
624.234	40050.43
624.589	40101.05
624.945	40214.49
625.3	40174.72
625.655	40143.08
626.01	40130.65
626.365	40214.95
626.72	40004.78
627.075	40219.47
627.43	40062.86
627.785	39925.46
628.14	40181.27
628.495	40122.74
628.85	40024.89
629.205	39851.34
629.559	40135.17
629.914	40008.17
630.269	40036.87
630.623	39929.08
630.978	39903.32
631.332	40047.72
631.687	40007.95
632.041	39950.09
632.396	39902.41
632.75	39818.8
633.104	39820.83
633.459	39639.14
633.813	39661.97
634.167	39638.69
634.521	39577.22
634.875	39534.51
635.229	39355.53
635.583	39294.97
635.937	39252.94
636.291	39303.56
636.645	39226.5
636.999	39116.67
637.352	39167.52
637.706	39026.73
638.06	39044.58
638.413	38908.31
638.767	38915.54
639.121	38919.61
639.474	38664.48
639.828	38654.99
640.181	38663.12
640.534	38640.52
640.888	38535.44
641.241	38433.07
641.594	38543.58
641.947	38608.66
642.301	38623.12
642.654	38483.92
643.007	38479.17
643.36	38438.95
643.713	38322.11
644.066	38407.08
644.419	38108.11
644.771	37872.18
645.124	37470.61
645.477	37557.39
645.83	37150.85
646.182	37083.5
646.535	36879.44
646.888	37068.14
647.24	36771.19
647.593	37135.93
647.945	36998.08
648.298	36846.45
648.65	36741.36
649.002	36550.86
649.355	36729.61
649.707	36597.41
650.059	36827.69
650.411	37274.46
650.763	37088.02
651.115	37578.4
651.467	37491.85
651.819	37534.56
652.171	37327.34
652.523	37359.2
652.875	37231.52
653.227	37119.66
653.578	37404.17
653.93	37228.58
654.282	37171.41
654.633	37020
654.985	37012.77
655.337	37154.91
655.688	37062.94
656.039	37379.09
656.391	36937.29
656.742	36918.99
657.094	36871.08
657.445	37005.76
657.796	36942.94
658.147	36823.62
658.498	36873.79
658.849	36851.87
659.2	36738.43
659.551	36592.89
659.902	36785.21
660.253	36628.83
660.604	36733.23
660.955	36537.53
661.306	36688.03
661.656	36742.72
662.007	36676.73
662.358	36606
662.708	36659.56
663.059	36490.07
663.409	36438.77
663.76	36694.81
664.11	36742.27
664.461	36728.71
664.811	36728.94
665.161	36670.86
665.511	36595.15
665.862	36545.44
666.212	36641.71
666.562	36699.33
666.912	36613.91
667.262	36532.1
667.612	36530.75
667.962	36457.98
668.312	36507.7
668.662	36534.14
669.011	36574.82
669.361	36570.3
669.711	36347.93
670.06	36366.69
670.41	36326.69
670.76	36356.97
671.109	36534.59
671.459	36239.91
671.808	36225.9
672.157	36247.37
672.507	36068.84
672.856	36037.43
673.205	36172.79
673.554	36102.96
673.904	35958.56
674.253	36151.1
674.602	36111.78
674.951	35507.05
675.3	35319.25
675.649	35982.29
675.998	35850.77
676.346	35936.87
676.695	35965.34
677.044	35734.84
677.393	35927.15
677.741	35963.53
678.09	35863.87
678.438	35624.33
678.787	35872.69
679.135	35883.31
679.484	35515.86
679.832	35893.93
680.181	35635.4
680.529	35575.97
680.877	35406.94
681.225	35431.57
681.573	35516.54
681.922	35347.28
682.27	35212.82
682.618	35182.76
682.966	35097.11
683.314	35100.73
683.661	35105.25
684.009	34746.84
684.357	34753.62
684.705	34741.87
685.053	34786.61
685.4	34732.15
685.748	34498.71
686.095	34593.85
686.443	34390.01
686.79	34326.74
687.138	34424.82
687.485	34394.08
687.832	34087.42
688.18	34367.42
688.527	34161.55
688.874	34118.83
689.221	33990.7
689.568	33846.3
689.915	33807.43
690.262	33785.51
690.609	33640.88
690.956	33596.36
691.303	33550.04
691.65	33396.14
691.997	33389.36
692.344	33339.19
692.69	33193.21
693.037	33105.75
693.383	33060.78
693.73	32985.08
694.077	32911.18
694.423	32966.1
694.769	32629.61
695.116	32665.77
695.462	32563.4
695.808	32487.69
696.155	32434.59
696.501	32234.36
696.847	32270.52
697.193	32103.75
697.539	32215.16
697.885	31882.51
698.231	31771.55
698.577	31968.38
698.923	31835.05
699.269	31661.27
699.614	31593.7
699.96	31406.36
700.306	31426.02
700.651	31308.74
700.997	31297.67
701.342	31226.93
701.688	31229.64
702.033	30985.58
702.379	31000.5
702.724	30982.19
703.069	30889.99
703.415	30572.26
703.76	30601.41
704.105	30509.44
704.45	30536.33
704.795	30419.95
705.14	30173.85
705.485	30230.35
705.83	30105.38
706.175	30097.25
706.52	30068.32
706.865	29901.54
707.209	29854.09
707.554	29823.13
707.899	29907.19
708.243	29622
708.588	29546.53
708.932	29349.47
709.277	29579.29
709.621	29358.06
709.966	29230.38
710.31	29254.56
710.654	29089.14
710.998	28988.35
711.342	29130.27
711.687	29029.25
712.031	28872.19
712.375	28772.76
712.719	28780.44
713.063	28709.26
713.407	28812.31
713.75	28618.19
714.094	28657.51
714.438	28383.39
714.782	28488.7
715.125	28427.01
715.469	28296.84
715.812	28237.63
716.156	28147.92
716.499	28126.68
716.843	28152.21
717.186	27843.75
717.53	28080.8
717.873	28098.88
718.216	27991.99
718.559	27737.31
718.902	27622.73
719.246	27738.21
719.589	27483.98
719.932	27398.11
720.275	27588.61
720.617	27350.88
720.96	27265.91
721.303	27282.4
721.646	27265.91
721.989	27075.4
722.331	27219.35
722.674	27098.45
723.016	27142.97
723.359	27169.19
723.701	27213.93
724.044	26935.07
724.386	26825.92
724.729	26990.43
725.071	26885.8
725.413	26833.6
725.755	26741.4
726.097	26613.5
726.439	26571.69
726.782	26680.61
727.124	26753.38
727.465	26526.27
727.807	26519.49
728.149	26390
728.491	26361.98
728.833	26353.84
729.175	26281.3
729.516	26235.43
729.858	26245.37
730.199	26185.26
730.541	26143.23
730.882	26128.99
731.224	26100.29
731.565	25922.44
731.906	25989.56
732.248	25967.41
732.589	25789.11
732.93	25746.17
733.271	25703.24
733.612	25694.88
733.953	25729.68
734.294	25545.27
734.635	25574.2
734.976	25575.56
735.317	25481.55
735.658	25428.44
735.999	25482.9
736.339	25423.24
736.68	25481.55
737.021	25313.19
737.361	25200.65
737.702	25239.29
738.042	25170.82
738.383	25127.21
738.723	25175.79
739.063	25049.02
739.404	25160.65
739.744	25135.57
740.084	25037.04
740.424	25157.49
740.764	24874.11
741.104	25016.93
741.444	24790.94
741.784	24706.43
742.124	24807.89
742.464	24824.16
742.804	24635.69
743.143	24632.3
743.483	24761.79
743.823	24500.56
744.162	24332.65
744.502	24569.48
744.841	24347.11
745.181	24472.53
745.52	24317.51
745.86	24381.01
746.199	24250.39
746.538	24216.5
746.877	24411.52
747.216	24299.43
747.556	24217.85
747.895	24240.68
748.234	24128.81
748.573	24117.06
748.911	24059.89
749.25	24048.14
749.589	23939.89
749.928	23877.52
750.267	23842.27
750.605	23693.57
750.944	23691.09
751.283	23591.65
751.621	23611.54
751.96	23608.6
752.298	23574.25
752.636	23524.54
752.975	23364.09
753.313	23305.56
753.651	23434.14
753.989	23172.46
754.327	23173.81
754.666	23077.09
755.004	23122.97
755.342	23050.2
755.679	22990.31
756.017	23004.1
756.355	22948.51
756.693	22780.6
757.031	22845.46
757.368	22771.11
757.706	22633.26
758.044	22603.21
758.381	22555.52
758.719	22525.69
759.056	22547.84
759.394	22375.19
759.731	22286.6
760.068	22307.85
760.405	22176.55
760.743	22123.44
761.08	22127.74
761.417	22021.07
761.754	22049.77
762.091	21864.24
762.428	21846.39
762.765	21662.44
763.102	21867.41
763.438	21610.24
763.775	21632.38
764.112	21538.83
764.449	21499.96
764.785	21428.32
765.122	21382.9
765.458	21226.97
765.795	21228.33
766.131	21136.58
766.467	21136.35
766.804	21143.81
767.14	20864.04
767.476	20912.4
767.812	20713.76
768.148	20834.21
768.485	20555.12
768.821	20469.02
769.157	20464.5
769.492	20305.41
769.828	20344.51
770.164	20204.17
770.5	20164.85
770.836	20248.69
771.171	20036.27
771.507	19967.79
771.842	19921.24
772.178	19868.59
772.513	19769.38
772.849	19740.91
773.184	19575.71
773.519	19693
773.855	19481.71
774.19	19476.06
774.525	19327.36
774.86	19347.02
775.195	19229.96
775.53	19245.1
775.865	19184.31
776.2	18992.68
776.535	18824.77
776.87	18828.62
777.205	18813.7
777.539	18757.43
777.874	18789.97
778.209	18550.88
778.543	18649.64
778.878	18472.69
779.212	18429.53
779.547	18360.6
779.881	18375.97
780.215	18301.85
780.55	18257.56
780.884	18193.83
781.218	18109.54
781.552	18180.04
781.886	17991.35
782.22	17962.88
782.554	17863.67
782.888	17622.09
783.222	17599.04
783.556	17485.6
783.889	17512.72
784.223	17387.98
784.557	17424.13
784.89	17325.6
785.224	17159.51
785.557	17171.26
785.891	17074.99
786.224	17056.68
786.558	17028.44
786.891	17029.79
787.224	16865.95
787.557	16772.62
787.891	16856.92
788.224	16789.57
788.557	16729.24
788.89	16663.25
789.223	16734.88
789.556	16482.91
789.888	16366.53
790.221	16300.55
790.554	16329.92
790.887	16308
791.219	16238.63
791.552	16231.85
791.884	16110.27
792.217	16101.68
792.549	16021.91
792.882	15990.27
793.214	15847
793.546	15855.59
793.879	15702.14
794.211	15742.37
794.543	15813.33
794.875	15632.09
795.207	15730.84
795.539	15576.5
795.871	15605.42
796.203	15488.59
796.535	15346.45
796.867	15448.59
797.198	15291.53
797.53	15290.4
797.862	15279.33
798.193	15234.59
798.525	15001.6
798.856	15192.78
799.188	14940.36
799.519	14926.57
799.85	14832.79
800.182	14850.87
800.513	14880.7
800.844	14767.93
801.175	14837.31
801.506	14772.22
801.837	14625.79
802.168	14622.4
802.499	14615.39
802.83	14477.77
803.161	14558.67
803.491	14493.59
803.822	14468.73
804.153	14374.72
804.483	14287.94
804.814	14118
805.145	14162.98
805.475	14106.71
805.805	14195.74
806.136	14113.26
806.466	14158.23
806.796	14089.53
807.126	13910.78
807.457	13933.15
807.787	13915.75
808.117	13793.72
808.447	13850.44
808.777	13798.01
809.107	13723.21
809.436	13732.25
809.766	13765.92
810.096	13608.41
810.426	13556.66
810.755	13614.74
811.085	13539.49
811.414	13450
811.744	13448.19
812.073	13450
812.403	13448.87
812.732	13344.24
813.061	13315.77
813.39	13352.83
813.719	13285.94
814.049	13313.05
814.378	13232.15
814.707	13145.83
815.036	13168.2
815.365	13107.41
815.693	12897.25
816.022	13100.86
816.351	12965.49
816.68	12972.05
817.008	12936.11
817.337	12757.59
817.665	12798.94
817.994	12879.84
818.322	12788.1
818.651	12728.66
818.979	12755.1
819.307	12751.71
819.636	12662.9
819.964	12627.42
820.292	12617.03
820.62	12574.32
820.948	12612.96
821.276	12612.06
821.604	12535.67
821.932	12588.1
822.259	12629.46
822.587	12540.64
822.915	12492.74
823.243	12573.19
823.57	12483.7
823.898	12579.29
824.225	12504.71
824.553	12453.87
824.88	12552.85
825.207	12554.88
825.535	12492.96
825.862	12533.19
826.189	12510.36
826.516	12592.85
826.843	12666.97
827.17	12532.28
827.497	12558.72
827.824	12465.17
828.151	12561.89
828.478	12552.85
828.805	12548.1
829.131	12532.96
829.458	12493.87
829.785	12427.65
830.111	12475.56
830.438	12479.86
830.764	12459.29
831.09	12519.18
831.417	12447.77
831.743	12549.23
832.069	12468.56
832.395	12427.65
832.722	12454.09
833.048	12388.11
833.374	12445.96
833.7	12327.32
834.026	12349.92
834.351	12395.34
834.677	12410.7
835.003	12335.23
835.329	12323.93
835.654	12259.52
835.98	12342.91
836.306	12281.22
836.631	12232.63
836.956	12328.9
837.282	12273.99
837.607	12182.24
837.932	12253.65
838.258	12130.94
838.583	12056.14
838.908	12085.52
839.233	12079.19
839.558	12104.27
839.883	11974.11
840.208	12005.97
840.533	11949.7
840.858	11978.17
841.182	11959.64
841.507	11930.94
841.832	11854.79
842.156	11921.68
842.481	11837.39
842.805	11825.86
843.13	11754.68
843.454	11766.65
843.778	11763.04
844.103	11769.59
844.427	11705.41
844.751	11730.04
845.075	11689.82
845.399	11601.23
845.723	11595.58
846.047	11577.05
846.371	11437.62
846.695	11455.7
847.019	11370.28
847.343	11318.08
847.666	11228.59
847.99	11183.84
848.313	11237.85
848.637	11150.62
848.96	11148.59
849.284	11100.68
849.607	11018.42
849.931	10959.67
850.254	10958.99
850.577	10847.36
850.9	10725.55
851.223	10797.87
851.546	10744.31
851.869	10636.06
852.192	10767.81
852.515	10698.21
852.838	10580.7
853.161	10586.12
853.483	10524.88
853.806	10498.44
854.129	10480.36
854.451	10367.82
854.774	10401.27
855.096	10413.47
855.419	10342.06
855.741	10298.67
856.063	10259.57
856.385	10246.24
856.708	10196.07
857.03	10185.45
857.352	10205.56
857.674	10118.34
857.996	10020.94
858.318	10036.98
858.64	9986.59
858.961	10013.25
859.283	9974.16
859.605	9886.25
859.926	9985.91
860.248	9898.45
860.57	9862.52
860.891	9860.49
861.212	9811.23
861.534	9787.5
861.855	9782.75
862.176	9767.38
862.498	9767.84
862.819	9751.11
863.14	9755.41
863.461	9672.47
863.782	9644
864.103	9644
864.424	9623.21
864.745	9619.59
865.065	9552.25
865.386	9489.43
865.707	9484.23
866.027	9529.65
866.348	9588.86
866.668	9527.39
866.989	9524.9
867.309	9433.16
867.63	9530.78
867.95	9439.03
868.27	9405.36
868.59	9412.14
868.91	9409.43
869.23	9390.9
869.55	9312.93
869.87	9343.44
870.19	9390.22
870.51	9314.51
870.83	9348.41
871.15	9279.94
871.469	9278.36
871.789	9270.22
872.109	9244.01
872.428	9167.17
872.748	9271.8
873.067	9140.06
873.386	9129.21
873.706	9130.34
874.025	9162.88
874.344	9088.31
874.663	9104.13
874.982	9139.6
875.301	9104.58
875.62	9067.52
875.939	9096.44
876.258	9097.12
876.577	9006.5
876.896	8992.26
877.214	8950
877.533	9003.34
877.852	9010.79
878.17	8943.45
878.489	8930.34
878.807	8891.48
879.125	8916.11
879.444	8860.29
879.762	8869.1
880.08	8914.98
880.398	8799.27
880.716	8851.25
881.034	8738.03
881.352	8744.81
881.67	8754.53
881.988	8745.26
882.306	8707.98
882.624	8683.12
882.941	8672.05
883.259	8619.17
883.577	8617.13
883.894	8665.72
884.212	8544.59
884.529	8572.84
884.846	8585.95
885.164	8587.08
885.481	8491.26
885.798	8529.45
886.115	8482.22
886.432	8454.42
886.75	8475.89
887.067	8413.97
887.383	8335.56
887.7	8446.52
888.017	8329.91
888.334	8392.73
888.651	8316.12
888.967	8327.42
889.284	8283.81
889.6	8301.21
889.917	8202.23
890.233	8178.95
890.55	8120.42
890.866	8271.83
891.182	8133.53
891.498	8118.61
891.815	8080.88
892.131	8096.92
892.447	8053.76
892.763	7985.74
893.079	7977.15
893.395	7927.66
893.71	7940.77
894.026	8006.07
894.342	7877.72
894.657	7864.16
894.973	7884.5
895.289	7849.02
895.604	7796.14
895.92	7728.34
896.235	7754.78
896.55	7787.32
896.865	7673.43
897.181	7696.48
897.496	7669.81
897.811	7627.78
898.126	7640.21
898.441	7572.19
898.756	7568.8
899.071	7466.88
899.386	7548.01
899.7	7450.84
900.015	7413.1
900.33	7324.96
900.644	7426.88
900.959	7391.4
901.273	7296.26
901.588	7270.05
901.902	7235.02
902.216	7267.34
902.531	7221.69
902.845	7223.95
903.159	7193.21
903.473	7163.39
903.787	7162.93
904.101	7077.74
904.415	7074.12
904.729	7084.07
905.042	7007.01
905.356	6976.95
905.67	6973.11
905.984	6982.6
906.297	6916.61
906.611	6914.13
906.924	6900.57
907.237	6852.88
907.551	6866.67
907.864	6803.85
908.177	6798.2
908.491	6774.47
908.804	6727.01
909.117	6693.11
909.43	6712.1
909.743	6616.51
910.056	6659.67
910.368	6595.94
910.681	6576.06
910.994	6604.3
911.307	6512.55
911.619	6466
911.932	6458.32
912.244	6456.29
912.557	6437.53
912.869	6376.74
913.181	6373.8
913.494	6342.16
913.806	6364.31
914.118	6254.26
914.43	6223.07
914.742	6284.54
915.054	6218.55
915.366	6180.59
915.678	6173.81
915.99	6191.66
916.302	6132.23
916.613	6164.99
916.925	6089.74
917.236	6121.38
917.548	6036.18
917.859	6068.27
918.171	5977.43
918.482	5935.85
918.794	5945.56
919.105	5873.93
919.416	5874.61
919.727	5840.48
920.038	5857.66
920.349	5803.19
920.66	5782.63
920.971	5774.5
921.282	5772.24
921.593	5688.62
921.903	5643.2
922.214	5682.07
922.525	5607.95
922.835	5613.14
923.146	5579.47
923.456	5595.06
923.767	5545.35
924.077	5506.25
924.387	5447.95
924.697	5454.96
925.008	5459.02
925.318	5392.81
925.628	5380.38
925.938	5362.08
926.248	5303.55
926.558	5258.35
926.867	5259.48
927.177	5226.03
927.487	5265.36
927.796	5218.8
928.106	5217.22
928.416	5190.33
928.725	5190.1
929.034	5138.13
929.344	5117.34
929.653	5138.58
929.962	5031.69
930.271	5007.51
930.581	4984.23
930.89	5025.36
931.199	4992.59
931.508	4967.51
931.817	4961.86
932.125	4956.21
932.434	4952.14
932.743	4836.21
933.051	4877.34
933.36	4850
933.669	4813.39
933.977	4763.9
934.286	4740.85
934.594	4744.69
934.902	4724.58
935.21	4707.18
935.519	4740.4
935.827	4694.52
936.135	4640.97
936.443	4653.39
936.751	4621.53
937.059	4628.54
937.367	4596.22
937.674	4611.81
937.982	4570.68
938.29	4547.18
938.597	4542.44
938.905	4477.81
939.213	4434.64
939.52	4436.45
939.827	4455.21
940.135	4442.33
940.442	4405.49
940.749	4391.71
941.056	4374.76
941.363	4381.31
941.67	4354.19
941.977	4336.34
942.284	4271.26
942.591	4323.69
942.898	4265.83
943.205	4267.64
943.511	4231.94
943.818	4219.28
944.125	4163.24
944.431	4161.43
944.738	4158.49
945.044	4172.73
945.35	4127.08
945.657	4096.35
945.963	4077.59
946.269	4078.27
946.575	4051.83
946.881	4010.7
947.187	4056.12
947.493	3966.18
947.799	4010.93
948.105	3944.03
948.41	4005.73
948.716	3973.64
949.022	3929.12
949.327	3924.6
949.633	3870.14
949.938	3863.36
950.244	3852.96
950.549	3833.53
950.854	3812.29
951.16	3827.65
951.465	3782.23
951.77	3754.89
952.075	3809.57
952.38	3705.4
952.685	3742.01
952.99	3677.15
953.294	3715.79
953.599	3664.04
953.904	3655.45
954.209	3629.47
954.513	3606.87
954.818	3598.96
955.122	3586.53
955.426	3572.07
955.731	3555.57
956.035	3554.89
956.339	3524.84
956.643	3502.46
956.948	3493.88
957.252	3466.08
957.556	3451.62
957.86	3452.07
958.163	3455.91
958.467	3410.04
958.771	3422.24
959.075	3447.1
959.378	3396.25
959.682	3393.31
959.985	3368.91
960.289	3351.06
960.592	3339.98
960.896	3342.69
961.199	3326.65
961.502	3302.02
961.805	3306.09
962.108	3287.55
962.411	3298.85
962.714	3242.81
963.017	3243.04
963.32	3236.26
963.623	3277.61
963.926	3180.89
964.228	3197.84
964.531	3169.37
964.833	3214.56
965.136	3162.36
965.438	3138.41
965.741	3106.09
966.043	3108.35
966.345	3098.63
966.648	3090.05
966.95	3030.84
967.252	3051.63
967.554	3026.32
967.856	3010.5
968.158	2997.84
968.46	2990.16
968.761	2938.86
969.063	2987
969.365	2984.74
969.666	2939.32
969.968	2950.16
970.269	2899.32
970.571	2909.49
970.872	2871.75
971.174	2872.88
971.475	2897.73
971.776	2876.94
972.077	2843.95
972.378	2829.26
972.679	2815.93
972.98	2786.33
973.281	2824.97
973.582	2792.88
973.883	2803.5
974.183	2714.46
974.484	2726.21
974.785	2706.33
975.085	2744.74
975.386	2707.46
975.686	2704.52
975.986	2659.77
976.287	2643.05
976.587	2635.59
976.887	2637.18
977.187	2661.58
977.487	2641.02
977.787	2629.72
978.087	2611.41
978.387	2571.87
978.687	2580.23
978.987	2561.92
979.286	2530.51
979.586	2570.06
979.885	2565.09
980.185	2515.15
980.484	2501.59
980.784	2497.75
981.083	2462.94
981.382	2494.36
981.682	2510.63
981.981	2484.19
982.28	2439.67
982.579	2427.92
982.878	2411.87
983.177	2402.38
983.475	2407.58
983.774	2400.35
984.073	2376.84
984.372	2372.1
984.67	2371.42
984.969	2361.03
985.267	2336.39
985.566	2352.66
985.864	2280.35
986.162	2261.82
986.461	2298.2
986.759	2289.61
987.057	2311.99
987.355	2257.98
987.653	2269.5
987.951	2274.25
988.249	2242.84
988.547	2222.27
988.844	2209.62
989.142	2228.15
989.44	2183.86
989.737	2171.43
990.035	2194.7
990.332	2186.34
990.63	2141.14
990.927	2141.14
991.224	2140.01
991.521	2168.04
991.819	2103.41
992.116	2092.78
992.413	2109.05
992.71	2134.59
993.006	2106.34
993.303	2058.43
993.6	2070.41
993.897	2059.11
994.193	2071.09
994.49	2069.28
994.787	2052.11
995.083	2021.83
995.379	2014.37
995.676	1995.61
995.972	2031.99
996.268	1987.48
996.565	1982.28
996.861	1985.67
997.157	1985.44
997.453	1955.39
997.749	1935.5
998.044	1959
998.34	1965.78
998.636	1934.6
998.932	1920.59
999.227	1901.83
999.523	1865.67
999.818	1877.42
1000.114	1871.09
1000.409	1874.48
1000.704	1860.7
1001	1817.08
1001.295	1815.28
1001.59	1846.24
1001.885	1782.74
1002.18	1788.39
1002.475	1782.28
1002.77	1777.76
1003.065	1759.69
1003.359	1764.21
1003.654	1761.95
1003.949	1743.87
1004.243	1725.11
1004.538	1726.24
1004.832	1722.4
1005.127	1699.8
1005.421	1680.82
1005.715	1686.47
1006.009	1719.01
1006.304	1663.42
1006.598	1686.24
1006.892	1668.84
1007.186	1647.37
1007.48	1642.63
1007.773	1633.81
1008.067	1634.26
1008.361	1622.06
1008.655	1605.57
1008.948	1596.07
1009.242	1603.98
1009.535	1588.39
1009.829	1563.31
1010.122	1581.38
1010.415	1568.73
1010.708	1557.66
1011.001	1535.74
1011.295	1503.42
1011.588	1523.08
1011.881	1513.82
1012.173	1494.83
1012.466	1480.37
1012.759	1479.92
1013.052	1468.17
1013.344	1473.37
1013.637	1452.8
1013.93	1462.74
1014.222	1423.87
1014.514	1420.03
1014.807	1427.04
1015.099	1441.95
1015.391	1409.86
1015.683	1411.45
1015.976	1396.98
1016.268	1386.81
1016.56	1355.4
1016.851	1353.82
1017.143	1377.32
1017.435	1369.87
1017.727	1362.86
1018.018	1356.08
1018.31	1333.93
1018.602	1318.79
1018.893	1327.15
1019.185	1307.49
1019.476	1292.58
1019.767	1298.68
1020.058	1297.1
1020.35	1257.33
1020.641	1293.71
1020.932	1274.73
1021.223	1254.61
1021.514	1250.09
1021.804	1246.25
1022.095	1233.15
1022.386	1245.8
1022.677	1192.69
1022.967	1212.13
1023.258	1185.24
1023.548	1201.73
1023.839	1169.19
1024.129	1191.34
1024.419	1168.29
1024.709	1166.25
1025	1154.05
1025.29	1156.54
1025.58	1147.27
1025.87	1139.36
1026.16	1156.99
1026.449	1107.73
1026.739	1114.05
1027.029	1109.08
1027.319	1099.36
1027.608	1097.33
1027.898	1092.58
1028.187	1075.64
1028.477	1074.96
1028.766	1051
1029.055	1057.78
1029.344	1072.7
1029.634	1049.42
1029.923	1049.87
1030.212	1061.17
1030.501	1021.63
1030.79	1053.94
1031.078	1041.51
1031.367	996.32
1031.656	992.02
1031.945	975.3
1032.233	981.4
1032.522	989.31
1032.81	994.06
1033.099	966.71
1033.387	991.57
1033.675	969.2
1033.963	944.11
1034.251	940.27
1034.54	940.27
1034.828	945.7
1035.116	929.65
1035.403	933.04
1035.691	916.54
1035.979	942.53
1036.267	922.19
1036.554	918.58
1036.842	887.39
1037.129	891.69
1037.417	897.79
1037.704	884
1037.992	879.03
1038.279	875.19
1038.566	900.27
1038.853	900.27
1039.14	900.27
