Data from foam_black_FLMS001491_00060.txt Node
Date: Wed Feb 08 10:44:09 GMT 2017
User: dcchb
Spectrometer: FLMS00149
Trigger mode: 0
Integration Time (sec): 2.000000E-2
Scans to average: 10
Electric dark correction enabled: true
Nonlinearity correction enabled: false
Boxcar width: 0
XAxis mode: Wavelengths
Number of Pixels in Spectrum: 2048
>>>>>Begin Spectral Data<<<<<
341.393	-15.73
341.776	-15.73
342.16	-15.73
342.543	-79.01
342.927	-85.34
343.31	-63.87
343.693	-59.35
344.077	-87.6
344.46	-60.48
344.843	-53.47
345.226	-38.11
345.61	11.38
345.993	-6.47
346.376	-8.28
346.759	-3.08
347.142	22.01
347.525	28.11
347.908	52.96
348.291	67.88
348.674	100.42
349.057	97.94
349.44	121.44
349.823	143.36
350.206	156.46
350.588	174.09
350.971	193.07
351.354	217.48
351.737	211.15
352.119	226.29
352.502	245.5
352.884	245.73
353.267	259.06
353.65	262.45
354.032	289.34
354.414	284.82
354.797	291.15
355.179	311.49
355.562	318.72
355.944	304.48
356.326	311.49
356.709	321.66
357.091	322.79
357.473	318.49
357.855	327.53
358.238	344.48
358.62	323.47
359.002	319.85
359.384	319.17
359.766	325.05
360.148	303.35
360.53	301.32
360.912	326.4
361.294	318.49
361.676	321.66
362.057	327.53
362.439	323.92
362.821	304.71
363.203	320.3
363.584	300.64
363.966	321.43
364.348	282.34
364.729	320.98
365.111	316.23
365.493	297.7
365.874	297.25
366.256	316.46
366.637	297.03
367.019	287.99
367.4	312.39
367.781	292.96
368.163	294.54
368.544	295.9
368.925	279.63
369.306	287.08
369.688	303.58
370.069	306.97
370.45	299.06
370.831	306.07
371.212	299.51
371.593	293.41
371.974	300.42
372.355	315.1
372.736	317.82
373.117	311.04
373.498	297.7
373.879	278.95
374.26	281.43
374.641	300.42
375.021	315.78
375.402	303.13
375.783	311.04
376.163	306.07
376.544	315.33
376.925	319.85
377.305	299.96
377.686	318.95
378.066	312.39
378.447	298.61
378.827	318.95
379.208	324.37
379.588	307.2
379.968	316.69
380.349	308.55
380.729	309.91
381.109	329.12
381.489	314.88
381.87	311.26
382.25	316.91
382.63	332.51
383.01	333.18
383.39	337.93
383.77	308.33
384.15	334.77
384.53	315.78
384.91	313.75
385.29	332.05
385.67	324.37
386.049	327.31
386.429	327.53
386.809	316.91
387.189	342.67
387.568	342
387.948	328.21
388.328	329.12
388.707	331.38
389.087	339.06
389.466	350.58
389.846	326.86
390.225	361.66
390.605	333.64
390.984	346.29
391.363	329.34
391.743	347.42
392.122	348.78
392.501	357.82
392.881	340.87
393.26	364.37
393.639	340.41
394.018	362.11
394.397	335.9
394.776	344.48
395.155	359.62
395.534	373.86
395.913	363.47
396.292	356.23
396.671	395.1
397.05	363.24
397.429	357.14
397.808	359.17
398.186	360.3
398.565	349.91
398.944	363.24
399.323	360.75
399.701	383.13
400.08	366.85
400.458	377.25
400.837	364.37
401.215	380.41
401.594	387.65
401.972	380.41
402.351	372.5
402.729	381.09
403.107	388.78
403.486	376.8
403.864	395.1
404.242	376.57
404.62	411.15
404.999	371.15
405.377	401.66
405.755	387.87
406.133	403.92
406.511	389.45
406.889	381.09
407.267	417.25
407.645	409.11
408.023	415.67
408.401	415.44
408.779	388.55
409.156	398.94
409.534	410.47
409.912	419.96
410.29	416.12
410.667	424.25
411.045	426.97
411.422	426.97
411.8	427.87
412.178	413.63
412.555	427.64
412.933	428.55
413.31	444.82
413.687	439.17
414.065	450.92
414.442	444.59
414.819	451.15
415.197	450.69
415.574	459.51
415.951	452.28
416.328	459.96
416.705	458.38
417.082	466.29
417.46	458.38
417.837	461.09
418.214	467.19
418.591	487.3
418.967	452.28
419.344	477.59
419.721	487.76
420.098	461.09
420.475	466.74
420.852	486.63
421.228	470.35
421.605	501.31
421.982	486.63
422.358	502.9
422.735	477.13
423.111	490.24
423.488	483.01
423.864	488.66
424.241	504.7
424.617	507.87
424.994	499.28
425.37	487.3
425.746	499.73
426.123	510.81
426.499	511.71
426.875	519.85
427.251	530.47
427.627	527.53
428.003	526.62
428.379	526.4
428.756	540.18
429.132	539.05
429.507	547.64
429.883	535.89
430.259	575.89
430.635	542.44
431.011	533.63
431.387	555.1
431.763	581.76
432.138	558.04
432.514	585.38
432.89	575.89
433.265	562.1
433.641	563.01
434.016	603.01
434.392	614.08
434.767	599.39
435.143	622.22
435.518	601.42
435.894	619.28
436.269	619.73
436.644	609.33
437.02	606.17
437.395	624.02
437.77	603.46
438.145	631.25
438.52	610.46
438.895	657.47
439.271	643.68
439.646	648.66
440.021	645.94
440.395	650.46
440.77	637.36
441.145	634.19
441.52	657.69
441.895	654.3
442.27	671.25
442.645	686.62
443.019	678.71
443.394	676.45
443.769	694.76
444.143	677.13
444.518	688.2
444.892	677.81
445.267	656.34
445.641	676
446.016	678.48
446.39	673.74
446.764	716.9
447.139	684.13
447.513	686.85
447.887	700.41
448.262	687.3
448.636	709.67
449.01	717.81
449.384	719.16
449.758	720.07
450.132	714.42
450.506	706.51
450.88	733.62
451.254	720.07
451.628	722.55
452.002	757.13
452.376	755.55
452.75	760.29
453.123	750.57
453.497	801.87
453.871	787.86
454.244	761.42
454.618	778.6
454.992	767.3
455.365	798.48
455.739	777.47
456.112	784.02
456.486	798.71
456.859	831.93
457.232	796.67
457.606	833.28
457.979	834.87
458.352	828.76
458.725	854.3
459.099	834.87
459.472	857.69
459.845	891.59
460.218	880.97
460.591	901.08
460.964	891.13
461.337	885.71
461.71	922.32
462.083	881.42
462.456	894.98
462.829	909.21
463.201	931.81
463.574	913.96
463.947	933.17
464.32	948.31
464.692	960.29
465.065	961.19
465.438	986.27
465.81	982.88
466.183	987.4
466.555	1006.61
466.928	1011.36
467.3	982.66
467.672	1026.5
468.045	1064.69
468.417	1046.84
468.789	1056.78
469.161	1075.31
469.534	1090
469.906	1098.36
470.278	1090.45
470.65	1094.97
471.022	1106.95
471.394	1116.21
471.766	1128.19
472.138	1151.24
472.51	1146.95
472.882	1162.77
473.253	1195.08
473.625	1187.4
473.997	1219.04
474.369	1230.33
474.74	1232.14
475.112	1249.77
475.484	1242.76
475.855	1254.29
476.227	1292.25
476.598	1317.56
476.97	1332.93
477.341	1380.61
477.713	1353.04
478.084	1365.92
478.455	1391.91
478.827	1413.38
479.198	1437.79
479.569	1465.81
479.94	1486.37
480.311	1486.6
480.682	1506.49
481.053	1523.43
481.424	1518.69
481.795	1580.83
482.166	1560.04
482.537	1617.22
482.908	1610.89
483.279	1620.38
483.65	1660.38
484.021	1672.36
484.391	1691.34
484.762	1717.33
485.133	1763.65
485.503	1753.03
485.874	1772.02
486.244	1779.47
486.615	1816.99
486.985	1828.96
487.356	1860.83
487.726	1856.08
488.097	1919.81
488.467	1926.36
488.837	1944.89
489.207	1958.45
489.578	1943.08
489.948	2014.72
490.318	2033.03
490.688	2009.52
491.058	2055.4
491.428	2080.71
491.798	2092.91
492.168	2135.17
492.538	2150.99
492.908	2127.03
493.278	2171.78
493.648	2196.86
494.017	2251.32
494.387	2238.22
494.757	2234.38
495.126	2247.26
495.496	2248.16
495.866	2263.3
496.235	2304.2
496.605	2345.79
496.974	2295.39
497.344	2365.45
497.713	2388.72
498.082	2386.69
498.452	2403.64
498.821	2412.22
499.19	2406.35
499.559	2424.2
499.928	2413.35
500.298	2484.31
500.667	2494.71
501.036	2471.21
501.405	2530.19
501.774	2525.44
502.143	2550.07
502.512	2525.22
502.88	2546.46
503.249	2550.53
503.618	2586.68
503.987	2581.26
504.356	2607.93
504.724	2654.03
505.093	2679.79
505.462	2627.13
505.83	2668.49
506.199	2697.41
506.567	2717.53
506.936	2731.76
507.304	2722.95
507.672	2725.66
508.041	2753.68
508.409	2787.58
508.777	2808.15
509.145	2805.89
509.514	2814.25
509.882	2824.87
510.25	2887.47
510.618	2884.53
510.986	2896.51
511.354	2917.52
511.722	2932.44
512.09	2939.67
512.458	2977.63
512.826	2948.71
513.193	3025.09
513.561	3009.05
513.929	3009.72
514.297	3056.28
514.664	3084.3
515.032	3070.74
515.4	3079.1
515.767	3110.51
516.135	3143.73
516.502	3129.04
516.869	3213.33
517.237	3195.71
517.604	3213.11
517.972	3237.06
518.339	3275.7
518.706	3299.66
519.073	3276.16
519.44	3287.91
519.808	3324.74
520.175	3318.19
520.542	3357.74
520.909	3382.59
521.276	3395.7
521.643	3451.07
522.009	3453.1
522.376	3427.79
522.743	3505.76
523.11	3519.99
523.477	3552.31
523.843	3562.93
524.21	3608.35
524.577	3656.26
524.943	3629.14
525.31	3656.94
525.676	3684.51
526.043	3745.3
526.409	3727.9
526.776	3733.09
527.142	3776.48
527.508	3835.01
527.874	3850.15
528.241	3868.46
528.607	3889.02
528.973	3924.95
529.339	3944.16
529.705	3941.45
530.071	3978.29
530.437	4021.22
530.803	4038.4
531.169	4025.74
531.535	4044.5
531.901	4061.22
532.267	4127.21
532.632	4070.49
532.998	4129.02
533.364	4107.32
533.73	4150.71
534.095	4162.69
534.461	4174.44
534.826	4214.44
535.192	4221.44
535.557	4253.53
535.923	4223.25
536.288	4306.64
536.653	4247.43
537.019	4308.9
537.384	4326.98
537.749	4287.43
538.114	4330.37
538.479	4340.54
538.845	4376.24
539.21	4322.23
539.575	4385.28
539.94	4426.86
540.305	4454.43
540.67	4406.07
541.034	4465.05
541.399	4432.96
541.764	4472.96
542.129	4487.42
542.494	4480.19
542.858	4568.1
543.223	4541.89
543.587	4567.65
543.952	4592.73
544.316	4613.97
544.681	4620.75
545.045	4616.23
545.41	4632.73
545.774	4717.47
546.138	4689.9
546.503	4762.45
546.867	4712.96
547.231	4757.02
547.595	4720.41
547.959	4796.34
548.324	4837.25
548.688	4772.84
549.052	4830.47
549.416	4859.39
549.779	4859.62
550.143	4883.35
550.507	4900.97
550.871	4934.42
551.235	4901.42
551.599	4936.68
551.962	4942.1
552.326	4973.74
552.689	4947.98
553.053	4948.2
553.417	5011.25
553.78	5038.14
554.143	5025.94
554.507	5060.74
554.87	5052.61
555.234	5073.17
555.597	5091.02
555.96	5058.71
556.323	5096.67
556.686	5140.29
557.05	5165.82
557.413	5193.17
557.776	5205.82
558.139	5276.78
558.502	5241.98
558.865	5254.41
559.228	5272.71
559.59	5356.78
559.953	5360.85
560.316	5389.77
560.679	5395.65
561.041	5379.6
561.404	5456.66
561.767	5474.97
562.129	5464.8
562.492	5554.51
562.854	5523.56
563.217	5563.55
563.579	5607.62
563.941	5609.2
564.304	5603.55
564.666	5697.11
565.028	5722.87
565.39	5754.74
565.753	5834.06
566.115	5825.24
566.477	5769.88
566.839	5827.05
567.201	5869.76
567.563	5889.65
567.925	5897.56
568.287	5906.82
568.648	5887.39
569.01	5999.7
569.372	6013.49
569.734	5974.84
570.095	5972.13
570.457	6072.47
570.819	6087.38
571.18	6094.16
571.542	6108.17
571.903	6082.41
572.265	6097.78
572.626	6114.73
572.987	6170.09
573.349	6186.36
573.71	6181.17
574.071	6156.99
574.432	6228.85
574.794	6260.03
575.155	6307.04
575.516	6249.86
575.877	6282.86
576.238	6300.48
576.599	6245.8
576.96	6299.13
577.32	6314.04
577.681	6343.19
578.042	6410.31
578.403	6373.48
578.763	6391.33
579.124	6411.67
579.485	6385
579.845	6392.23
580.206	6429.29
580.566	6450.31
580.927	6413.02
581.287	6490.76
581.648	6388.17
582.008	6524.21
582.368	6428.84
582.728	6505.45
583.089	6475.85
583.449	6537.99
583.809	6468.39
584.169	6505.45
584.529	6483.53
584.889	6550.42
585.249	6462.29
585.609	6505
585.969	6493.93
586.329	6519.46
586.688	6494.6
587.048	6470.88
587.408	6492.8
587.768	6520.14
588.127	6516.52
588.487	6443.08
588.846	6480.37
589.206	6513.36
589.565	6502.74
589.925	6488.5
590.284	6526.47
590.643	6474.72
591.003	6542.74
591.362	6529.4
591.721	6479.91
592.08	6525.79
592.44	6508.61
592.799	6492.8
593.158	6475.17
593.517	6462.97
593.876	6557.65
594.235	6504.09
594.593	6503.42
594.952	6577.09
595.311	6528.73
595.67	6525.34
596.029	6587.03
596.387	6610.08
596.746	6601.04
597.104	6560.82
597.463	6515.62
597.822	6601.95
598.18	6570.31
598.538	6587.03
598.897	6571.66
599.255	6599.01
599.613	6645.11
599.972	6613.47
600.33	6619.57
600.688	6640.14
601.046	6639.01
601.404	6708.16
601.762	6716.07
602.12	6686.46
602.478	6642.4
602.836	6670.64
603.194	6660.93
603.552	6664.54
603.91	6609.18
604.268	6694.6
604.625	6647.37
604.983	6679.68
605.341	6712.68
605.698	6737.99
606.056	6775.05
606.413	6714.48
606.771	6795.39
607.128	6800.13
607.485	6731.43
607.843	6721.49
608.2	6737.31
608.557	6782.28
608.914	6810.53
609.272	6755.16
609.629	6772.79
609.986	6863.18
610.343	6777.99
610.7	6845.78
611.057	6790.19
611.414	6828.83
611.771	6811.66
612.127	6833.13
612.484	6768.72
612.841	6861.83
613.198	6840.58
613.554	6747.25
613.911	6838.77
614.267	6829.74
614.624	6852.79
614.98	6876.06
615.337	6863.86
615.693	6842.16
616.05	6852.33
616.406	6884.65
616.762	6909.73
617.118	6857.08
617.475	6873.58
617.831	6928.49
618.187	6841.71
618.543	6912.22
618.899	6901.82
619.255	6905.44
619.611	6846.68
619.967	6917.87
620.323	6928.72
620.678	6907.02
621.034	6891.43
621.39	6913.12
621.746	6847.81
622.101	6962.16
622.457	6980.92
622.812	6970.97
623.168	6992.22
623.523	6999
623.879	6926.23
624.234	7035.83
624.589	6997.19
624.945	6991.31
625.3	6986.34
625.655	6981.37
626.01	7008.26
626.365	7041.03
626.72	7039
627.075	7041.26
627.43	7029.05
627.785	6994.48
628.14	7050.97
628.495	7003.97
628.85	7027.92
629.205	6983.63
629.559	7029.5
629.914	6979.11
630.269	7010.97
630.623	6965.1
630.978	6947.92
631.332	6909.73
631.687	6927.36
632.041	6952.9
632.396	6913.35
632.75	6894.37
633.104	6904.08
633.459	6872.22
633.813	6904.08
634.167	6904.31
634.521	6820.92
634.875	6857.76
635.229	6842.16
635.583	6836.29
635.937	6817.76
636.291	6799.23
636.645	6770.08
636.999	6774.14
637.352	6712.45
637.706	6754.71
638.06	6749.51
638.413	6786.12
638.767	6692.79
639.121	6726.24
639.474	6674.94
639.828	6723.98
640.181	6692.34
640.534	6668.84
640.888	6691.43
641.241	6644.43
641.594	6617.54
641.947	6619.35
642.301	6663.64
642.654	6644.2
643.007	6664.54
643.36	6632.68
643.713	6585.9
644.066	6629.51
644.419	6531.21
644.771	6524.43
645.124	6424.77
645.477	6395.85
645.83	6368.96
646.182	6392.23
646.535	6420.25
646.888	6426.81
647.24	6425.23
647.593	6462.74
647.945	6447.82
648.298	6409.63
648.65	6365.12
649.002	6320.37
649.355	6427.26
649.707	6386.58
650.059	6410.99
650.411	6493.47
650.763	6474.04
651.115	6530.31
651.467	6532.34
651.819	6534.38
652.171	6503.64
652.523	6474.04
652.875	6440.14
653.227	6500.93
653.578	6479.01
653.93	6437.88
654.282	6426.13
654.633	6482.17
654.985	6509.74
655.337	6467.26
655.688	6472.46
656.039	6443.98
656.391	6399.92
656.742	6381.39
657.094	6446.47
657.445	6425.9
657.796	6412.8
658.147	6355.85
658.498	6373.02
658.849	6391.78
659.2	6349.75
659.551	6357.66
659.902	6380.48
660.253	6332.57
660.604	6387.04
660.955	6307.72
661.306	6338.45
661.656	6293.25
662.007	6331.9
662.358	6305.91
662.708	6275.17
663.059	6315.85
663.409	6269.52
663.76	6294.83
664.11	6309.98
664.461	6318.34
664.811	6308.39
665.161	6225.68
665.511	6268.62
665.862	6288.06
666.212	6275.63
666.562	6315.17
666.912	6261.39
667.262	6248.51
667.612	6296.42
667.962	6272.91
668.312	6290.09
668.662	6296.42
669.011	6227.27
669.361	6255.51
669.711	6287.6
670.06	6269.3
670.41	6266.59
670.76	6225.23
671.109	6281.73
671.459	6260.03
671.808	6257.55
672.157	6292.8
672.507	6204.67
672.856	6216.64
673.205	6198.34
673.554	6277.89
673.904	6213.03
674.253	6231.33
674.602	6234.05
674.951	6148.17
675.3	6154.27
675.649	6234.72
675.998	6299.58
676.346	6258.9
676.695	6270.65
677.044	6193.59
677.393	6218.9
677.741	6219.58
678.09	6196.76
678.438	6148.17
678.787	6249.19
679.135	6136.19
679.484	6124.9
679.832	6146.59
680.181	6154.27
680.529	6156.99
680.877	6176.65
681.225	6112.01
681.573	6112.92
681.922	6146.36
682.27	6061.85
682.618	6113.14
682.966	6079.7
683.314	6044.9
683.661	6021.17
684.009	6041.28
684.357	6002.41
684.705	5957.67
685.053	6028.63
685.4	5967.39
685.748	5961.06
686.095	5935.97
686.443	5942.75
686.79	5909.99
687.138	5956.31
687.485	5917.22
687.832	5867.05
688.18	5877.44
688.527	5889.87
688.874	5856.43
689.221	5888.07
689.568	5744.11
689.915	5745.02
690.262	5803.55
690.609	5753.38
690.956	5712.25
691.303	5720.84
691.65	5726.04
691.997	5717.45
692.344	5655.3
692.69	5691.69
693.037	5691.01
693.383	5628.64
693.73	5635.64
694.077	5620.5
694.423	5611.69
694.769	5609.43
695.116	5586.6
695.462	5580.5
695.808	5565.36
696.155	5546.38
696.501	5634.06
696.847	5522.43
697.193	5479.04
697.539	5527.85
697.885	5519.49
698.231	5469.09
698.577	5497.12
698.923	5505.93
699.269	5463.67
699.614	5427.06
699.96	5426.83
700.306	5388.87
700.651	5403.56
700.997	5362.66
701.342	5416.89
701.688	5345.48
702.033	5321.3
702.379	5317.46
702.724	5354.52
703.069	5354.07
703.415	5293.73
703.76	5327.4
704.105	5304.13
704.45	5297.12
704.795	5273.62
705.14	5180.97
705.485	5230
705.83	5199.95
706.175	5218.93
706.52	5181.87
706.865	5258.7
707.209	5166.95
707.554	5171.02
707.899	5123.34
708.243	5143.45
708.588	5134.41
708.932	5042.66
709.277	5069.56
709.621	5103
709.966	4993.4
710.31	5073.4
710.654	5072.27
710.998	5044.7
711.342	4978.94
711.687	4978.26
712.031	4954.3
712.375	4977.13
712.719	4985.94
713.063	5030.69
713.407	4996.11
713.75	4955.43
714.094	4937.58
714.438	4947.75
714.782	4942.33
715.125	4953.63
715.469	4929.45
715.812	4853.74
716.156	4851.48
716.499	4860.75
716.843	4875.66
717.186	4809.68
717.53	4827.98
717.873	4834.08
718.216	4828.43
718.559	4807.87
718.902	4785.95
719.246	4795.89
719.589	4798.15
719.932	4759.28
720.275	4738.94
720.617	4755.67
720.96	4748.89
721.303	4739.62
721.646	4759.73
721.989	4718.15
722.331	4724.03
722.674	4714.31
723.016	4722.9
723.359	4661.66
723.701	4696.46
724.044	4696.91
724.386	4650.13
724.729	4688.55
725.071	4715.22
725.413	4646.29
725.755	4676.35
726.097	4626.63
726.439	4600.42
726.782	4619.62
727.124	4584.15
727.465	4579.4
727.807	4563.58
728.149	4577.59
728.491	4576.24
728.833	4555.22
729.175	4554.99
729.516	4521.55
729.858	4544.82
730.199	4557.03
730.541	4517.25
730.882	4484.03
731.224	4480.64
731.565	4523.58
731.906	4516.8
732.248	4469.8
732.589	4498.27
732.93	4459.85
733.271	4503.92
733.612	4545.5
733.953	4448.1
734.294	4508.21
734.635	4448.33
734.976	4443.58
735.317	4472.74
735.658	4468.44
735.999	4457.82
736.339	4437.26
736.68	4460.98
737.021	4443.81
737.361	4413.98
737.702	4434.09
738.042	4426.86
738.383	4397.03
738.723	4412.62
739.063	4408.1
739.404	4356.35
739.744	4407.2
740.084	4332.63
740.424	4345.73
740.764	4346.41
741.104	4369.91
741.444	4312.74
741.784	4287.66
742.124	4281.55
742.464	4308.22
742.804	4297.15
743.143	4270.03
743.483	4272.74
743.823	4238.39
744.162	4263.25
744.502	4254.44
744.841	4273.64
745.181	4243.36
745.52	4235.68
745.86	4246.98
746.199	4249.69
746.538	4203.14
746.877	4220.54
747.216	4207.43
747.556	4169.47
747.895	4201.78
748.234	4175.57
748.573	4139.86
748.911	4178.51
749.25	4122.01
749.589	4141.22
749.928	4162.69
750.267	4128.79
750.605	4131.28
750.944	4109.13
751.283	4116.59
751.621	4131.5
751.96	4126.76
752.298	4132.86
752.636	4077.27
752.975	4102.35
753.313	4113.42
753.651	4044.72
753.989	4058.28
754.327	4063.93
754.666	4079.75
755.004	4082.01
755.342	4042.24
755.679	4023.26
756.017	4045.85
756.355	3984.84
756.693	3969.02
757.031	3969.25
757.368	3934.9
757.706	4009.02
758.044	3981.9
758.381	3997.04
758.719	3943.03
759.056	3945.07
759.394	3932.64
759.731	3909.13
760.068	3904.61
760.405	3891.51
760.743	3899.19
761.08	3924.5
761.417	3860.1
761.754	3838.4
762.091	3873.66
762.428	3832.98
762.765	3836.37
763.102	3816.03
763.438	3804.28
763.775	3774
764.112	3769.03
764.449	3771.51
764.785	3732.64
765.122	3735.35
765.458	3712.98
765.795	3725.41
766.131	3730.16
766.467	3699.65
766.804	3682.93
767.14	3694
767.476	3635.92
767.812	3670.5
768.148	3673.66
768.485	3650.61
768.821	3598.41
769.157	3583.95
769.492	3570.84
769.828	3608.58
770.164	3597.96
770.5	3545.53
770.836	3575.81
771.171	3556.15
771.507	3515.02
771.842	3518.86
772.178	3464.17
772.513	3518.41
772.849	3510.73
773.184	3433.21
773.519	3489.94
773.855	3438.86
774.19	3413.33
774.525	3429.6
774.86	3402.03
775.195	3418.98
775.53	3422.37
775.865	3395.48
776.2	3377.4
776.535	3340.34
776.87	3363.84
777.205	3360.67
777.539	3358.19
777.874	3338.3
778.209	3350.28
778.543	3321.35
778.878	3259.43
779.212	3334.23
779.547	3297.4
779.881	3267.57
780.215	3291.3
780.55	3248.59
780.884	3232.54
781.218	3240.23
781.552	3266.89
781.886	3223.28
782.22	3185.31
782.554	3221.02
782.888	3148.48
783.222	3180.34
783.556	3148.02
783.889	3092.66
784.223	3122.26
784.557	3124.52
784.89	3149.15
785.224	3113.9
785.557	3083.39
785.891	3052.43
786.224	3067.35
786.558	3107.57
786.891	3045.43
787.224	3062.6
787.557	3020.12
787.891	3054.02
788.224	2998.65
788.557	2991.19
788.89	2985.09
789.223	2962.49
789.556	2961.59
789.888	2928.6
790.221	2969.27
790.554	2968.14
790.887	2948.48
791.219	2920.91
791.552	2917.75
791.884	2887.24
792.217	2900.35
792.549	2882.04
792.882	2859.67
793.214	2906.67
793.546	2871.87
793.879	2871.2
794.211	2844.98
794.543	2856.73
794.875	2847.69
795.207	2831.65
795.539	2818.77
795.871	2871.42
796.203	2803.85
796.535	2797.75
796.867	2756.85
797.198	2793.23
797.53	2827.58
797.862	2786.23
798.193	2796.85
798.525	2739
798.856	2736.06
799.188	2742.84
799.519	2742.39
799.85	2749.84
800.182	2684.31
800.513	2706.45
800.844	2646.57
801.175	2700.8
801.506	2717.98
801.837	2666.46
802.168	2684.76
802.499	2706.23
802.83	2671.65
803.161	2677.75
803.491	2667.81
803.822	2658.32
804.153	2620.35
804.483	2609.96
804.814	2606.57
805.145	2613.8
805.475	2612.9
805.805	2583.52
806.136	2569.06
806.466	2608.6
806.796	2590.07
807.126	2552.11
807.457	2559.34
807.787	2562.96
808.117	2542.62
808.447	2578.32
808.777	2524.09
809.107	2533.8
809.436	2493.35
809.766	2504.43
810.096	2515.95
810.426	2529.96
810.755	2477.31
811.085	2499.68
811.414	2489.96
811.744	2466.91
812.073	2507.82
812.403	2493.8
812.732	2492
813.061	2506.23
813.39	2466.91
813.719	2424.65
814.049	2466.69
814.378	2466.23
814.707	2424.88
815.036	2415.84
815.365	2462.39
815.693	2416.74
816.022	2377.42
816.351	2412
816.68	2400.47
817.008	2406.12
817.337	2390.76
817.665	2409.06
817.994	2390.53
818.322	2380.59
818.651	2357.76
818.979	2359.34
819.307	2378.33
819.636	2360.02
819.964	2344.2
820.292	2343.75
820.62	2341.49
820.948	2367.03
821.276	2367.71
821.604	2348.27
821.932	2385.33
822.259	2355.96
822.587	2341.49
822.915	2360.25
823.243	2355.28
823.57	2355.96
823.898	2345.33
824.225	2329.29
824.553	2358.44
824.88	2339.91
825.207	2346.46
825.535	2392.11
825.862	2319.35
826.189	2346.24
826.516	2301.49
826.843	2355.28
827.17	2353.24
827.497	2318.44
827.824	2304.66
828.151	2352.34
828.478	2337.2
828.805	2344.88
829.131	2338.78
829.458	2348.5
829.785	2312.34
830.111	2334.26
830.438	2304.88
830.764	2354.83
831.09	2343.53
831.417	2316.63
831.743	2341.04
832.069	2324.09
832.395	2327.71
832.722	2294.49
833.048	2297.65
833.374	2309.4
833.7	2294.94
834.026	2298.56
834.351	2329.29
834.677	2309.85
835.003	2316.41
835.329	2320.93
835.654	2295.39
835.98	2305.11
836.306	2305.11
836.631	2301.04
836.956	2320.48
837.282	2292.91
837.607	2269.63
837.932	2277.99
838.258	2254.26
838.583	2292
838.908	2281.38
839.233	2279.35
839.558	2272.34
839.883	2251.78
840.208	2243.87
840.533	2274.6
840.858	2228.27
841.182	2274.38
841.507	2238.67
841.832	2221.04
842.156	2203.64
842.481	2241.61
842.805	2222.85
843.13	2202.96
843.454	2242.29
843.778	2227.6
844.103	2186.69
844.427	2208.39
844.751	2172.01
845.075	2183.98
845.399	2161.16
845.723	2185.11
846.047	2198.67
846.371	2174.72
846.695	2158.45
847.019	2115.96
847.343	2133.14
847.666	2141.5
847.99	2085.45
848.313	2089.3
848.637	2125.45
848.96	2115.74
849.284	2111.44
849.607	2114.15
849.931	2121.16
850.254	2071.67
850.577	2048.62
850.9	2087.04
851.223	2051.56
851.546	2041.16
851.869	2066.47
852.192	2048.84
852.515	2033.7
852.838	2037.55
853.161	2017.43
853.483	1994.16
853.806	2000.48
854.129	2026.7
854.451	2002.74
854.774	1984.89
855.096	2004.78
855.419	1967.49
855.741	1970.43
856.063	1948.06
856.385	1947.6
856.708	1950.77
857.03	1980.6
857.352	1971.56
857.674	1940.37
857.996	1969.52
858.318	1931.56
858.64	1915.29
858.961	1937.43
859.283	1948.51
859.605	1925.23
859.926	1907.83
860.248	1908.96
860.57	1907.61
860.891	1925.91
861.212	1899.47
861.534	1895.63
861.855	1933.82
862.176	1909.87
862.498	1906.02
862.819	1877.1
863.14	1871.9
863.461	1883.43
863.782	1890.43
864.103	1878
864.424	1849.53
864.745	1862.63
865.065	1847.95
865.386	1892.69
865.707	1844.33
866.027	1881.17
866.348	1858.79
866.668	1863.09
866.989	1842.52
867.309	1828.51
867.63	1824.67
867.95	1840.04
868.27	1826.93
868.59	1861.96
868.91	1817.21
869.23	1849.08
869.55	1856.31
869.87	1843.43
870.19	1832.35
870.51	1830.55
870.83	1821.28
871.15	1828.51
871.469	1828.74
871.789	1780.6
872.109	1804.11
872.428	1785.12
872.748	1796.42
873.067	1823.99
873.386	1823.31
873.706	1830.32
874.025	1804.11
874.344	1773.6
874.663	1781.73
874.982	1792.35
875.301	1745.35
875.62	1770.66
875.939	1762.07
876.258	1796.65
876.577	1729.08
876.896	1777.21
877.214	1755.07
877.533	1771.79
877.852	1776.76
878.17	1742.64
878.489	1757.78
878.807	1760.04
879.125	1753.26
879.444	1742.19
879.762	1741.06
880.08	1719.36
880.398	1726.37
880.716	1745.58
881.034	1718.46
881.352	1743.77
881.67	1721.85
881.988	1728.85
882.306	1732.24
882.624	1705.58
882.941	1698.12
883.259	1694.28
883.577	1680.49
883.894	1701.51
884.212	1709.42
884.529	1694.28
884.846	1708.06
885.164	1673.04
885.481	1660.61
885.798	1676.42
886.115	1658.12
886.432	1695.18
886.75	1634.39
887.067	1667.39
887.383	1656.54
887.7	1664.22
888.017	1636.2
888.334	1656.76
888.651	1608.4
888.967	1612.25
889.284	1653.6
889.6	1624.9
889.917	1641.17
890.233	1626.26
890.55	1609.76
890.866	1623.77
891.182	1631
891.498	1622.41
891.815	1623.32
892.131	1586.26
892.447	1598.91
892.763	1591.46
893.079	1597.78
893.395	1599.36
893.71	1562.08
894.026	1570.89
894.342	1569.99
894.657	1590.55
894.973	1599.59
895.289	1568.18
895.604	1555.52
895.92	1552.59
896.235	1551.68
896.55	1544.22
896.865	1567.5
897.181	1564.56
897.496	1531.57
897.811	1549.65
898.126	1541.51
898.441	1521.4
898.756	1556.65
899.071	1534.06
899.386	1530.44
899.7	1555.07
900.015	1477.79
900.33	1508.29
900.644	1511.01
900.959	1513.94
901.273	1499.71
901.588	1473.04
901.902	1487.28
902.216	1485.7
902.531	1475.53
902.845	1481.63
903.159	1472.81
903.473	1426.49
903.787	1475.75
904.101	1489.09
904.415	1450.89
904.729	1463.32
905.042	1421.97
905.356	1441.18
905.67	1437.56
905.984	1455.64
906.297	1457.67
906.611	1410.44
906.924	1438.92
907.237	1435.53
907.551	1390.56
907.864	1413.83
908.177	1419.71
908.491	1407.51
908.804	1402.53
909.117	1384
909.43	1386.49
909.743	1393.27
910.056	1390.56
910.368	1373.38
910.681	1356.43
910.994	1355.53
911.307	1356.43
911.619	1371.12
911.932	1367.51
912.244	1357.11
912.557	1337.9
912.869	1355.3
913.181	1352.14
913.494	1305.81
913.806	1318.92
914.118	1318.02
914.43	1284.57
914.742	1310.11
915.054	1320.28
915.366	1321.41
915.678	1321.18
915.99	1313.5
916.302	1293.84
916.613	1273.95
916.925	1282.54
917.236	1295.42
917.548	1291.58
917.859	1278.92
918.171	1272.14
918.482	1260.39
918.794	1248.64
919.105	1260.39
919.416	1234.63
919.727	1227.62
920.038	1244.8
920.349	1245.7
920.66	1225.14
920.971	1207.96
921.282	1224.01
921.593	1214.29
921.903	1203.22
922.214	1217
922.525	1196.66
922.835	1170.22
923.146	1189.66
923.456	1165.93
923.767	1202.54
924.077	1187.62
924.387	1167.51
924.697	1181.07
925.008	1180.39
925.318	1190.56
925.628	1192.82
925.938	1153.95
926.248	1143.56
926.558	1133.84
926.867	1153.27
927.177	1131.58
927.487	1105.82
927.796	1116.67
928.106	1115.99
928.416	1108.76
928.725	1087.29
929.034	1098.13
929.344	1124.12
929.653	1107.4
929.962	1093.62
930.271	1090.23
930.581	1103.11
930.89	1074.18
931.199	1092.26
931.508	1093.16
931.817	1073.5
932.125	1082.09
932.434	1065.82
932.743	1083.67
933.051	1076.21
933.36	1052.03
933.669	1041.64
933.977	1054.29
934.286	1067.63
934.594	1079.83
934.902	1034.86
935.21	1048.87
935.519	1030.11
935.827	1043.45
936.135	1049.55
936.443	1044.8
936.751	1049.1
937.059	1015.2
937.367	1020.4
937.674	1012.49
937.982	1028.08
938.29	1010.68
938.597	1019.49
938.905	1006.84
939.213	989.66
939.52	1009.55
939.827	984.01
940.135	983.34
940.442	1003
940.749	986.5
941.056	1003.67
941.363	972.04
941.67	982.21
941.977	986.5
942.284	999.38
942.591	958.7
942.898	975.2
943.205	950.34
943.511	986.95
943.818	954.64
944.125	948.76
944.431	946.95
944.738	938.59
945.044	958.48
945.35	926.84
945.657	929.33
945.963	965.26
946.269	933.39
946.575	955.77
946.881	943.79
947.187	933.62
947.493	921.87
947.799	907.63
948.105	907.86
948.41	920.51
948.716	903.11
949.022	934.98
949.327	951.02
949.633	903.56
949.938	906.95
950.244	901.08
950.549	892.49
950.854	878.48
951.16	885.71
951.465	875.77
951.77	883.9
952.075	888.87
952.38	908.31
952.685	889.55
952.99	883
953.294	882.55
953.599	867.18
953.904	876.22
954.209	865.15
954.513	859.72
954.818	849.78
955.122	858.82
955.426	850.68
955.731	848.42
956.035	844.58
956.339	836.22
956.643	838.03
956.948	831.02
957.252	826.05
957.556	836.22
957.86	828.99
958.163	852.04
958.467	837.12
958.771	840.29
959.075	829.89
959.378	811.59
959.682	827.18
959.985	824.92
960.289	813.85
960.592	819.5
960.896	835.54
961.199	813.85
961.502	824.24
961.805	783.34
962.108	786.96
962.411	792.38
962.714	808.88
963.017	811.81
963.32	798.26
963.623	802.78
963.926	787.63
964.228	789.22
964.531	797.58
964.833	770.91
965.136	798.71
965.438	789.67
965.741	772.95
966.043	765.04
966.345	771.14
966.648	763.91
966.95	731.82
967.252	764.81
967.554	763.23
967.856	771.59
968.158	746.51
968.46	746.51
968.761	754.64
969.063	765.49
969.365	756
969.666	734.08
969.968	725.04
970.269	754.64
970.571	753.74
970.872	757.58
971.174	772.27
971.475	729.11
971.776	725.04
972.077	737.47
972.378	723.91
972.679	729.33
972.98	718.26
973.281	705.15
973.582	721.2
973.883	729.56
974.183	723.46
974.484	705.15
974.785	717.58
975.085	704.7
975.386	714.42
975.686	704.25
975.986	699.28
976.287	711.25
976.587	703.12
976.887	687.98
977.187	701.31
977.487	690.69
977.787	692.04
978.087	683.68
978.387	679.39
978.687	674.87
978.987	699.95
979.286	683.68
979.586	675.1
979.885	667.41
980.185	683.46
980.484	675.77
980.784	674.64
981.083	669.67
981.382	677.36
981.682	665.6
981.981	661.54
982.28	655.21
982.579	657.69
982.878	662.21
983.177	661.08
983.475	657.24
983.774	652.72
984.073	652.5
984.372	650.01
984.67	637.81
984.969	649.56
985.267	649.11
985.566	632.38
985.864	634.87
986.162	624.48
986.461	629.22
986.759	638.49
987.057	639.39
987.355	616.57
987.653	618.15
987.951	650.24
988.249	631.48
988.547	621.54
988.844	612.95
989.142	616.34
989.44	609.11
989.737	591.26
990.035	621.54
990.332	597.58
990.63	602.55
990.927	617.47
991.224	584.93
991.521	639.39
991.819	595.78
992.116	609.79
992.413	621.31
992.71	599.17
993.006	589
993.303	617.02
993.6	589
993.897	619.73
994.193	585.83
994.49	600.29
994.787	589.9
995.083	596
995.379	593.29
995.676	575.21
995.972	591.48
996.268	600.29
996.565	601.42
996.861	562.56
997.157	588.09
997.453	559.17
997.749	570.47
998.044	567.08
998.34	568.66
998.636	585.83
998.932	579.5
999.227	593.29
999.523	574.53
999.818	574.76
1000.114	566.17
1000.409	556.45
1000.704	556.91
1001	572.73
1001.295	545.16
1001.59	576.11
1001.885	547.64
1002.18	558.04
1002.475	578.6
1002.77	542.67
1003.065	545.61
1003.359	536.57
1003.654	537.92
1003.949	534.99
1004.243	549.9
1004.538	525.49
1004.832	540.18
1005.127	565.04
1005.421	570.24
1005.715	534.99
1006.009	542.9
1006.304	541.77
1006.598	520.3
1006.892	532.95
1007.186	556.23
1007.48	517.36
1007.773	534.76
1008.067	538.15
1008.361	524.59
1008.655	527.75
1008.948	523.69
1009.242	522.56
1009.535	511.94
1009.829	491.37
1010.122	515.1
1010.415	510.58
1010.708	498.83
1011.001	519.17
1011.295	512.39
1011.588	512.39
1011.881	515.33
1012.173	503.35
1012.466	489.11
1012.759	506.29
1013.052	486.63
1013.344	509
1013.637	514.87
1013.93	509.22
1014.222	514.87
1014.514	491.82
1014.807	512.16
1015.099	506.06
1015.391	509
1015.683	507.87
1015.976	479.62
1016.268	459.96
1016.56	473.52
1016.851	466.51
1017.143	487.08
1017.435	487.76
1017.727	470.58
1018.018	487.76
1018.31	499.28
1018.602	484.14
1018.893	464.03
1019.185	493.18
1019.476	478.72
1019.767	456.12
1020.058	476.46
1020.35	453.86
1020.641	479.17
1020.932	469.68
1021.223	466.74
1021.514	450.47
1021.804	475.1
1022.095	454.08
1022.386	458.6
1022.677	465.84
1022.967	449.34
1023.258	479.62
1023.548	463.35
1023.839	432.84
1024.129	469.68
1024.419	468.1
1024.709	453.18
1025	443.91
1025.29	442.33
1025.58	451.82
1025.87	467.87
1026.16	456.34
1026.449	457.93
1026.739	427.19
1027.029	430.36
1027.319	447.08
1027.608	450.92
1027.898	458.6
1028.187	443.01
1028.477	442.11
1028.766	445.72
1029.055	426.06
1029.344	426.06
1029.634	442.33
1029.923	429.68
1030.212	431.94
1030.501	411.37
1030.79	427.87
1031.078	420.86
1031.367	418.6
1031.656	397.81
1031.945	419.96
1032.233	413.18
1032.522	428.1
1032.81	432.84
1033.099	439.4
1033.387	424.25
1033.675	409.11
1033.963	389
1034.251	423.35
1034.54	423.12
1034.828	399.85
1035.116	399.4
1035.403	432.39
1035.691	415.22
1035.979	405.72
1036.267	412.73
1036.554	400.98
1036.842	424.71
1037.129	398.27
1037.417	416.12
1037.704	410.02
1037.992	421.99
1038.279	396.91
1038.566	419.51
1038.853	419.51
1039.14	419.51
