Data from foam_black_FLMS001491_00070.txt Node
Date: Wed Feb 08 10:44:25 GMT 2017
User: dcchb
Spectrometer: FLMS00149
Trigger mode: 0
Integration Time (sec): 2.000000E-2
Scans to average: 10
Electric dark correction enabled: true
Nonlinearity correction enabled: false
Boxcar width: 0
XAxis mode: Wavelengths
Number of Pixels in Spectrum: 2048
>>>>>Begin Spectral Data<<<<<
341.393	-33.19
341.776	-33.19
342.16	-33.19
342.543	-51.04
342.927	-59.63
343.31	-60.76
343.693	-70.7
344.077	-51.72
344.46	-63.02
344.843	-37.48
345.226	-54.89
345.61	-24.83
345.993	-19.41
346.376	-24.6
346.759	21.27
347.142	21.27
347.525	44.09
347.908	53.36
348.291	73.7
348.674	90.87
349.057	102.85
349.44	103.3
349.823	146.69
350.206	160.25
350.588	194.37
350.971	199.35
351.354	202.06
351.737	232.34
352.119	226.01
352.502	272.56
352.884	248.38
353.267	273.47
353.65	266.01
354.032	283.86
354.414	308.95
354.797	287.7
355.179	294.48
355.562	293.13
355.944	316.18
356.326	331.54
356.709	317.08
357.091	311.88
357.473	310.53
357.855	302.85
358.238	306.91
358.62	315.73
359.002	329.96
359.384	332.67
359.766	329.51
360.148	326.57
360.53	312.11
360.912	326.12
361.294	304.2
361.676	306.69
362.057	300.59
362.439	305.56
362.821	325.44
363.203	306.69
363.584	317.76
363.966	294.48
364.348	287.7
364.729	307.14
365.111	308.95
365.493	302.85
365.874	303.75
366.256	301.49
366.637	294.94
367.019	298.33
367.4	305.33
367.781	289.96
368.163	284.31
368.544	298.78
368.925	266.24
369.306	306.01
369.688	303.75
370.069	301.26
370.45	293.81
370.831	318.89
371.212	309.62
371.593	298.33
371.974	280.02
372.355	275.73
372.736	302.17
373.117	279.34
373.498	290.42
373.879	312.79
374.26	287.48
374.641	308.72
375.021	297.42
375.402	297.2
375.783	324.09
376.163	303.52
376.544	293.58
376.925	294.71
377.305	320.02
377.686	319.79
378.066	317.53
378.447	311.43
378.827	306.23
379.208	319.12
379.588	318.21
379.968	317.08
380.349	311.66
380.729	328.83
381.109	305.56
381.489	318.66
381.87	321.83
382.25	309.62
382.63	304.43
383.01	336.29
383.39	322.51
383.77	317.76
384.15	321.15
384.53	317.31
384.91	324.31
385.29	325.67
385.67	331.77
386.049	326.57
386.429	315.5
386.809	315.73
387.189	321.15
387.568	329.06
387.948	318.89
388.328	324.77
388.707	327.7
389.087	349.4
389.466	337.65
389.846	340.81
390.225	361.15
390.605	346.46
390.984	342.62
391.363	344.65
391.743	349.4
392.122	338.1
392.501	343.52
392.881	343.52
393.26	354.82
393.639	352.79
394.018	352.79
394.397	358.21
394.776	348.95
395.155	347.14
395.534	353.24
395.913	354.6
396.292	367.25
396.671	332.9
397.05	365.44
397.429	358.89
397.808	356.63
398.186	356.86
398.565	350.08
398.944	362.05
399.323	365.89
399.701	368.38
400.08	369.28
400.458	381.71
400.837	375.61
401.215	377.65
401.594	371.77
401.972	374.26
402.351	378.78
402.729	376.97
403.107	381.49
403.486	378.78
403.864	383.52
404.242	390.98
404.62	362.05
404.999	407.48
405.377	390.3
405.755	391.88
406.133	376.97
406.511	385.33
406.889	414.93
407.267	409.28
407.645	393.01
408.023	402.73
408.401	430.07
408.779	397.98
409.156	418.77
409.534	405.89
409.912	419.23
410.29	431.43
410.667	412.22
411.045	419.9
411.422	434.59
411.8	418.32
412.178	406.8
412.555	437.3
412.933	422.84
413.31	411.54
413.687	433.01
414.065	445.89
414.442	413.12
414.819	437.76
415.197	445.89
415.574	469.62
415.951	444.08
416.328	451.77
416.705	454.48
417.082	460.36
417.46	468.72
417.837	481.37
418.214	462.61
418.591	481.15
418.967	448.15
419.344	483.18
419.721	475.27
420.098	475.5
420.475	467.59
420.852	488.38
421.228	487.93
421.605	469.17
421.982	456.51
422.358	479.34
422.735	494.48
423.111	486.34
423.488	498.32
423.864	511.43
424.241	491.99
424.617	501.94
424.994	513.01
425.37	498.77
425.746	513.46
426.123	502.16
426.499	510.07
426.875	511.2
427.251	500.35
427.627	519.79
428.003	512.33
428.379	530.18
428.756	518.88
429.132	542.16
429.507	517.53
429.883	510.75
430.259	566.34
430.635	544.87
431.011	567.47
431.387	560.24
431.763	549.39
432.138	577.64
432.514	578.54
432.89	563.4
433.265	572.22
433.641	578.77
434.016	577.64
434.392	589.62
434.767	594.14
435.143	590.07
435.518	595.49
435.894	596.17
436.269	593.01
436.644	622.16
437.02	611.76
437.395	609.96
437.77	601.37
438.145	608.15
438.52	615.15
438.895	638.2
439.271	643.18
439.646	622.38
440.021	619
440.395	649.05
440.77	616.96
441.145	645.66
441.52	634.36
441.895	643.63
442.27	654.02
442.645	639.56
443.019	660.58
443.394	660.8
443.769	675.49
444.143	645.44
444.518	665.32
444.892	673.68
445.267	683.85
445.641	671.65
446.016	668.71
446.39	684.98
446.764	687.02
447.139	678.43
447.513	694.25
447.887	694.02
448.262	678.43
448.636	686.34
449.01	702.61
449.384	709.39
449.758	693.8
450.132	706.68
450.506	715.04
450.88	728.6
451.254	714.13
451.628	722.04
452.002	731.31
452.376	748.48
452.75	737.86
453.123	760.91
453.497	766.79
453.871	761.82
454.244	736.96
454.618	741.7
454.992	763.17
455.365	792.32
455.739	787.8
456.112	767.92
456.486	793
456.859	813.57
457.232	800.23
457.606	812.66
457.979	820.8
458.352	812.44
458.725	825.77
459.099	866.67
459.472	856.05
459.845	851.53
460.218	887.91
460.591	866.22
460.964	852.21
461.337	892.66
461.71	883.17
462.083	892.89
462.456	885.65
462.829	912.09
463.201	930.85
463.574	898.99
463.947	922.72
464.32	910.74
464.692	936.95
465.065	957.52
465.438	958.65
465.81	948.7
466.183	962.94
466.555	992.32
466.928	965.65
467.3	984.86
467.672	1006.56
468.045	1017.63
468.417	1024.86
468.789	1017.4
469.161	1033.22
469.534	1059.89
469.906	1071.64
470.278	1074.12
470.65	1079.32
471.022	1104.86
471.394	1090.4
471.766	1094.24
472.138	1148.02
472.51	1137.17
472.882	1153.67
473.253	1183.95
473.625	1200.67
473.997	1217.85
474.369	1201.58
474.74	1204.97
475.112	1232.99
475.484	1233.44
475.855	1248.81
476.227	1271.18
476.598	1321.12
476.97	1274.8
477.341	1306.21
477.713	1329.71
478.084	1342.59
478.455	1371.29
478.827	1404.06
479.198	1391.18
479.569	1404.51
479.94	1447.45
480.311	1414.68
480.682	1444.51
481.053	1469.82
481.424	1537.16
481.795	1524.51
482.166	1556.82
482.537	1582.59
482.908	1599.08
483.279	1630.72
483.65	1609.93
484.021	1642.7
484.391	1661.45
484.762	1691.06
485.133	1695.35
485.503	1720.66
485.874	1729.93
486.244	1736.71
486.615	1735.35
486.985	1812.41
487.356	1805.18
487.726	1825.07
488.097	1858.28
488.467	1851.05
488.837	1929.47
489.207	1894.22
489.578	1914.33
489.948	1931.5
490.318	1957.49
490.688	1991.39
491.058	2000.2
491.428	2021.67
491.798	2047.88
492.168	2073.19
492.538	2078.39
492.908	2108.9
493.278	2124.27
493.648	2136.7
494.017	2166.07
494.387	2178.05
494.757	2166.75
495.126	2188.9
495.496	2209.69
495.866	2251.72
496.235	2263.02
496.605	2260.76
496.974	2290.36
497.344	2251.27
497.713	2265.05
498.082	2287.88
498.452	2307.99
498.821	2341.21
499.19	2351.83
499.559	2358.61
499.928	2384.82
500.298	2360.64
500.667	2399.51
501.036	2436.8
501.405	2461.66
501.774	2451.72
502.143	2453.75
502.512	2463.47
502.88	2467.31
503.249	2486.74
503.618	2522.22
503.987	2539.4
504.356	2524.03
504.724	2567.87
505.093	2551.83
505.462	2590.92
505.83	2564.48
506.199	2591.6
506.567	2615.1
506.936	2611.03
507.304	2648.09
507.672	2679.96
508.041	2705.04
508.409	2692.39
508.777	2704.14
509.145	2735.1
509.514	2722.22
509.882	2747.98
510.25	2775.55
510.618	2812.38
510.986	2803.12
511.354	2838.6
511.722	2866.62
512.09	2878.14
512.458	2843.8
512.826	2897.81
513.193	2912.49
513.561	2922.66
513.929	2947.75
514.297	2997.69
514.664	2996.56
515.032	2997.24
515.4	3008.99
515.767	3021.42
516.135	3049.21
516.502	3032.04
516.869	3095.54
517.237	3100.06
517.604	3062.77
517.972	3116.56
518.339	3143.45
518.706	3172.83
519.073	3165.37
519.44	3204.46
519.808	3253.05
520.175	3229.1
520.542	3291.69
520.909	3270.68
521.276	3229.55
521.643	3325.14
522.009	3383.44
522.376	3367.17
522.743	3382.09
523.11	3439.03
523.477	3437.9
523.843	3461.41
524.21	3518.35
524.577	3572.59
524.943	3570.33
525.31	3551.57
525.676	3592.48
526.043	3601.29
526.409	3622.76
526.776	3719.7
527.142	3705.92
527.508	3699.59
527.874	3691.23
528.241	3725.35
528.607	3742.53
528.973	3793.6
529.339	3767.84
529.705	3799.02
530.071	3849.42
530.437	3865.69
530.803	3876.31
531.169	3885.35
531.535	3862.98
531.901	3919.93
532.267	3964.22
532.632	3945.91
532.998	3987.49
533.364	3989.98
533.73	4048.96
534.095	4022.52
534.461	4005.35
534.826	4042.86
535.192	4101.62
535.557	4123.99
535.923	4088.73
536.288	4114.95
536.653	4198.56
537.019	4193.36
537.384	4180.03
537.749	4214.83
538.114	4202.86
538.479	4220.03
538.845	4258.22
539.21	4243.53
539.575	4233.36
539.94	4258.45
540.305	4316.75
540.67	4298.22
541.034	4353.36
541.399	4369.4
541.764	4325.56
542.129	4392.23
542.494	4410.99
542.858	4375.05
543.223	4405.56
543.587	4370.99
543.952	4420.25
544.316	4393.13
544.681	4381.61
545.045	4463.19
545.41	4492.79
545.774	4502.73
546.138	4505.9
546.503	4539.57
546.867	4530.76
547.231	4530.76
547.595	4587.03
547.959	4582.05
548.324	4540.25
548.688	4593.35
549.052	4641.94
549.416	4645.78
549.779	4661.15
550.143	4716.51
550.507	4741.37
550.871	4712.67
551.235	4765.1
551.599	4752.9
551.962	4770.75
552.326	4783.63
552.689	4820.24
553.053	4838.09
553.417	4813.46
553.78	4869.73
554.143	4910.18
554.507	4935.94
554.87	4937.98
555.234	4981.37
555.597	4899.56
555.96	4965.32
556.323	5028.82
556.686	5015.72
557.05	5007.81
557.413	5095.04
557.776	5024.75
558.139	5088.93
558.502	5093.23
558.865	5110.63
559.228	5132.55
559.59	5168.25
559.953	5137.07
560.316	5202.83
560.679	5218.2
561.041	5234.92
561.404	5247.57
561.767	5293.9
562.129	5284.86
562.492	5355.14
562.854	5368.7
563.217	5395.14
563.579	5380.23
563.941	5434.46
564.304	5452.31
564.666	5460
565.028	5486.21
565.39	5534.8
565.753	5583.38
566.115	5584.51
566.477	5619.99
566.839	5649.82
567.201	5660.9
567.563	5691.86
567.925	5665.87
568.287	5685.3
568.648	5757.62
569.01	5724.17
569.372	5770.05
569.734	5802.81
570.095	5873.32
570.457	5855.47
570.819	5871.06
571.18	5838.29
571.542	5866.99
571.903	5903.6
572.265	5893.66
572.626	5956.48
572.987	5923.49
573.349	5983.15
573.71	6020.43
574.071	6002.58
574.432	6033.32
574.794	6037.61
575.155	6056.59
575.516	6066.99
575.877	6030.15
576.238	6049.36
576.599	6067.67
576.96	6103.6
577.32	6080.77
577.681	6110.38
578.042	6103.6
578.403	6142.92
578.763	6139.3
579.124	6186.53
579.485	6208.68
579.845	6205.74
580.206	6238.96
580.566	6226.53
580.927	6273.08
581.287	6272.63
581.648	6251.62
582.008	6302.91
582.368	6274.44
582.728	6298.85
583.089	6296.81
583.449	6279.19
583.809	6294.1
584.169	6289.81
584.529	6292.29
584.889	6347.88
585.249	6327.55
585.609	6261.11
585.969	6330.03
586.329	6304.5
586.688	6306.08
587.048	6295
587.408	6264.27
587.768	6273.54
588.127	6259.07
588.487	6323.48
588.846	6300.65
589.206	6302.24
589.565	6296.36
589.925	6298.85
590.284	6335
590.643	6283.7
591.003	6266.98
591.362	6276.02
591.721	6315.79
592.08	6313.99
592.44	6340.88
592.799	6303.37
593.158	6287.32
593.517	6280.32
593.876	6314.89
594.235	6305.63
594.593	6304.04
594.952	6324.83
595.311	6288.45
595.67	6307.43
596.029	6324.83
596.387	6372.97
596.746	6314.21
597.104	6342.46
597.463	6362.12
597.822	6369.8
598.18	6340.65
598.538	6344.95
598.897	6437.37
599.255	6338.84
599.613	6431.27
599.972	6359.41
600.33	6388.56
600.688	6360.99
601.046	6367.54
601.404	6433.98
601.762	6327.09
602.12	6430.14
602.478	6417.49
602.836	6404.15
603.194	6411.84
603.552	6366.87
603.91	6347.21
604.268	6441.67
604.625	6439.41
604.983	6353.08
605.341	6360.31
605.698	6435.34
606.056	6379.3
606.413	6415.45
606.771	6439.63
607.128	6459.29
607.485	6435.79
607.843	6448.22
608.2	6444.38
608.557	6477.6
608.914	6433.08
609.272	6536.81
609.629	6512.63
609.986	6473.53
610.343	6544.94
610.7	6566.18
611.057	6550.36
611.414	6558.73
611.771	6543.36
612.127	6565.96
612.484	6566.18
612.841	6593.53
613.198	6569.12
613.554	6516.69
613.911	6636.46
614.267	6617.48
614.624	6564.83
614.98	6603.47
615.337	6602.11
615.693	6565.96
616.05	6574.09
616.406	6680.98
616.762	6616.8
617.118	6642.11
617.475	6636.69
617.831	6627.2
618.187	6679.85
618.543	6668.78
618.899	6664.49
619.255	6697.25
619.611	6703.13
619.967	6663.36
620.323	6707.2
620.678	6727.76
621.034	6671.72
621.39	6632.17
621.746	6656.35
622.101	6739.51
622.457	6638.05
622.812	6692.06
623.168	6643.7
623.523	6633.98
623.879	6681.21
624.234	6691.83
624.589	6701.77
624.945	6698.61
625.3	6691.6
625.655	6681.66
626.01	6685.05
626.365	6728.21
626.72	6698.61
627.075	6722.11
627.43	6715.56
627.785	6648.44
628.14	6690.25
628.495	6685.5
628.85	6727.99
629.205	6678.04
629.559	6702.45
629.914	6749.46
630.269	6692.51
630.623	6673.98
630.978	6727.31
631.332	6682.56
631.687	6730.92
632.041	6692.73
632.396	6658.16
632.75	6658.84
633.104	6661.1
633.459	6584.26
633.813	6596.69
634.167	6592.17
634.521	6602.79
634.875	6607.09
635.229	6598.95
635.583	6566.86
635.937	6552.17
636.291	6545.84
636.645	6554.21
636.999	6548.33
637.352	6563.92
637.706	6467.2
638.06	6548.33
638.413	6487.32
638.767	6539.74
639.121	6511.72
639.474	6447.09
639.828	6477.15
640.181	6497.26
640.534	6483.47
640.888	6379.75
641.241	6361.44
641.594	6398.5
641.947	6443.25
642.301	6408.22
642.654	6335.45
643.007	6405.96
643.36	6428.33
643.713	6401.67
644.066	6386.3
644.419	6316.47
644.771	6316.25
645.124	6220.2
645.477	6175.23
645.83	6164.61
646.182	6207.32
646.535	6173.88
646.888	6193.54
647.24	6173.65
647.593	6204.16
647.945	6134.78
648.298	6199.64
648.65	6123.26
649.002	6146.31
649.355	6149.25
649.707	6082.58
650.059	6129.58
650.411	6179.3
650.763	6201.45
651.115	6282.8
651.467	6230.82
651.819	6277.83
652.171	6234.44
652.523	6262.24
652.875	6186.53
653.227	6189.7
653.578	6243.48
653.93	6196.48
654.282	6258.62
654.633	6185.4
654.985	6219.98
655.337	6202.13
655.688	6213.88
656.039	6182.46
656.391	6189.92
656.742	6171.17
657.094	6137.27
657.445	6151.05
657.796	6178.62
658.147	6135.46
658.498	6114.9
658.849	6129.36
659.2	6119.42
659.551	6134.33
659.902	6142.01
660.253	6091.17
660.604	6128
660.955	6040.32
661.306	6108.79
661.656	6048.91
662.007	6059.08
662.358	6038.74
662.708	6062.47
663.059	6124.84
663.409	6036.25
663.76	6124.84
664.11	6083.71
664.461	6121
664.811	6100.43
665.161	6096.37
665.511	6067.67
665.862	6087.78
666.212	6128
666.562	6130.71
666.912	6038.29
667.262	6069.25
667.612	6057.5
667.962	6032.86
668.312	6050.26
668.662	6070.6
669.011	6098.17
669.361	6050.72
669.711	6064.05
670.06	6017.27
670.41	6041.23
670.76	5996.71
671.109	6045.97
671.459	6056.14
671.808	6004.16
672.157	6047.78
672.507	6008.23
672.856	6006.88
673.205	5955.35
673.554	5953.54
673.904	5964.84
674.253	5977.72
674.602	5967.33
674.951	5924.62
675.3	5877.61
675.649	5974.79
675.998	5935.01
676.346	5869.93
676.695	5939.76
677.044	5933.21
677.393	5904.96
677.741	5926.88
678.09	5877.61
678.438	5863.15
678.787	5843.94
679.135	5900.21
679.484	5868.8
679.832	5836.03
680.181	5876.26
680.529	5851.4
680.877	5828.12
681.225	5826.09
681.573	5846.88
681.922	5865.64
682.27	5819.54
682.618	5825.19
682.966	5779.76
683.314	5807.79
683.661	5804.4
684.009	5726.21
684.357	5738.63
684.705	5771.4
685.053	5791.97
685.4	5775.24
685.748	5776.37
686.095	5761.68
686.443	5742.25
686.79	5708.58
687.138	5770.72
687.485	5766.2
687.832	5713.1
688.18	5722.36
688.527	5691.63
688.874	5678.3
689.221	5699.54
689.568	5672.42
689.915	5628.35
690.262	5643.04
690.609	5609.6
690.956	5597.85
691.303	5653.44
691.65	5609.37
691.997	5595.14
692.344	5601.01
692.69	5514.91
693.037	5573.44
693.383	5498.87
693.73	5511.97
694.077	5457.29
694.423	5450.96
694.769	5448.7
695.116	5451.41
695.462	5412.54
695.808	5354.24
696.155	5389.94
696.501	5426.1
696.847	5319.21
697.193	5288.02
697.539	5287.12
697.885	5247.57
698.231	5233.11
698.577	5245.54
698.923	5234.47
699.269	5198.99
699.614	5215.03
699.96	5193.79
700.306	5203.73
700.651	5126.9
700.997	5137.29
701.342	5086.45
701.688	5137.29
702.033	5091.65
702.379	5077.63
702.724	5112.89
703.069	5100.69
703.415	4980.91
703.76	5021.59
704.105	5072.66
704.45	5033.57
704.795	4991.08
705.14	5032.66
705.485	5043.06
705.83	4998.77
706.175	4983.17
706.52	4971.87
706.865	5000.12
707.209	4993.34
707.554	4882.39
707.899	4964.42
708.243	4960.12
708.588	4906.34
708.932	4905.66
709.277	4904.98
709.621	4930.75
709.966	4913.8
710.31	4934.81
710.654	4893.68
710.998	4882.39
711.342	4884.65
711.687	4888.26
712.031	4852.78
712.375	4855.95
712.719	4857.3
713.063	4848.04
713.407	4817.75
713.75	4777.3
714.094	4758.77
714.438	4730.98
714.782	4753.8
715.125	4710.64
715.469	4770.75
715.812	4709.51
716.156	4679
716.499	4669.96
716.843	4681.26
717.186	4624.31
717.53	4639.23
717.873	4617.99
718.216	4616.18
718.559	4617.76
718.902	4594.03
719.246	4590.87
719.589	4540.93
719.932	4505.22
720.275	4562.62
720.617	4542.28
720.96	4501.6
721.303	4501.38
721.646	4507.03
721.989	4472.9
722.331	4481.94
722.674	4522.4
723.016	4489.63
723.359	4463.87
723.701	4457.54
724.044	4407.37
724.386	4436.97
724.729	4464.77
725.071	4456.63
725.413	4452.11
725.755	4410.53
726.097	4415.28
726.439	4419.57
726.782	4415.96
727.124	4472.45
727.465	4436.07
727.807	4409.86
728.149	4415.96
728.491	4370.31
728.833	4415.28
729.175	4395.62
729.516	4399.01
729.858	4390.65
730.199	4389.29
730.541	4384.32
730.882	4366.24
731.224	4418.44
731.565	4373.47
731.906	4337.54
732.248	4354.49
732.589	4387.48
732.93	4338.45
733.271	4345.45
733.612	4346.13
733.953	4342.29
734.294	4335.51
734.635	4332.12
734.976	4331.21
735.317	4312.68
735.658	4326.47
735.999	4280.59
736.339	4279.01
736.68	4284.89
737.021	4270.2
737.361	4272.01
737.702	4252.35
738.042	4263.87
738.383	4222.97
738.723	4221.39
739.063	4234.72
739.404	4223.19
739.744	4221.84
740.084	4157.89
740.424	4218
740.764	4162.86
741.104	4214.15
741.444	4135.96
741.784	4121.28
742.124	4199.01
742.464	4121.5
742.804	4134.16
743.143	4111.56
743.483	4108.62
743.823	4103.88
744.162	4073.82
744.502	4058.45
744.841	4052.8
745.181	4099.13
745.52	4083.76
745.86	4101.16
746.199	4054.61
746.538	4057.32
746.877	4085.8
747.216	4011.9
747.556	4017.78
747.895	4043.31
748.234	4026.14
748.573	4030.2
748.911	3983.65
749.25	4015.52
749.589	3976.87
749.928	3988.4
750.267	4018
750.605	3961.05
750.944	3956.08
751.283	3914.28
751.621	3960.15
751.96	3942.75
752.298	3920.6
752.636	3929.64
752.975	3949.08
753.313	3915.63
753.651	3847.61
753.989	3905.46
754.327	3907.5
754.666	3846.25
755.004	3910.43
755.342	3907.95
755.679	3874.73
756.017	3909.98
756.355	3889.87
756.693	3848.06
757.031	3863.66
757.368	3875.18
757.706	3869.31
758.044	3844.22
758.381	3882.86
758.719	3832.7
759.056	3820.27
759.394	3847.16
759.731	3794.96
760.068	3777.1
760.405	3789.53
760.743	3805.8
761.08	3750.89
761.417	3734.62
761.754	3770.55
762.091	3723.55
762.428	3756.09
762.765	3725.81
763.102	3721.29
763.438	3726.26
763.775	3672.02
764.112	3720.38
764.449	3681.74
764.785	3670.44
765.122	3633.15
765.458	3611.01
765.795	3627.28
766.131	3617.33
766.467	3576.21
766.804	3576.66
767.14	3566.04
767.476	3530.33
767.812	3572.36
768.148	3559.03
768.485	3503.89
768.821	3490.56
769.157	3507.05
769.492	3488.75
769.828	3481.52
770.164	3441.52
770.5	3449.2
770.836	3379.15
771.171	3423.44
771.507	3394.06
771.842	3343.22
772.178	3359.49
772.513	3422.54
772.849	3350.45
773.184	3363.56
773.519	3353.39
773.855	3306.83
774.19	3320.39
774.525	3317
774.86	3271.35
775.195	3292.15
775.53	3254.63
775.865	3201.3
776.2	3257.57
776.535	3252.6
776.87	3234.29
777.205	3225.03
777.539	3156.78
777.874	3163.33
778.209	3152.04
778.543	3217.34
778.878	3123.79
779.212	3162.88
779.547	3135.31
779.881	3154.97
780.215	3152.26
780.55	3164.46
780.884	3120.62
781.218	3158.36
781.552	3143.45
781.886	3115.88
782.22	3131.7
782.554	3110
782.888	3038.82
783.222	3067.74
783.556	3058.48
783.889	3066.16
784.223	3058.25
784.557	3068.2
784.89	3000.85
785.224	3036.56
785.557	3054.41
785.891	3078.59
786.224	2989.78
786.558	3003.11
786.891	2969.89
787.224	2989.55
787.557	2945.04
787.891	2958.59
788.224	2991.36
788.557	2964.47
788.89	2967.18
789.223	2965.83
789.556	2933.51
789.888	2905.04
790.221	2903.91
790.554	2893.06
790.887	2892.38
791.219	2869.11
791.552	2861.2
791.884	2837.92
792.217	2870.46
792.549	2841.76
792.882	2813.06
793.214	2801.08
793.546	2832.04
793.879	2787.3
794.211	2761.09
794.543	2759.28
794.875	2800.86
795.207	2768.54
795.539	2730.13
795.871	2738.71
796.203	2739.62
796.535	2720.86
796.867	2683.35
797.198	2696.91
797.53	2665.95
797.862	2672.5
798.193	2670.92
798.525	2646.51
798.856	2646.29
799.188	2618.72
799.519	2627.08
799.85	2607.19
800.182	2580.53
800.513	2603.35
800.844	2554.54
801.175	2617.13
801.506	2552.73
801.837	2553.86
802.168	2570.58
802.499	2579.4
802.83	2546.85
803.161	2518.83
803.491	2527.19
803.822	2506.18
804.153	2514.31
804.483	2527.87
804.814	2498.49
805.145	2497.36
805.475	2512.96
805.805	2474.31
806.136	2489.23
806.466	2477.7
806.796	2504.6
807.126	2495.33
807.457	2478.61
807.787	2498.95
808.117	2456.91
808.447	2449
808.777	2462.11
809.107	2449.68
809.436	2434.54
809.766	2447.2
810.096	2407.2
810.426	2431.15
810.755	2423.92
811.085	2397.93
811.414	2446.29
811.744	2397.71
812.073	2428.66
812.403	2399.51
812.732	2385.73
813.061	2392.73
813.39	2389.34
813.719	2393.41
814.049	2400.64
814.378	2376.91
814.707	2369.46
815.036	2391.83
815.365	2369.01
815.693	2357.93
816.022	2376.91
816.351	2356.35
816.68	2360.42
817.008	2372.62
817.337	2341.89
817.665	2349.35
817.994	2336.69
818.322	2341.66
818.651	2297.37
818.979	2306.18
819.307	2311.15
819.636	2324.49
819.964	2290.59
820.292	2316.8
820.62	2306.41
820.948	2270.03
821.276	2287.88
821.604	2311.38
821.932	2282.23
822.259	2272.96
822.587	2292.4
822.915	2277.03
823.243	2300.76
823.57	2292.62
823.898	2278.39
824.225	2265.28
824.553	2258.27
824.88	2290.59
825.207	2267.99
825.535	2280.19
825.862	2263.25
826.189	2213.3
826.516	2260.76
826.843	2278.16
827.17	2242.23
827.497	2258.05
827.824	2268.22
828.151	2234.55
828.478	2249.23
828.805	2287.65
829.131	2225.28
829.458	2242.46
829.785	2251.95
830.111	2234.55
830.438	2257.6
830.764	2249.01
831.09	2270.03
831.417	2220.53
831.743	2222.57
832.069	2228.44
832.395	2194.55
832.722	2234.55
833.048	2233.19
833.374	2226.64
833.7	2218.05
834.026	2232.96
834.351	2235.22
834.677	2248.33
835.003	2223.02
835.329	2227.54
835.654	2231.83
835.98	2209.46
836.306	2227.31
836.631	2198.61
836.956	2212.17
837.282	2225.96
837.607	2187.09
837.932	2213.76
838.258	2228.22
838.583	2204.49
838.908	2194.77
839.233	2236.58
839.558	2192.96
839.883	2185.73
840.208	2205.62
840.533	2193.64
840.858	2193.87
841.182	2202.46
841.507	2208.56
841.832	2165.62
842.156	2217.6
842.481	2186.41
842.805	2155.45
843.13	2194.09
843.454	2193.42
843.778	2191.16
844.103	2144.38
844.427	2143.02
844.751	2131.5
845.075	2149.12
845.399	2149.35
845.723	2148.67
846.047	2178.73
846.371	2137.37
846.695	2135.57
847.019	2107.77
847.343	2120.2
847.666	2086.3
847.99	2129.01
848.313	2116.81
848.637	2087.88
848.96	2075.91
849.284	2064.61
849.607	2080.2
849.931	2079.07
850.254	2056.25
850.577	2000.88
850.9	2021.9
851.223	2026.42
851.546	2019.86
851.869	2028.68
852.192	2042.91
852.515	1983.03
852.838	1986.64
853.161	2000.43
853.483	1985.51
853.806	1999.3
854.129	1992.07
854.451	1966.76
854.774	1929.7
855.096	1953.65
855.419	1955.68
855.741	1918.17
856.063	1898.74
856.385	1891.5
856.708	1925.63
857.03	1924.72
857.352	1906.87
857.674	1895.12
857.996	1912.75
858.318	1888.57
858.64	1900.77
858.961	1890.83
859.283	1894.22
859.605	1884.72
859.926	1849.7
860.248	1863.26
860.57	1874.33
860.891	1860.54
861.212	1829.13
861.534	1831.39
861.855	1825.74
862.176	1865.52
862.498	1829.58
862.819	1844.5
863.14	1826.87
863.461	1858.74
863.782	1802.92
864.103	1806.53
864.424	1837.95
864.745	1825.07
865.065	1811.96
865.386	1806.99
865.707	1799.3
866.027	1789.81
866.348	1778.51
866.668	1795.69
866.989	1766.99
867.309	1789.81
867.63	1772.41
867.95	1764.28
868.27	1770.38
868.59	1780.09
868.91	1782.81
869.23	1784.84
869.55	1742.58
869.87	1745.97
870.19	1762.24
870.51	1730.15
870.83	1765.63
871.15	1766.99
871.469	1744.39
871.789	1756.59
872.109	1768.34
872.428	1741
872.748	1764.28
873.067	1753.43
873.386	1742.13
873.706	1728.57
874.025	1746.87
874.344	1725.86
874.663	1729.25
874.982	1743.94
875.301	1743.94
875.62	1743.94
875.939	1743.94
876.258	1712.75
876.577	1730.83
876.896	1718.4
877.214	1694.22
877.533	1740.55
877.852	1713.88
878.17	1729.25
878.489	1758.17
878.807	1746.65
879.125	1747.55
879.444	1722.47
879.762	1698.29
880.08	1703.26
880.398	1703.49
880.716	1749.81
881.034	1725.18
881.352	1710.49
881.67	1710.27
881.988	1708.01
882.306	1705.52
882.624	1703.49
882.941	1722.69
883.259	1713.66
883.577	1698.74
883.894	1690.83
884.212	1710.04
884.529	1687.22
884.846	1717.72
885.164	1721.56
885.481	1694.22
885.798	1672.3
886.115	1668.23
886.432	1679.76
886.75	1658.52
887.067	1671.17
887.383	1680.66
887.7	1660.78
888.017	1655.13
888.334	1683.15
888.651	1649.7
888.967	1645.41
889.284	1639.53
889.6	1644.05
889.917	1608.12
890.233	1624.17
890.55	1598.18
890.866	1614
891.182	1621.91
891.498	1604.96
891.815	1594.11
892.131	1625.3
892.447	1590.95
892.763	1601.79
893.079	1598.4
893.395	1581.68
893.71	1567.9
894.026	1604.51
894.342	1579.42
894.657	1566.77
894.973	1554.34
895.289	1515.02
895.604	1549.37
895.92	1555.69
896.235	1505.07
896.55	1531.29
896.865	1522.25
897.181	1522.02
897.496	1487.45
897.811	1515.69
898.126	1519.31
898.441	1475.47
898.756	1464.62
899.071	1476.15
899.386	1481.8
899.7	1464.17
900.015	1449.93
900.33	1449.03
900.644	1471.4
900.959	1441.35
901.273	1450.61
901.588	1454.45
901.902	1439.31
902.216	1438.18
902.531	1413.78
902.845	1387.79
903.159	1423.04
903.473	1425.75
903.787	1428.47
904.101	1407
904.415	1429.82
904.729	1398.41
905.042	1394.12
905.356	1405.64
905.67	1394.12
905.984	1395.7
906.297	1360.67
906.611	1350.73
906.924	1361.12
907.237	1361.8
907.551	1382.36
907.864	1372.42
908.177	1338.75
908.491	1354.57
908.804	1324.29
909.117	1342.37
909.43	1353.89
909.743	1334.46
910.056	1321.12
910.368	1312.99
910.681	1343.95
910.994	1329.26
911.307	1287.9
911.619	1309.37
911.932	1312.08
912.244	1291.75
912.557	1297.62
912.869	1317.51
913.181	1306.21
913.494	1332.65
913.806	1308.02
914.118	1306.21
914.43	1257.17
914.742	1272.54
915.054	1270.28
915.366	1248.81
915.678	1287.68
915.99	1276.15
916.302	1240.67
916.613	1251.97
916.925	1240
917.236	1281.8
917.548	1249.49
917.859	1248.13
918.171	1249.26
918.482	1226.66
918.794	1228.24
919.105	1244.29
919.416	1230.96
919.727	1217.4
920.038	1236.38
920.349	1216.72
920.66	1217.4
920.971	1227.34
921.282	1204.74
921.593	1208.58
921.903	1229.83
922.214	1184.63
922.525	1171.52
922.835	1184.4
923.146	1181.69
923.456	1198.87
923.767	1176.27
924.077	1208.36
924.387	1162.94
924.697	1176.72
925.008	1216.49
925.318	1135.37
925.628	1148.7
925.938	1143.73
926.248	1179.66
926.558	1121.58
926.867	1126.78
927.177	1139.89
927.487	1142.37
927.796	1142.82
928.106	1126.78
928.416	1117.74
928.725	1132.2
929.034	1128.13
929.344	1111.19
929.653	1092.88
929.962	1090.17
930.271	1111.41
930.581	1095.82
930.89	1090.4
931.199	1074.8
931.508	1081.36
931.817	1079.55
932.125	1068.25
932.434	1067.34
932.743	1073.22
933.051	1065.99
933.36	1050.17
933.669	1032.77
933.977	1049.72
934.286	1041.13
934.594	1011.98
934.902	1046.55
935.21	1027.8
935.519	1005.65
935.827	1023.5
936.135	1003.84
936.443	1001.36
936.751	993.22
937.059	1000.68
937.367	1010.17
937.674	977.18
937.982	1002.26
938.29	984.18
938.597	975.14
938.905	957.29
939.213	980.12
939.52	1005.43
939.827	938.08
940.135	972.43
940.442	976.73
940.749	933.56
941.056	931.3
941.363	957.52
941.67	943.05
941.977	956.84
942.284	957.52
942.591	933.11
942.898	945.31
943.205	949.61
943.511	947.57
943.818	926.33
944.125	926.56
944.431	913.45
944.738	918.87
945.044	914.81
945.35	917.52
945.657	932.43
945.963	899.21
946.269	910.51
946.575	897.63
946.881	891.53
947.187	910.29
947.493	882.04
947.799	901.02
948.105	894.47
948.41	887.46
948.716	896.73
949.022	894.69
949.327	877.97
949.633	898.99
949.938	892.21
950.244	896.05
950.549	882.49
950.854	876.16
951.16	857.86
951.465	874.58
951.77	868.48
952.075	878.42
952.38	877.52
952.685	860.12
952.99	865.09
953.294	847.24
953.599	866.22
953.904	828.48
954.209	844.3
954.513	854.92
954.818	848.59
955.122	863.06
955.426	847.01
955.731	847.92
956.035	846.33
956.339	844.07
956.643	812.66
956.948	833.23
957.252	832.55
957.556	833
957.86	821.25
958.163	797.3
958.467	819.22
958.771	826.67
959.075	831.19
959.378	840.23
959.682	818.09
959.985	809.72
960.289	813.11
960.592	816.05
960.896	787.8
961.199	776.73
961.502	798.2
961.805	775.15
962.108	774.7
962.411	779.67
962.714	790.74
963.017	789.61
963.32	769.05
963.623	800.69
963.926	776.96
964.228	770.86
964.531	775.15
964.833	779.44
965.136	783.28
965.438	762.72
965.741	762.72
966.043	738.09
966.345	745.09
966.648	758.43
966.95	758.65
967.252	759.78
967.554	786.45
967.856	753.45
968.158	742.61
968.46	749.61
968.761	765.21
969.063	750.97
969.365	722.27
969.666	748.71
969.968	735.83
970.269	713.46
970.571	736.05
970.872	728.82
971.174	724.53
971.475	703.29
971.776	730.4
972.077	696.06
972.378	737.41
972.679	721.59
972.98	711.65
973.281	715.49
973.582	708.26
973.883	689.73
974.183	690.41
974.484	702.38
974.785	672.33
975.085	697.41
975.386	692.67
975.686	685.66
975.986	693.8
976.287	715.04
976.587	694.7
976.887	692.89
977.187	684.08
977.487	660.8
977.787	674.81
978.087	682.04
978.387	654.93
978.687	677.75
978.987	661.71
979.286	685.21
979.586	666.23
979.885	675.26
980.185	663.97
980.484	649.05
980.784	649.05
981.083	662.38
981.382	649.95
981.682	663.06
981.981	651.76
982.28	621.48
982.579	661.03
982.878	655.38
983.177	667.36
983.475	663.74
983.774	646.34
984.073	651.99
984.372	646.11
984.67	630.07
984.969	670.52
985.267	654.47
985.566	624.87
985.864	619.45
986.162	630.52
986.461	629.39
986.759	600.46
987.057	634.81
987.355	631.65
987.653	621.03
987.951	628.03
988.249	616.74
988.547	638.2
988.844	611.31
989.142	609.73
989.44	623.06
989.737	597.07
990.035	607.7
990.332	600.01
990.63	598.2
990.927	587.36
991.224	603.63
991.521	587.81
991.819	593.46
992.116	612.44
992.413	601.82
992.71	614.02
993.006	612.67
993.303	599.11
993.6	588.04
993.897	589.62
994.193	593.46
994.49	577.87
994.787	587.81
995.083	563.4
995.379	582.84
995.676	569.5
995.972	574.93
996.268	600.69
996.565	565.89
996.861	588.26
997.157	564.53
997.453	578.77
997.749	584.19
998.044	555.72
998.34	577.64
998.636	541.93
998.932	553.91
999.227	569.96
999.523	554.59
999.818	569.73
1000.114	570.86
1000.409	571.09
1000.704	561.82
1001	566.34
1001.295	576.96
1001.59	573.12
1001.885	550.75
1002.18	557.75
1002.475	560.01
1002.77	569.5
1003.065	553.01
1003.359	562.27
1003.654	540.8
1003.949	524.76
1004.243	548.94
1004.538	553.23
1004.832	561.37
1005.127	537.42
1005.421	557.53
1005.715	533.57
1006.009	525.44
1006.304	529.96
1006.598	532.22
1006.892	536.51
1007.186	522.95
1007.48	524.08
1007.773	529.51
1008.067	510.07
1008.361	532.9
1008.655	539.22
1008.948	529.96
1009.242	531.99
1009.535	527.92
1009.829	505.55
1010.122	519.79
1010.415	528.38
1010.708	520.69
1011.001	505.78
1011.295	497.87
1011.588	512.56
1011.881	532.44
1012.173	509.85
1012.466	505.33
1012.759	501.48
1013.052	485.67
1013.344	510.3
1013.637	485.89
1013.93	492.9
1014.222	475.5
1014.514	501.26
1014.807	486.34
1015.099	503.97
1015.391	504.2
1015.683	496.96
1015.976	489.73
1016.268	478.43
1016.56	477.08
1016.851	463.52
1017.143	465.55
1017.435	467.59
1017.727	481.37
1018.018	472.56
1018.31	473.91
1018.602	461.94
1018.893	471.2
1019.185	477.76
1019.476	469.62
1019.767	462.16
1020.058	448.38
1020.35	480.69
1020.641	464.87
1020.932	465.33
1021.223	474.14
1021.514	459
1021.804	465.55
1022.095	471.43
1022.386	432.56
1022.677	462.61
1022.967	421.49
1023.258	447.7
1023.548	461.49
1023.839	435.5
1024.129	431.66
1024.419	430.75
1024.709	440.47
1025	426.01
1025.29	428.72
1025.58	423.97
1025.87	453.12
1026.16	436.4
1026.449	439.11
1026.739	430.3
1027.029	439.56
1027.319	426.68
1027.608	437.08
1027.898	411.09
1028.187	413.12
1028.477	461.26
1028.766	437.98
1029.055	428.49
1029.344	426.68
1029.634	424.42
1029.923	414.93
1030.212	422.39
1030.501	429.85
1030.79	415.61
1031.078	403.86
1031.367	405.89
1031.656	410.41
1031.945	409.96
1032.233	415.61
1032.522	399.34
1032.81	409.06
1033.099	411.77
1033.387	421.03
1033.675	400.47
1033.963	407.48
1034.251	415.61
1034.54	410.19
1034.828	418.1
1035.116	424.42
1035.403	386.23
1035.691	399.57
1035.979	421.03
1036.267	410.19
1036.554	406.35
1036.842	393.92
1037.129	377.42
1037.417	405.67
1037.704	414.25
1037.992	411.32
1038.279	404.54
1038.566	395.95
1038.853	395.95
1039.14	395.95
