Data from foam2_polystyrene_foam_FLMS001491_00078.txt Node
Date: Wed Feb 08 10:58:29 GMT 2017
User: dcchb
Spectrometer: FLMS00149
Trigger mode: 0
Integration Time (sec): 2.000000E-2
Scans to average: 10
Electric dark correction enabled: true
Nonlinearity correction enabled: false
Boxcar width: 0
XAxis mode: Wavelengths
Number of Pixels in Spectrum: 2048
>>>>>Begin Spectral Data<<<<<
341.393	-19.34
341.776	-19.34
342.16	-19.34
342.543	-63.63
342.927	-74.48
343.31	-81.93
343.693	-73.35
344.077	-52.1
344.46	-71.31
344.843	-71.09
345.226	-31.54
345.61	-20.24
345.993	-17.75
346.376	-5.55
346.759	5.97
347.142	31.28
347.525	36.71
347.908	66.99
348.291	62.47
348.674	95.92
349.057	125.52
349.44	105.41
349.823	146.08
350.206	164.16
350.588	184.73
350.971	219.08
351.354	241.22
351.737	228.12
352.119	255.01
352.502	275.8
352.884	273.99
353.267	303.59
353.65	313.31
354.032	313.99
354.414	322.58
354.797	334.1
355.179	342.46
355.562	335.91
355.944	343.59
356.326	331.62
356.709	359.64
357.091	366.42
357.473	348.56
357.855	362.35
358.238	347.43
358.62	341.78
359.002	364.84
359.384	350.82
359.766	347.66
360.148	349.24
360.53	354.89
360.912	377.49
361.294	363.48
361.676	363.03
362.057	347.89
362.439	341.33
362.821	360.99
363.203	360.09
363.584	362.8
363.966	359.41
364.348	355.57
364.729	360.54
365.111	353.99
365.493	345.85
365.874	363.93
366.256	355.57
366.637	349.69
367.019	361.9
367.4	350.37
367.781	349.02
368.163	363.25
368.544	360.32
368.925	352.41
369.306	365.51
369.688	348.11
370.069	350.6
370.45	362.58
370.831	362.8
371.212	363.93
371.593	352.86
371.974	363.48
372.355	355.34
372.736	369.13
373.117	388.56
373.498	369.13
373.879	363.48
374.26	362.58
374.641	363.03
375.021	396.47
375.402	355.34
375.783	393.76
376.163	407.32
376.544	387.21
376.925	393.08
377.305	393.31
377.686	377.72
378.066	379.07
378.447	402.57
378.827	399.64
379.208	415
379.588	400.09
379.968	404.61
380.349	406.87
380.729	412.52
381.109	417.49
381.489	443.48
381.87	429.47
382.25	432.63
382.63	434.44
383.01	434.44
383.39	440.99
383.77	450.93
384.15	464.04
384.53	439.18
384.91	449.8
385.29	472.85
385.67	455.45
386.049	484.38
386.429	479.41
386.809	445.74
387.189	479.18
387.568	471.95
387.948	492.29
388.328	504.27
388.707	486.64
389.087	512.18
389.466	524.38
389.846	490.26
390.225	523.93
390.605	510.37
390.984	523.7
391.363	507.43
391.743	506.75
392.122	530.25
392.501	530.25
392.881	542.23
393.26	553.76
393.639	540.65
394.018	572.97
394.397	570.03
394.776	554.21
395.155	577.71
395.534	570.48
395.913	588.11
396.292	592.85
396.671	592.17
397.05	587.65
397.429	596.92
397.808	608.9
398.186	612.74
398.565	626.3
398.944	629.01
399.323	630.36
399.701	629.69
400.08	642.12
400.458	625.62
400.837	655
401.215	653.64
401.594	651.16
401.972	666.07
402.351	691.38
402.729	673.75
403.107	690.93
403.486	683.47
403.864	681.89
404.242	706.29
404.62	687.99
404.999	709.46
405.377	728.89
405.755	721.66
406.133	751.04
406.511	745.84
406.889	748.33
407.267	760.3
407.645	785.84
408.023	796.91
408.401	765.05
408.779	808.67
409.156	796.69
409.534	814.99
409.912	834.88
410.29	846.63
410.667	853.86
411.045	859.51
411.422	880.75
411.8	878.27
412.178	897.93
412.555	890.24
412.933	909.68
413.31	920.53
413.687	929.57
414.065	937.02
414.442	965.72
414.819	966.85
415.197	966.63
415.574	1002.56
415.951	979.96
416.328	992.16
416.705	1011.15
417.082	1005.27
417.46	1053.18
417.837	1031.03
418.214	1061.54
418.591	1045.04
418.967	1055.21
419.344	1078.04
419.721	1109.22
420.098	1073.74
420.475	1115.78
420.852	1145.15
421.228	1119.62
421.605	1166.85
421.982	1135.21
422.358	1148.54
422.735	1191.71
423.111	1157.58
423.488	1223.12
423.864	1214.53
424.241	1210.69
424.617	1224.47
424.994	1215.21
425.37	1240.07
425.746	1250.01
426.123	1271.25
426.499	1294.53
426.875	1320.52
427.251	1331.14
427.627	1346.5
428.003	1364.81
428.379	1370.23
428.756	1395.77
429.132	1409.33
429.507	1450.91
429.883	1447.52
430.259	1496.78
430.635	1479.16
431.011	1514.41
431.387	1528.19
431.763	1553.28
432.138	1573.39
432.514	1610.45
432.89	1613.84
433.265	1626.27
433.641	1633.73
434.016	1682.31
434.392	1678.47
434.767	1715.76
435.143	1739.94
435.518	1750.11
435.894	1786.04
436.269	1786.49
436.644	1766.83
437.02	1821.29
437.395	1835.98
437.77	1866.72
438.145	1906.94
438.52	1902.42
438.895	1936.77
439.271	1955.98
439.646	1965.7
440.021	1993.94
440.395	2013.15
440.77	1983.55
441.145	2018.8
441.52	2059.93
441.895	2044.34
442.27	2082.76
442.645	2126.6
443.019	2134.28
443.394	2122.98
443.769	2174.5
444.143	2191.68
444.518	2188.29
444.892	2232.58
445.267	2226.26
445.641	2226.48
446.016	2252.02
446.39	2290.66
446.764	2268.29
447.139	2303.54
447.513	2339.47
447.887	2330.66
448.262	2330.89
448.636	2363.88
449.01	2405.01
449.384	2426.48
449.758	2426.7
450.132	2491.33
450.506	2493.59
450.88	2489.52
451.254	2513.71
451.628	2544.44
452.002	2581.95
452.376	2585.12
452.75	2604.78
453.123	2640.03
453.497	2706.02
453.871	2696.98
454.244	2785.34
454.618	2768.39
454.992	2830.31
455.365	2839.57
455.739	2901.04
456.112	2915.05
456.486	2964.99
456.859	2964.31
457.232	3021.94
457.606	3001.6
457.979	3045.67
458.352	3130.19
458.725	3150.75
459.099	3159.56
459.472	3192.78
459.845	3232.56
460.218	3278.2
460.591	3353.01
460.964	3320.69
461.337	3398.43
461.71	3414.25
462.083	3500.35
462.456	3505.54
462.829	3498.54
463.201	3620.57
463.574	3574.92
463.947	3611.3
464.32	3748.7
464.692	3773.56
465.065	3792.77
465.438	3848.13
465.81	3917.51
466.183	3965.42
466.555	4036.6
466.928	4058.07
467.3	4014.23
467.672	4124.74
468.045	4175.13
468.417	4234.56
468.789	4188.46
469.161	4286.31
469.534	4403.37
469.906	4463.26
470.278	4478.17
470.65	4547.1
471.022	4649.92
471.394	4682.69
471.766	4757.94
472.138	4816.7
472.51	4921.55
472.882	5016.92
473.253	5047.65
473.625	5132.85
473.997	5247.42
474.369	5296
474.74	5333.07
475.112	5418.94
475.484	5512.5
475.855	5596.11
476.227	5657.13
476.598	5781.19
476.97	5839.27
477.341	5996.1
477.713	6036.1
478.084	6124.46
478.455	6298.24
478.827	6325.13
479.198	6496.88
479.569	6552.69
479.94	6732.58
480.311	6726.02
480.682	6956.3
481.053	7063.19
481.424	7187.93
481.795	7215.73
482.166	7342.05
482.537	7447.59
482.908	7620.92
483.279	7692.55
483.65	7862.27
484.021	8047.57
484.391	8057.06
484.762	8102.48
485.133	8199.43
485.503	8292.08
485.874	8578.63
486.244	8587.67
486.615	8700.89
486.985	8809.81
487.356	8979.07
487.726	9057.26
488.097	9240.08
488.467	9327.99
488.837	9531.83
489.207	9621.99
489.578	9767.3
489.948	9878.94
490.318	9951.7
490.688	9962.77
491.058	10194.63
491.428	10325.7
491.798	10424.68
492.168	10638.24
492.538	10697.67
492.908	10861.28
493.278	10914.39
493.648	10966.36
494.017	11187.15
494.387	11215.4
494.757	11381.95
495.126	11485.9
495.496	11549.85
495.866	11659.45
496.235	11784.87
496.605	11932.21
496.974	11873.01
497.344	12024.87
497.713	12099.89
498.082	12301.02
498.452	12385.76
498.821	12400.22
499.19	12504.18
499.559	12673.66
499.928	12735.36
500.298	12760.89
500.667	12989.81
501.036	12955.46
501.405	13034.56
501.774	13046.08
502.143	13230.71
502.512	13253.76
502.88	13495.79
503.249	13444.94
503.618	13544.83
503.987	13740.08
504.356	13791.83
504.724	13832.73
505.093	13963.57
505.462	13988.66
505.83	14094.42
506.199	14277.01
506.567	14354.07
506.936	14470.68
507.304	14563.78
507.672	14655.76
508.041	14744.57
508.409	14944.56
508.777	14998.57
509.145	15190.89
509.514	15198.34
509.882	15268.4
510.25	15333.26
510.618	15494.61
510.986	15558.33
511.354	15701.61
511.722	15844.43
512.09	15966.68
512.458	15977.53
512.826	16143.63
513.193	16140.24
513.561	16320.57
513.929	16531.42
514.297	16646.44
514.664	16846.21
515.032	16861.12
515.4	16982.7
515.767	17055.02
516.135	17191.74
516.502	17120.1
516.869	17504.27
517.237	17500.66
517.604	17535.46
517.972	17822.23
518.339	17858.39
518.706	17886.63
519.073	18123.46
519.44	18216.8
519.808	18358.71
520.175	18414.08
520.542	18748.08
520.909	18762.77
521.276	18791.7
521.643	18998.7
522.009	19168.63
522.376	19325.01
522.743	19499.93
523.11	19615.4
523.477	19778.34
523.843	19964.55
524.21	20232.34
524.577	20318.43
524.943	20442.73
525.31	20561.37
525.676	20816.5
526.043	20859.66
526.409	21035.93
526.776	21141.46
527.142	21251.52
527.508	21373.32
527.874	21695.8
528.241	21855.12
528.607	21917.26
528.973	22074.32
529.339	22030.25
529.705	22287.42
530.071	22499.17
530.437	22610.35
530.803	22784.81
531.169	22920.17
531.535	22816
531.901	22982.77
532.267	23150.9
532.632	23338.47
532.998	23342.99
533.364	23621.85
533.73	23476.32
534.095	23787.04
534.461	23876.76
534.826	24017.32
535.192	24071.1
535.557	24227.71
535.923	24429.74
536.288	24484.43
536.653	24608.72
537.019	24613.69
537.384	24693.69
537.749	24848.03
538.114	24934.36
538.479	25075.6
538.845	25189.95
539.21	25064.75
539.575	25356.49
539.94	25416.15
540.305	25429.49
540.67	25492.08
541.034	25547.68
541.399	25765.52
541.764	25808.01
542.129	26015.23
542.494	25942.69
542.858	26108.11
543.223	26089.36
543.587	26311.27
543.952	26216.81
544.316	26448.67
544.681	26400.53
545.045	26610.7
545.41	26690.24
545.774	26840.98
546.138	26979.73
546.503	26926.17
546.867	26941.31
547.231	27275.31
547.595	27258.14
547.959	27248.2
548.324	27405.71
548.688	27455.42
549.052	27661.52
549.416	27562.76
549.779	27688.64
550.143	27963.21
550.507	28004.11
550.871	28148.29
551.235	27947.16
551.599	28386.7
551.962	28457.66
552.326	28443.42
552.689	28600.93
553.053	28579.23
553.417	28740.59
553.78	29064.19
554.143	28990.07
554.507	29197.3
554.87	29183.29
555.234	29484.75
555.597	29445.2
555.96	29628.02
556.323	29672.99
556.686	29800.9
557.05	30067.56
557.413	30127.67
557.776	30161.34
558.139	30360.43
558.502	30352.3
558.865	30533.31
559.228	30747.31
559.59	30914.09
559.953	31021.66
560.316	31325.15
560.679	31173.29
561.041	31601.75
561.404	31607.86
561.767	31783.9
562.129	31814.18
562.492	31985.7
562.854	32091.46
563.217	32179.14
563.579	32382.52
563.941	32465.46
564.304	32746.81
564.666	33038.55
565.028	32909.06
565.39	33029.96
565.753	33321.71
566.115	33420.01
566.477	33548.37
566.839	33535.71
567.201	33820.9
567.563	33964.63
567.925	34158.75
568.287	34181.35
568.648	34203.95
569.01	34421.34
569.372	34767.55
569.734	34622.69
570.095	34892.06
570.457	34961.67
570.819	35146.75
571.18	35111.04
571.542	35200.3
571.903	35389
572.265	35494.08
572.626	35379.96
572.987	35536.79
573.349	35660.63
573.71	35770.91
574.071	35904.69
574.432	36051.35
574.794	36299.71
575.155	36116.89
575.516	36130.45
575.877	36359.37
576.238	36433.94
576.599	36448.86
576.96	36514.62
577.32	36567.05
577.681	36773.82
578.042	36705.12
578.403	36839.36
578.763	36845.68
579.124	36863.76
579.485	37044.32
579.845	37151.89
580.206	36993.02
580.566	37143.53
580.927	37073.25
581.287	37256.07
581.648	37157.31
582.008	37280.7
582.368	37333.81
582.728	37407.7
583.089	37269.18
583.449	37320.47
583.809	37454.71
584.169	37584.65
584.529	37427.36
584.889	37636.17
585.249	37343.3
585.609	37418.1
585.969	37592.33
586.329	37429.17
586.688	37486.34
587.048	37361.15
587.408	37321.6
587.768	37386.69
588.127	37321.83
588.487	37327.93
588.846	37574.48
589.206	37281.15
589.565	37292.68
589.925	37575.83
590.284	37439.34
590.643	37563.63
591.003	37435.05
591.362	37740.12
591.721	37667.58
592.08	37567.7
592.44	37817.86
592.799	37716.62
593.158	37711.42
593.517	37631.65
593.876	37624.19
594.235	37635.04
594.593	37604.31
594.952	37690.86
595.311	37608.38
595.67	37626.23
596.029	37955.94
596.387	37880.91
596.746	37844.53
597.104	37844.3
597.463	37822.16
597.822	37791.87
598.18	37763.4
598.538	37791.2
598.897	37984.64
599.255	37655.15
599.613	38182.37
599.972	37922.72
600.33	38011.98
600.688	37973.79
601.046	38114.58
601.404	38149.38
601.762	38037.06
602.12	38328.81
602.478	38231.86
602.836	38344.85
603.194	38143.95
603.552	38323.61
603.91	38223.27
604.268	38458.97
604.625	38344.18
604.983	38500.1
605.341	38404.74
605.698	38508.92
606.056	38562.02
606.413	38462.82
606.771	38557.28
607.128	38548.69
607.485	38500.78
607.843	38478.41
608.2	38737.61
608.557	38741.68
608.914	38754.79
609.272	38873.88
609.629	39104.83
609.986	39179.41
610.343	38944.16
610.7	39261.67
611.057	39107.55
611.414	38954.33
611.771	39071.84
612.127	39231.84
612.484	39176.47
612.841	39231.61
613.198	39208.79
613.554	39107.77
613.911	39386.41
614.267	39375.33
614.624	39350.7
614.98	39362.23
615.337	39511.6
615.693	39496.01
616.05	39429.34
616.406	39530.58
616.762	39510.02
617.118	39571.49
617.475	39673.63
617.831	39671.82
618.187	39634.31
618.543	39771.48
618.899	40072.04
619.255	39928.54
619.611	39949.1
619.967	40044.47
620.323	40172.6
620.678	39976.45
621.034	39925.6
621.39	39975.32
621.746	39873.4
622.101	40301.41
622.457	40022.1
622.812	40224.13
623.168	40200.62
623.523	40187.06
623.879	40225.03
624.234	39904.81
624.589	40194.07
624.945	40093.51
625.3	40201.08
625.655	40133.05
626.01	40192.26
626.365	40186.61
626.72	40060.06
627.075	40085.6
627.43	40039.95
627.785	40028.2
628.14	40091.02
628.495	40102.1
628.85	40073.85
629.205	39958.37
629.559	40134.86
629.914	39871.14
630.269	39929.44
630.623	39938.71
630.978	39846.51
631.332	39946.39
631.687	40084.24
632.041	39736
632.396	39931.7
632.75	39821.2
633.104	39805.15
633.459	39607.42
633.813	39664.14
634.167	39498.5
634.521	39337.82
634.875	39452.39
635.229	39447.65
635.583	39155.68
635.937	39319.07
636.291	39221.67
636.645	39124.27
636.999	38968.57
637.352	39198.62
637.706	38867.33
638.06	39104.38
638.413	38806.54
638.767	38804.95
639.121	38873.65
639.474	38604.96
639.828	38566.32
640.181	38642.25
640.534	38639.31
640.888	38520.89
641.241	38279.32
641.594	38532.42
641.947	38471.86
642.301	38464.17
642.654	38392.31
643.007	38276.61
643.36	38341.92
643.713	38163.39
644.066	38357.73
644.419	38094.46
644.771	37803.4
645.124	37375.16
645.477	37364.54
645.83	36999.8
646.182	36998.9
646.535	36994.61
646.888	37020.59
647.24	36788.51
647.593	36948.51
647.945	36915.06
648.298	36617.22
648.65	36569.08
649.002	36513.26
649.355	36567.72
649.707	36630.1
650.059	36646.59
650.411	37254.03
650.763	37188.5
651.115	37700.35
651.467	37448.15
651.819	37433.24
652.171	37316.63
652.523	37252
652.875	37200.25
653.227	36964.78
653.578	37218.78
653.93	37213.13
654.282	37069.86
654.633	36927.72
654.985	37031.44
655.337	37031.67
655.688	37047.26
656.039	37251.32
656.391	36849.75
656.742	37025.34
657.094	37021.5
657.445	37007.71
657.796	36962.97
658.147	36870.09
658.498	36744.44
658.849	36815.85
659.2	36840.71
659.551	36727.27
659.902	36732.47
660.253	36611.34
660.604	36717.33
660.955	36484.56
661.306	36720.94
661.656	36553.71
662.007	36645.46
662.358	36684.56
662.708	36568.85
663.059	36610.21
663.409	36348.52
663.76	36779.7
664.11	36627.38
664.461	36754.84
664.811	36668.97
665.161	36677.1
665.511	36538.57
665.862	36576.09
666.212	36565.92
666.562	36747.16
666.912	36504.68
667.262	36477.56
667.612	36504.45
667.962	36409.54
668.312	36439.59
668.662	36498.12
669.011	36552.81
669.361	36406.15
669.711	36510.1
670.06	36295.64
670.41	36378.35
670.76	36308.97
671.109	36344.45
671.459	36130.67
671.808	36145.82
672.157	36294.06
672.507	36020.17
672.856	35988.53
673.205	36037.12
673.554	36258.58
673.904	35937.01
674.253	36179.03
674.602	35955.09
674.951	35487.98
675.3	35260.41
675.649	35895.2
675.998	35727.75
676.346	35941.53
676.695	36152.14
677.044	35747.18
677.393	35760.06
677.741	35871.92
678.09	35780.85
678.438	35621.08
678.787	35861.08
679.135	35739.95
679.484	35473.74
679.832	35642.55
680.181	35501.99
680.529	35579.95
680.877	35345.61
681.225	35285.05
681.573	35495.89
681.922	35080.53
682.27	35126.86
682.618	35200.53
682.966	35053.64
683.314	35163.02
683.661	34983.59
684.009	34844.61
684.357	34822.69
684.705	34772.74
685.053	34778.39
685.4	34668.34
685.748	34591.73
686.095	34474.67
686.443	34422.92
686.79	34387.44
687.138	34351.06
687.485	34505.86
687.832	34233.32
688.18	34208.69
688.527	34083.04
688.874	34090.73
689.221	33940.22
689.568	33793.56
689.915	33791.98
690.262	33724.41
690.609	33609.16
690.956	33644.64
691.303	33630.63
691.65	33330.3
691.997	33408.26
692.344	33236.29
692.69	33173.01
693.037	33206.01
693.383	33020.25
693.73	33049.4
694.077	32865.9
694.423	32806.69
694.769	32645.57
695.116	32598.11
695.462	32356.08
695.808	32467.27
696.155	32386.59
696.501	32157.9
696.847	32270.21
697.193	32093.72
697.539	32193.38
697.885	31959.48
698.231	31847.62
698.577	31788.42
698.923	31873.61
699.269	31648.76
699.614	31443.57
699.96	31421.65
700.306	31322.44
700.651	31304.59
700.997	31251.03
701.342	31216.45
701.688	31032.5
702.033	30994.99
702.379	30902.34
702.724	30876.58
703.069	30815.79
703.415	30548
703.76	30632.74
704.105	30486.98
704.45	30458.28
704.795	30235.46
705.14	30153.88
705.485	30083.83
705.83	30208.12
706.175	30110.27
706.52	29987.78
706.865	30009.03
707.209	29934.45
707.554	29724.74
707.899	29828.24
708.243	29623.27
708.588	29621.47
708.932	29503.96
709.277	29385.77
709.621	29433
709.966	29234.81
710.31	29255.15
710.654	28979.22
710.998	29075.72
711.342	29119.79
711.687	29000.47
712.031	28891.09
712.375	28806.8
712.719	28875.05
713.063	28678.21
713.407	28742.85
713.75	28559.8
714.094	28569.29
714.438	28470.76
714.782	28471.89
715.125	28249.07
715.469	28361.16
715.812	28188.28
716.156	27949.19
716.499	27961.85
716.843	28087.04
717.186	27861.29
717.53	28002.07
717.873	27983.77
718.216	27935.41
718.559	27721.18
718.902	27633.27
719.246	27616.32
719.589	27348.98
719.932	27386.5
720.275	27380.17
720.617	27366.84
720.96	27287.07
721.303	27271.7
721.646	27258.37
721.989	27054.08
722.331	27174.53
722.674	27176.79
723.016	27093.17
723.359	27165.94
723.701	27031.25
724.044	27033.06
724.386	26880.97
724.729	26889.79
725.071	26791.03
725.413	26718.04
725.755	26867.87
726.097	26563.47
726.439	26566.63
726.782	26592.62
727.124	26757.81
727.465	26480.98
727.807	26562.11
728.149	26474.88
728.491	26306.07
728.833	26407.77
729.175	26225.17
729.516	26163.03
729.858	26179.07
730.199	26139.98
730.541	26191.05
730.882	26094.1
731.224	26119.41
731.565	25944.05
731.906	26033.31
732.248	25860.89
732.589	25796.48
732.93	25798.74
733.271	25688.46
733.612	25680.33
733.953	25782.25
734.294	25555.36
734.635	25531.4
734.976	25588.13
735.317	25524.85
735.658	25427
735.999	25505.19
736.339	25285.76
736.68	25531.18
737.021	25410.96
737.361	25248.02
737.702	25283.5
738.042	25249.38
738.383	25133.68
738.723	25103.62
739.063	25079.67
739.404	25100
739.744	25034.24
740.084	24985.66
740.424	25012.1
740.764	24884.42
741.104	24950.18
741.444	24813.91
741.784	24846
742.124	24795.83
742.464	24743.86
742.804	24687.36
743.143	24614.37
743.483	24668.38
743.823	24427.25
744.162	24411.66
744.502	24507.03
744.841	24345.67
745.181	24454.37
745.52	24365.11
745.86	24339.12
746.199	24391.1
746.538	24135.51
746.877	24316.75
747.216	24257.54
747.556	24279.01
747.895	24086.7
748.234	24104.32
748.573	23960.6
748.911	23964.21
749.25	23930.09
749.589	23936.19
749.928	23827.95
750.267	23765.12
750.605	23732.81
750.944	23666.14
751.283	23566.03
751.621	23579.14
751.96	23449.2
752.298	23491.01
752.636	23459.82
752.975	23353.38
753.313	23262.31
753.651	23374.17
753.989	23260.73
754.327	23178.7
754.666	23122.65
755.004	23048.53
755.342	23071.36
755.679	23025.26
756.017	22857.35
756.355	22999.95
756.693	22736.22
757.031	22797.47
757.368	22695.1
757.706	22585.95
758.044	22572.39
758.381	22575.55
758.719	22468.21
759.056	22532.61
759.394	22402.45
759.731	22328.33
760.068	22263.24
760.405	22185.5
760.743	22117.26
761.08	22046.52
761.417	22013.76
761.754	21965.4
762.091	21983.7
762.428	21832.29
762.765	21611.73
763.102	21793.88
763.438	21560.44
763.775	21512.08
764.112	21510.95
764.449	21552.98
764.785	21354.11
765.122	21143.05
765.458	21168.58
765.795	21171.07
766.131	21092.88
766.467	21096.72
766.804	21015.82
767.14	20941.47
767.476	20896.05
767.812	20707.13
768.148	20703.06
768.485	20449.28
768.821	20405.21
769.157	20476.17
769.492	20307.14
769.828	20345.33
770.164	20085.45
770.5	20148.04
770.836	20099.01
771.171	20008.16
771.507	20015.62
771.842	19813.82
772.178	19804.32
772.513	19736.3
772.849	19710.77
773.184	19602.07
773.519	19570.43
773.855	19457.89
774.19	19268.29
774.525	19322.3
774.86	19260.84
775.195	19289.31
775.53	19140.39
775.865	19062.2
776.2	18956.66
776.535	18869.89
776.87	18894.97
777.205	18817.68
777.539	18732.26
777.874	18731.58
778.209	18577.92
778.543	18576.11
778.878	18482.1
779.212	18509.22
779.547	18370.01
779.881	18457.69
780.215	18291.82
780.55	18340.86
780.884	18120.53
781.218	18127.08
781.552	18125.72
781.886	18009.34
782.22	17881.44
782.554	17850.48
782.888	17638.96
783.222	17597.83
783.556	17567.77
783.889	17462.24
784.223	17405.06
784.557	17332.98
784.89	17411.17
785.224	17158.07
785.557	17101.12
785.891	17054.57
786.224	17063.38
786.558	17043.49
786.891	16920.56
787.224	16878.98
787.557	16767.34
787.891	16758.08
788.224	16740.68
788.557	16808.7
788.89	16639.89
789.223	16627.23
789.556	16575.48
789.888	16513.34
790.221	16403.28
790.554	16333.23
790.887	16357.63
791.219	16274.7
791.552	16190.41
791.884	16103.63
792.217	16007.59
792.549	16022.28
792.882	15864.77
793.214	15831.32
793.546	15935.05
793.879	15754.71
794.211	15690.53
794.543	15700.25
794.875	15649.63
795.207	15658.44
795.539	15483.31
795.871	15527.37
796.203	15486.25
796.535	15336.87
796.867	15352.24
797.198	15308.4
797.53	15337.1
797.862	15246.48
798.193	15267.04
798.525	15080.38
798.856	15096.43
799.188	14965.36
799.519	14938.69
799.85	14794.51
800.182	14881.52
800.513	14797.68
800.844	14684.68
801.175	14798.35
801.506	14733.27
801.837	14643.78
802.168	14621.64
802.499	14488.08
802.83	14514.75
803.161	14455.31
803.491	14351.59
803.822	14399.49
804.153	14318.82
804.483	14275.88
804.814	14166.05
805.145	14179.39
805.475	14196.79
805.805	14157.69
806.136	14135.09
806.466	14059.84
806.796	14042.67
807.126	13955.21
807.457	13944.59
807.787	13925.38
808.117	13863.46
808.447	13757.25
808.777	13837.02
809.107	13739.85
809.436	13759.96
809.766	13739.4
810.096	13633.19
810.426	13481.55
810.755	13593.19
811.085	13560.65
811.414	13497.37
811.744	13365.62
812.073	13381.89
812.403	13398.62
812.732	13270.48
813.061	13399.52
813.39	13260.09
813.719	13140.32
814.049	13279.75
814.378	13113.65
814.707	13237.04
815.036	13169.02
815.365	13072.98
815.693	12921.34
816.022	13063.26
816.351	12947.1
816.68	12867.78
817.008	12921.57
817.337	12768.8
817.665	12831.63
817.994	12786.2
818.322	12837.28
818.651	12753.44
818.979	12685.87
819.307	12767.67
819.636	12627.11
819.964	12578.75
820.292	12659.43
820.62	12630.28
820.948	12484.06
821.276	12635.47
821.604	12581.24
821.932	12604.29
822.259	12537.85
822.587	12475.03
822.915	12493.33
823.243	12582.59
823.57	12532.65
823.898	12581.91
824.225	12472.54
824.553	12517.28
824.88	12449.26
825.207	12491.07
825.535	12458.08
825.862	12502.59
826.189	12443.39
826.516	12509.37
826.843	12553.89
827.17	12478.19
827.497	12489.71
827.824	12503.05
828.151	12536.72
828.478	12526.55
828.805	12538.53
829.131	12401.35
829.458	12446.55
829.785	12381.02
830.111	12438.19
830.438	12508.02
830.764	12397.51
831.09	12517.96
831.417	12418.3
831.743	12464.63
832.069	12392.99
832.395	12426.66
832.722	12422.15
833.048	12411.75
833.374	12432.31
833.7	12328.36
834.026	12436.38
834.351	12381.92
834.677	12237.07
835.003	12406.55
835.329	12374.46
835.654	12303.5
835.98	12189.61
836.306	12304.86
836.631	12254.47
836.956	12258.76
837.282	12264.64
837.607	12150.51
837.932	12162.04
838.258	12111.87
838.583	12097.86
838.908	12049.95
839.233	12017.41
839.558	12014.25
839.883	11998.65
840.208	11947.81
840.533	11961.37
840.858	11890.86
841.182	12013.79
841.507	11958.2
841.832	11870.75
842.156	11825.55
842.481	11922.95
842.805	11796.62
843.13	11757.3
843.454	11848.6
843.778	11659.91
844.103	11658.78
844.427	11690.86
844.751	11695.38
845.075	11655.16
845.399	11594.14
845.723	11480.02
846.047	11479.8
846.371	11424.66
846.695	11475.28
847.019	11409.06
847.343	11338.33
847.666	11249.75
847.99	11190.31
848.313	11111.9
848.637	11101.95
848.96	11108.96
849.284	11090.43
849.607	11018.79
849.931	11018.79
850.254	10884.56
850.577	10902.86
850.9	10792.58
851.223	10756.2
851.546	10718.69
851.869	10693.6
852.192	10729.99
852.515	10586.26
852.838	10557.11
853.161	10562.31
853.483	10535.64
853.806	10428.75
854.129	10482.08
854.451	10415.87
854.774	10343.56
855.096	10354.85
855.419	10274.86
855.741	10258.13
856.063	10213.84
856.385	10104.69
856.708	10233.73
857.03	10177.91
857.352	10213.16
857.674	10146.72
857.996	10083.45
858.318	10032.15
858.64	10028.76
858.961	9986.5
859.283	9908.31
859.605	9855.43
859.926	9932.72
860.248	9843.68
860.57	9878.48
860.891	9827.86
861.212	9776.56
861.534	9776.79
861.855	9708.77
862.176	9757.13
862.498	9774.53
862.819	9754.19
863.14	9692.73
863.461	9606.63
863.782	9649.79
864.103	9604.37
864.424	9591.03
864.745	9607.08
865.065	9581.09
865.386	9490.02
865.707	9570.69
866.027	9569.56
866.348	9456.35
866.668	9512.62
866.989	9552.62
867.309	9401.66
867.63	9485.73
867.95	9414.31
868.27	9365.28
868.59	9319.85
868.91	9409.12
869.23	9301.32
869.55	9286.86
869.87	9386.97
870.19	9278.5
870.51	9289.8
870.83	9295.45
871.15	9208.9
871.469	9190.82
871.789	9247.77
872.109	9246.86
872.428	9164.6
872.748	9247.31
873.067	9148.33
873.386	9199.41
873.706	9143.36
874.025	9064.27
874.344	9071.72
874.663	9130.25
874.982	9104.72
875.301	9091.84
875.62	9008.9
875.939	9036.25
876.258	8986.98
876.577	9026.53
876.896	8951.95
877.214	8965.29
877.533	8971.61
877.852	8932.75
878.17	8924.38
878.489	8997.6
878.807	8944.95
879.125	8819.08
879.444	8838.51
879.762	8826.76
880.08	8806.42
880.398	8857.95
880.716	8810.49
881.034	8724.62
881.352	8778.17
881.67	8720.55
881.988	8718.97
882.306	8739.3
882.624	8672.41
882.941	8665.63
883.259	8616.14
883.577	8646.43
883.894	8612.75
884.212	8589.03
884.529	8550.38
884.846	8526.88
885.164	8510.16
885.481	8441.46
885.798	8496.37
886.115	8420.89
886.432	8516.26
886.75	8393.1
887.067	8358.52
887.383	8386.55
887.7	8405.08
888.017	8356.72
888.334	8442.36
888.651	8366.21
888.967	8304.06
889.284	8349.48
889.6	8220.45
889.917	8166.89
890.233	8127.34
890.55	8127.79
890.866	8171.86
891.182	8117.17
891.498	8187.91
891.815	8082.37
892.131	8077.17
892.447	8050.73
892.763	8014.35
893.079	7970.96
893.395	8008.48
893.71	7899.55
894.026	7886.67
894.342	7883.51
894.657	7865.65
894.973	7933.68
895.289	7857.52
895.604	7807.58
895.92	7756.73
896.235	7723.74
896.55	7740.91
896.865	7729.16
897.181	7723.74
897.496	7735.71
897.811	7660.69
898.126	7576.4
898.441	7564.87
898.756	7550.86
899.071	7565.55
899.386	7526.23
899.7	7470.64
900.015	7423.86
900.33	7365.78
900.644	7342.5
900.959	7351.32
901.273	7337.76
901.588	7304.99
901.902	7204.66
902.216	7281.72
902.531	7199.91
902.845	7188.16
903.159	7137.76
903.473	7229.29
903.787	7097.54
904.101	7100.7
904.415	7073.81
904.729	7039.46
905.042	7048.28
905.356	7020.25
905.67	6988.62
905.984	6939.35
906.297	6927.37
906.611	6879.01
906.924	6881.73
907.237	6862.07
907.551	6794.04
907.864	6762.41
908.177	6730.54
908.491	6667.72
908.804	6727.15
909.117	6702.52
909.43	6671.56
909.743	6633.14
910.056	6587.95
910.368	6599.93
910.681	6580.72
910.994	6564.67
911.307	6492.36
911.619	6503.43
911.932	6469.76
912.244	6486.26
912.557	6404.9
912.869	6399.25
913.181	6296.43
913.494	6347.05
913.806	6321.74
914.118	6352.93
914.43	6258.24
914.742	6239.26
915.054	6202.65
915.366	6193.83
915.678	6185.47
915.99	6138.92
916.302	6155.87
916.613	6072.03
916.925	6051.01
917.236	6050.11
917.548	6060.73
917.859	6009.43
918.171	5947.29
918.482	5957.23
918.794	5934.18
919.105	5933.5
919.416	5819.38
919.727	5878.59
920.038	5832.49
920.349	5812.15
920.66	5750
920.971	5734.86
921.282	5735.54
921.593	5654.19
921.903	5642.44
922.214	5633.85
922.525	5578.94
922.835	5560.86
923.146	5541.42
923.456	5533.74
923.767	5496.45
924.077	5522.89
924.387	5441.09
924.697	5424.36
925.008	5448.54
925.318	5376.91
925.628	5424.14
925.938	5358.15
926.248	5313.18
926.558	5290.58
926.867	5309.79
927.177	5242.22
927.487	5227.98
927.796	5191.15
928.106	5183.69
928.416	5175.78
928.725	5157.03
929.034	5143.69
929.344	5127.65
929.653	5086.97
929.962	5069.8
930.271	5051.94
930.581	5035.9
930.89	5013.53
931.199	5018.05
931.508	4941.44
931.817	4983.92
932.125	4894.21
932.434	4912.51
932.743	4871.16
933.051	4826.86
933.36	4831.16
933.669	4785.28
933.977	4764.95
934.286	4772.4
934.594	4779.18
934.902	4713.65
935.21	4707.32
935.519	4708.68
935.827	4714.1
936.135	4636.81
936.443	4604.05
936.751	4620.09
937.059	4662.12
937.367	4626.19
937.674	4582.58
937.982	4561.11
938.29	4539.87
938.597	4517.04
938.905	4455.35
939.213	4473.88
939.52	4446.99
939.827	4416.48
940.135	4433.65
940.442	4423.26
940.749	4375.35
941.056	4399.76
941.363	4350.72
941.67	4294.68
941.977	4305.3
942.284	4226.65
942.591	4285.41
942.898	4251.51
943.205	4237.28
943.511	4232.08
943.818	4223.94
944.125	4145.3
944.431	4138.52
944.738	4084.96
945.044	4132.65
945.35	4125.41
945.657	4108.69
945.963	4068.47
946.269	4040.9
946.575	4031.41
946.881	4002.03
947.187	4018.07
947.493	3992.08
947.799	3977.17
948.105	3959.32
948.41	3974.68
948.716	3946.44
949.022	3924.52
949.327	3898.3
949.633	3899.43
949.938	3862.14
950.244	3888.58
950.549	3815.37
950.854	3798.87
951.16	3781.92
951.465	3775.82
951.77	3797.74
952.075	3731.3
952.38	3744.63
952.685	3725.88
952.99	3674.35
953.294	3691.98
953.599	3657.63
953.904	3624.86
954.209	3636.39
954.513	3633.68
954.818	3586.22
955.122	3553.45
955.426	3568.59
955.731	3507.58
956.035	3507.13
956.339	3513
956.643	3501.7
956.948	3471.19
957.252	3462.83
957.556	3459.67
957.86	3473.68
958.163	3416.96
958.467	3417.86
958.771	3410.86
959.075	3407.24
959.378	3395.94
959.682	3370.18
959.985	3331.99
960.289	3357.07
960.592	3294.02
960.896	3315.49
961.199	3260.35
961.502	3304.87
961.805	3301.26
962.108	3238.66
962.411	3273.91
962.714	3206.34
963.017	3220.58
963.32	3202.95
963.623	3201.82
963.926	3169.06
964.228	3181.71
964.531	3144.42
964.833	3141.71
965.136	3091.09
965.438	3140.58
965.741	3074.82
966.043	3071.2
966.345	3066.46
966.648	3074.82
966.95	3065.55
967.252	3063.52
967.554	3014.71
967.856	3009.96
968.158	2986.01
968.46	2985.78
968.761	2970.19
969.063	2957.31
969.365	2964.31
969.666	2923.19
969.968	2899.23
970.269	2910.08
970.571	2900.14
970.872	2871.21
971.174	2861.27
971.475	2856.52
971.776	2868.72
972.077	2847.03
972.378	2791.21
972.679	2801.16
972.98	2761.83
973.281	2772.68
973.582	2771.1
973.883	2761.61
974.183	2765.9
974.484	2729.29
974.785	2710.08
975.085	2722.97
975.386	2758.22
975.686	2678.45
975.986	2615.17
976.287	2658.33
976.587	2637.77
976.887	2636.64
977.187	2628.96
977.487	2663.31
977.787	2614.04
978.087	2592.12
978.387	2558.22
978.687	2582.18
978.987	2569.07
979.286	2533.37
979.586	2534.72
979.885	2549.41
980.185	2502.18
980.484	2522.97
980.784	2494.72
981.083	2494.04
981.382	2453.59
981.682	2462.18
981.981	2440.03
982.28	2440.94
982.579	2413.59
982.878	2404.33
983.177	2393.93
983.475	2399.13
983.774	2349.64
984.073	2362.07
984.372	2389.87
984.67	2379.7
984.969	2362.97
985.267	2355.29
985.566	2300.83
985.864	2313.03
986.162	2305.8
986.461	2278.91
986.759	2280.04
987.057	2258.8
987.355	2258.34
987.653	2235.29
987.951	2263.09
988.249	2264.22
988.547	2233.26
988.844	2221.28
989.142	2232.36
989.44	2196.88
989.737	2165.69
990.035	2167.05
990.332	2167.05
990.63	2147.84
990.927	2139.7
991.224	2151.91
991.521	2124.11
991.819	2131.12
992.116	2116.2
992.413	2115.3
992.71	2089.54
993.006	2113.04
993.303	2069.87
993.6	2095.19
993.897	2078.24
994.193	2114.17
994.49	2053.38
994.787	2006.15
995.083	2016.32
995.379	2019.93
995.676	1989.2
995.972	1973.83
996.268	1955.98
996.565	1972.02
996.861	1961.4
997.157	1967.05
997.453	1940.39
997.749	1968.86
998.044	1933.16
998.34	1916.21
998.636	1908.52
998.932	1925.02
999.227	1898.58
999.523	1849.77
999.818	1872.59
1000.114	1859.94
1000.409	1841.18
1000.704	1854.74
1001	1817
1001.295	1814.74
1001.59	1823.78
1001.885	1830.33
1002.18	1810.67
1002.475	1757.11
1002.77	1740.62
1003.065	1743.1
1003.359	1749.66
1003.654	1771.35
1003.949	1735.87
1004.243	1739.71
1004.538	1710.11
1004.832	1710.79
1005.127	1712.14
1005.421	1697
1005.715	1686.16
1006.009	1695.2
1006.304	1680.73
1006.598	1664.24
1006.892	1663.11
1007.186	1649.32
1007.48	1627.4
1007.773	1628.53
1008.067	1616.78
1008.361	1589.21
1008.655	1600.28
1008.948	1586.95
1009.242	1581.07
1009.535	1584.69
1009.829	1562.54
1010.122	1574.07
1010.415	1539.27
1010.708	1543.79
1011.001	1534.52
1011.295	1529.55
1011.588	1514.86
1011.881	1513.51
1012.173	1505.14
1012.466	1478.48
1012.759	1467.4
1013.052	1484.35
1013.344	1466.05
1013.637	1451.36
1013.93	1474.86
1014.222	1442.32
1014.514	1419.95
1014.807	1397.12
1015.099	1392.15
1015.391	1419.95
1015.683	1393.73
1015.976	1403.9
1016.268	1409.1
1016.56	1350.57
1016.851	1367.75
1017.143	1365.94
1017.435	1343.79
1017.727	1327.52
1018.018	1325.04
1018.31	1330.69
1018.602	1314.64
1018.893	1336.11
1019.185	1283.45
1019.476	1288.88
1019.767	1281.87
1020.058	1280.97
1020.35	1273.96
1020.641	1261.99
1020.932	1261.99
1021.223	1218.37
1021.514	1250.01
1021.804	1237.35
1022.095	1239.84
1022.386	1210.69
1022.677	1172.27
1022.967	1186.51
1023.258	1168.66
1023.548	1193.74
1023.839	1180.41
1024.129	1166.4
1024.419	1172.95
1024.709	1144.7
1025	1121.43
1025.29	1128.2
1025.58	1121.43
1025.87	1125.72
1026.16	1116.68
1026.449	1106.51
1026.739	1101.31
1027.029	1143.8
1027.319	1071.48
1027.608	1079.62
1027.898	1067.64
1028.187	1064.03
1028.477	1046.85
1028.766	1085.95
1029.055	1062.9
1029.344	1034.87
1029.634	1026.74
1029.923	1000.75
1030.212	1035.1
1030.501	1038.04
1030.79	1012.28
1031.078	1013.63
1031.367	999.39
1031.656	993.29
1031.945	983.58
1032.233	1005.27
1032.522	948.32
1032.81	998.72
1033.099	985.61
1033.387	992.39
1033.675	966.85
1033.963	939.51
1034.251	937.48
1034.54	956.46
1034.828	936.12
1035.116	907.19
1035.403	927.08
1035.691	908.1
1035.979	914.65
1036.267	912.17
1036.554	876.01
1036.842	867.19
1037.129	884.14
1037.417	875.1
1037.704	878.27
1037.992	869.45
1038.279	845.27
1038.566	853.64
1038.853	853.64
1039.14	853.64
