Data from foam1_polythene_foam_FLMS001491_00058.txt Node
Date: Wed Feb 08 10:55:04 GMT 2017
User: dcchb
Spectrometer: FLMS00149
Trigger mode: 0
Integration Time (sec): 2.000000E-2
Scans to average: 10
Electric dark correction enabled: true
Nonlinearity correction enabled: false
Boxcar width: 0
XAxis mode: Wavelengths
Number of Pixels in Spectrum: 2048
>>>>>Begin Spectral Data<<<<<
341.393	-12.73
341.776	-12.73
342.16	-12.73
342.543	-62.67
342.927	-56.34
343.31	-70.35
343.693	-75.55
344.077	-66.06
344.46	-44.59
344.843	-42.1
345.226	-58.37
345.61	-31.93
345.993	-11.82
346.376	8.52
346.759	9.87
347.142	27.05
347.525	15.07
347.908	66.82
348.291	65.24
348.674	91.9
349.057	116.31
349.44	127.84
349.823	137.33
350.206	154.73
350.588	180.26
350.971	206.7
351.354	209.64
351.737	222.3
352.119	238.34
352.502	251
352.884	258.45
353.267	272.46
353.65	255.74
354.032	286.48
354.414	296.42
354.797	309.07
355.179	315.63
355.562	298.23
355.944	319.69
356.326	323.08
356.709	311.56
357.091	325.8
357.473	321.5
357.855	329.64
358.238	321.95
358.62	310.43
359.002	333.48
359.384	321.5
359.766	335.97
360.148	303.2
360.53	324.89
360.912	314.72
361.294	313.59
361.676	304.78
362.057	293.93
362.439	306.36
362.821	316.76
363.203	308.17
363.584	301.16
363.966	298.23
364.348	311.56
364.729	284.44
365.111	310.2
365.493	316.53
365.874	301.62
366.256	313.59
366.637	305.23
367.019	298.45
367.4	319.24
367.781	286.48
368.163	265.01
368.544	312.24
368.925	322.86
369.306	307.27
369.688	298.23
370.069	316.53
370.45	298.68
370.831	305.91
371.212	291.22
371.593	302.07
371.974	316.53
372.355	291.9
372.736	289.87
373.117	305.01
373.498	308.4
373.879	309.98
374.26	313.14
374.641	321.95
375.021	322.18
375.402	315.85
375.783	318.79
376.163	318.34
376.544	331.67
376.925	324.21
377.305	307.94
377.686	313.37
378.066	300.49
378.447	342.07
378.827	305.91
379.208	317.66
379.588	334.84
379.968	329.64
380.349	317.44
380.729	308.4
381.109	322.63
381.489	315.18
381.87	316.98
382.25	318.34
382.63	328.06
383.01	342.52
383.39	338.45
383.77	338
384.15	298.23
384.53	338.23
384.91	329.41
385.29	356.98
385.67	339.81
386.049	337.32
386.429	330.99
386.809	350.88
387.189	348.62
387.568	342.07
387.948	338.9
388.328	345.46
388.707	356.3
389.087	344.1
389.466	343.2
389.846	361.5
390.225	356.98
390.605	378.9
390.984	343.2
391.363	375.29
391.743	362.18
392.122	357.89
392.501	374.61
392.881	363.08
393.26	376.42
393.639	376.42
394.018	363.99
394.397	372.12
394.776	368.51
395.155	364.44
395.534	365.57
395.913	388.85
396.292	385.23
396.671	394.95
397.05	375.74
397.429	400.14
397.808	376.42
398.186	403.76
398.565	383.42
398.944	396.76
399.323	386.59
399.701	414.16
400.08	391.33
400.458	382.07
400.837	429.07
401.215	403.08
401.594	414.83
401.972	392.24
402.351	378.68
402.729	423.2
403.107	406.47
403.486	408.05
403.864	415.06
404.242	397.66
404.62	423.87
404.999	429.3
405.377	413.93
405.755	405.79
406.133	425.23
406.511	454.15
406.889	452.8
407.267	441.95
407.645	441.05
408.023	437.88
408.401	439.69
408.779	431.1
409.156	440.14
409.534	455.51
409.912	437.21
410.29	475.17
410.667	458.22
411.045	466.58
411.422	493.7
411.8	450.99
412.178	479.46
412.555	505.9
412.933	472.69
413.31	499.58
413.687	478.56
414.065	494.83
414.442	490.76
414.819	493.02
415.197	511.1
415.574	499.35
415.951	507.49
416.328	516.07
416.705	495.28
417.082	518.79
417.46	529.18
417.837	540.48
418.214	542.06
418.591	535.73
418.967	508.39
419.344	550.88
419.721	530.99
420.098	544.1
420.475	543.87
420.852	550.42
421.228	581.16
421.605	552.91
421.982	590.42
422.358	551.33
422.735	570.99
423.111	573.93
423.488	594.72
423.864	564.89
424.241	600.59
424.617	564.43
424.994	611.44
425.37	593.36
425.746	609.18
426.123	609.63
426.499	618.44
426.875	605.34
427.251	603.76
427.627	631.55
428.003	649.18
428.379	620.48
428.756	649.63
429.132	654.38
429.507	636.3
429.883	671.1
430.259	664.54
430.635	670.19
431.011	667.48
431.387	685.79
431.763	692.34
432.138	683.53
432.514	702.74
432.89	709.52
433.265	723.53
433.641	739.34
434.016	736.63
434.392	739.34
434.767	755.39
435.143	759.01
435.518	760.14
435.894	761.49
436.269	756.52
436.644	790.87
437.02	810.76
437.395	789.74
437.77	815.28
438.145	821.83
438.52	852.11
438.895	796.74
439.271	857.31
439.646	847.82
440.021	831.09
440.395	870.64
440.77	844.88
441.145	901.15
441.52	896.85
441.895	891.21
442.27	894.82
442.645	911.09
443.019	885.56
443.394	911.77
443.769	907.93
444.143	889.17
444.518	945.22
444.892	934.59
445.267	919.68
445.641	957.42
446.016	938.66
446.39	955.61
446.764	932.79
447.139	946.8
447.513	1005.33
447.887	972.33
448.262	973.01
448.636	982.28
449.01	1038.32
449.384	1009.17
449.758	1041.26
450.132	1060.92
450.506	1067.92
450.88	1078.09
451.254	1064.08
451.628	1081.26
452.002	1097.3
452.376	1093.23
452.75	1077.42
453.123	1095.49
453.497	1137.75
453.871	1111.31
454.244	1116.74
454.618	1154.02
454.992	1154.02
455.365	1149.28
455.739	1183.18
456.112	1205.1
456.486	1188.6
456.859	1206.23
457.232	1211.65
457.606	1212.55
457.979	1202.38
458.352	1258.2
458.725	1264.98
459.099	1252.1
459.472	1278.54
459.845	1295.04
460.218	1317.18
460.591	1295.49
460.964	1305.43
461.337	1338.2
461.71	1353.79
462.083	1387.92
462.456	1359.89
462.829	1381.59
463.201	1386.79
463.574	1375.71
463.947	1395.82
464.32	1434.02
464.692	1428.59
465.065	1436.73
465.438	1497.97
465.81	1493.68
466.183	1480.34
466.555	1497.74
466.928	1495.94
467.3	1555.59
467.672	1540.68
468.045	1598.31
468.417	1575.48
468.789	1575.26
469.161	1573.67
469.534	1616.38
469.906	1669.04
470.278	1648.02
470.65	1669.04
471.022	1726.21
471.394	1749.26
471.766	1772.99
472.138	1772.31
472.51	1799.88
472.882	1820.9
473.253	1836.49
473.625	1865.87
473.997	1865.19
474.369	1899.77
474.74	1930.05
475.112	1949.71
475.484	1970.73
475.855	2018.41
476.227	2053.43
476.598	2098.41
476.97	2094.11
477.341	2083.72
477.713	2169.59
478.084	2149.25
478.455	2252.3
478.827	2253.2
479.198	2259.53
479.569	2271.51
479.94	2346.08
480.311	2361
480.682	2407.55
481.053	2461.79
481.424	2508.79
481.795	2523.25
482.166	2531.84
482.537	2565.29
482.908	2636.7
483.279	2611.39
483.65	2701.33
484.021	2758.5
484.391	2767.09
484.762	2816.35
485.133	2852.51
485.503	2894.77
485.874	2941.55
486.244	2976.57
486.615	2980.64
486.985	3051.6
487.356	3112.62
487.726	3148.1
488.097	3167.98
488.467	3181.54
488.837	3302.44
489.207	3296.11
489.578	3322.78
489.948	3333.18
490.318	3405.49
490.688	3459.27
491.058	3477.35
491.428	3517.13
491.798	3540.63
492.168	3595.99
492.538	3649.78
492.908	3686.84
493.278	3725.03
493.648	3718.02
494.017	3775.2
494.387	3817
494.757	3830.79
495.126	3900.62
495.496	3903.56
495.866	3947.17
496.235	3958.47
496.605	3946.27
496.974	3987.4
497.344	4063.78
497.713	4087.28
498.082	4141.74
498.452	4169.31
498.821	4188.75
499.19	4224.9
499.559	4254.28
499.928	4274.62
500.298	4286.14
500.667	4371.57
501.036	4397.78
501.405	4406.82
501.774	4451.79
502.143	4508.06
502.512	4548.74
502.88	4573.14
503.249	4547.38
503.618	4575.85
503.987	4641.39
504.356	4666.02
504.724	4662.63
505.093	4682.74
505.462	4716.19
505.83	4785.34
506.199	4797.77
506.567	4854.27
506.936	4818.56
507.304	4892.46
507.672	4926.35
508.041	4996.86
508.409	4998.44
508.777	5070.76
509.145	5092
509.514	5074.15
509.882	5155.27
510.25	5155.95
510.618	5202.96
510.986	5285.44
511.354	5277.08
511.722	5322.73
512.09	5332.22
512.458	5413.8
512.826	5389.62
513.193	5482.5
513.561	5442.05
513.929	5566.56
514.297	5560.24
514.664	5599.56
515.032	5642.94
515.4	5691.31
515.767	5787.12
516.135	5798.87
516.502	5770.4
516.869	5831.87
517.237	5866.22
517.604	5872.54
517.972	5994.35
518.339	5976.04
518.706	5978.53
519.073	6049.04
519.44	6052.2
519.808	6189.6
520.175	6146.89
520.542	6221.46
520.909	6274.11
521.276	6319.09
521.643	6383.72
522.009	6371.51
522.376	6438.63
522.743	6530.61
523.11	6548.46
523.477	6623.03
523.843	6662.35
524.21	6786.64
524.577	6792.52
524.943	6780.32
525.31	6892.86
525.676	6961.1
526.043	6990.71
526.409	6995.45
526.776	7045.85
527.142	7100.76
527.508	7155.67
527.874	7181.21
528.241	7297.14
528.607	7358.61
528.973	7361.54
529.339	7342.56
529.705	7414.88
530.071	7497.36
530.437	7508.66
530.803	7561.76
531.169	7687.18
531.535	7656.23
531.901	7656.9
532.267	7748.88
532.632	7797.69
532.998	7733.06
533.364	7818.93
533.73	7896.67
534.095	7896.9
534.461	7975.31
534.826	8018.93
535.192	8032.03
535.557	8068.64
535.923	8122.43
536.288	8161.75
536.653	8163.78
537.019	8154.74
537.384	8290.11
537.749	8290.11
538.114	8352.93
538.479	8317.68
538.845	8422.76
539.21	8370.33
539.575	8432.02
539.94	8381.86
540.305	8402.65
540.67	8452.59
541.034	8503.89
541.399	8532.59
541.764	8591.79
542.129	8602.87
542.494	8651.45
542.858	8707.72
543.223	8716.54
543.587	8728.97
543.952	8747.27
544.316	8748.63
544.681	8786.82
545.045	8855.06
545.41	8834.05
545.774	8883.09
546.138	8946.36
546.503	8952.46
546.867	8930.99
547.231	8997.43
547.595	9107.03
547.959	9071.1
548.324	9103.19
548.688	9116.75
549.052	9118.79
549.416	9204.89
549.779	9237.65
550.143	9281.04
550.507	9345.22
550.871	9381.15
551.235	9285.79
551.599	9472.9
551.962	9468.38
552.326	9422.05
552.689	9500.24
553.053	9541.6
553.417	9502.96
553.78	9648.94
554.143	9606.91
554.507	9737.98
554.87	9711.31
555.234	9828.82
555.597	9789.5
555.96	9836.05
556.323	9836.05
556.686	9874.7
557.05	10005.32
557.413	10007.8
557.776	10010.29
558.139	10112.21
558.502	10158.98
558.865	10074.01
559.228	10184.29
559.59	10167.12
559.953	10268.59
560.316	10400.33
560.679	10399.88
561.041	10406.89
561.404	10430.84
561.767	10535.25
562.129	10486.21
562.492	10658.18
562.854	10626.99
563.217	10565.08
563.579	10679.42
563.941	10768.91
564.304	10792.87
564.666	10844.16
565.028	10816.59
565.39	10937.49
565.753	10952.41
566.115	11036.25
566.477	11126.64
566.839	11136.81
567.201	11280.76
567.563	11212.74
567.925	11283.93
568.287	11288.22
568.648	11360.08
569.01	11382.23
569.372	11438.5
569.734	11411.83
570.095	11529.34
570.457	11599.62
570.819	11555.33
571.18	11598.49
571.542	11673.29
571.903	11700.86
572.265	11705.84
572.626	11755.78
572.987	11731.82
573.349	11769.11
573.71	11920.75
574.071	11895.66
574.432	11941.54
574.794	12008.2
575.155	11933.17
575.516	11973.17
575.877	12069.44
576.238	12064.02
576.599	12188.08
576.96	12119.16
577.32	12101.98
577.681	12183.79
578.042	12244.81
578.403	12190.57
578.763	12158.48
579.124	12240.51
579.485	12287.97
579.845	12292.94
580.206	12275.09
580.566	12360.96
580.927	12368.64
581.287	12468.75
581.648	12402.32
582.008	12439.6
582.368	12427.85
582.728	12404.35
583.089	12398.7
583.449	12332.26
583.809	12398.02
584.169	12409.32
584.529	12398.02
584.889	12566.83
585.249	12432.14
585.609	12436.89
585.969	12513.05
586.329	12506.72
586.688	12522.99
587.048	12451.35
587.408	12442.31
587.768	12502.88
588.127	12467.62
588.487	12472.6
588.846	12534.52
589.206	12379.49
589.565	12363.22
589.925	12430.34
590.284	12487.06
590.643	12541.29
591.003	12586.04
591.362	12586.04
591.721	12584.46
592.08	12589.65
592.44	12555.31
592.799	12592.37
593.158	12611.8
593.517	12551.01
593.876	12621.52
594.235	12571.35
594.593	12562.99
594.952	12542.65
595.311	12549.88
595.67	12664.68
596.029	12780.61
596.387	12739.48
596.746	12743.55
597.104	12673.04
597.463	12629.2
597.822	12718.01
598.18	12626.94
598.538	12629.2
598.897	12674.17
599.255	12652.7
599.613	12774.06
599.972	12697.45
600.33	12778.8
600.688	12680.05
601.046	12769.31
601.404	12872.59
601.762	12831.46
602.12	12849.08
602.478	12831.46
602.836	12863.09
603.194	12797.56
603.552	12782.42
603.91	12712.14
604.268	12834.62
604.625	12790.78
604.983	12776.54
605.341	12814.51
605.698	12870.33
606.056	12948.74
606.413	12955.52
606.771	12959.14
607.128	12972.24
607.485	12908.29
607.843	12928.18
608.2	12979.02
608.557	13090.66
608.914	12939.25
609.272	12980.61
609.629	13023.32
609.986	13084.11
610.343	12993.49
610.7	13064.44
611.057	13070.32
611.414	13035.74
611.771	13078
612.127	13148.06
612.484	13180.37
612.841	13171.33
613.198	13137.44
613.554	13070.32
613.911	13260.6
614.267	13174.72
614.624	13200.71
614.98	13231.67
615.337	13235.97
615.693	13296.53
616.05	13252.46
616.406	13286.59
616.762	13282.52
617.118	13296.98
617.475	13294.04
617.831	13391.89
618.187	13296.08
618.543	13358.67
618.899	13377.43
619.255	13381.05
619.611	13351.44
619.967	13445.9
620.323	13397.09
620.678	13321.39
621.034	13353.93
621.39	13361.16
621.746	13419.46
622.101	13556.86
622.457	13403.64
622.812	13385.34
623.168	13441.61
623.523	13442.74
623.879	13527.26
624.234	13296.3
624.589	13392.57
624.945	13472.8
625.3	13454.26
625.655	13379.46
626.01	13383.08
626.365	13418.79
626.72	13322.52
627.075	13423.31
627.43	13350.09
627.785	13310.99
628.14	13412.23
628.495	13376.53
628.85	13359.35
629.205	13278.45
629.559	13428.28
629.914	13279.58
630.269	13337.43
630.623	13337.66
630.978	13291.78
631.332	13423.08
631.687	13310.31
632.041	13215.18
632.396	13367.71
632.75	13158.23
633.104	13252.24
633.459	13168.85
633.813	13260.37
634.167	13153.26
634.521	13208.17
634.875	13221.28
635.229	13160.71
635.583	13126.59
635.937	13126.14
636.291	13047.95
636.645	13105.12
636.999	13040.04
637.352	13038.91
637.706	13033.03
638.06	13059.7
638.413	13006.82
638.767	13041.85
639.121	12977.44
639.474	12906.93
639.828	12976.99
640.181	12954.39
640.534	12924.56
640.888	12940.61
641.241	12882.3
641.594	12903.54
641.947	12874.62
642.301	12850.66
642.654	12901.06
643.007	12906.48
643.36	12886.6
643.713	12739.71
644.066	12760.05
644.419	12723.44
644.771	12700.84
645.124	12593.95
645.477	12621.74
645.83	12442.77
646.182	12422.65
646.535	12378.13
646.888	12359.38
647.24	12348.53
647.593	12346.5
647.945	12356.21
648.298	12273.96
648.65	12284.58
649.002	12193.73
649.355	12223.11
649.707	12327.74
650.059	12310.57
650.411	12410.68
650.763	12422.88
651.115	12562.54
651.467	12490.9
651.819	12539.71
652.171	12484.12
652.523	12434.4
652.875	12384.01
653.227	12374.75
653.578	12484.57
653.93	12455.65
654.282	12312.83
654.633	12293.62
654.985	12378.81
655.337	12353.95
655.688	12366.16
656.039	12381.07
656.391	12279.38
656.742	12318.93
657.094	12271.47
657.445	12320.74
657.796	12289.1
658.147	12315.99
658.498	12219.04
658.849	12291.81
659.2	12285.48
659.551	12256.1
659.902	12311.24
660.253	12158.71
660.604	12286.39
660.955	12177.24
661.306	12314.18
661.656	12221.3
662.007	12214.75
662.358	12185.6
662.708	12161.87
663.059	12142.89
663.409	12160.29
663.76	12180.4
664.11	12240.51
664.461	12219.04
664.811	12173.85
665.161	12085.71
665.511	12113.51
665.862	12059.5
666.212	12195.31
666.562	12099.05
666.912	12102.44
667.262	12090.91
667.612	12071.02
667.962	12218.59
668.312	12106.73
668.662	12171.13
669.011	12159.16
669.361	12021.31
669.711	12126.16
670.06	12067.63
670.41	12051.82
670.76	12033.51
671.109	12044.81
671.459	11981.08
671.808	12002.33
672.157	11998.71
672.507	11938.37
672.856	11990.35
673.205	12029.67
673.554	12005.94
673.904	11995.32
674.253	12082.32
674.602	12038.93
674.951	11885.72
675.3	11793.07
675.649	12015.88
675.998	11974.76
676.346	11995.32
676.695	11941.08
677.044	11797.59
677.393	11973.63
677.741	11857.02
678.09	11743.58
678.438	11859.96
678.787	11847.98
679.135	11826.74
679.484	11806.62
679.832	11893.4
680.181	11799.17
680.529	11813.63
680.877	11779.28
681.225	11719.62
681.573	11851.82
681.922	11748.1
682.27	11745.16
682.618	11781.09
682.966	11638.04
683.314	11633.07
683.661	11584.71
684.009	11588.1
684.357	11464.71
684.705	11596.91
685.053	11538.16
685.4	11501.55
685.748	11467.42
686.095	11419.06
686.443	11406.18
686.79	11394.88
687.138	11436.92
687.485	11381.55
687.832	11351.04
688.18	11392.4
688.527	11316.02
688.874	11402.57
689.221	11309.69
689.568	11315.34
689.915	11184.49
690.262	11241.44
690.609	11211.16
690.956	11069.92
691.303	11133.87
691.65	11061.56
691.997	11092.29
692.344	10962.35
692.69	10990.6
693.037	11020.88
693.383	10958.96
693.73	10989.24
694.077	10942.01
694.423	10871.28
694.769	10873.54
695.116	10878.97
695.462	10829.02
695.808	10866.31
696.155	10801.91
696.501	10728.69
696.847	10726.43
697.193	10640.33
697.539	10683.72
697.885	10625.19
698.231	10501.57
698.577	10545.41
698.923	10537.96
699.269	10476.49
699.614	10400.79
699.96	10427
700.306	10372.54
700.651	10405.98
700.997	10318.08
701.342	10411.41
701.688	10342.93
702.033	10313.33
702.379	10288.47
702.724	10305.87
703.069	10255.25
703.415	10191.75
703.76	10195.14
704.105	10164.18
704.45	10105.2
704.795	10072.66
705.14	10103.84
705.485	10064.3
705.83	9983.4
706.175	10004.64
706.52	9933.68
706.865	10003.51
707.209	9943.17
707.554	9922.15
707.899	9936.84
708.243	9900.01
708.588	9896.62
708.932	9875.83
709.277	9882.38
709.621	9854.81
709.966	9737.53
710.31	9772.33
710.654	9693.46
710.998	9728.49
711.342	9642.16
711.687	9634.25
712.031	9601.26
712.375	9538.66
712.719	9539.34
713.063	9437.65
713.407	9537.08
713.75	9537.98
714.094	9457.31
714.438	9396.07
714.782	9471.32
715.125	9460.25
715.469	9472
715.812	9410.98
716.156	9379.34
716.499	9423.86
716.843	9413.92
717.186	9315.62
717.53	9353.36
717.873	9440.81
718.216	9355.62
718.559	9262.51
718.902	9196.52
719.246	9190.2
719.589	9197.65
719.932	9172.57
720.275	9218.22
720.617	9142.74
720.96	9148.39
721.303	9131.44
721.646	9102.74
721.989	9030.2
722.331	9102.29
722.674	9130.31
723.016	9127.37
723.359	9092.35
723.701	9102.51
724.044	9086.47
724.386	8979.35
724.729	9008.05
725.071	8944.33
725.413	8960.82
725.755	8988.39
726.097	8918.56
726.439	8906.14
726.782	8867.94
727.124	8850.54
727.465	8824.56
727.807	8789.75
728.149	8745.69
728.491	8728.97
728.833	8785.69
729.175	8779.59
729.516	8762.41
729.858	8694.62
730.199	8745.46
730.541	8791.56
730.882	8758.57
731.224	8748.85
731.565	8690.55
731.906	8717.44
732.248	8752.69
732.589	8711.79
732.93	8650.55
733.271	8700.04
733.612	8684.45
733.953	8660.94
734.294	8587.5
734.635	8573.04
734.976	8644.9
735.317	8548.86
735.658	8541.17
735.999	8541.4
736.339	8509.08
736.68	8489.65
737.021	8501.4
737.361	8456.88
737.702	8476.32
738.042	8494.85
738.383	8431.57
738.723	8493.49
739.063	8456.43
739.404	8476.99
739.744	8419.82
740.084	8397.9
740.424	8454.85
740.764	8377.34
741.104	8469.09
741.444	8400.16
741.784	8377.56
742.124	8363.78
742.464	8338.02
742.804	8284.23
743.143	8263.44
743.483	8272.71
743.823	8181.41
744.162	8217.11
744.502	8220.05
744.841	8190.22
745.181	8227.28
745.52	8229.09
745.86	8181.41
746.199	8193.16
746.538	8192.26
746.877	8158.13
747.216	8192.71
747.556	8187.51
747.895	8109.55
748.234	8148.42
748.573	8107.51
748.911	8078.81
749.25	8153.16
749.589	8106.38
749.928	8065.93
750.267	8103.45
750.605	8066.16
750.944	8052.82
751.283	7930.34
751.621	7994.52
751.96	7931.7
752.298	7970.12
752.636	7924.47
752.975	7845.6
753.313	7820.51
753.651	7890.12
753.989	7847.63
754.327	7831.81
754.666	7764.7
755.004	7850.8
755.342	7820.51
755.679	7806.28
756.017	7769.67
756.355	7790.01
756.693	7682.67
757.031	7778.03
757.368	7731.93
757.706	7725.83
758.044	7711.37
758.381	7643.12
758.719	7676.56
759.056	7627.98
759.394	7612.38
759.731	7546.4
760.068	7516.57
760.405	7473.86
760.743	7448.32
761.08	7497.59
761.417	7394.76
761.754	7380.98
762.091	7416.01
762.428	7416.23
762.765	7282.9
763.102	7354.31
763.438	7297.59
763.775	7331.49
764.112	7317.03
764.449	7297.59
764.785	7270.02
765.122	7251.04
765.458	7200.42
765.795	7227.08
766.131	7122
766.467	7109.12
766.804	7138.27
767.14	7108.9
767.476	7140.31
767.812	7025.96
768.148	7056.02
768.485	7014.43
768.821	6963.36
769.157	6975.11
769.492	6950.03
769.828	6927.43
770.164	6806.98
770.5	6807.21
770.836	6871.39
771.171	6833.42
771.507	6795.91
771.842	6778.96
772.178	6796.59
772.513	6748.23
772.849	6701.67
773.184	6666.87
773.519	6702.35
773.855	6704.39
774.19	6660.32
774.525	6634.78
774.86	6631.17
775.195	6637.72
775.53	6585.97
775.865	6545.07
776.2	6496.26
776.535	6433.66
776.87	6450.16
777.205	6434.79
777.539	6420.55
777.874	6407.44
778.209	6333.77
778.543	6331.29
778.878	6298.07
779.212	6313.66
779.547	6276.6
779.881	6222.82
780.215	6224.85
780.55	6287.22
780.884	6164.51
781.218	6198.18
781.552	6163.61
781.886	6169.03
782.22	6082.48
782.554	6080.22
782.888	6094.68
783.222	6002.71
783.556	5995.7
783.889	6037.28
784.223	5969.94
784.557	6018.3
784.89	6001.58
785.224	5891.07
785.557	5888.81
785.891	5896.05
786.224	5919.32
786.558	5905.54
786.891	5839.78
787.224	5772.21
787.557	5848.59
787.891	5794.35
788.224	5734.92
788.557	5763.39
788.89	5798.42
789.223	5725.43
789.556	5671.19
789.888	5647.46
790.221	5562.49
790.554	5658.31
790.887	5573.57
791.219	5580.8
791.552	5566.56
791.884	5539.22
792.217	5489.5
792.549	5534.02
792.882	5442.72
793.214	5472.55
793.546	5484.76
793.879	5438.88
794.211	5407.02
794.543	5428.71
794.875	5419.9
795.207	5430.52
795.539	5358.21
795.871	5419.67
796.203	5323.18
796.535	5306
796.867	5301.94
797.198	5289.73
797.53	5268.72
797.862	5233.46
798.193	5200.47
798.525	5209.06
798.856	5256.29
799.188	5193.47
799.519	5132.45
799.85	5150.53
800.182	5111.43
800.513	5105.56
800.844	5064.65
801.175	5101.49
801.506	5135.16
801.837	5041.6
802.168	4999.12
802.499	5037.99
802.83	4994.6
803.161	5023.3
803.491	5005.67
803.822	4987.59
804.153	4967.26
804.483	4978.78
804.814	4963.19
805.145	4934.26
805.475	4908.5
805.805	4934.94
806.136	4965.9
806.466	4877.32
806.796	4875.96
807.126	4858.56
807.457	4898.56
807.787	4814.49
808.117	4828.28
808.447	4761.84
808.777	4795.06
809.107	4756.41
809.436	4809.52
809.766	4745.12
810.096	4705.79
810.426	4703.31
810.755	4732.23
811.085	4693.37
811.414	4692.24
811.744	4658.11
812.073	4642.52
812.403	4638.9
812.732	4643.65
813.061	4619.24
813.39	4644.78
813.719	4568.85
814.049	4620.6
814.378	4618.79
814.707	4597.77
815.036	4588.28
815.365	4571.11
815.693	4565.01
816.022	4555.74
816.351	4480.72
816.68	4487.72
817.008	4516.65
817.337	4459.02
817.665	4503.77
817.994	4470.09
818.322	4453.82
818.651	4413.15
818.979	4374.05
819.307	4462.41
819.636	4380.38
819.964	4362.3
820.292	4409.53
820.62	4407.95
820.948	4402.3
821.276	4424.67
821.604	4333.15
821.932	4393.03
822.259	4401.4
822.587	4366.14
822.915	4373.83
823.243	4433.71
823.57	4388.97
823.898	4357.33
824.225	4353.94
824.553	4359.14
824.88	4395.07
825.207	4393.03
825.535	4346.26
825.862	4374.28
826.189	4347.16
826.516	4433.71
826.843	4428.97
827.17	4380.38
827.497	4390.32
827.824	4381.74
828.151	4401.4
828.478	4374.73
828.805	4405.92
829.131	4353.04
829.458	4346.71
829.785	4356.88
830.111	4329.99
830.438	4388.29
830.764	4358.46
831.09	4334.5
831.417	4330.44
831.743	4346.93
832.069	4352.58
832.395	4340.83
832.722	4362.07
833.048	4332.47
833.374	4352.58
833.7	4350.78
834.026	4343.32
834.351	4353.94
834.677	4332.47
835.003	4385.12
835.329	4373.37
835.654	4371.11
835.98	4364.79
836.306	4367.72
836.631	4335.63
836.956	4261.29
837.282	4327.5
837.607	4287.73
837.932	4278.46
838.258	4306.71
838.583	4231.68
838.908	4152.81
839.233	4249.76
839.558	4208.18
839.883	4221.97
840.208	4188.07
840.533	4218.58
840.858	4143.55
841.182	4194.62
841.507	4162.98
841.832	4193.94
842.156	4141.06
842.481	4178.35
842.805	4131.12
843.13	4168.41
843.454	4138.8
843.778	4169.54
844.103	4171.57
844.427	4142.19
844.751	4137.22
845.075	4125.02
845.399	4113.27
845.723	4073.04
846.047	4074.4
846.371	4044.12
846.695	4131.35
847.019	4012.03
847.343	3960.28
847.666	3990.33
847.99	3989.65
848.313	3931.8
848.637	3946.94
848.96	3883.44
849.284	3943.55
849.607	3856.55
849.931	3862.88
850.254	3833.27
850.577	3892.48
850.9	3819.49
851.223	3804.12
851.546	3812.48
851.869	3810.68
852.192	3829.89
852.515	3753.05
852.838	3762.54
853.161	3742.2
853.483	3727.29
853.806	3722.77
854.129	3753.05
854.451	3733.39
854.774	3744.92
855.096	3738.81
855.419	3670.79
855.741	3695.65
856.063	3673.51
856.385	3650
856.708	3629.66
857.03	3613.17
857.352	3628.31
857.674	3608.2
857.996	3552.83
858.318	3544.47
858.64	3588.99
858.961	3544.47
859.283	3534.3
859.605	3506.96
859.926	3526.84
860.248	3499.5
860.57	3476.9
860.891	3507.63
861.212	3490.46
861.534	3454.98
861.855	3475.54
862.176	3482.55
862.498	3465.37
862.819	3527.52
863.14	3450.46
863.461	3497.24
863.782	3443.91
864.103	3465.37
864.424	3469.67
864.745	3498.82
865.065	3464.02
865.386	3485.26
865.707	3461.31
866.027	3482.1
866.348	3455.88
866.668	3458.14
866.989	3415.43
867.309	3382.44
867.63	3392.16
867.95	3417.01
868.27	3379.28
868.59	3386.73
868.91	3327.75
869.23	3388.09
869.55	3299.73
869.87	3317.36
870.19	3321.42
870.51	3333.85
870.83	3303.8
871.15	3301.54
871.469	3310.58
871.789	3319.84
872.109	3297.47
872.428	3294.98
872.748	3311.03
873.067	3349.45
873.386	3301.99
873.706	3295.66
874.025	3307.19
874.344	3318.49
874.663	3311.93
874.982	3276
875.301	3311.48
875.62	3334.08
875.939	3285.04
876.258	3259.28
876.577	3292.27
876.896	3250.01
877.214	3264.7
877.533	3266.96
877.852	3268.09
878.17	3255.44
878.489	3266.06
878.807	3260.63
879.125	3244.14
879.444	3224.93
879.762	3218.15
880.08	3191.26
880.398	3198.72
880.716	3160.07
881.034	3130.47
881.352	3155.33
881.67	3166.4
881.988	3142.45
882.306	3126.85
882.624	3114.88
882.941	3142.9
883.259	3124.14
883.577	3094.76
883.894	3125.5
884.212	3157.36
884.529	3140.64
884.846	3110.36
885.164	3099.28
885.481	3110.81
885.798	3119.17
886.115	3114.42
886.432	3086.4
886.75	3100.86
887.067	3106.74
887.383	3060.19
887.7	3083.01
888.017	3064.48
888.334	3064.71
888.651	3028.55
888.967	3035.56
889.284	3001.43
889.6	3057.93
889.917	2999.62
890.233	3005.05
890.55	3014.77
890.866	3025.16
891.182	2992.62
891.498	2969.57
891.815	2973.64
892.131	2929.8
892.447	2932.73
892.763	2928.89
893.079	2919.4
893.395	2901.1
893.71	2887.31
894.026	2912.85
894.342	2847.31
894.657	2887.31
894.973	2906.29
895.289	2885.73
895.604	2880.08
895.92	2868.55
896.235	2861.78
896.55	2826.52
896.865	2835.34
897.181	2831.95
897.496	2857.03
897.811	2827.65
898.126	2810.02
898.441	2791.72
898.756	2798.5
899.071	2803.92
899.386	2787.88
899.7	2760.08
900.015	2803.92
900.33	2710.82
900.644	2728.45
900.959	2726.41
901.273	2695
901.588	2736.13
901.902	2711.5
902.216	2749.69
902.531	2683.25
902.845	2680.76
903.159	2676.02
903.473	2638.73
903.787	2645.96
904.101	2594.21
904.415	2617.94
904.729	2601.44
905.042	2570.03
905.356	2558.28
905.67	2615.68
905.984	2546.08
906.297	2556.47
906.611	2545.4
906.924	2577.94
907.237	2553.76
907.551	2523.7
907.864	2535.23
908.177	2539.52
908.491	2553.08
908.804	2501.56
909.117	2488.9
909.43	2553.08
909.743	2497.04
910.056	2486.64
910.368	2488.68
910.681	2473.99
910.994	2495.23
911.307	2477.6
911.619	2471.95
911.932	2462.46
912.244	2417.94
912.557	2424.95
912.869	2406.65
913.181	2410.71
913.494	2433.09
913.806	2381.11
914.118	2363.26
914.43	2336.59
914.742	2369.81
915.054	2324.16
915.366	2309.93
915.678	2319.19
915.99	2330.72
916.302	2335.69
916.613	2271.96
916.925	2304.05
917.236	2280.32
917.548	2273.32
917.859	2252.98
918.171	2271.28
918.482	2264.05
918.794	2267.67
919.105	2229.48
919.416	2186.09
919.727	2215.69
920.038	2222.24
920.349	2204.62
920.66	2199.87
920.971	2218.18
921.282	2187.22
921.593	2187.89
921.903	2152.87
922.214	2160.32
922.525	2138.63
922.835	2148.8
923.146	2165.3
923.456	2156.93
923.767	2105.64
924.077	2128.46
924.387	2123.26
924.697	2120.1
925.008	2120.1
925.318	2075.58
925.628	2106.77
925.938	2062.93
926.248	2080.55
926.558	2046.88
926.867	2083.04
927.177	2049.59
927.487	2031.97
927.796	1991.29
928.106	2013.66
928.416	1988.8
928.725	1983.83
929.034	1979.31
929.344	2014.79
929.653	2000.78
929.962	1947.9
930.271	1937.28
930.581	1949.48
930.89	1921.91
931.199	1955.81
931.508	1951.97
931.817	1916.49
932.125	1916.49
932.434	1892.08
932.743	1899.31
933.051	1910.84
933.36	1896.15
933.669	1904.74
933.977	1860.9
934.286	1862.48
934.594	1879.65
934.902	1853.21
935.21	1837.4
935.519	1841.91
935.827	1893.21
936.135	1849.6
936.443	1848.24
936.751	1811.18
937.059	1839.2
937.367	1833.33
937.674	1776.83
937.982	1802.37
938.29	1789.49
938.597	1783.39
938.905	1809.6
939.213	1760.56
939.52	1784.29
939.827	1773.22
940.135	1745.87
940.442	1719.66
940.749	1745.65
941.056	1741.58
941.363	1739.77
941.67	1731.86
941.977	1711.3
942.284	1707.68
942.591	1728.02
942.898	1697.06
943.205	1688.02
943.511	1684.63
943.818	1664.97
944.125	1660.45
944.431	1663.61
944.738	1640.34
945.044	1651.86
945.35	1648.02
945.657	1658.64
945.963	1664.52
946.269	1643.73
946.575	1612.77
946.881	1615.48
947.187	1608.02
947.493	1593.56
947.799	1612.32
948.105	1614.12
948.41	1579.32
948.716	1568.25
949.022	1562.37
949.327	1589.27
949.633	1534.58
949.938	1570.74
950.244	1582.71
950.549	1543.84
950.854	1552.43
951.16	1552.2
951.465	1574.8
951.77	1539.78
952.075	1521.47
952.38	1526.89
952.685	1522.15
952.99	1527.35
953.294	1511.98
953.599	1522.38
953.904	1493.68
954.209	1477.18
954.513	1493.68
954.818	1433.34
955.122	1469.04
955.426	1464.98
955.731	1464.52
956.035	1446.22
956.339	1454.58
956.643	1455.03
956.948	1455.48
957.252	1417.07
957.556	1438.76
957.86	1436.95
958.163	1422.49
958.467	1414.58
958.771	1420.91
959.075	1419.55
959.378	1420.46
959.682	1378.42
959.985	1405.09
960.289	1381.81
960.592	1374.13
960.896	1364.87
961.199	1350.63
961.502	1368.25
961.805	1338.2
962.108	1361.48
962.411	1368.48
962.714	1341.59
963.017	1368.93
963.32	1353.57
963.623	1365.54
963.926	1350.85
964.228	1317.86
964.531	1305.66
964.833	1337.75
965.136	1310.4
965.438	1309.5
965.741	1304.08
966.043	1288.03
966.345	1286.22
966.648	1313.79
966.95	1304.98
967.252	1283.29
967.554	1270.86
967.856	1246.45
968.158	1265.43
968.46	1217.98
968.761	1274.47
969.063	1267.92
969.365	1241.7
969.666	1268.37
969.968	1229.73
970.269	1225.66
970.571	1226.56
970.872	1218.88
971.174	1222.27
971.475	1195.83
971.776	1183.4
972.077	1210.07
972.378	1235.38
972.679	1213.68
972.98	1186.11
973.281	1235.83
973.582	1188.37
973.883	1155.38
974.183	1185.89
974.484	1172.1
974.785	1177.53
975.085	1153.8
975.386	1137.53
975.686	1153.57
975.986	1158.54
976.287	1179.33
976.587	1146.34
976.887	1144.08
977.187	1162.16
977.487	1124.87
977.787	1094.36
978.087	1115.83
978.387	1097.98
978.687	1127.13
978.987	1118.77
979.286	1105.44
979.586	1106.79
979.885	1108.6
980.185	1069.73
980.484	1117.64
980.784	1109.28
981.083	1107.7
981.382	1104.53
981.682	1090.07
981.981	1083.52
982.28	1071.54
982.579	1065.89
982.878	1052.78
983.177	1067.02
983.475	1075.16
983.774	1062.5
984.073	1068.15
984.372	1063.4
984.67	1036.51
984.969	1046.91
985.267	1033.35
985.566	1041.48
985.864	1024.31
986.162	1036.74
986.461	1014.37
986.759	1004.65
987.057	1014.14
987.355	984.08
987.653	998.32
987.951	1020.92
988.249	1020.24
988.547	1006.23
988.844	1013.24
989.142	1016.17
989.44	982.95
989.737	997.42
990.035	978.21
990.332	983.63
990.63	974.14
990.927	992.9
991.224	954.25
991.521	968.94
991.819	948.38
992.116	955.84
992.413	963.97
992.71	958.32
993.006	958.55
993.303	942.5
993.6	914.26
993.897	939.11
994.193	937.76
994.49	940.02
994.787	921.94
995.083	949.73
995.379	931.88
995.676	920.13
995.972	918.1
996.268	908.83
996.565	910.19
996.861	918.55
997.157	900.92
997.453	885.56
997.749	884.88
998.044	886.46
998.34	870.64
998.636	889.17
998.932	878.55
999.227	875.39
999.523	858.21
999.818	871.54
1000.114	832.22
1000.409	873.58
1000.704	882.39
1001	881.71
1001.295	855.05
1001.59	853.92
1001.885	865.44
1002.18	821.15
1002.475	837.87
1002.77	819.34
1003.065	830.64
1003.359	846.01
1003.654	850.3
1003.949	841.26
1004.243	819.57
1004.538	822.96
1004.832	817.54
1005.127	820.47
1005.421	807.82
1005.715	823.64
1006.009	776.18
1006.304	780.7
1006.598	795.61
1006.892	792.22
1007.186	792.68
1007.48	794.71
1007.773	789.97
1008.067	800.36
1008.361	781.38
1008.655	792.22
1008.948	767.14
1009.242	761.04
1009.535	784.09
1009.829	742.96
1010.122	775.73
1010.415	753.13
1010.708	766.24
1011.001	756.29
1011.295	768.5
1011.588	752.45
1011.881	732.34
1012.173	732.34
1012.466	741.15
1012.759	751.55
1013.052	730.76
1013.344	728.27
1013.637	738.22
1013.93	723.53
1014.222	697.76
1014.514	724.43
1014.807	715.62
1015.099	695.5
1015.391	721.94
1015.683	712.68
1015.976	706.35
1016.268	716.52
1016.56	721.94
1016.851	716.07
1017.143	714.26
1017.435	673.36
1017.727	694.15
1018.018	658.67
1018.31	658.9
1018.602	673.81
1018.893	674.26
1019.185	671.78
1019.476	668.61
1019.767	672.23
1020.058	665
1020.35	652.57
1020.641	655.96
1020.932	657.77
1021.223	664.09
1021.514	644.43
1021.804	641.49
1022.095	626.58
1022.386	652.12
1022.677	648.95
1022.967	651.89
1023.258	629.29
1023.548	637.2
1023.839	614.38
1024.129	634.71
1024.419	611.89
1024.709	604.66
1025	618.22
1025.29	615.28
1025.58	595.39
1025.87	604.43
1026.16	593.13
1026.449	595.17
1026.739	619.35
1027.029	589.74
1027.319	633.13
1027.608	594.49
1027.898	578.67
1028.187	586.58
1028.477	580.25
1028.766	589.74
1029.055	570.99
1029.344	579.8
1029.634	570.08
1029.923	590.2
1030.212	575.73
1030.501	569.41
1030.79	591.1
1031.078	574.15
1031.367	577.77
1031.656	598.56
1031.945	572.34
1032.233	559.24
1032.522	551.33
1032.81	555.17
1033.099	571.67
1033.387	552.91
1033.675	549.97
1033.963	556.75
1034.251	550.2
1034.54	530.54
1034.828	523.98
1035.116	556.98
1035.403	528.96
1035.691	526.47
1035.979	538.45
1036.267	527.6
1036.554	521.95
1036.842	530.31
1037.129	514.72
1037.417	526.7
1037.704	519.92
1037.992	514.04
1038.279	520.14
1038.566	520.14
1038.853	520.14
1039.14	520.14
