Data from foam2_polystyrene_foam_FLMS001491_00071.txt Node
Date: Wed Feb 08 10:58:28 GMT 2017
User: dcchb
Spectrometer: FLMS00149
Trigger mode: 0
Integration Time (sec): 2.000000E-2
Scans to average: 10
Electric dark correction enabled: true
Nonlinearity correction enabled: false
Boxcar width: 0
XAxis mode: Wavelengths
Number of Pixels in Spectrum: 2048
>>>>>Begin Spectral Data<<<<<
341.393	-12.97
341.776	-12.97
342.16	-12.97
342.543	-62.68
342.927	-52.51
343.31	-73.08
343.693	-49.8
344.077	-64.04
344.46	-67.2
344.843	-52.74
345.226	-34.21
345.61	-28.11
345.993	-13.87
346.376	-9.12
346.759	14.38
347.142	11.89
347.525	51.89
347.908	54.38
348.291	63.19
348.674	86.01
349.057	110.42
349.44	104.55
349.823	158.1
350.206	175.5
350.588	194.94
350.971	211.21
351.354	252.11
351.737	256.18
352.119	279.23
352.502	262.06
352.884	296.18
353.267	294.14
353.65	295.73
354.032	327.14
354.414	329.17
354.797	340.7
355.179	332.34
355.562	337.76
355.944	345.89
356.326	356.06
356.709	355.16
357.091	345.67
357.473	365.33
357.855	366.01
358.238	375.95
358.62	380.24
359.002	376.18
359.384	369.17
359.766	364.65
360.148	360.58
360.53	362.39
360.912	378.89
361.294	372.33
361.676	376.18
362.057	376.85
362.439	366.91
362.821	359.68
363.203	360.13
363.584	349.28
363.966	370.3
364.348	382.28
364.729	375.5
365.111	354.26
365.493	352
365.874	351.09
366.256	376.18
366.637	365.33
367.019	360.36
367.4	370.53
367.781	345.89
368.163	373.24
368.544	343.86
368.925	345.89
369.306	365.1
369.688	376.63
370.069	365.1
370.45	352.9
370.831	357.19
371.212	356.06
371.593	383.86
371.974	381.6
372.355	370.53
372.736	380.7
373.117	377.08
373.498	401.71
373.879	366.69
374.26	381.6
374.641	392.22
375.021	376.85
375.402	399.45
375.783	407.59
376.163	383.41
376.544	408.04
376.925	406.01
377.305	396.06
377.686	401.49
378.066	388.61
378.447	420.24
378.827	432.22
379.208	405.55
379.588	425.44
379.968	421.15
380.349	421.37
380.729	452.11
381.109	437.19
381.489	439.9
381.87	441.26
382.25	459.79
382.63	433.12
383.01	463.41
383.39	426.12
383.77	441.94
384.15	453.01
384.53	460.92
384.91	461.6
385.29	464.08
385.67	476.06
386.049	473.58
386.429	486.23
386.809	493.01
387.189	461.6
387.568	511.54
387.948	504.76
388.328	504.31
388.707	504.53
389.087	511.31
389.466	501.6
389.846	510.86
390.225	505.89
390.605	496.4
390.984	520.81
391.363	542.05
391.743	522.39
392.122	549.96
392.501	563.29
392.881	551.54
393.26	557.64
393.639	579.79
394.018	578.43
394.397	567.13
394.776	559.67
395.155	585.21
395.534	561.26
395.913	580.92
396.292	607.58
396.671	591.09
397.05	634.47
397.429	611.88
397.808	604.42
398.186	608.03
398.565	621.59
398.944	629.96
399.323	629.28
399.701	626.57
400.08	657.98
400.458	648.49
400.837	656.4
401.215	645.77
401.594	661.82
401.972	681.03
402.351	670.63
402.729	690.29
403.107	695.49
403.486	692.55
403.864	714.25
404.242	707.92
404.62	731.2
404.999	735.94
405.377	735.26
405.755	729.39
406.133	750.18
406.511	747.01
406.889	772.78
407.267	757.86
407.645	791.08
408.023	782.49
408.401	823.17
408.779	823.4
409.156	833.57
409.534	815.04
409.912	821.14
410.29	871.3
410.667	877.86
411.045	872.89
411.422	904.98
411.8	911.08
412.178	904.07
412.555	907.01
412.933	924.64
413.31	928.93
413.687	951.3
414.065	976.39
414.442	952.21
414.819	973.67
415.197	966.44
415.574	1003.96
415.951	996.5
416.328	980.68
416.705	1013.67
417.082	1033.56
417.46	1047.8
417.837	1041.92
418.214	1056.38
418.591	1061.58
418.967	1056.84
419.344	1098.19
419.721	1110.39
420.098	1095.03
420.475	1134.12
420.852	1096.38
421.228	1156.72
421.605	1157.17
421.982	1188.36
422.358	1162.82
422.735	1191.3
423.111	1186.32
423.488	1186.55
423.864	1233.78
424.241	1237.85
424.617	1228.81
424.994	1250.5
425.37	1272.88
425.746	1284.4
426.123	1298.86
426.499	1305.19
426.875	1336.38
427.251	1349.71
427.627	1378.86
428.003	1362.37
428.379	1378.86
428.756	1434.45
429.132	1455.47
429.507	1440.78
429.883	1464.96
430.259	1484.17
430.635	1478.75
431.011	1512.19
431.387	1531.17
431.763	1553.77
432.138	1571.17
432.514	1616.37
432.89	1605.3
433.265	1646.2
433.641	1655.92
434.016	1663.83
434.392	1685.52
434.767	1731.4
435.143	1761.45
435.518	1777.5
435.894	1780.89
436.269	1810.49
436.644	1818.17
437.02	1835.12
437.395	1872.63
437.77	1899.75
438.145	1939.75
438.52	1943.37
438.895	1953.54
439.271	1932.07
439.646	1985.17
440.021	1990.15
440.395	2004.38
440.77	2016.13
441.145	2033.53
441.52	2086.87
441.895	2059.97
442.27	2112.4
442.645	2090.03
443.019	2146.07
443.394	2135.23
443.769	2158.05
444.143	2174.77
444.518	2182.46
444.892	2196.69
445.267	2222.91
445.641	2275.56
446.016	2245.28
446.39	2307.2
446.764	2262.45
447.139	2293.87
447.513	2334.54
447.887	2372.28
448.262	2358.95
448.636	2352.17
449.01	2394.88
449.384	2461.55
449.758	2467.2
450.132	2483.69
450.506	2454.99
450.88	2521.66
451.254	2536.35
451.628	2583.8
452.002	2591.94
452.376	2627.19
452.75	2633.52
453.123	2690.92
453.497	2690.47
453.871	2685.72
454.244	2736.57
454.618	2783.12
454.992	2798.71
455.365	2771.82
455.739	2926.84
456.112	2958.26
456.486	2965.94
456.859	2983.57
457.232	3020.63
457.606	3024.24
457.979	3068.31
458.352	3121.64
458.725	3157.8
459.099	3194.41
459.472	3230.11
459.845	3306.72
460.218	3320.51
460.591	3320.28
460.964	3339.71
461.337	3455.42
461.71	3495.64
462.083	3514.85
462.456	3514.63
462.829	3519.14
463.201	3550.78
463.574	3630.78
463.947	3641.18
464.32	3765.47
464.692	3778.8
465.065	3822.64
465.438	3858.12
465.81	3882.53
466.183	3914.84
466.555	4087.94
466.928	4041.39
467.3	4042.52
467.672	4124.33
468.045	4246.13
468.417	4226.92
468.789	4264.66
469.161	4325.45
469.534	4419.69
469.906	4513.92
470.278	4533.58
470.65	4597.53
471.022	4657.19
471.394	4813.35
471.766	4750.75
472.138	4846.57
472.51	4969.05
472.882	5011.31
473.253	5058.77
473.625	5115.94
473.997	5255.37
474.369	5294.92
474.74	5311.41
475.112	5459.21
475.484	5509.37
475.855	5583.05
476.227	5701.23
476.598	5849.03
476.97	5857.39
477.341	5967.67
477.713	6092.86
478.084	6136.25
478.455	6277.26
478.827	6374.44
479.198	6542.79
479.569	6546.86
479.94	6690.59
480.311	6817.14
480.682	6958.38
481.053	7107.07
481.424	7150.46
481.795	7251.02
482.166	7419.16
482.537	7439.72
482.908	7565.82
483.279	7736.43
483.65	7850.56
484.021	8032.02
484.391	8065.69
484.762	8155.63
485.133	8208.74
485.503	8367.15
485.874	8530.76
486.244	8572.12
486.615	8792.68
486.985	8862.28
487.356	9026.12
487.726	9112.44
488.097	9307.24
488.467	9292.1
488.837	9570.29
489.207	9657.51
489.578	9755.59
489.948	9855.93
490.318	10012.76
490.688	10001.69
491.058	10223.83
491.428	10313.54
491.798	10438.28
492.168	10611.61
492.538	10723.25
492.908	10791.72
493.278	11002.79
493.648	10960.31
494.017	11170.92
494.387	11270.35
494.757	11351.48
495.126	11542.21
495.496	11519.16
495.866	11647.52
496.235	11834.63
496.605	11895.2
496.974	11957.79
497.344	12126.38
497.713	12173.61
498.082	12199.14
498.452	12383.54
498.821	12434.84
499.19	12548.51
499.559	12651.79
499.928	12776.75
500.298	12807.49
500.667	12931.55
501.036	12933.59
501.405	13102.4
501.774	13135.84
502.143	13183.52
502.512	13319.11
502.88	13435.49
503.249	13486.57
503.618	13601.37
503.987	13658.54
504.356	13749.84
504.724	13926.55
505.093	13961.58
505.462	13995.93
505.83	14151.18
506.199	14261.91
506.567	14453.09
506.936	14463.04
507.304	14658.29
507.672	14793.2
508.041	14843.37
508.409	14949.8
508.777	15045.62
509.145	15228.22
509.514	15173.75
509.882	15366.52
510.25	15350.25
510.618	15496.46
510.986	15604.25
511.354	15716.11
511.722	15807.86
512.09	16118.36
512.458	16043.34
512.826	16256.66
513.193	16261.63
513.561	16365.13
513.929	16524.9
514.297	16625.92
514.664	16770.55
515.032	16884.22
515.4	17042.4
515.767	17054.83
516.135	17222.51
516.502	17251.67
516.869	17450.76
517.237	17480.59
517.604	17619.79
517.972	17870.41
518.339	17939.1
518.706	18020.91
519.073	18109.5
519.44	18202.37
519.808	18458.86
520.175	18417.51
520.542	18782.02
520.909	18768.01
521.276	18926.2
521.643	19073.54
522.009	19299.75
522.376	19351.95
522.743	19529.57
523.11	19717.59
523.477	19862.44
523.843	19910.58
524.21	20232.15
524.577	20392.83
524.943	20444.35
525.31	20649.09
525.676	20783.1
526.043	20976.54
526.409	21076.42
526.776	21301.05
527.142	21355.51
527.508	21487.26
527.874	21661.49
528.241	21795.5
528.607	21874.14
528.973	22140.58
529.339	22112.78
529.705	22298.31
530.071	22581.92
530.437	22687.91
530.803	22847.45
531.169	22964.74
531.535	22896.94
531.901	23082.47
532.267	23117.95
532.632	23436.14
532.998	23399.3
533.364	23550.93
533.73	23653.98
534.095	23796.35
534.461	24013.3
534.826	23984.6
535.192	24240.63
535.557	24414.87
535.923	24346.85
536.288	24580.51
536.653	24682.88
537.019	24619.61
537.384	24676.1
537.749	24979.6
538.114	24967.85
538.479	24972.82
538.845	25146.6
539.21	25245.58
539.575	25296.43
539.94	25476.53
540.305	25580.03
540.67	25533.48
541.034	25774.38
541.399	25846.24
541.764	25937.99
542.129	25928.27
542.494	25994.94
542.858	26103.18
543.223	26255.72
543.587	26284.87
543.952	26434.93
544.316	26483.96
544.681	26464.53
545.045	26718.76
545.41	26781.58
545.774	26986.32
546.138	26876.04
546.503	27045.98
546.867	26986.32
547.231	27197.39
547.595	27265.41
547.959	27452.53
548.324	27430.38
548.688	27564.39
549.052	27603.48
549.416	27778.85
549.779	27862.01
550.143	27892.52
550.507	28060.87
550.871	28190.81
551.235	28134.77
551.599	28449.34
551.962	28412.05
552.326	28573.4
552.689	28585.38
553.053	28591.93
553.417	28654.53
553.78	29080.28
554.143	29000.51
554.507	29100.84
554.87	29247.28
555.234	29469.65
555.597	29434.17
555.96	29535.86
556.323	29689.08
556.686	29750.55
557.05	30059.01
557.413	30066.7
557.776	30298.78
558.139	30437.53
558.502	30339.23
558.865	30525.67
559.228	30882.04
559.59	31073
559.953	31011.98
560.316	31380.79
560.679	31372.88
561.041	31472.76
561.404	31744.17
561.767	31879.98
562.129	31704.17
562.492	32092.63
562.854	32149.58
563.217	32135.79
563.579	32359.29
563.941	32629.57
564.304	32842.44
564.666	32977.81
565.028	32966.28
565.39	33153.85
565.753	33263.45
566.115	33376.21
566.477	33550.9
566.839	33641.74
567.201	34036.99
567.563	33984.11
567.925	34112.24
568.287	34221.39
568.648	34325.34
569.01	34575.73
569.372	34775.72
569.734	34763.97
570.095	34750.41
570.457	35097.98
570.819	35140.23
571.18	35148.14
571.542	35379.1
571.903	35266.56
572.265	35466.1
572.626	35612.09
572.987	35552.65
573.349	35756.49
573.71	35889.82
574.071	35978.86
574.432	36055.01
574.794	36410.03
575.155	36195.35
575.516	36257.04
575.877	36400.09
576.238	36440.31
576.599	36568.22
576.96	36665.62
577.32	36606.41
577.681	36750.14
578.042	36852.28
578.403	36847.53
578.763	36838.27
579.124	36999.39
579.485	37075.32
579.845	37132.05
580.206	37152.38
580.566	37170.01
580.927	37147.64
581.287	37400.97
581.648	37195.77
582.008	37347.86
582.368	37281.65
582.728	37511.47
583.089	37341.53
583.449	37433.73
583.809	37355.54
584.169	37499.27
584.529	37536.1
584.889	37658.13
585.249	37559.61
585.609	37527.97
585.969	37499.27
586.329	37557.8
586.688	37624.46
587.048	37588.53
587.408	37550.79
587.768	37352.83
588.127	37385.6
588.487	37518.48
588.846	37617.91
589.206	37274.64
589.565	37451.36
589.925	37635.76
590.284	37609.55
590.643	37611.13
591.003	37564.8
591.362	37800.5
591.721	37650.22
592.08	37670.11
592.44	37833.95
592.799	37741.3
593.158	37596.21
593.517	37725.7
593.876	37823.1
594.235	37718.02
594.593	37783.78
594.952	37879.15
595.311	37516.67
595.67	37732.03
596.029	37909.65
596.387	37902.2
596.746	38075.75
597.104	37819.03
597.463	37897.68
597.822	38007.05
598.18	37895.19
598.538	37759.37
598.897	38067.84
599.255	37760.28
599.613	38266.93
599.972	37930.44
600.33	38028.97
600.688	38089.31
601.046	38174.28
601.404	38326.14
601.762	38241.4
602.12	38328.4
602.478	38252.47
602.836	38476.42
603.194	38291.79
603.552	38405.23
603.91	38294.95
604.268	38412.24
604.625	38432.8
604.983	38461.73
605.341	38406.36
605.698	38543.31
606.056	38656.98
606.413	38502.18
606.771	38675.06
607.128	38696.75
607.485	38626.47
607.843	38618.33
608.2	38807.93
608.557	38894.94
608.914	38756.41
609.272	39032.56
609.629	39068.72
609.986	39146.23
610.343	38975.84
610.7	39217.19
611.057	39145.33
611.414	39081.6
611.771	39199.34
612.127	39264.87
612.484	39277.3
612.841	39352.33
613.198	39198.21
613.554	39307.81
613.911	39379.9
614.267	39435.94
614.624	39438.43
614.98	39530.85
615.337	39620.34
615.693	39469.61
616.05	39442.72
616.406	39685.88
616.762	39545.54
617.118	39625.31
617.475	39653.11
617.831	39830.28
618.187	39879.09
618.543	39915.25
618.899	40065.98
619.255	39908.7
619.611	40096.94
619.967	40208.12
620.323	40083.61
620.678	40109.14
621.034	39943.27
621.39	40025.08
621.746	40076.83
622.101	40504.84
622.457	40130.16
622.812	40181.23
623.168	40258.52
623.523	40198.86
623.879	40266.2
624.234	40030.73
624.589	40178.52
624.945	40114.79
625.3	40273.21
625.655	40279.31
626.01	40212.19
626.365	40276.14
626.72	40219.87
627.075	40095.13
627.43	40024.85
627.785	39983.95
628.14	40229.59
628.495	40121.57
628.85	40113.44
629.205	40051.74
629.559	40326.09
629.914	40000.22
630.269	40012.87
630.623	39974.68
630.978	39933.1
631.332	39938.07
631.687	40082.25
632.041	39725.2
632.396	39953.89
632.75	39882.03
633.104	39960.9
633.459	39584.64
633.813	39647.23
634.167	39619.66
634.521	39636.39
634.875	39606.33
635.229	39368.6
635.583	39283.18
635.937	39339.9
636.291	39276.85
636.645	39221.48
636.999	39131.09
637.352	39209.28
637.706	38998.66
638.06	39028.72
638.413	38984.65
638.767	38908.27
639.121	38951.66
639.474	38680.71
639.828	38764.32
640.181	38708.28
640.534	38878.67
640.888	38590.54
641.241	38493.14
641.594	38469.86
641.947	38574.49
642.301	38427.83
642.654	38453.14
643.007	38407.49
643.36	38360.49
643.713	38332.47
644.066	38372.01
644.419	38092.02
644.771	37960.73
645.124	37552.83
645.477	37567.06
645.83	37178.15
646.182	37049.56
646.535	36995.33
646.888	37065.61
647.24	36885.27
647.593	37067.42
647.945	37038.94
648.298	36787.87
648.65	36729.8
649.002	36629.23
649.355	36799.4
649.707	36676.92
650.059	36732.06
650.411	37226.28
650.763	37353.51
651.115	37668.3
651.467	37459.95
651.819	37522.09
652.171	37319.39
652.523	37363
652.875	37289.78
653.227	37043.01
653.578	37344.02
653.93	37214.76
654.282	37124.59
654.633	37045.04
654.985	37148.32
655.337	37106.28
655.688	37096.57
656.039	37285.71
656.391	36980.86
656.742	36921.88
657.094	37051.6
657.445	37084.82
657.796	36992.39
658.147	36895.22
658.498	36811.83
658.849	36849.57
659.2	36816.8
659.551	36646.86
659.902	36888.21
660.253	36820.19
660.604	36851.6
660.955	36678.72
661.306	36733.19
661.656	36776.12
662.007	36727.99
662.358	36670.14
662.708	36794.65
663.059	36628.1
663.409	36561.44
663.76	36789.68
664.11	36749.23
664.461	36727.54
664.811	36766.18
665.161	36625.62
665.511	36578.61
665.862	36680.31
666.212	36680.31
666.562	36597.6
666.912	36634.88
667.262	36544.72
667.612	36491.16
667.962	36397.15
668.312	36393.31
668.662	36758.27
669.011	36557.15
669.361	36627.43
669.711	36412.74
670.06	36404.83
670.41	36363.48
670.76	36396.92
671.109	36517.83
671.459	36283.48
671.808	36231.05
672.157	36246.65
672.507	36025.41
672.856	36024.28
673.205	36186.99
673.554	36235.12
673.904	36113.54
674.253	36231.96
674.602	36103.82
674.951	35689.6
675.3	35466.55
675.649	36024.5
675.998	35895.24
676.346	35931.4
676.695	35976.14
677.044	35803.95
677.393	35838.07
677.741	36010.49
678.09	35895.69
678.438	35799.43
678.787	35938.18
679.135	35882.59
679.484	35581.58
679.832	35748.35
680.181	35394.92
680.529	35656.83
680.877	35477.63
681.225	35438.31
681.573	35572.31
681.922	35290.74
682.27	35270.85
682.618	35328.03
682.966	35073.8
683.314	35281.7
683.661	35051.42
684.009	34903.86
684.357	34880.13
684.705	34840.81
685.053	34752.45
685.4	34606.69
685.748	34582.73
686.095	34535.96
686.443	34348.62
686.79	34347.71
687.138	34425
687.485	34341.39
687.832	34392.01
688.18	34305.91
688.527	34093.71
688.874	34090.54
689.221	33984.78
689.568	33843.09
689.915	33789.31
690.262	33801.51
690.609	33680.61
690.956	33559.03
691.303	33525.59
691.65	33487.62
691.997	33486.49
692.344	33180.74
692.69	33297.34
693.037	33104.81
693.383	32969.67
693.73	33239.95
694.077	32900.52
694.423	32933.96
694.769	32749.79
695.116	32673.18
695.462	32521.77
695.808	32409.46
696.155	32580.53
696.501	32228.45
696.847	32313.64
697.193	32155.45
697.539	32134.66
697.885	32013.54
698.231	31906.87
698.577	31910.49
698.923	31917.27
699.269	31678.86
699.614	31593.21
699.96	31525.64
700.306	31470.95
700.651	31342.82
700.997	31350.28
701.342	31215.14
701.688	31190.73
702.033	31020.79
702.379	31025.09
702.724	30934.92
703.069	30901.02
703.415	30628.94
703.76	30606.79
704.105	30446.8
704.45	30463.97
704.795	30333.58
705.14	30308.72
705.485	30257.42
705.83	30149.86
706.175	30214.49
706.52	30163.87
706.865	29958
707.209	29940.6
707.554	29880.26
707.899	29891.78
708.243	29721.85
708.588	29695.63
708.932	29577.22
709.277	29500.16
709.621	29457.9
709.966	29146.27
710.31	29325.02
710.654	28957.57
710.998	29061.3
711.342	29128.41
711.687	29086.38
712.031	29035.31
712.375	28846.16
712.719	28885.03
713.063	28767.29
713.407	28896.33
713.75	28638.71
714.094	28553.97
714.438	28459.73
714.782	28479.39
715.125	28380.64
715.469	28250.47
715.812	28175.22
716.156	28007.31
716.499	28111.04
716.843	28156.92
717.186	28014.32
717.53	28026.3
717.873	28024.94
718.216	27926.19
718.559	27750.37
718.902	27581.79
719.246	27683.48
719.589	27450.49
719.932	27483.49
720.275	27478.51
720.617	27455.69
720.96	27354
721.303	27306.09
721.646	27471.06
721.989	27106.32
722.331	27234
722.674	27128.69
723.016	27216.6
723.359	27005.08
723.701	27169.6
724.044	26957.85
724.386	26879.21
724.729	26916.27
725.071	26839.89
725.413	26923.73
725.755	26789.95
726.097	26770.28
726.439	26634.7
726.782	26531.42
727.124	26674.02
727.465	26474.25
727.807	26528.03
728.149	26579.1
728.491	26389.28
728.833	26514.02
729.175	26337.08
729.516	26262.05
729.858	26270.86
730.199	26163.3
730.541	26103.41
730.882	26107.25
731.224	26156.06
731.565	25926.47
731.906	26007.82
732.248	25908.84
732.589	25806.02
732.93	25685.57
733.271	25747.03
733.612	25781.61
733.953	25764.66
734.294	25683.53
734.635	25607.15
734.976	25606.25
735.317	25489.41
735.658	25555.18
735.999	25481.96
736.339	25380.26
736.68	25438.79
737.021	25388.17
737.361	25184.11
737.702	25378.23
738.042	25240.16
738.383	25131.23
738.723	25138.92
739.063	25201.06
739.404	25089.2
739.744	25001.97
740.084	24870.22
740.424	24983.44
740.764	24834.74
741.104	25011.91
741.444	24929.66
741.784	24760.39
742.124	24813.05
742.464	24848.53
742.804	24749.1
743.143	24684.69
743.483	24609.21
743.823	24457.58
744.162	24558.82
744.502	24461.64
744.841	24414.87
745.181	24480.85
745.52	24389.33
745.86	24404.02
746.199	24343.68
746.538	24295.32
746.877	24362.44
747.216	24281.08
747.556	24281.99
747.895	24256.23
748.234	24153.63
748.573	24063.01
748.911	24123.35
749.25	24050.81
749.589	23910.02
749.928	23933.3
750.267	23870.7
750.605	23814.66
750.944	23626.86
751.283	23632.51
751.621	23742.12
751.96	23572.63
752.298	23531.95
752.636	23489.02
752.975	23400.66
753.313	23406.53
753.651	23433.88
753.989	23260.09
754.327	23244.28
754.666	23029.82
755.004	23210.15
755.342	23112.3
755.679	23032.3
756.017	22901.46
756.355	22995.69
756.693	22840.44
757.031	22928.13
757.368	22671.41
757.706	22600.9
758.044	22513.9
758.381	22594.8
758.719	22482.71
759.056	22498.76
759.394	22352.55
759.731	22287.24
760.068	22401.81
760.405	22218.09
760.743	22267.35
761.08	22136.51
761.417	22076.4
761.754	22080.01
762.091	21973.8
762.428	21808.16
762.765	21673.7
763.102	21851.09
763.438	21730.19
763.775	21615.84
764.112	21488.62
764.449	21479.8
764.785	21483.64
765.122	21254.72
765.458	21343.53
765.795	21296.53
766.131	21223.76
766.467	21099.47
766.804	21043.66
767.14	20869.42
767.476	20841.4
767.812	20788.52
768.148	20692.93
768.485	20544.23
768.821	20482.09
769.157	20424.69
769.492	20425.82
769.828	20360.51
770.164	20173.17
770.5	20220.4
770.836	20197.8
771.171	19999.62
771.507	19950.8
771.842	19852.73
772.178	19808.66
772.513	19730.47
772.849	19688.44
773.184	19601.89
773.519	19593.98
773.855	19567.99
774.19	19499.06
774.525	19394.43
774.86	19374.55
775.195	19335
775.53	19154.67
775.865	19128.45
776.2	18987.66
776.535	18877.61
776.87	18852.53
777.205	18830.83
777.539	18748.8
777.874	18850.04
778.209	18590.39
778.543	18536.15
778.878	18514.23
779.212	18473.55
779.547	18377.29
779.881	18432.42
780.215	18356.04
780.55	18277.4
780.884	18227.01
781.218	18140
781.552	18113.34
781.886	18044.64
782.22	17952.66
782.554	17863.63
782.888	17652.78
783.222	17630.64
783.556	17542.5
783.889	17442.39
784.223	17400.14
784.557	17409.85
784.89	17362.85
785.224	17216.64
785.557	17150.42
785.891	17164.66
786.224	17054.61
786.558	17141.61
786.891	16941.39
787.224	16946.59
787.557	16843.99
787.891	16867.04
788.224	16814.39
788.557	16791.56
788.89	16661.4
789.223	16669.76
789.556	16478.13
789.888	16480.39
790.221	16419.14
790.554	16363.33
790.887	16267.51
791.219	16218.7
791.552	16265.02
791.884	16144.12
792.217	16071.13
792.549	16123.11
792.882	16017.35
793.214	15858.03
793.546	15956.11
793.879	15814.64
794.211	15644.93
794.543	15721.76
794.875	15642.44
795.207	15730.58
795.539	15630.69
795.871	15607.41
796.203	15451.03
796.535	15413.97
796.867	15370.36
797.198	15340.98
797.53	15401.09
797.862	15282.9
798.193	15247.65
798.525	15032.74
798.856	15082.46
799.188	15071.84
799.519	14973.08
799.85	14891.95
800.182	14879.07
800.513	14875.46
800.844	14748.45
801.175	14766.08
801.506	14801.33
801.837	14716.36
802.168	14620.32
802.499	14577.61
802.83	14605.18
803.161	14427.11
803.491	14489.93
803.822	14538.29
804.153	14352.53
804.483	14233.67
804.814	14209.26
805.145	14185.76
805.475	14187.56
805.805	14082.03
806.136	14103.95
806.466	14101.01
806.796	14039.55
807.126	13988.25
807.457	13962.49
807.787	13967.23
808.117	13830.96
808.447	13852.43
808.777	13865.54
809.107	13781.02
809.436	13770.85
809.766	13640.01
810.096	13610.18
810.426	13639.78
810.755	13563.63
811.085	13549.62
811.414	13590.29
811.744	13433.46
812.073	13411.31
812.403	13434.36
812.732	13350.75
813.061	13360.02
813.39	13306.91
813.719	13249.74
814.049	13273.01
814.378	13220.13
814.707	13202.73
815.036	13234.6
815.365	13117.08
815.693	12950.99
816.022	12951.67
816.351	12987.14
816.68	12827.15
817.008	12995.51
817.337	12775.4
817.665	12834.61
817.994	12857.66
818.322	12845.45
818.651	12758
818.979	12692.69
819.307	12767.26
819.636	12581.51
819.964	12563.43
820.292	12659.02
820.62	12630.32
820.948	12579.92
821.276	12554.16
821.604	12577.44
821.932	12610.43
822.259	12595.97
822.587	12562.97
822.915	12540.38
823.243	12572.92
823.57	12557.78
823.898	12533.6
824.225	12430.55
824.553	12519.36
824.88	12497.67
825.207	12593.71
825.535	12499.7
825.862	12519.36
826.189	12483.88
826.516	12520.04
826.843	12502.64
827.17	12567.95
827.497	12586.25
827.824	12508.29
828.151	12513.48
828.478	12489.3
828.805	12638
829.131	12513.03
829.458	12513.03
829.785	12426.93
830.111	12430.55
830.438	12545.8
830.764	12464.22
831.09	12497.89
831.417	12372.25
831.743	12499.7
832.069	12532.47
832.395	12421.96
832.722	12487.72
833.048	12422.41
833.374	12407.5
833.7	12379.02
834.026	12436.42
834.351	12387.61
834.677	12307.39
835.003	12331.34
835.329	12355.3
835.654	12303.32
835.98	12261.97
836.306	12306.26
836.631	12255.41
836.956	12365.92
837.282	12292.93
837.607	12140.61
837.932	12221.51
838.258	12142.19
838.583	12138.13
838.908	12029.43
839.233	12058.81
839.558	12073.95
839.883	11965.7
840.208	11965.7
840.533	11987.62
840.858	11926.83
841.182	11898.59
841.507	11940.17
841.832	11901.98
842.156	11883.9
842.481	11851.36
842.805	11846.16
843.13	11805.25
843.454	11770
843.778	11771.13
844.103	11741.3
844.427	11723
844.751	11757.57
845.075	11611.81
845.399	11656.56
845.723	11547.18
846.047	11510.35
846.371	11460.4
846.695	11509.44
847.019	11369.33
847.343	11400.07
847.666	11304.25
847.99	11221.99
848.313	11254.76
848.637	11131.15
848.96	11187.64
849.284	11146.29
849.607	11020.64
849.931	11032.85
850.254	10904.71
850.577	10910.59
850.9	10858.16
851.223	10800.99
851.546	10718.96
851.869	10671.05
852.192	10678.05
852.515	10547.66
852.838	10632.86
853.161	10528.9
853.483	10538.62
853.806	10478.74
854.129	10478.51
854.451	10411.84
854.774	10428.34
855.096	10292.75
855.419	10301.11
855.741	10256.59
856.063	10224.96
856.385	10272.41
856.708	10194.9
857.03	10213.43
857.352	10164.62
857.674	10176.82
857.996	10042.59
858.318	10019.99
858.64	10102.93
858.961	10054.11
859.283	9957.39
859.605	9925.3
859.926	10000.56
860.248	9881.46
860.57	9870.62
860.891	9848.02
861.212	9839.2
861.534	9807.12
861.855	9810.73
862.176	9743.16
862.498	9721.02
862.819	9819.54
863.14	9708.36
863.461	9642.6
863.782	9654.8
864.103	9650.73
864.424	9564.41
864.745	9598.98
865.065	9621.58
865.386	9517.18
865.707	9571.64
866.027	9508.37
866.348	9502.04
866.668	9495.03
866.989	9564.86
867.309	9463.85
867.63	9471.98
867.95	9426.56
868.27	9302.27
868.59	9422.04
868.91	9372.32
869.23	9390.4
869.55	9298.65
869.87	9387.24
870.19	9381.14
870.51	9318.99
870.83	9275.15
871.15	9246.23
871.469	9257.75
871.789	9257.07
872.109	9334.36
872.428	9220.01
872.748	9134.59
873.067	9202.84
873.386	9169.39
873.706	9224.53
874.025	9127.58
874.344	9082.61
874.663	9166.45
874.982	9104.08
875.301	9066.34
875.62	9137.75
875.939	9041.71
876.258	9042.16
876.577	9005.1
876.896	8959.45
877.214	8913.58
877.533	9003.29
877.852	8942.73
878.17	8879.68
878.489	8924.88
878.807	8941.83
879.125	8955.84
879.444	8951.09
879.762	8907.48
880.08	8811.66
880.398	8822.51
880.716	8805.79
881.034	8747.71
881.352	8841.04
881.67	8739.12
881.988	8765.56
882.306	8719.91
882.624	8655.96
882.941	8697.77
883.259	8696.18
883.577	8693.92
883.894	8622.29
884.212	8598.11
884.529	8578.45
884.846	8592.91
885.164	8602.85
885.481	8495.96
885.798	8521.5
886.115	8459.81
886.432	8474.04
886.75	8385.46
887.067	8417.55
887.383	8431.78
887.7	8473.14
888.017	8382.52
888.334	8429.75
888.651	8360.37
888.967	8335.52
889.284	8277.89
889.6	8216.42
889.917	8200.6
890.233	8208.96
890.55	8179.36
890.866	8217.78
891.182	8167.61
891.498	8126.71
891.815	8095.3
892.131	8128.52
892.447	8067.95
892.763	8048.29
893.079	8012.36
893.395	7997.9
893.71	7961.06
894.026	8012.36
894.342	7902.98
894.657	7864.34
894.973	7874.96
895.289	7840.61
895.604	7783.67
895.92	7797.9
896.235	7738.24
896.55	7751.12
896.865	7713.16
897.181	7740.28
897.496	7702.99
897.811	7639.71
898.126	7565.37
898.441	7548.64
898.756	7556.1
899.071	7514.75
899.386	7550.68
899.7	7454.41
900.015	7474.29
900.33	7359.5
900.644	7370.79
900.959	7425.03
901.273	7292.15
901.588	7272.72
901.902	7310.68
902.216	7255.54
902.531	7226.39
902.845	7262.55
903.159	7186.17
903.473	7199.95
903.787	7166.73
904.101	7127.86
904.415	7145.94
904.729	7090.35
905.042	7054.87
905.356	6986.4
905.67	6964.48
905.984	7006.06
906.297	6959.73
906.611	6878.6
906.924	6894.65
907.237	6875.44
907.551	6804.48
907.864	6794.09
908.177	6801.77
908.491	6790.92
908.804	6739.4
909.117	6724.03
909.43	6747.76
909.743	6635.22
910.056	6629.35
910.368	6579.63
910.681	6625.5
910.994	6511.16
911.307	6516.81
911.619	6493.98
911.932	6484.72
912.244	6433.87
912.557	6451.72
912.869	6392.74
913.181	6369.69
913.494	6362.46
913.806	6269.13
914.118	6323.82
914.43	6253.99
914.742	6251.05
915.054	6266.64
915.366	6224.16
915.678	6193.42
915.99	6143.71
916.302	6090.6
916.613	6079.3
916.925	6047.21
917.236	6017.61
917.548	6070.26
917.859	6022.36
918.171	5978.74
918.482	5965.18
918.794	5954.56
919.105	5888.12
919.416	5830.27
919.727	5874.56
920.038	5874.34
920.349	5788.24
920.66	5774.23
920.971	5752.08
921.282	5728.35
921.593	5697.62
921.903	5651.29
922.214	5675.47
922.525	5631.86
922.835	5597.73
923.146	5550.5
923.456	5595.25
923.767	5526.1
924.077	5535.59
924.387	5494.23
924.697	5454.91
925.008	5420.56
925.318	5429.38
925.628	5389.83
925.938	5393.22
926.248	5338.98
926.558	5305.76
926.867	5262.15
927.177	5242.94
927.487	5277.29
927.796	5195.26
928.106	5287.46
928.416	5224.64
928.725	5164.3
929.034	5166.56
929.344	5131.98
929.653	5113.45
929.962	5060.12
930.271	5059.44
930.581	4984.19
930.89	5034.59
931.199	4970.18
931.508	4962.95
931.817	4886.11
932.125	4910.52
932.434	4933.8
932.743	4861.71
933.051	4882.27
933.36	4843.4
933.669	4800.47
933.977	4797.98
934.286	4750.75
934.594	4780.13
934.902	4766.8
935.21	4774.03
935.519	4710.75
935.827	4708.04
936.135	4690.19
936.443	4662.84
936.751	4596.4
937.059	4599.57
937.367	4647.7
937.674	4581.49
937.982	4577.87
938.29	4564.54
938.597	4541.26
938.905	4513.47
939.213	4482.96
939.52	4466.46
939.827	4429.63
940.135	4437.54
940.442	4433.25
940.749	4404.32
941.056	4407.71
941.363	4343.98
941.67	4352.12
941.977	4330.65
942.284	4324.32
942.591	4295.62
942.898	4261.95
943.205	4234.61
943.511	4202.06
943.818	4261.95
944.125	4185.12
944.431	4161.39
944.738	4194.83
945.044	4113.03
945.35	4118.9
945.657	4069.86
945.963	4093.82
946.269	4082.97
946.575	4051.33
946.881	4052.69
947.187	4045.46
947.493	4003.2
947.799	3986.03
948.105	3984.9
948.41	3934.73
948.716	3935.63
949.022	3930.66
949.327	3896.08
949.633	3877.55
949.938	3903.09
950.244	3843.2
950.549	3829.19
950.854	3865.12
951.16	3839.59
951.465	3815.86
951.77	3764.79
952.075	3760.49
952.38	3710.55
952.685	3700.16
952.99	3676.2
953.294	3725.24
953.599	3667.39
953.904	3622.19
954.209	3636.43
954.513	3648.18
954.818	3600.05
955.122	3609.31
955.426	3613.83
955.731	3538.13
956.035	3570.44
956.339	3532.93
956.643	3513.72
956.948	3486.6
957.252	3480.73
957.556	3478.02
957.86	3442.76
958.163	3480.95
958.467	3429.2
958.771	3475.76
959.075	3449.54
959.378	3361.86
959.682	3407.74
959.985	3348.98
960.289	3373.84
960.592	3381.97
960.896	3293.84
961.199	3292.94
961.502	3305.82
961.805	3300.39
962.108	3284.12
962.411	3231.69
962.714	3245.25
963.017	3254.74
963.32	3266.95
963.623	3190.79
963.926	3187.63
964.228	3183.79
964.531	3202.32
964.833	3163.22
965.136	3123.22
965.438	3078.03
965.741	3071.02
966.043	3069.89
966.345	3101.3
966.648	3043
966.95	3072.83
967.252	3033.73
967.554	3014.75
967.856	3037.8
968.158	3036.67
968.46	3000.06
968.761	2982.44
969.063	2969.1
969.365	2955.09
969.666	2943.34
969.968	2910.8
970.269	2916
970.571	2916.9
970.872	2880.07
971.174	2886.62
971.475	2864.7
971.776	2869.67
972.077	2850.69
972.378	2886.84
972.679	2821.31
972.98	2839.16
973.281	2808.2
973.582	2789.45
973.883	2778.6
974.183	2791.25
974.484	2740.63
974.785	2731.14
975.085	2760.52
975.386	2729.79
975.686	2708.54
975.986	2702.22
976.287	2694.53
976.587	2669
976.887	2654.31
977.187	2646.17
977.487	2655.44
977.787	2616.12
978.087	2641.2
978.387	2620.64
978.687	2617.7
978.987	2610.24
979.286	2568.66
979.586	2570.24
979.885	2539.74
980.185	2536.35
980.484	2527.98
980.784	2540.87
981.083	2500.87
981.382	2502.22
981.682	2457.48
981.981	2479.62
982.28	2440.3
982.579	2434.43
982.878	2428.55
983.177	2414.32
983.475	2410.02
983.774	2403.69
984.073	2364.37
984.372	2341.1
984.67	2367.08
984.969	2379.74
985.267	2379.97
985.566	2347.42
985.864	2317.82
986.162	2340.42
986.461	2283.47
986.759	2313.53
987.057	2282.34
987.355	2274.21
987.653	2277.37
987.951	2263.13
988.249	2249.35
988.547	2256.81
988.844	2227.88
989.142	2233.3
989.44	2203.47
989.737	2189.69
990.035	2173.64
990.332	2194.43
990.63	2179.74
990.927	2144.49
991.224	2149.24
991.521	2148.79
991.819	2102.23
992.116	2119.18
992.413	2132.97
992.71	2079.86
993.006	2096.58
993.303	2081.22
993.6	2086.64
993.897	2058.17
994.193	2080.54
994.49	2056.36
994.787	2037.15
995.083	2043.7
995.379	1996.02
995.676	1982.69
995.972	1997.83
996.268	1996.25
996.565	2010.03
996.861	1990.6
997.157	1952.18
997.453	1939.3
997.749	1970.71
998.044	1926.64
998.34	1949.24
998.636	1918.51
998.932	1946.3
999.227	1912.18
999.523	1928.68
999.818	1885.06
1000.114	1862.24
1000.409	1859.98
1000.704	1859.3
1001	1841.9
1001.295	1839.41
1001.59	1864.72
1001.885	1797.83
1002.18	1822.69
1002.475	1814.1
1002.77	1804.61
1003.065	1791.05
1003.359	1767.33
1003.654	1753.54
1003.949	1758.06
1004.243	1763.26
1004.538	1693.88
1004.832	1726.2
1005.127	1702.02
1005.421	1712.41
1005.715	1675.13
1006.009	1674.45
1006.304	1698.85
1006.598	1674.9
1006.892	1628.57
1007.186	1652.53
1007.48	1646.2
1007.773	1635.58
1008.067	1641.68
1008.361	1624.28
1008.655	1616.37
1008.948	1615.92
1009.242	1601
1009.535	1565.3
1009.829	1585.41
1010.122	1547.22
1010.415	1525.07
1010.708	1533.66
1011.001	1551.29
1011.295	1537.05
1011.588	1547.45
1011.881	1500.21
1012.173	1521.91
1012.466	1508.8
1012.759	1485.3
1013.052	1481.91
1013.344	1467
1013.637	1459.31
1013.93	1449.82
1014.222	1448.01
1014.514	1437.84
1014.807	1463.83
1015.099	1418.18
1015.391	1422.02
1015.683	1410.95
1015.976	1420.67
1016.268	1394.23
1016.56	1382.25
1016.851	1377.73
1017.143	1382.48
1017.435	1355.13
1017.727	1365.76
1018.018	1345.42
1018.31	1359.2
1018.602	1321.01
1018.893	1356.26
1019.185	1318.52
1019.476	1294.8
1019.767	1303.84
1020.058	1283.05
1020.35	1301.35
1020.641	1289.15
1020.932	1275.81
1021.223	1247.57
1021.514	1267.45
1021.804	1193.78
1022.095	1238.53
1022.386	1240.56
1022.677	1238.3
1022.967	1217.96
1023.258	1180.22
1023.548	1215.48
1023.839	1160.34
1024.129	1163.73
1024.419	1164.86
1024.709	1146.78
1025	1172.99
1025.29	1133.67
1025.58	1144.07
1025.87	1132.31
1026.16	1130.06
1026.449	1108.59
1026.739	1124.41
1027.029	1118.98
1027.319	1117.4
1027.608	1110.62
1027.898	1090.73
1028.187	1082.37
1028.477	1064.07
1028.766	1073.33
1029.055	1053.45
1029.344	1057.97
1029.634	1067.46
1029.923	1039.89
1030.212	1048.93
1030.501	1041.24
1030.79	1025.2
1031.078	1013.45
1031.367	1010.96
1031.656	1002.15
1031.945	980.45
1032.233	996.27
1032.522	992.66
1032.81	991.98
1033.099	1001.47
1033.387	976.16
1033.675	977.97
1033.963	958.08
1034.251	956.27
1034.54	945.43
1034.828	944.75
1035.116	944.98
1035.403	918.54
1035.691	898.42
1035.979	925.31
1036.267	904.07
1036.554	923.05
1036.842	881.93
1037.129	892.55
1037.417	902.49
1037.704	873.79
1037.992	873.34
1038.279	871.53
1038.566	910.17
1038.853	910.17
1039.14	910.17
