Data from foam1_polythene_foam_FLMS001491_00070.txt Node
Date: Wed Feb 08 10:55:14 GMT 2017
User: dcchb
Spectrometer: FLMS00149
Trigger mode: 0
Integration Time (sec): 2.000000E-2
Scans to average: 10
Electric dark correction enabled: true
Nonlinearity correction enabled: false
Boxcar width: 0
XAxis mode: Wavelengths
Number of Pixels in Spectrum: 2048
>>>>>Begin Spectral Data<<<<<
341.393	-1.69
341.776	-1.69
342.16	-1.69
342.543	-57.74
342.927	-63.39
343.31	-90.05
343.693	-74.69
344.077	-74.01
344.46	-72.65
344.843	-52.09
345.226	-52.32
345.61	-13.22
345.993	-3.95
346.376	11.19
346.759	10.96
347.142	41.02
347.525	43.5
347.908	67.91
348.291	54.12
348.674	92.77
349.057	111.52
349.44	111.07
349.823	136.61
350.206	173.22
350.588	165.31
350.971	185.87
351.354	197.85
351.737	209.37
352.119	236.72
352.502	215.02
352.884	249.82
353.267	279.88
353.65	268.58
354.032	275.13
354.414	294.12
354.797	277.85
355.179	296.83
355.562	287.79
355.944	296.38
356.326	311.07
356.709	296.15
357.091	310.61
357.473	329.37
357.855	286.66
358.238	298.41
358.62	312.2
359.002	302.03
359.384	325.98
359.766	345.64
360.148	327.11
360.53	316.26
360.912	317.84
361.294	306.77
361.676	304.06
362.057	303.16
362.439	301.12
362.821	322.14
363.203	330.27
363.584	305.19
363.966	326.43
364.348	299.31
364.729	302.7
365.111	294.57
365.493	299.09
365.874	303.16
366.256	297.51
366.637	283.5
367.019	268.58
367.4	286.21
367.781	327.79
368.163	304.29
368.544	290.05
368.925	297.28
369.306	295.02
369.688	299.31
370.069	280.33
370.45	290.95
370.831	284.17
371.212	304.74
371.593	277.62
371.974	297.96
372.355	296.38
372.736	290.5
373.117	287.79
373.498	294.57
373.879	285.98
374.26	280.78
374.641	285.98
375.021	271.97
375.402	298.18
375.783	307.45
376.163	302.48
376.544	302.03
376.925	298.64
377.305	300.9
377.686	303.61
378.066	284.63
378.447	299.09
378.827	280.78
379.208	314
379.588	282.59
379.968	305.87
380.349	304.06
380.729	294.57
381.109	299.99
381.489	331.18
381.87	293.89
382.25	313.78
382.63	311.29
383.01	288.02
383.39	321.91
383.77	304.51
384.15	305.42
384.53	333.44
384.91	316.26
385.29	319.88
385.67	309.94
386.049	323.04
386.429	315.13
386.809	324.17
387.189	290.5
387.568	317.39
387.948	332.53
388.328	302.7
388.707	334.12
389.087	316.26
389.466	318.75
389.846	310.61
390.225	305.42
390.605	344.28
390.984	328.24
391.363	330.95
391.743	302.48
392.122	324.17
392.501	323.04
392.881	324.4
393.26	350.84
393.639	323.72
394.018	329.6
394.397	343.61
394.776	338.41
395.155	324.85
395.534	316.49
395.913	317.84
396.292	329.37
396.671	332.31
397.05	319.65
397.429	343.15
397.808	339.77
398.186	323.72
398.565	354
398.944	350.16
399.323	340.44
399.701	332.99
400.08	328.92
400.458	342.25
400.837	356.04
401.215	363.27
401.594	342.25
401.972	360.1
402.351	353.78
402.729	361.23
403.107	352.42
403.486	322.59
403.864	349.48
404.242	379.09
404.62	377.96
404.999	376.6
405.377	381.12
405.755	356.04
406.133	387.67
406.511	362.59
406.889	347.22
407.267	365.75
407.645	351.74
408.023	367.79
408.401	375.24
408.779	361.23
409.156	361.69
409.534	385.64
409.912	365.75
410.29	359.43
410.667	374.34
411.045	371.18
411.422	371.18
411.8	382.48
412.178	389.26
412.555	387.9
412.933	359.65
413.31	381.57
413.687	387.22
414.065	374.57
414.442	390.84
414.819	419.54
415.197	378.18
415.574	393.55
415.951	409.59
416.328	399.88
416.705	400.55
417.082	408.69
417.46	405.75
417.837	397.84
418.214	416.37
418.591	401.46
418.967	406.88
419.344	423.15
419.721	397.39
420.098	417.73
420.475	387.45
420.852	424.06
421.228	416.6
421.605	409.59
421.982	400.33
422.358	410.5
422.735	447.33
423.111	414.79
423.488	422.25
423.864	415.47
424.241	431.29
424.617	419.54
424.994	446.88
425.37	404.62
425.746	417.73
426.123	429.48
426.499	442.59
426.875	455.92
427.251	449.82
427.627	443.94
428.003	429.93
428.379	436.71
428.756	461.12
429.132	430.38
429.507	457.28
429.883	451.17
430.259	451.85
430.635	484.39
431.011	455.02
431.387	450.72
431.763	465.64
432.138	488.01
432.514	476.26
432.89	493.21
433.265	494.34
433.641	467.9
434.016	474.68
434.392	483.94
434.767	494.56
435.143	499.31
435.518	502.7
435.894	508.57
436.269	511.96
436.644	513.55
437.02	487.78
437.395	509.93
437.77	520.55
438.145	541.57
438.52	519.2
438.895	528.01
439.271	528.23
439.646	534.11
440.021	530.95
440.395	542.47
440.77	524.62
441.145	546.99
441.52	571.85
441.895	565.75
442.27	568.23
442.645	568.69
443.019	565.97
443.394	588.8
443.769	579.76
444.143	557.39
444.518	594.45
444.892	594.9
445.267	590.38
445.641	603.71
446.016	589.25
446.39	589.93
446.764	604.62
447.139	605.97
447.513	629.02
447.887	626.54
448.262	636.25
448.636	644.84
449.01	641.45
449.384	610.04
449.758	627.89
450.132	664.95
450.506	641
450.88	673.54
451.254	663.37
451.628	650.27
452.002	666.99
452.376	660.89
452.75	659.3
453.123	670.6
453.497	667.21
453.871	689.13
454.244	695.91
454.618	674.45
454.992	697.04
455.365	697.04
455.739	686.87
456.112	695.01
456.486	702.92
456.859	705.18
457.232	695.24
457.606	703.37
457.979	716.7
458.352	708.34
458.725	722.13
459.099	709.7
459.472	716.7
459.845	703.6
460.218	713.09
460.591	723.03
460.964	711.96
461.337	716.48
461.71	733.65
462.083	701.56
462.456	727.33
462.829	713.77
463.201	761
463.574	738.85
463.947	739.3
464.32	758.74
464.692	734.1
465.065	770.49
465.438	783.14
465.81	764.39
466.183	737.95
466.555	765.29
466.928	782.69
467.3	779.53
467.672	789.02
468.045	784.27
468.417	815.68
468.789	819.98
469.161	814.78
469.534	832.41
469.906	839.64
470.278	832.63
470.65	817.72
471.022	839.41
471.394	871.73
471.766	843.71
472.138	842.8
472.51	863.82
472.882	857.72
473.253	872.86
473.625	879.19
473.997	907.21
474.369	895.46
474.74	909.24
475.112	914.21
475.484	945.62
475.855	907.89
476.227	944.95
476.598	958.73
476.97	964.38
477.341	972.97
477.713	977.26
478.084	978.39
478.455	1022.23
478.827	1023.14
479.198	1029.46
479.569	1019.52
479.94	1043.02
480.311	1049.35
480.682	1062.91
481.053	1073.98
481.424	1109.01
481.795	1104.26
482.166	1122.12
482.537	1101.55
482.908	1128.9
483.279	1155.56
483.65	1151.72
484.021	1192.85
484.391	1176.13
484.762	1188.78
485.133	1217.71
485.503	1208.67
485.874	1236.24
486.244	1230.82
486.615	1250.25
486.985	1283.02
487.356	1280.98
487.726	1280.53
488.097	1362.34
488.467	1315.78
488.837	1349.68
489.207	1351.26
489.578	1380.42
489.948	1370.7
490.318	1358.04
490.688	1399.17
491.058	1413.18
491.428	1416.57
491.798	1455.44
492.168	1457.93
492.538	1456.12
492.908	1464.93
493.278	1501.99
493.648	1489.34
494.017	1510.13
494.387	1520.52
494.757	1539.51
495.126	1563.69
495.496	1554.42
495.866	1561.65
496.235	1573.63
496.605	1589.68
496.974	1588.77
497.344	1603.46
497.713	1610.92
498.082	1640.07
498.452	1677.81
498.821	1635.55
499.19	1670.13
499.559	1664.02
499.928	1685.72
500.298	1691.37
500.667	1690.24
501.036	1710.35
501.405	1732.27
501.774	1727.75
502.143	1750.58
502.512	1754.19
502.88	1765.49
503.249	1789.22
503.618	1753.74
503.987	1815.66
504.356	1814.75
504.724	1818.82
505.093	1793.51
505.462	1840.06
505.83	1827.86
506.199	1844.81
506.567	1864.24
506.936	1855.66
507.304	1909.89
507.672	1884.58
508.041	1882.55
508.409	1923.68
508.777	1930.46
509.145	1959.61
509.514	1911.7
509.882	1926.39
510.25	1983.79
510.618	1964.13
510.986	1964.58
511.354	1978.14
511.722	2015.43
512.09	2007.29
512.458	2028.31
512.826	2040.29
513.193	2064.24
513.561	2060.17
513.929	2104.92
514.297	2100.62
514.664	2122.77
515.032	2099.72
515.4	2099.04
515.767	2123.9
516.135	2139.04
516.502	2165.71
516.869	2167.51
517.237	2202.31
517.604	2187.85
517.972	2206.61
518.339	2240.28
518.706	2226.5
519.073	2228.98
519.44	2270.56
519.808	2268.3
520.175	2260.17
520.542	2305.14
520.909	2316.89
521.276	2315.98
521.643	2338.36
522.009	2383.78
522.376	2383.1
522.743	2386.26
523.11	2402.99
523.477	2423.33
523.843	2455.42
524.21	2488.64
524.577	2475.3
524.943	2515.08
525.31	2518.46
525.676	2573.15
526.043	2514.17
526.409	2561.85
526.776	2581.06
527.142	2586.94
527.508	2573.15
527.874	2589.65
528.241	2560.95
528.607	2627.16
528.973	2689.08
529.339	2628.52
529.705	2693.15
530.071	2709.19
530.437	2712.58
530.803	2729.53
531.169	2726.59
531.535	2711.45
531.901	2709.65
532.267	2724.79
532.632	2725.92
532.998	2791.9
533.364	2773.83
533.73	2815.63
534.095	2829.87
534.461	2852.92
534.826	2842.3
535.192	2838
535.557	2872.35
535.923	2885.46
536.288	2933.14
536.653	2887.04
537.019	2882.75
537.384	2893.82
537.749	2950.09
538.114	2947.15
538.479	2925.69
538.845	2923.65
539.21	2973.37
539.575	2970.2
539.94	2994.84
540.305	2954.16
540.67	2985.8
541.034	2975.4
541.399	3003.65
541.764	2971.56
542.129	3026.47
542.494	3039.58
542.858	3068.51
543.223	3037.77
543.587	3052.69
543.952	3010.88
544.316	3026.25
544.681	3056.53
545.045	3074.38
545.41	3092.91
545.774	3106.7
546.138	3125.68
546.503	3150.99
546.867	3125.68
547.231	3159.8
547.595	3165
547.959	3193.02
548.324	3196.64
548.688	3207.03
549.052	3178.79
549.416	3183.98
549.779	3221.05
550.143	3229.41
550.507	3267.6
550.871	3276.64
551.235	3252.46
551.599	3238.9
551.962	3273.93
552.326	3252.68
552.689	3302.4
553.053	3282.96
553.417	3328.16
553.78	3365.9
554.143	3332.23
554.507	3323.19
554.87	3367.71
555.234	3374.26
555.597	3408.84
555.96	3412.45
556.323	3372.45
556.686	3380.36
557.05	3434.82
557.413	3428.72
557.776	3462.17
558.139	3465.78
558.502	3461.26
558.865	3489.74
559.228	3490.19
559.59	3555.05
559.953	3538.1
560.316	3560.92
560.679	3541.04
561.041	3581.49
561.404	3560.7
561.767	3628.27
562.129	3610.41
562.492	3683.18
562.854	3649.73
563.217	3643.86
563.579	3662.16
563.941	3664.2
564.304	3709.39
564.666	3686.8
565.028	3731.77
565.39	3759.79
565.753	3766.79
566.115	3773.35
566.477	3752.78
566.839	3798.43
567.201	3846.34
567.563	3858.32
567.925	3862.16
568.287	3893.12
568.648	3845.44
569.01	3876.17
569.372	3902.61
569.734	3899.22
570.095	3900.58
570.457	3919.11
570.819	3949.16
571.18	3920.91
571.542	3941.93
571.903	4008.14
572.265	3972.89
572.626	4016.05
572.987	4013.79
573.349	4024.64
573.71	4021.25
574.071	4041.14
574.432	4085.2
574.794	4075.94
575.155	4096.5
575.516	4059.44
575.877	4106.22
576.238	4102.38
576.599	4105.54
576.96	4069.16
577.32	4084.07
577.681	4119.33
578.042	4135.6
578.403	4145.31
578.763	4159.33
579.124	4189.38
579.485	4175.6
579.845	4172.43
580.206	4122.94
580.566	4148.7
580.927	4175.6
581.287	4186.9
581.648	4186.9
582.008	4157.07
582.368	4177.63
582.728	4163.17
583.089	4169.72
583.449	4169.04
583.809	4182.6
584.169	4169.95
584.529	4192.55
584.889	4218.31
585.249	4184.18
585.609	4178.76
585.969	4169.04
586.329	4192.77
586.688	4198.19
587.048	4188.48
587.408	4179.89
587.768	4213.79
588.127	4174.01
588.487	4206.78
588.846	4219.66
589.206	4199.1
589.565	4206.33
589.925	4220.12
590.284	4158.87
590.643	4195.48
591.003	4211.98
591.362	4220.57
591.721	4197.97
592.08	4195.03
592.44	4268.48
592.799	4175.82
593.158	4214.92
593.517	4216.73
593.876	4185.77
594.235	4179.44
594.593	4174.01
594.952	4160
595.311	4141.7
595.67	4185.54
596.029	4220.57
596.387	4206.33
596.746	4227.35
597.104	4169.72
597.463	4164.98
597.822	4218.76
598.18	4217.86
598.538	4188.48
598.897	4229.15
599.255	4187.8
599.613	4270.96
599.972	4204.97
600.33	4249.04
600.688	4171.75
601.046	4242.26
601.404	4233.45
601.762	4170.85
602.12	4209.49
602.478	4242.49
602.836	4218.31
603.194	4212.21
603.552	4225.31
603.91	4200.23
604.268	4194.8
604.625	4205.43
604.983	4237.97
605.341	4194.58
605.698	4207.01
606.056	4275.93
606.413	4268.02
606.771	4204.75
607.128	4246.56
607.485	4236.16
607.843	4210.85
608.2	4203.17
608.557	4224.41
608.914	4221.7
609.272	4261.92
609.629	4248.14
609.986	4258.76
610.343	4241.36
610.7	4252.66
611.057	4258.98
611.414	4259.89
611.771	4248.14
612.127	4295.37
612.484	4285.65
612.841	4250.17
613.198	4254.69
613.554	4241.58
613.911	4310.06
614.267	4256.05
614.624	4272.99
614.98	4248.59
615.337	4331.07
615.693	4285.88
616.05	4264.86
616.406	4283.39
616.762	4264.41
617.118	4273.45
617.475	4239.32
617.831	4243.62
618.187	4245.65
618.543	4283.84
618.899	4267.35
619.255	4285.65
619.611	4256.72
619.967	4319.77
620.323	4274.35
620.678	4231.19
621.034	4264.86
621.39	4226.22
621.746	4233.9
622.101	4262.15
622.457	4278.64
622.812	4252.66
623.168	4251.75
623.523	4242.49
623.879	4296.05
624.234	4242.04
624.589	4271.87
624.945	4253.56
625.3	4272.32
625.655	4240.45
626.01	4224.86
626.365	4270.51
626.72	4249.72
627.075	4242.49
627.43	4235.48
627.785	4241.36
628.14	4240.45
628.495	4235.26
628.85	4205.88
629.205	4192.77
629.559	4237.74
629.914	4239.55
630.269	4204.3
630.623	4189.16
630.978	4232.32
631.332	4173.11
631.687	4167.24
632.041	4211.75
632.396	4202.49
632.75	4155.48
633.104	4193.9
633.459	4102.83
633.813	4125.88
634.167	4183.96
634.521	4106.45
634.875	4142.83
635.229	4161.13
635.583	4078.42
635.937	4100.12
636.291	4045.88
636.645	4110.06
636.999	4063.96
637.352	4091.53
637.706	3996.62
638.06	4101.02
638.413	4024.64
638.767	3996.84
639.121	4045.66
639.474	4002.95
639.828	4029.61
640.181	4021.25
640.534	4042.04
640.888	4023.74
641.241	4016.5
641.594	4013.34
641.947	4009.95
642.301	3994.58
642.654	3941.03
643.007	3986.67
643.36	3959.33
643.713	3951.87
644.066	3987.35
644.419	3929.05
644.771	3936.28
645.124	3812.44
645.477	3869.39
645.83	3843.63
646.182	3826.45
646.535	3821.71
646.888	3853.35
647.24	3841.37
647.593	3859.22
647.945	3790.3
648.298	3810.86
648.65	3802.95
649.002	3803.63
649.355	3799.56
649.707	3774.7
650.059	3814.02
650.411	3771.31
650.763	3786
651.115	3870.75
651.467	3822.39
651.819	3834.81
652.171	3838.2
652.523	3818.54
652.875	3795.27
653.227	3821.93
653.578	3783.97
653.93	3797.53
654.282	3771.54
654.633	3779.22
654.985	3794.36
655.337	3727.47
655.688	3775.15
656.039	3805.89
656.391	3725.89
656.742	3741.26
657.094	3748.26
657.445	3767.02
657.796	3780.8
658.147	3732.22
658.498	3767.7
658.849	3748.94
659.2	3751.88
659.551	3694.93
659.902	3723.86
660.253	3699.68
660.604	3749.39
660.955	3687.25
661.306	3707.81
661.656	3688.15
662.007	3722.28
662.358	3680.69
662.708	3666.46
663.059	3689.73
663.409	3665.55
663.76	3656.29
664.11	3688.38
664.461	3680.02
664.811	3714.59
665.161	3685.89
665.511	3648.15
665.862	3681.15
666.212	3725.44
666.562	3658.1
666.912	3658.55
667.262	3672.78
667.612	3654.03
667.962	3658.1
668.312	3640.02
668.662	3628.49
669.011	3674.59
669.361	3656.29
669.711	3646.34
670.06	3640.24
670.41	3635.27
670.76	3584.2
671.109	3630.98
671.459	3616.52
671.808	3566.12
672.157	3640.24
672.507	3576.97
672.856	3592.11
673.205	3595.72
673.554	3597.76
673.904	3573.13
674.253	3585.1
674.602	3595.05
674.951	3511.21
675.3	3498.33
675.649	3559.34
675.998	3538.78
676.346	3574.48
676.695	3531.55
677.044	3551.66
677.393	3574.93
677.741	3557.53
678.09	3550.08
678.438	3554.6
678.787	3492.68
679.135	3537.87
679.484	3543.52
679.832	3535.61
680.181	3495.84
680.529	3544.65
680.877	3488.61
681.225	3529.96
681.573	3478.44
681.922	3480.47
682.27	3472.56
682.618	3468.5
682.966	3462.62
683.314	3487.93
683.661	3438.67
684.009	3447.03
684.357	3408.61
684.705	3447.03
685.053	3457.65
685.4	3391.89
685.748	3407.71
686.095	3421.49
686.443	3396.86
686.79	3356.41
687.138	3427.59
687.485	3407.93
687.832	3404.77
688.18	3359.8
688.527	3354.15
688.874	3315.96
689.221	3326.35
689.568	3317.54
689.915	3294.49
690.262	3287.26
690.609	3325.45
690.956	3283.64
691.303	3296.3
691.65	3265.79
691.997	3291.1
692.344	3261.72
692.69	3248.16
693.037	3251.55
693.383	3242.51
693.73	3236.19
694.077	3266.47
694.423	3259.01
694.769	3196.64
695.116	3217.88
695.462	3217.66
695.808	3208.16
696.155	3200.03
696.501	3180.82
696.847	3136.3
697.193	3135.85
697.539	3174.04
697.885	3155.96
698.231	3111.67
698.577	3173.36
698.923	3109.64
699.269	3110.09
699.614	3128.84
699.96	3113.03
700.306	3082.07
700.651	3107.6
700.997	3019.92
701.342	3024.89
701.688	3054.95
702.033	3020.82
702.379	3017.66
702.724	3043.42
703.069	3003.2
703.415	3026.25
703.76	3013.59
704.105	2979.24
704.45	2994.38
704.795	2957.32
705.14	2967.27
705.485	2984.22
705.83	2981.05
706.175	2917.78
706.52	2972.46
706.865	2957.55
707.209	2954.84
707.554	2943.99
707.899	2949.19
708.243	2938.79
708.588	2909.42
708.932	2889.75
709.277	2887.04
709.621	2866.03
709.966	2849.3
710.31	2882.07
710.654	2890.88
710.998	2850.66
711.342	2868.29
711.687	2888.17
712.031	2836.87
712.375	2818.8
712.719	2843.2
713.063	2829.19
713.407	2824.22
713.75	2827.38
714.094	2830.32
714.438	2795.07
714.782	2809.08
715.125	2758.91
715.469	2791.68
715.812	2762.3
716.156	2751.91
716.499	2771.79
716.843	2792.13
717.186	2746.26
717.53	2738.8
717.873	2781.51
718.216	2767.5
718.559	2742.64
718.902	2759.14
719.246	2728.18
719.589	2714.39
719.932	2710.32
720.275	2728.85
720.617	2699.7
720.96	2693.38
721.303	2714.17
721.646	2692.7
721.989	2710.32
722.331	2732.92
722.674	2659.93
723.016	2673.26
723.359	2668.74
723.701	2709.87
724.044	2662.64
724.386	2639.59
724.729	2634.39
725.071	2664.9
725.413	2615.41
725.755	2649.53
726.097	2652.92
726.439	2657.44
726.782	2592.59
727.124	2643.89
727.465	2587.62
727.807	2617.22
728.149	2580.61
728.491	2609.08
728.833	2646.6
729.175	2646.15
729.516	2602.3
729.858	2581.51
730.199	2589.65
730.541	2558.24
730.882	2552.36
731.224	2578.8
731.565	2563.89
731.906	2576.09
732.248	2539.71
732.589	2584
732.93	2551.68
733.271	2548.52
733.612	2572.47
733.953	2553.72
734.294	2504.45
734.635	2549.2
734.976	2524.11
735.317	2487.05
735.658	2503.55
735.999	2520.05
736.339	2511.23
736.68	2508.52
737.021	2492.7
737.361	2471.46
737.702	2496.77
738.042	2520.05
738.383	2499.26
738.723	2509.88
739.063	2501.97
739.404	2511.91
739.744	2490.67
740.084	2500.61
740.424	2480.05
740.764	2523.66
741.104	2453.61
741.444	2473.95
741.784	2456.77
742.124	2445.02
742.464	2466.71
742.804	2451.8
743.143	2451.57
743.483	2418.58
743.823	2469.43
744.162	2445.25
744.502	2410.22
744.841	2408.64
745.181	2440.73
745.52	2448.18
745.86	2415.64
746.199	2418.58
746.538	2428.07
746.877	2423.55
747.216	2396.21
747.556	2419.94
747.895	2398.47
748.234	2397.79
748.573	2366.6
748.911	2400.73
749.25	2410.45
749.589	2347.62
749.928	2406.38
750.267	2366.15
750.605	2374.06
750.944	2340.62
751.283	2332.26
751.621	2396.43
751.96	2340.62
752.298	2337.45
752.636	2331.35
752.975	2319.6
753.313	2327.06
753.651	2344.01
753.989	2365.02
754.327	2336.1
754.666	2319.83
755.004	2335.87
755.342	2337.45
755.679	2294.06
756.017	2275.31
756.355	2311.01
756.693	2268.08
757.031	2283.89
757.368	2284.57
757.706	2293.39
758.044	2312.14
758.381	2255.19
758.719	2273.5
759.056	2246.61
759.394	2258.13
759.731	2238.47
760.068	2225.14
760.405	2249.77
760.743	2256.78
761.08	2264.46
761.417	2215.87
761.754	2202.09
762.091	2186.5
762.428	2190.11
762.765	2184.01
763.102	2209.32
763.438	2188.98
763.775	2147.63
764.112	2163.45
764.449	2157.34
764.785	2153.5
765.122	2151.47
765.458	2135.88
765.795	2133.84
766.131	2110.34
766.467	2134.29
766.804	2158.02
767.14	2108.76
767.476	2115.09
767.812	2130.45
768.148	2096.56
768.485	2119.83
768.821	2079.61
769.157	2078.7
769.492	2094.3
769.828	2051.58
770.164	2024.47
770.5	2044.58
770.836	2044.13
771.171	2024.69
771.507	2016.56
771.842	2016.33
772.178	2043.45
772.513	1993.96
772.849	2010.68
773.184	2023.34
773.519	2024.01
773.855	2000.74
774.19	1984.02
774.525	1983.56
774.86	2019.72
775.195	1984.69
775.53	1986.95
775.865	1979.95
776.2	1964.13
776.535	1908.99
776.87	1949.67
777.205	1925.03
777.539	1928.65
777.874	1932.72
778.209	1901.76
778.543	1918.93
778.878	1901.08
779.212	1912.15
779.547	1876.45
779.881	1896.56
780.215	1862.44
780.55	1874.64
780.884	1906.73
781.218	1870.8
781.552	1878.93
781.886	1850.23
782.22	1861.76
782.554	1851.14
782.888	1828.99
783.222	1818.82
783.556	1844.36
783.889	1839.84
784.223	1820.63
784.557	1778.37
784.89	1813.62
785.224	1837.13
785.557	1824.92
785.891	1825.83
786.224	1783.12
786.558	1807.52
786.891	1767.75
787.224	1769.56
787.557	1764.59
787.891	1743.8
788.224	1766.17
788.557	1739.95
788.89	1745.38
789.223	1764.59
789.556	1730.69
789.888	1746.28
790.221	1724.36
790.554	1705.83
790.887	1705.83
791.219	1696.79
791.552	1730.69
791.884	1716.23
792.217	1719.84
792.549	1706.51
792.882	1704.02
793.214	1669.22
793.546	1656.79
793.879	1673.06
794.211	1634.19
794.543	1663.35
794.875	1661.09
795.207	1661.09
795.539	1653.18
795.871	1606.62
796.203	1620.64
796.535	1670.35
796.867	1634.19
797.198	1584.7
797.53	1635.32
797.862	1615.44
798.193	1598.94
798.525	1583.8
798.856	1588.77
799.188	1612.73
799.519	1586.51
799.85	1607.98
800.182	1564.37
800.513	1576.57
800.844	1574.76
801.175	1585.83
801.506	1589.45
801.837	1575.44
802.168	1553.74
802.499	1583.12
802.83	1579.05
803.161	1590.81
803.491	1541.54
803.822	1550.81
804.153	1539.96
804.483	1534.76
804.814	1555.55
805.145	1553.29
805.475	1528.43
805.805	1537.7
806.136	1563.91
806.466	1492.28
806.796	1537.25
807.126	1523.01
807.457	1493.86
807.787	1500.64
808.117	1496.34
808.447	1519.85
808.777	1537.47
809.107	1514.88
809.436	1464.93
809.766	1494.76
810.096	1490.24
810.426	1508.77
810.755	1480.75
811.085	1490.92
811.414	1500.86
811.744	1478.04
812.073	1504.03
812.403	1452.5
812.732	1475.33
813.061	1448.44
813.39	1434.43
813.719	1437.36
814.049	1464.93
814.378	1427.19
814.707	1441.66
815.036	1432.84
815.365	1436.91
815.693	1436.23
816.022	1419.96
816.351	1415.67
816.68	1399.62
817.008	1408.66
817.337	1420.87
817.665	1437.36
817.994	1412.96
818.322	1405.95
818.651	1381.55
818.979	1408.89
819.307	1392.62
819.636	1379.51
819.964	1393.52
820.292	1411.15
820.62	1412.51
820.948	1398.95
821.276	1373.41
821.604	1387.2
821.932	1406.86
822.259	1402.11
822.587	1382.45
822.915	1423.8
823.243	1394.2
823.57	1386.74
823.898	1378.61
824.225	1381.32
824.553	1390.58
824.88	1361.21
825.207	1367.53
825.535	1362.79
825.862	1397.36
826.189	1389.91
826.516	1404.6
826.843	1363.02
827.17	1396.69
827.497	1360.08
827.824	1390.36
828.151	1385.84
828.478	1372.96
828.805	1355.11
829.131	1373.41
829.458	1374.77
829.785	1406.86
830.111	1355.78
830.438	1384.26
830.764	1381.09
831.09	1406.63
831.417	1397.36
831.743	1392.39
832.069	1365.27
832.395	1356.24
832.722	1376.12
833.048	1379.06
833.374	1400.53
833.7	1334.54
834.026	1355.56
834.351	1360.53
834.677	1379.74
835.003	1385.16
835.329	1361.43
835.654	1368.44
835.98	1346.97
836.306	1340.87
836.631	1379.51
836.956	1379.74
837.282	1325.28
837.607	1346.97
837.932	1332.96
838.258	1338.61
838.583	1361.89
838.908	1344.71
839.233	1339.06
839.558	1326.18
839.883	1341.55
840.208	1331.83
840.533	1353.3
840.858	1337.93
841.182	1339.29
841.507	1341.32
841.832	1327.08
842.156	1302.45
842.481	1323.02
842.805	1323.02
843.13	1324.15
843.454	1345.84
843.778	1305.62
844.103	1313.3
844.427	1321.89
844.751	1300.42
845.075	1325.95
845.399	1304.26
845.723	1310.81
846.047	1293.64
846.371	1298.61
846.695	1264.26
847.019	1278.27
847.343	1286.41
847.666	1276.01
847.99	1265.62
848.313	1271.72
848.637	1257.71
848.96	1263.36
849.284	1259.97
849.607	1229.23
849.931	1268.78
850.254	1271.49
850.577	1245.96
850.9	1245.05
851.223	1223.58
851.546	1219.52
851.869	1264.94
852.192	1200.99
852.515	1225.39
852.838	1204.6
853.161	1198.95
853.483	1226.52
853.806	1204.6
854.129	1195.56
854.451	1191.95
854.774	1203.7
855.096	1176.58
855.419	1189.01
855.741	1179.07
856.063	1191.49
856.385	1186.07
856.708	1172.06
857.03	1153.98
857.352	1207.54
857.674	1178.39
857.996	1160.53
858.318	1172.06
858.64	1176.35
858.961	1158.5
859.283	1168.44
859.605	1198.73
859.926	1157.37
860.248	1171.38
860.57	1165.96
860.891	1142.68
861.212	1155.11
861.534	1143.36
861.855	1132.29
862.176	1169.35
862.498	1167.31
862.819	1111.27
863.14	1151.72
863.461	1121.21
863.782	1131.61
864.103	1147.65
864.424	1127.54
864.745	1159.4
865.065	1106.3
865.386	1125.28
865.707	1139.29
866.027	1102.68
866.348	1102.46
866.668	1107.2
866.989	1137.03
867.309	1109.46
867.63	1114.89
867.95	1117.6
868.27	1099.29
868.59	1104.72
868.91	1106.07
869.23	1133.87
869.55	1110.59
869.87	1124.83
870.19	1118.73
870.51	1124.15
870.83	1115.56
871.15	1080.76
871.469	1125.51
871.789	1104.94
872.109	1088.22
872.428	1086.19
872.748	1087.32
873.067	1096.13
873.386	1102.23
873.706	1067.66
874.025	1072.18
874.344	1092.29
874.663	1091.61
874.982	1066.75
875.301	1079.18
875.62	1059.75
875.939	1096.36
876.258	1094.1
876.577	1070.82
876.896	1078.73
877.214	1092.29
877.533	1078.95
877.852	1062.46
878.17	1054.55
878.489	1077.15
878.807	1097.71
879.125	1049.35
879.444	1071.72
879.762	1016.13
880.08	1037.6
880.398	1076.02
880.716	1075.11
881.034	1060.88
881.352	1059.52
881.67	1055.9
881.988	1043.7
882.306	1025.17
882.624	1062.01
882.941	1046.64
883.259	1052.29
883.577	1028.56
883.894	1051.84
884.212	1025.17
884.529	1023.36
884.846	1036.47
885.164	1046.64
885.481	994.89
885.798	1058.16
886.115	1037.15
886.432	1051.38
886.75	1012.74
887.067	1028.79
887.383	1005.96
887.7	1041.67
888.017	987.88
888.334	1013.65
888.651	1018.17
888.967	1004.38
889.284	996.24
889.6	1046.19
889.917	986.08
890.233	1006.64
890.55	996.7
890.866	1007.32
891.182	981.33
891.498	991.95
891.815	997.6
892.131	974.32
892.447	982.69
892.763	1001.67
893.079	983.14
893.395	992.63
893.71	992.86
894.026	981.56
894.342	990.14
894.657	1002.57
894.973	988.34
895.289	975.45
895.604	977.71
895.92	967.55
896.235	969.35
896.55	976.81
896.865	943.14
897.181	942.91
897.496	928.68
897.811	925.29
898.126	960.09
898.441	958.05
898.756	963.48
899.071	950.82
899.386	943.59
899.7	924.83
900.015	934.1
900.33	937.49
900.644	947.21
900.959	947.21
901.273	921.44
901.588	937.72
901.902	939.75
902.216	895.23
902.531	915.34
902.845	903.14
903.159	915.57
903.473	931.16
903.787	916.25
904.101	911.05
904.415	907.43
904.729	893.87
905.042	882.8
905.356	890.03
905.67	925.96
905.984	895.23
906.297	909.92
906.611	881.67
906.924	905.85
907.237	892.97
907.551	886.64
907.864	908.11
908.177	897.04
908.491	878.28
908.804	888
909.117	849.36
909.43	879.86
909.743	871.95
910.056	880.09
910.368	866.08
910.681	880.99
910.994	864.72
911.307	869.47
911.619	857.72
911.932	837.38
912.244	828.79
912.557	874.21
912.869	840.09
913.181	859.75
913.494	860.66
913.806	839.19
914.118	853.2
914.43	812.3
914.742	840.77
915.054	834.44
915.366	806.65
915.678	810.26
915.99	822.01
916.302	821.11
916.613	815.23
916.925	812.3
917.236	812.07
917.548	827.21
917.859	806.42
918.171	797.61
918.482	803.93
918.794	795.8
919.105	812.75
919.416	816.59
919.727	820.43
920.038	789.47
920.349	801.45
920.66	795.57
920.971	781.79
921.282	792.41
921.593	795.8
921.903	784.95
922.214	777.72
922.525	782.24
922.835	783.6
923.146	758.51
923.456	790.6
923.767	775.01
924.077	773.43
924.387	777.72
924.697	769.81
925.008	771.17
925.318	787.66
925.628	764.16
925.938	762.35
926.248	757.16
926.558	740.66
926.867	729.36
927.177	746.99
927.487	736.36
927.796	743.6
928.106	726.42
928.416	731.62
928.725	735.01
929.034	751.05
929.344	739.53
929.653	732.75
929.962	729.81
930.271	750.15
930.581	718.29
930.89	735.46
931.199	730.72
931.508	734.33
931.817	722.35
932.125	726.42
932.434	724.84
932.743	743.82
933.051	730.72
933.36	706.08
933.669	697.5
933.977	711.28
934.286	697.72
934.594	718.51
934.902	719.42
935.21	688.68
935.519	688
935.827	695.46
936.135	705.41
936.443	672.19
936.751	673.99
937.059	666.99
937.367	701.11
937.674	702.24
937.982	671.28
938.29	708.57
938.597	691.62
938.905	681.45
939.213	673.54
939.52	693.2
939.827	653.43
940.135	676.93
940.442	661.11
940.749	646.88
941.056	671.06
941.363	676.03
941.67	660.89
941.977	640.55
942.284	669.25
942.591	658.63
942.898	633.77
943.205	627.89
943.511	655.69
943.818	672.64
944.125	647.78
944.431	632.64
944.738	633.99
945.044	652.07
945.35	646.65
945.657	652.53
945.963	645.75
946.269	641.23
946.575	641
946.881	628.12
947.187	634.22
947.493	631.28
947.799	629.25
948.105	636.93
948.41	613.43
948.716	616.82
949.022	641.9
949.327	612.98
949.633	629.25
949.938	603.71
950.244	620.44
950.549	631.06
950.854	596.26
951.16	654.56
951.465	640.32
951.77	619.53
952.075	606.2
952.38	602.58
952.685	589.02
952.99	593.54
953.294	610.04
953.599	602.58
953.904	604.16
954.209	597.39
954.513	609.14
954.818	631.06
955.122	607.33
955.426	585.18
955.731	613.43
956.035	588.12
956.339	605.97
956.643	606.88
956.948	590.61
957.252	595.8
957.556	589.7
957.86	582.02
958.163	580.21
958.467	598.29
958.771	589.02
959.075	567.1
959.378	565.3
959.682	604.39
959.985	577.05
960.289	589.93
960.592	596.03
960.896	569.59
961.199	558.52
961.502	572.53
961.805	588.57
962.108	571.4
962.411	543.83
962.714	563.04
963.017	579.53
963.32	577.5
963.623	552.19
963.926	535.47
964.228	575.01
964.531	555.13
964.833	555.35
965.136	555.13
965.438	554.45
965.741	556.03
966.043	533.88
966.345	553.77
966.648	565.07
966.95	553.54
967.252	549.93
967.554	563.49
967.856	541.79
968.158	548.35
968.46	543.83
968.761	548.12
969.063	531.85
969.365	558.06
969.666	544.28
969.968	546.77
970.269	526.2
970.571	528.69
970.872	529.59
971.174	556.71
971.475	512.64
971.776	520.33
972.077	530.04
972.378	535.92
972.679	528.91
972.98	542.25
973.281	541.57
973.582	535.92
973.883	497.95
974.183	521.91
974.484	520.78
974.785	522.81
975.085	515.13
975.386	530.27
975.686	543.15
975.986	511.06
976.287	506.09
976.587	506.77
976.887	521.46
977.187	488.46
977.487	501.34
977.787	528.23
978.087	497.05
978.387	505.64
978.687	506.77
978.987	520.1
979.286	494.56
979.586	501.34
979.885	506.54
980.185	505.18
980.484	500.44
980.784	512.87
981.083	485.3
981.382	510.38
981.682	492.76
981.981	500.44
982.28	500.44
982.579	477.84
982.878	496.6
983.177	510.61
983.475	519.87
983.774	506.31
984.073	487.33
984.372	490.95
984.67	508.12
984.969	488.91
985.267	497.05
985.566	466.54
985.864	476.26
986.162	499.99
986.461	465.19
986.759	445.07
987.057	487.78
987.355	488.69
987.653	505.41
987.951	478.74
988.249	485.3
988.547	476.71
988.844	486.88
989.142	485.98
989.44	474.45
989.737	474.45
990.035	490.95
990.332	511.96
990.63	489.82
990.927	469.25
991.224	467.9
991.521	452.76
991.819	464.96
992.116	469.25
992.413	465.19
992.71	451.4
993.006	480.1
993.303	476.03
993.6	462.02
993.897	461.12
994.193	472.64
994.49	471.51
994.787	460.89
995.083	467.67
995.379	449.37
995.676	433.77
995.972	455.69
996.268	456.37
996.565	455.69
996.861	471.51
997.157	456.6
997.453	451.17
997.749	466.77
998.044	447.56
998.34	461.8
998.636	434.45
998.932	444.17
999.227	450.72
999.523	449.82
999.818	452.08
1000.114	444.62
1000.409	446.2
1000.704	447.78
1001	445.75
1001.295	442.81
1001.59	458.41
1001.885	465.19
1002.18	434.45
1002.475	446.88
1002.77	443.72
1003.065	437.84
1003.359	439.42
1003.654	435.58
1003.949	438.07
1004.243	424.73
1004.538	435.36
1004.832	437.39
1005.127	442.36
1005.421	423.38
1005.715	433.32
1006.009	428.12
1006.304	418.86
1006.598	415.7
1006.892	433.55
1007.186	443.72
1007.48	432.42
1007.773	409.82
1008.067	426.54
1008.361	431.29
1008.655	413.89
1008.948	419.76
1009.242	426.09
1009.535	440.55
1009.829	411.18
1010.122	395.13
1010.415	431.51
1010.708	403.49
1011.001	395.36
1011.295	423.38
1011.588	426.77
1011.881	426.54
1012.173	426.77
1012.466	412.53
1012.759	425.41
1013.052	407.33
1013.344	405.53
1013.637	405.98
1013.93	420.89
1014.222	412.53
1014.514	407.79
1014.807	410.72
1015.099	408.24
1015.391	401.01
1015.683	422.02
1015.976	408.69
1016.268	404.62
1016.56	385.41
1016.851	401.91
1017.143	413.66
1017.435	404.4
1017.727	400.1
1018.018	410.72
1018.31	398.29
1018.602	398.52
1018.893	375.02
1019.185	420.21
1019.476	393.32
1019.767	408.01
1020.058	398.75
1020.35	379.31
1020.641	384.06
1020.932	400.55
1021.223	389.48
1021.514	393.1
1021.804	394.68
1022.095	389.71
1022.386	405.53
1022.677	379.76
1022.967	397.39
1023.258	383.83
1023.548	400.55
1023.839	406.43
1024.129	394.23
1024.419	371.4
1024.709	376.37
1025	375.92
1025.29	373.44
1025.58	372.76
1025.87	387.22
1026.16	393.32
1026.449	393.55
1026.739	357.62
1027.029	397.39
1027.319	386.09
1027.608	382.25
1027.898	382.93
1028.187	395.13
1028.477	399.42
1028.766	366.88
1029.055	376.15
1029.344	397.39
1029.634	391.97
1029.923	363.95
1030.212	369.37
1030.501	377.05
1030.79	365.98
1031.078	366.43
1031.367	373.21
1031.656	374.11
1031.945	372.98
1032.233	391.97
1032.522	362.59
1032.81	384.28
1033.099	361.01
1033.387	390.16
1033.675	367.33
1033.963	334.79
1034.251	375.7
1034.54	358.07
1034.828	381.12
1035.116	359.65
1035.403	358.52
1035.691	351.06
1035.979	351.97
1036.267	374.34
1036.554	348.58
1036.842	368.92
1037.129	365.53
1037.417	370.95
1037.704	354.68
1037.992	344.96
1038.279	347
1038.566	362.36
1038.853	362.36
1039.14	362.36
