Data from foam_black_FLMS001491_00012.txt Node
Date: Wed Feb 08 10:43:34 GMT 2017
User: dcchb
Spectrometer: FLMS00149
Trigger mode: 0
Integration Time (sec): 2.000000E-2
Scans to average: 10
Electric dark correction enabled: true
Nonlinearity correction enabled: false
Boxcar width: 0
XAxis mode: Wavelengths
Number of Pixels in Spectrum: 2048
>>>>>Begin Spectral Data<<<<<
341.393	-11.27
341.776	-11.27
342.16	-11.27
342.543	-57.6
342.927	-64.6
343.31	-66.41
343.693	-55.79
344.077	-65.28
344.46	-60.99
344.843	-47.88
345.226	-56.02
345.61	-24.6
345.993	-31.84
346.376	12.01
346.759	3.87
347.142	27.82
347.525	43.19
347.908	60.82
348.291	68.95
348.674	88.61
349.057	103.53
349.44	139.46
349.823	115.51
350.206	152.79
350.588	172.23
350.971	195.96
351.354	224.66
351.737	202.73
352.119	227.82
352.502	233.92
352.884	254.48
353.267	280.92
353.65	252
354.032	296.29
354.414	301.26
354.797	287.7
355.179	314.14
355.562	284.31
355.944	300.59
356.326	316.4
356.709	337.19
357.091	336.06
357.473	317.53
357.855	331.32
358.238	331.09
358.62	325.44
359.002	327.93
359.384	339.45
359.766	332.67
360.148	327.93
360.53	332.45
360.912	323.86
361.294	322.05
361.676	340.13
362.057	321.38
362.439	315.73
362.821	306.46
363.203	317.76
363.584	319.34
363.966	328.38
364.348	326.57
364.729	309.62
365.111	306.01
365.493	316.63
365.874	300.36
366.256	302.39
366.637	305.1
367.019	289.06
367.4	327.03
367.781	317.53
368.163	319.57
368.544	318.21
368.925	335.61
369.306	304.43
369.688	302.39
370.069	294.71
370.45	297.65
370.831	306.91
371.212	308.49
371.593	306.46
371.974	291.09
372.355	329.74
372.736	317.08
373.117	323.41
373.498	298.55
373.879	310.98
374.26	322.51
374.641	317.76
375.021	322.05
375.402	325.44
375.783	296.29
376.163	334.26
376.544	327.48
376.925	330.64
377.305	332.22
377.686	330.64
378.066	319.57
378.447	316.18
378.827	331.32
379.208	330.42
379.588	323.86
379.968	328.38
380.349	349.4
380.729	310.08
381.109	326.57
381.489	327.48
381.87	350.3
382.25	330.19
382.63	334.48
383.01	336.06
383.39	327.48
383.77	349.62
384.15	343.75
384.53	338.1
384.91	362.28
385.29	351.21
385.67	350.53
386.049	350.3
386.429	355.95
386.809	336.52
387.189	355.05
387.568	356.63
387.948	346.69
388.328	354.6
388.707	353.47
389.087	351.43
389.466	360.24
389.846	341.49
390.225	368.38
390.605	364.31
390.984	382.17
391.363	363.63
391.743	371.54
392.122	377.65
392.501	371.09
392.881	389.85
393.26	390.07
393.639	395.72
394.018	387.14
394.397	400.24
394.776	401.15
395.155	384.2
395.534	399.34
395.913	394.37
396.292	382.62
396.671	408.61
397.05	412.22
397.429	397.08
397.808	418.32
398.186	409.73
398.565	406.12
398.944	402.28
399.323	388.72
399.701	405.22
400.08	415.38
400.458	400.47
400.837	410.19
401.215	397.53
401.594	438.66
401.972	437.3
402.351	414.93
402.729	440.02
403.107	427.59
403.486	442.73
403.864	422.16
404.242	437.53
404.62	446.34
404.999	435.5
405.377	448.6
405.755	453.8
406.133	434.59
406.511	454.03
406.889	442.95
407.267	443.63
407.645	445.89
408.023	465.1
408.401	470.98
408.779	454.71
409.156	477.3
409.534	476.63
409.912	492.44
410.29	504.87
410.667	496.51
411.045	486.34
411.422	501.48
411.8	491.54
412.178	507.36
412.555	489.51
412.933	500.81
413.31	511.88
413.687	541.71
414.065	508.26
414.442	518.43
414.819	519.34
415.197	513.46
415.574	542.84
415.951	531.54
416.328	532.9
416.705	526.34
417.082	534.03
417.46	553.23
417.837	565.66
418.214	544.42
418.591	557.3
418.967	552.78
419.344	573.35
419.721	561.6
420.098	587.58
420.475	561.14
420.852	560.69
421.228	584.19
421.605	593.91
421.982	587.36
422.358	581.48
422.735	576.06
423.111	609.5
423.488	623.97
423.864	616.51
424.241	607.47
424.617	616.06
424.994	632.55
425.37	600.01
425.746	637.3
426.123	639.56
426.499	624.64
426.875	638.66
427.251	685.43
427.627	668.03
428.003	646.56
428.379	672.55
428.756	660.35
429.132	669.84
429.507	672.78
429.883	694.47
430.259	717.75
430.635	711.42
431.011	708.94
431.387	716.39
431.763	727.24
432.138	718.43
432.514	751.87
432.89	741.48
433.265	749.16
433.641	734.25
434.016	762.95
434.392	767.24
434.767	796.62
435.143	764.75
435.518	784.87
435.894	801.36
436.269	815.15
436.644	803.4
437.02	805.88
437.395	821.48
437.77	818.76
438.145	850.85
438.52	844.75
438.895	823.28
439.271	855.6
439.646	872.77
440.021	872.32
440.395	890.4
440.77	871.64
441.145	868.03
441.52	896.28
441.895	885.43
442.27	902.83
442.645	880.01
443.019	890.85
443.394	873.23
443.769	912.09
444.143	910.06
444.518	932.66
444.892	959.55
445.267	922.49
445.641	934.69
446.016	951.42
446.39	946.22
446.764	941.7
447.139	960
447.513	974.69
447.887	964.97
448.262	967.01
448.636	991.64
449.01	988.25
449.384	991.87
449.758	991.19
450.132	994.13
450.506	1011.08
450.88	1036.84
451.254	1016.95
451.628	1053.79
452.002	1057.63
452.376	1067.34
452.75	1043.84
453.123	1091.07
453.497	1094.46
453.871	1089.04
454.244	1092.88
454.618	1107.57
454.992	1117.96
455.365	1128.59
455.739	1152.99
456.112	1164.52
456.486	1160.45
456.859	1150.96
457.232	1218.3
457.606	1198.64
457.979	1183.73
458.352	1224.85
458.725	1244.52
459.099	1237.51
459.472	1283.84
459.845	1278.86
460.218	1265.98
460.591	1310.5
460.964	1300.33
461.337	1319.32
461.71	1308.02
462.083	1365.42
462.456	1370.84
462.829	1346.89
463.201	1381.69
463.574	1397.96
463.947	1409.48
464.32	1419.65
464.692	1434.34
465.065	1444.28
465.438	1430.05
465.81	1479.99
466.183	1490.38
466.555	1525.64
466.928	1542.81
467.3	1529.03
467.672	1556.37
468.045	1579.65
468.417	1591.85
468.789	1614
469.161	1614.22
469.534	1623.94
469.906	1657.61
470.278	1689.93
470.65	1699.87
471.022	1720.21
471.394	1744.62
471.766	1779.42
472.138	1802.69
472.51	1804.73
472.882	1832.97
473.253	1875.69
473.625	1852.18
473.997	1933.08
474.369	1908.68
474.74	1951.84
475.112	1971.05
475.484	2006.98
475.855	2030.71
476.227	2051.27
476.598	2086.75
476.97	2122.23
477.341	2163.81
477.713	2188.9
478.084	2222.57
478.455	2257.82
478.827	2275.67
479.198	2336.92
479.569	2347.99
479.94	2388.21
480.311	2404.71
480.682	2433.41
481.053	2492.84
481.424	2543.92
481.795	2584.37
482.166	2626.63
482.537	2630.92
482.908	2678.6
483.279	2682.44
483.65	2786.17
484.021	2844.02
484.391	2831.37
484.762	2840.86
485.133	2884.25
485.503	2921.99
485.874	2976.22
486.244	2997.46
486.615	3079.72
486.985	3129.89
487.356	3095.54
487.726	3171.7
488.097	3206.72
488.467	3203.11
488.837	3270
489.207	3325.82
489.578	3337.79
489.948	3389.77
490.318	3456.21
490.688	3448.3
491.058	3518.35
491.428	3567.62
491.798	3589.76
492.168	3661.4
492.538	3631.35
492.908	3679.93
493.278	3767.61
493.648	3769.19
494.017	3822.53
494.387	3854.16
494.757	3863.43
495.126	3872.47
495.496	3909.98
495.866	3931.45
496.235	3931.68
496.605	3997.66
496.974	4040.37
497.344	4034.5
497.713	4092.58
498.082	4104.78
498.452	4170.54
498.821	4167.38
499.19	4201.73
499.559	4196.75
499.928	4272.91
500.298	4349.07
500.667	4332.12
501.036	4376.64
501.405	4382.74
501.774	4417.99
502.143	4441.27
502.512	4454.83
502.88	4540.7
503.249	4500.47
503.618	4547.03
503.987	4535.73
504.356	4623.64
504.724	4633.58
505.093	4623.64
505.462	4662.28
505.83	4695.95
506.199	4719.68
506.567	4789.05
506.936	4786.57
507.304	4821.37
507.672	4882.61
508.041	4856.62
508.409	4991.54
508.777	4926.68
509.145	5019.78
509.514	5000.35
509.882	5037.64
510.25	5062.49
510.618	5130.51
510.986	5138.2
511.354	5190.85
511.722	5214.81
512.09	5260.45
512.458	5265.65
512.826	5370.06
513.193	5386.33
513.561	5388.14
513.929	5445.76
514.297	5476.27
514.664	5490.73
515.032	5498.87
515.4	5562.37
515.767	5603.95
516.135	5627.45
516.502	5579.77
516.869	5724.4
517.237	5765.3
517.604	5766.43
517.972	5776.37
518.339	5876.71
518.706	5878.74
519.073	5883.94
519.44	5973.66
519.808	6018.63
520.175	5999.19
520.542	6127.55
520.909	6176.81
521.276	6111.73
521.643	6230.37
522.009	6258.62
522.376	6325.74
522.743	6325.74
523.11	6373.87
523.477	6486.86
523.843	6512.17
524.21	6595.79
524.577	6617.93
524.943	6617.03
525.31	6673.3
525.676	6737.93
526.043	6780.41
526.409	6811.37
526.776	6868.77
527.142	6882.56
527.508	6987.19
527.874	6980.86
528.241	7060.63
528.607	7093.85
528.973	7198.03
529.339	7178.6
529.705	7240.29
530.071	7278.93
530.437	7334.3
530.803	7401.42
531.169	7375.2
531.535	7428.76
531.901	7393.96
532.267	7480.96
532.632	7513.5
532.998	7578.59
533.364	7628.53
533.73	7645.25
534.095	7696.78
534.461	7740.62
534.826	7806.15
535.192	7820.84
535.557	7854.74
535.923	7863.32
536.288	7904.91
536.653	7925.24
537.019	7890.22
537.384	7946.94
537.749	8066.26
538.114	8072.13
538.479	8092.24
538.845	8135.18
539.21	8104.67
539.575	8113.26
539.94	8188.51
540.305	8284.1
540.67	8169.08
541.034	8240.49
541.399	8282.07
541.764	8375.63
542.129	8347.61
542.494	8376.76
542.858	8427.38
543.223	8405.46
543.587	8521.61
543.952	8553.7
544.316	8567.94
544.681	8550.31
545.045	8642.74
545.41	8661.04
545.774	8652.46
546.138	8682.06
546.503	8709.18
546.867	8715.05
547.231	8793.92
547.595	8780.59
547.959	8886.57
548.324	8933.13
548.688	8893.58
549.052	8869.4
549.416	8907.59
549.779	8977.42
550.143	8987.36
550.507	9030.98
550.871	9047.25
551.235	9099.45
551.599	9188.71
551.962	9251.99
552.326	9113.69
552.689	9255.15
553.053	9207.92
553.417	9326.79
553.78	9462.83
554.143	9399.1
554.507	9449.5
554.87	9559.78
555.234	9594.13
555.597	9526.56
555.96	9629.38
556.323	9601.13
556.686	9577.18
557.05	9691.52
557.413	9705.31
557.776	9815.59
558.139	9852.88
558.502	9925.19
558.865	9950.73
559.228	9962.7
559.59	10021.01
559.953	10023.72
560.316	10150.04
560.679	10075.24
561.041	10206.54
561.404	10247.67
561.767	10307.78
562.129	10325.18
562.492	10439.75
562.854	10445.18
563.217	10365.63
563.579	10484.5
563.941	10519.07
564.304	10622.35
564.666	10707.54
565.028	10733.08
565.39	10812.63
565.753	10827.54
566.115	10836.81
566.477	10931.94
566.839	10947.09
567.201	10920.87
567.563	11032.05
567.925	11102.79
568.287	11080.64
568.648	11107.08
569.01	11168.32
569.372	11224.14
569.734	11261.88
570.095	11393.85
570.457	11407.64
570.819	11392.72
571.18	11439.95
571.542	11496.22
571.903	11512.27
572.265	11493.96
572.626	11519.05
572.987	11612.6
573.349	11628.2
573.71	11688.08
574.071	11626.62
574.432	11773.28
574.794	11844.46
575.155	11867.74
575.516	11845.82
575.877	11927.62
576.238	11896.44
576.599	11989.32
576.96	12000.16
577.32	12094.4
577.681	12054.63
578.042	12070.67
578.403	12120.39
578.763	12161.74
579.124	12104.57
579.485	12178.24
579.845	12164
580.206	12199.71
580.566	12181.18
580.927	12197.22
581.287	12405.58
581.648	12312.02
582.008	12309.31
582.368	12291.23
582.728	12370.78
583.089	12307.73
583.449	12295.98
583.809	12344.56
584.169	12312.7
584.529	12266.15
584.889	12414.39
585.249	12401.06
585.609	12333.04
585.969	12373.49
586.329	12376.88
586.688	12308.41
587.048	12331
587.408	12349.53
587.768	12332.81
588.127	12336.65
588.487	12231.35
588.846	12438.35
589.206	12342.08
589.565	12320.38
589.925	12430.44
590.284	12350.44
590.643	12352.25
591.003	12430.66
591.362	12418.91
591.721	12386.14
592.08	12347.27
592.44	12438.12
592.799	12463.2
593.158	12377.33
593.517	12473.82
593.876	12433.83
594.235	12383.66
594.593	12509.3
594.952	12571.45
595.311	12422.07
595.67	12453.03
596.029	12538.23
596.387	12596.08
596.746	12606.93
597.104	12535.74
597.463	12587.27
597.822	12600.15
598.18	12535.07
598.538	12562.64
598.897	12564.44
599.255	12543.65
599.613	12727.38
599.972	12642.18
600.33	12634.95
600.688	12604.22
601.046	12725.8
601.404	12730.99
601.762	12619.36
602.12	12768.96
602.478	12729.41
602.836	12701.39
603.194	12672.24
603.552	12745.68
603.91	12712.24
604.268	12785.23
604.625	12722.63
604.983	12747.94
605.341	12647.61
605.698	12727.83
606.056	12864.1
606.413	12761.95
606.771	12831.33
607.128	12774.83
607.485	12794.95
607.843	12841.27
608.2	12903.19
608.557	12938.67
608.914	12890.54
609.272	12976.18
609.629	12987.03
609.986	13022.74
610.343	12964.89
610.7	13026.35
611.057	13043.75
611.414	13046.92
611.771	13060.93
612.127	13073.13
612.484	13111.1
612.841	13149.06
613.198	13102.28
613.554	13124.43
613.911	13045.56
614.267	13165.33
614.624	13135.05
614.98	13213.47
615.337	13249.85
615.693	13231.77
616.05	13229.51
616.406	13304.99
616.762	13221.83
617.118	13282.16
617.475	13321.71
617.831	13246.91
618.187	13243.07
618.543	13379.56
618.899	13363.07
619.255	13361.71
619.611	13308.83
619.967	13406.23
620.323	13351.99
620.678	13363.74
621.034	13309.73
621.39	13348.6
621.746	13295.95
622.101	13481.03
622.457	13373.01
622.812	13434.03
623.168	13405.78
623.523	13436.96
623.879	13403.74
624.234	13366.91
624.589	13415.72
624.945	13341.37
625.3	13389.96
625.655	13490.52
626.01	13428.15
626.365	13403.97
626.72	13495.72
627.075	13385.66
627.43	13466.11
627.785	13467.47
628.14	13435.83
628.495	13441.26
628.85	13434.48
629.205	13445.78
629.559	13611.87
629.914	13402.61
630.269	13435.16
630.623	13397.42
630.978	13461.6
631.332	13456.62
631.687	13474.02
632.041	13337.53
632.396	13365.55
632.75	13430.18
633.104	13303.18
633.459	13360.35
633.813	13301.37
634.167	13250.3
634.521	13319.68
634.875	13330.3
635.229	13271.77
635.583	13236.06
635.937	13260.7
636.291	13228.16
636.645	13219.57
636.999	13159
637.352	13263.63
637.706	13151.55
638.06	13138.89
638.413	13094.6
638.767	13064.77
639.121	13152.45
639.474	13039.01
639.828	13013.25
640.181	13019.57
640.534	12983.19
640.888	12954.72
641.241	12896.64
641.594	13013.47
641.947	12971.89
642.301	12917.65
642.654	12879.24
643.007	12992.91
643.36	12895.51
643.713	12914.04
644.066	12908.84
644.419	12935.96
644.771	12754.5
645.124	12660.26
645.477	12631.33
645.83	12551.79
646.182	12536.65
646.535	12509.53
646.888	12465.69
647.24	12446.25
647.593	12488.29
647.945	12457.1
648.298	12402.64
648.65	12369.65
649.002	12318.8
649.355	12390.21
649.707	12359.03
650.059	12381.4
650.411	12580.94
650.763	12553.14
651.115	12701.62
651.467	12678.11
651.819	12631.11
652.171	12619.58
652.523	12616.19
652.875	12472.47
653.227	12498.68
653.578	12596.99
653.93	12554.05
654.282	12494.39
654.633	12473.6
654.985	12480.15
655.337	12485.58
655.688	12501.39
656.039	12545.01
656.391	12392.24
656.742	12523.54
657.094	12450.55
657.445	12419.36
657.796	12408.97
658.147	12453.03
658.498	12481.28
658.849	12418.46
659.2	12411.45
659.551	12395.41
659.902	12354.28
660.253	12343.21
660.604	12414.17
660.955	12406.26
661.306	12403.09
661.656	12415.3
662.007	12317.67
662.358	12341.85
662.708	12380.49
663.059	12355.18
663.409	12299.14
663.76	12349.31
664.11	12446.48
664.461	12373.49
664.811	12361.29
665.161	12292.13
665.511	12300.04
665.862	12350.21
666.212	12307.5
666.562	12325.13
666.912	12340.49
667.262	12304.79
667.612	12243.77
667.962	12340.04
668.312	12265.69
668.662	12304.79
669.011	12290.55
669.361	12259.37
669.711	12263.66
670.06	12314.05
670.41	12173.27
670.76	12272.7
671.109	12205.58
671.459	12222.53
671.808	12260.95
672.157	12205.13
672.507	12155.87
672.856	12190.67
673.205	12165.81
673.554	12234.06
673.904	12157.45
674.253	12275.64
674.602	12183.89
674.951	11989.77
675.3	11885.82
675.649	12140.27
675.998	12198.8
676.346	12135.75
676.695	12099.82
677.044	12114.51
677.393	12081.52
677.741	12084.68
678.09	12028.41
678.438	12040.84
678.787	12042.65
679.135	12062.08
679.484	11994.74
679.832	12018.24
680.181	11966.04
680.529	11991.8
680.877	11982.99
681.225	11953.16
681.573	11985.93
681.922	11898.47
682.27	11899.83
682.618	11881.75
682.966	11884.24
683.314	11880.17
683.661	11890.56
684.009	11805.82
684.357	11839.04
684.705	11804.24
685.053	11756.1
685.4	11792.03
685.748	11745.93
686.095	11684.24
686.443	11653.51
686.79	11640.63
687.138	11679.27
687.485	11712.26
687.832	11675.88
688.18	11699.83
688.527	11597.01
688.874	11543
689.221	11596.11
689.568	11523.79
689.915	11437.47
690.262	11498.26
690.609	11434.98
690.956	11426.85
691.303	11391.14
691.65	11368.09
691.997	11311.37
692.344	11324.93
692.69	11347.07
693.037	11347.07
693.383	11220.07
693.73	11230.02
694.077	11123.58
694.423	11164.03
694.769	11149.57
695.116	11068.21
695.462	11094.88
695.808	10986.18
696.155	11105.72
696.501	10939.85
696.847	10954.99
697.193	10816.02
697.539	10885.84
697.885	10875
698.231	10818.95
698.577	10802.23
698.923	10724.72
699.269	10728.33
699.614	10695.11
699.96	10692.85
700.306	10635.91
700.651	10580.99
700.997	10560.2
701.342	10512.29
701.688	10513.42
702.033	10547.1
702.379	10463.03
702.724	10440.66
703.069	10463.48
703.415	10329.02
703.76	10297.16
704.105	10341.9
704.45	10412.86
704.795	10294.9
705.14	10247.67
705.485	10246.99
705.83	10218.29
706.175	10246.54
706.52	10170.83
706.865	10156.37
707.209	10105.98
707.554	10148.24
707.899	10186.2
708.243	10067.79
708.588	10012.19
708.932	9967
709.277	10000.44
709.621	9959.09
709.966	9867.79
710.31	9980.33
710.654	9867.34
710.998	9868.02
711.342	9853.1
711.687	9788.7
712.031	9837.74
712.375	9776.49
712.719	9787.57
713.063	9829.83
713.407	9825.98
713.75	9705.31
714.094	9678.64
714.438	9676.61
714.782	9709.6
715.125	9711.86
715.469	9676.61
715.812	9555.71
716.156	9604.75
716.499	9577.63
716.843	9569.49
717.186	9525.43
717.53	9470.29
717.873	9464.86
718.216	9512.09
718.559	9404.3
718.902	9372.66
719.246	9419.44
719.589	9305.09
719.932	9303.96
720.275	9324.3
720.617	9278.65
720.96	9305.32
721.303	9329.95
721.646	9304.87
721.989	9271.87
722.331	9276.85
722.674	9251.54
723.016	9294.25
723.359	9196.85
723.701	9286.11
724.044	9167.7
724.386	9160.69
724.729	9173.35
725.071	9146.23
725.413	9099.68
725.755	9143.52
726.097	9086.79
726.439	9020.81
726.782	9030.75
727.124	9073.91
727.465	9099.45
727.807	9028.27
728.149	9042.28
728.491	8914.6
728.833	8978.55
729.175	8961.15
729.516	8987.81
729.858	8934.71
730.199	8936.74
730.541	8933.35
730.882	8952.11
731.224	9008.83
731.565	8914.6
731.906	8952.56
732.248	8944.2
732.589	8889.06
732.93	8873.02
733.271	8828.72
733.612	8889.96
733.953	8885.44
734.294	8810.42
734.635	8794.15
734.976	8830.53
735.317	8757.54
735.658	8741.04
735.999	8900.13
736.339	8750.98
736.68	8721.83
737.021	8720.25
737.361	8706.24
737.702	8776.75
738.042	8744.88
738.383	8702.85
738.723	8743.98
739.063	8682.06
739.404	8730.65
739.744	8752.34
740.084	8596.64
740.424	8640.71
740.764	8595.73
741.104	8610.88
741.444	8633.7
741.784	8526.58
742.124	8616.75
742.464	8573.59
742.804	8545.79
743.143	8521.61
743.483	8524.1
743.823	8430.32
744.162	8453.37
744.502	8474.83
744.841	8429.64
745.181	8367.49
745.52	8455.63
745.86	8382.86
746.199	8332.24
746.538	8334.72
746.877	8395.97
747.216	8363.42
747.556	8325.23
747.895	8313.93
748.234	8279.81
748.573	8272.13
748.911	8239.59
749.25	8221.28
749.589	8249.75
749.928	8224.44
750.267	8269.87
750.605	8132.92
750.944	8171.79
751.283	8148.74
751.621	8213.15
751.96	8128.18
752.298	8104.45
752.636	8138.57
752.975	8064.67
753.313	8009.08
753.651	8055.86
753.989	8028.97
754.327	8017.44
754.666	8016.99
755.004	7983.55
755.342	8015.41
755.679	7969.54
756.017	7911.01
756.355	7907.84
756.693	7891.12
757.031	7888.41
757.368	7882.53
757.706	7924.57
758.044	7834.62
758.381	7891.12
758.719	7809.54
759.056	7778.58
759.394	7739.71
759.731	7752.14
760.068	7708.75
760.405	7710.79
760.743	7648.64
761.08	7647.28
761.417	7645.02
761.754	7639.38
762.091	7541.98
762.428	7594.63
762.765	7579.26
763.102	7522.54
763.438	7562.99
763.775	7436.67
764.112	7511.02
764.449	7471.02
764.785	7425.37
765.122	7382.43
765.458	7384.24
765.795	7374.3
766.131	7423.34
766.467	7353.06
766.804	7303.79
767.14	7299.27
767.476	7278.25
767.812	7272.15
768.148	7193.96
768.485	7180.86
768.821	7153.96
769.157	7188.77
769.492	7097.24
769.828	7140.86
770.164	7055.21
770.5	7031.26
770.836	7067.41
771.171	6975.89
771.507	7010.69
771.842	6976.79
772.178	6946.74
772.513	6926.63
772.849	6907.87
773.184	6917.36
773.519	6875.55
773.855	6856.35
774.19	6774.54
774.525	6730.47
774.86	6788.32
775.195	6745.61
775.53	6694.99
775.865	6621.55
776.2	6576.35
776.535	6592.17
776.87	6557.14
777.205	6591.04
777.539	6556.92
777.874	6564.38
778.209	6472.85
778.543	6469.69
778.878	6429.46
779.212	6448.9
779.547	6372.06
779.881	6405.28
780.215	6410.93
780.55	6318.96
780.884	6340.65
781.218	6293.65
781.552	6335.23
781.886	6257.04
782.22	6212.52
782.554	6220.88
782.888	6169.13
783.222	6167.1
783.556	6178.62
783.889	6147.44
784.223	6121.22
784.557	6085.97
784.89	6114.22
785.224	5987.22
785.557	6057.5
785.891	6018.4
786.224	5973.88
786.558	5978.63
786.891	5986.31
787.224	5897.5
787.557	5931.17
787.891	5865.86
788.224	5937.95
788.557	5874
788.89	5869.7
789.223	5876.48
789.556	5765.53
789.888	5735.47
790.221	5731.18
790.554	5696.83
790.887	5728.47
791.219	5703.83
791.552	5693.66
791.884	5659.09
792.217	5663.83
792.549	5668.35
792.882	5562.37
793.214	5542.48
793.546	5596.94
793.879	5610.5
794.211	5513.56
794.543	5526.66
794.875	5467
795.207	5544.52
795.539	5511.52
795.871	5495.25
796.203	5441.92
796.535	5382.94
796.867	5426.78
797.198	5365.31
797.53	5379.1
797.862	5320.57
798.193	5361.02
798.525	5368.7
798.856	5346.33
799.188	5240.34
799.519	5254.81
799.85	5238.76
800.182	5213.9
800.513	5243.51
800.844	5189.95
801.175	5201.02
801.506	5164.64
801.837	5171.64
802.168	5144.98
802.499	5130.06
802.83	5120.57
803.161	5116.5
803.491	5102.27
803.822	5102.49
804.153	5054.13
804.483	5027.92
804.814	5010.74
805.145	5014.13
805.475	5019.78
805.805	5013.23
806.136	4991.08
806.466	5037.64
806.796	4985.21
807.126	4970.75
807.457	4971.42
807.787	4912.89
808.117	4869.05
808.447	4879.22
808.777	4950.63
809.107	4913.57
809.436	4911.99
809.766	4923.51
810.096	4828.83
810.426	4819.79
810.755	4875.15
811.085	4844.19
811.414	4820.24
811.744	4762.61
812.073	4745.67
812.403	4781.15
812.732	4781.82
813.061	4719.68
813.39	4668.38
813.719	4723.29
814.049	4723.97
814.378	4684.2
814.707	4677.65
815.036	4710.41
815.365	4639.45
815.693	4616.4
816.022	4637.42
816.351	4667.7
816.68	4596.74
817.008	4583.41
817.337	4553.81
817.665	4595.61
817.994	4579.34
818.322	4599.23
818.651	4526.46
818.979	4556.74
819.307	4540.47
819.636	4521.72
819.964	4514.03
820.292	4498.22
820.62	4509.51
820.948	4453.47
821.276	4502.28
821.604	4517.42
821.932	4510.64
822.259	4471.32
822.587	4492.57
822.915	4461.15
823.243	4492.34
823.57	4486.01
823.898	4509.06
824.225	4499.12
824.553	4460.48
824.88	4481.94
825.207	4465.45
825.535	4452.11
825.862	4453.24
826.189	4442.85
826.516	4435.17
826.843	4484.2
827.17	4494.15
827.497	4466.13
827.824	4496.18
828.151	4508.84
828.478	4433.36
828.805	4454.37
829.131	4462.51
829.458	4453.92
829.785	4429.29
830.111	4436.75
830.438	4415.96
830.764	4483.3
831.09	4475.39
831.417	4423.41
831.743	4495.96
832.069	4422.96
832.395	4456.18
832.722	4445.79
833.048	4442.17
833.374	4406.24
833.7	4392.91
834.026	4427.71
834.351	4404.21
834.677	4422.74
835.003	4457.99
835.329	4401.04
835.654	4410.99
835.98	4394.71
836.306	4428.61
836.631	4374.83
836.956	4388.39
837.282	4344.32
837.607	4372.79
837.932	4378.9
838.258	4326.92
838.583	4374.83
838.908	4355.17
839.233	4354.72
839.558	4337.32
839.883	4365.56
840.208	4332.8
840.533	4310.2
840.858	4291.89
841.182	4351.55
841.507	4296.64
841.832	4301.38
842.156	4283.76
842.481	4286.47
842.805	4260.26
843.13	4279.69
843.454	4233.59
843.778	4210.99
844.103	4258.45
844.427	4190.43
844.751	4206.7
845.075	4177.09
845.399	4176.87
845.723	4118.11
846.047	4202.63
846.371	4155.17
846.695	4164.44
847.019	4104.78
847.343	4109.52
847.666	4088.51
847.99	4059.58
848.313	4072.01
848.637	4027.94
848.96	4046.48
849.284	4039.7
849.607	4045.35
849.931	4000.83
850.254	3981.39
850.577	3933.94
850.9	3915.86
851.223	3914.5
851.546	3925.12
851.869	3898.91
852.192	3907.27
852.515	3907.27
852.838	3873.37
853.161	3879.93
853.483	3849.87
853.806	3800.38
854.129	3873.15
854.451	3830.44
854.774	3770.32
855.096	3828.63
855.419	3784.79
855.741	3739.59
856.063	3731
856.385	3740.72
856.708	3778.69
857.03	3707.5
857.352	3726.03
857.674	3728.07
857.996	3729.65
858.318	3694.85
858.64	3685.58
858.961	3676.54
859.283	3649.65
859.605	3642.64
859.926	3674.73
860.248	3671.12
860.57	3620.27
860.891	3629.09
861.212	3619.82
861.534	3664.56
861.855	3615.07
862.176	3587.96
862.498	3575.08
862.819	3601.29
863.14	3606.71
863.461	3603.32
863.782	3554.96
864.103	3554.29
864.424	3570.33
864.745	3569.2
865.065	3532.59
865.386	3530.33
865.707	3551.57
866.027	3537.34
866.348	3517.22
866.668	3519.03
866.989	3526.72
867.309	3486.72
867.63	3498.92
867.95	3502.76
868.27	3470.9
868.59	3475.64
868.91	3466.15
869.23	3436.1
869.55	3470.22
869.87	3463.21
870.19	3475.87
870.51	3436.1
870.83	3466.83
871.15	3384.8
871.469	3400.16
871.789	3442.42
872.109	3439.03
872.428	3409.88
872.748	3402.88
873.067	3399.03
873.386	3424.12
873.706	3406.49
874.025	3336.66
874.344	3367.85
874.663	3358.36
874.982	3359.49
875.301	3335.08
875.62	3354.29
875.939	3323.78
876.258	3332.37
876.577	3356.32
876.896	3335.76
877.214	3304.35
877.533	3309.09
877.852	3321.07
878.17	3342.54
878.489	3306.38
878.807	3317
879.125	3299.38
879.444	3309.55
879.762	3243.56
880.08	3293.73
880.398	3288.3
880.716	3263.22
881.034	3269.55
881.352	3243.56
881.67	3256.67
881.988	3267.06
882.306	3238.14
882.624	3201.75
882.941	3174.63
883.259	3219.83
883.577	3208.31
883.894	3216.44
884.212	3215.76
884.529	3175.76
884.846	3154.97
885.164	3170.79
885.481	3160.17
885.798	3166.05
886.115	3175.76
886.432	3133.96
886.75	3129.21
887.067	3107.07
887.383	3133.96
887.7	3126.05
888.017	3119.27
888.334	3110.91
888.651	3079.5
888.967	3079.04
889.284	3095.99
889.6	3057.8
889.917	3030.68
890.233	3104.35
890.55	3054.19
890.866	3022.1
891.182	3030.91
891.498	3033.62
891.815	3022.77
892.131	3024.36
892.447	2976.9
892.763	2988.2
893.079	2984.81
893.395	2966.73
893.71	2983.23
894.026	2966.28
894.342	2992.04
894.657	2941.42
894.973	2930.12
895.289	2925.6
895.604	2923.34
895.92	2921.99
896.235	2872.72
896.55	2890.35
896.865	2881.76
897.181	2871.59
897.496	2873.17
897.811	2854.19
898.126	2843.57
898.441	2839.05
898.756	2875.66
899.071	2831.82
899.386	2845.83
899.7	2825.49
900.015	2797.02
900.33	2796.11
900.644	2774.64
900.959	2790.46
901.273	2738.49
901.588	2721.09
901.902	2745.72
902.216	2744.36
902.531	2720.86
902.845	2713.63
903.159	2727.19
903.473	2720.86
903.787	2692.39
904.101	2702.1
904.415	2697.36
904.729	2691.03
905.042	2645.38
905.356	2653.74
905.67	2661.43
905.984	2639.05
906.297	2654.42
906.611	2623.69
906.924	2606.97
907.237	2620.52
907.551	2637.47
907.864	2561.99
908.177	2582.33
908.491	2584.59
908.804	2565.84
909.117	2559.51
909.43	2542.56
909.743	2531.94
910.056	2523.8
910.368	2506.18
910.681	2498.04
910.994	2461.66
911.307	2482.67
911.619	2451.94
911.932	2486.52
912.244	2442.68
912.557	2438.16
912.869	2445.16
913.181	2414.2
913.494	2425.5
913.806	2405.84
914.118	2421.66
914.43	2438.61
914.742	2422.79
915.054	2401.1
915.366	2395.45
915.678	2376.69
915.99	2365.39
916.302	2341.66
916.613	2333.53
916.925	2355.67
917.236	2353.19
917.548	2326.29
917.859	2300.76
918.171	2294.66
918.482	2273.41
918.794	2293.3
919.105	2276.35
919.416	2285.39
919.727	2255.56
920.038	2283.81
920.349	2241.33
920.66	2216.02
920.971	2249.69
921.282	2223.25
921.593	2235.68
921.903	2188.67
922.214	2166.52
922.525	2173.08
922.835	2170.37
923.146	2149.58
923.456	2151.61
923.767	2145.73
924.077	2141.21
924.387	2119.75
924.697	2103.25
925.008	2093.31
925.318	2098.05
925.628	2093.31
925.938	2112.74
926.248	2096.02
926.558	2074.32
926.867	2082.91
927.177	2076.58
927.487	2058.51
927.796	2046.3
928.106	2044.27
928.416	2027.32
928.725	2024.38
929.034	2000.2
929.344	2006.98
929.653	1980.32
929.962	1978.06
930.271	1976.7
930.581	1947.32
930.89	1970.37
931.199	1956.36
931.508	1971.5
931.817	1968.34
932.125	1968.34
932.434	1930.37
932.743	1914.55
933.051	1919.75
933.36	1891.96
933.669	1896.93
933.977	1898.74
934.286	1878.85
934.594	1878.85
934.902	1882.69
935.21	1850.83
935.519	1847.89
935.827	1837.04
936.135	1885.63
936.443	1793.65
936.751	1803.82
937.059	1836.36
937.367	1808.79
937.674	1789.36
937.982	1798.85
938.29	1805.4
938.597	1805.86
938.905	1793.2
939.213	1791.17
939.52	1775.8
939.827	1766.99
940.135	1773.09
940.442	1785.29
940.749	1733.09
941.056	1753.65
941.363	1742.81
941.67	1736.71
941.977	1709.36
942.284	1722.24
942.591	1703.49
942.898	1693.09
943.205	1713.88
943.511	1679.31
943.818	1704.39
944.125	1668.91
944.431	1665.52
944.738	1646.54
945.044	1660.78
945.35	1657.61
945.657	1639.99
945.963	1640.89
946.269	1644.5
946.575	1640.21
946.881	1606.31
947.187	1607.22
947.493	1606.77
947.799	1602.25
948.105	1620.78
948.41	1609.93
948.716	1590.49
949.022	1592.08
949.327	1587.56
949.633	1586.43
949.938	1575.35
950.244	1544.62
950.549	1563.83
950.854	1541.46
951.16	1548.69
951.465	1526.77
951.77	1530.84
952.075	1532.87
952.38	1517.95
952.685	1527.22
952.99	1506.88
953.294	1497.62
953.599	1488.12
953.904	1508.46
954.209	1527.22
954.513	1496.03
954.818	1474.79
955.122	1453.1
955.426	1496.94
955.731	1429.82
956.035	1431.63
956.339	1479.76
956.643	1463.94
956.948	1469.82
957.252	1456.71
957.556	1440.89
957.86	1433.66
958.163	1429.14
958.467	1454.68
958.771	1429.6
959.075	1404.06
959.378	1411.06
959.682	1436.15
959.985	1394.34
960.289	1391.86
960.592	1376.49
960.896	1372.42
961.199	1389.14
961.502	1383.72
961.805	1344.17
962.108	1354.57
962.411	1349.82
962.714	1365.64
963.017	1353.66
963.32	1343.04
963.623	1362.03
963.926	1317.06
964.228	1314.8
964.531	1298.98
964.833	1322.48
965.136	1314.12
965.438	1278.64
965.741	1296.49
966.043	1285.19
966.345	1296.94
966.648	1301.01
966.95	1285.19
967.252	1296.27
967.554	1263.5
967.856	1257.85
968.158	1268.24
968.46	1236.38
968.761	1275.7
969.063	1237.96
969.365	1250.39
969.666	1248.36
969.968	1253.33
970.269	1242.03
970.571	1235.25
970.872	1222.82
971.174	1249.03
971.475	1266.89
971.776	1207.45
972.077	1216.27
972.378	1231.86
972.679	1210.84
972.98	1185.76
973.281	1202.71
973.582	1187.79
973.883	1196.61
974.183	1181.92
974.484	1171.75
974.785	1185.99
975.085	1169.72
975.386	1176.27
975.686	1163.84
975.986	1176.95
976.287	1154.12
976.587	1143.05
976.887	1145.99
977.187	1134.91
977.487	1151.86
977.787	1139.66
978.087	1180.11
978.387	1134.46
978.687	1122.03
978.987	1118.87
979.286	1122.94
979.586	1123.84
979.885	1100.34
980.185	1105.99
980.484	1094.24
980.784	1102.82
981.083	1079.55
981.382	1070.96
981.682	1080.68
981.981	1083.84
982.28	1062.6
982.579	1068.93
982.878	1082.94
983.177	1058.08
983.475	1060.57
983.774	1057.4
984.073	1055.59
984.372	1069.38
984.67	1032.77
984.969	1038.42
985.267	1041.81
985.566	1028.93
985.864	1049.72
986.162	1047.23
986.461	1041.81
986.759	1004.07
987.057	988.7
987.355	1018.53
987.653	999.55
987.951	1008.14
988.249	1015.59
988.547	1006.33
988.844	1010.4
989.142	1011.08
989.44	987.57
989.737	983.05
990.035	968.82
990.332	969.27
990.63	940.34
990.927	974.24
991.224	974.69
991.521	948.7
991.819	969.95
992.116	951.19
992.413	940.57
992.71	942.83
993.006	955.26
993.303	962.26
993.6	942.15
993.897	930.85
994.193	912.09
994.49	921.13
994.787	926.33
995.083	916.61
995.379	924.3
995.676	929.27
995.972	919.1
996.268	916.39
996.565	900.57
996.861	929.5
997.157	896.95
997.453	901.25
997.749	906.22
998.044	882.04
998.34	868.48
998.636	893.56
998.932	893.11
999.227	884.07
999.523	875.03
999.818	879.1
1000.114	867.12
1000.409	862.83
1000.704	846.11
1001	857.63
1001.295	855.15
1001.59	864.64
1001.885	849.27
1002.18	860.8
1002.475	841.36
1002.77	826.9
1003.065	848.14
1003.359	818.09
1003.654	856.95
1003.949	840.01
1004.243	789.84
1004.538	821.7
1004.832	816.96
1005.127	797.3
1005.421	790.74
1005.715	814.7
1006.009	814.47
1006.304	781.93
1006.598	773.12
1006.892	776.96
1007.186	774.25
1007.48	800.01
1007.773	783.28
1008.067	779.67
1008.361	788.48
1008.655	751.42
1008.948	771.76
1009.242	774.02
1009.535	763.85
1009.829	740.57
1010.122	748.26
1010.415	755.71
1010.708	764.08
1011.001	743.51
1011.295	743.51
1011.588	741.03
1011.881	727.47
1012.173	729.95
1012.466	729.95
1012.759	722.5
1013.052	750.74
1013.344	737.64
1013.637	728.6
1013.93	728.82
1014.222	703.29
1014.514	698.77
1014.807	693.57
1015.099	695.38
1015.391	708.03
1015.683	687.47
1015.976	702.16
1016.268	723.17
1016.56	691.99
1016.851	685.66
1017.143	688.37
1017.435	672.33
1017.727	677.07
1018.018	674.81
1018.31	682.72
1018.602	684.3
1018.893	647.92
1019.185	664.87
1019.476	666.68
1019.767	654.93
1020.058	667.81
1020.35	653.8
1020.641	637.75
1020.932	645.89
1021.223	643.63
1021.514	625.77
1021.804	637.53
1022.095	642.5
1022.386	628.71
1022.677	647.47
1022.967	631.42
1023.258	633.01
1023.548	614.7
1023.839	592.78
1024.129	626.45
1024.419	619.22
1024.709	608.83
1025	601.59
1025.29	601.82
1025.58	588.71
1025.87	588.94
1026.16	610.86
1026.449	608.15
1026.739	585.1
1027.029	575.38
1027.319	622.61
1027.608	592.78
1027.898	593.68
1028.187	566.57
1028.477	546.68
1028.766	576.96
1029.055	579.9
1029.344	569.28
1029.634	571.09
1029.923	571.54
1030.212	567.02
1030.501	572.89
1030.79	548.26
1031.078	570.63
1031.367	557.3
1031.656	573.8
1031.945	551.2
1032.233	548.26
1032.522	554.14
1032.81	539.68
1033.099	557.53
1033.387	548.04
1033.675	532.9
1033.963	524.31
1034.251	554.82
1034.54	535.16
1034.828	532.9
1035.116	534.7
1035.403	531.31
1035.691	526.12
1035.979	509.39
1036.267	515.49
1036.554	516.17
1036.842	524.31
1037.129	514.59
1037.417	512.56
1037.704	500.13
1037.992	503.29
1038.279	527.47
1038.566	527.47
1038.853	527.47
1039.14	527.47
