Data from foam2_polystyrene_foam_FLMS001491_00037.txt Node
Date: Wed Feb 08 10:57:53 GMT 2017
User: dcchb
Spectrometer: FLMS00149
Trigger mode: 0
Integration Time (sec): 2.000000E-2
Scans to average: 10
Electric dark correction enabled: true
Nonlinearity correction enabled: false
Boxcar width: 0
XAxis mode: Wavelengths
Number of Pixels in Spectrum: 2048
>>>>>Begin Spectral Data<<<<<
341.393	-14.43
341.776	-14.43
342.16	-14.43
342.543	-61.89
342.927	-75
343.31	-83.13
343.693	-55.79
344.077	-67.77
344.46	-67.31
344.843	-60.76
345.226	-35.68
345.61	-23.47
345.993	-20.31
346.376	5.23
346.759	13.59
347.142	25.79
347.525	41.16
347.908	36.86
348.291	68.73
348.674	97.65
349.057	125.22
349.44	120.93
349.823	124.77
350.206	160.48
350.588	176.52
350.971	210.19
351.354	234.6
351.737	228.27
352.119	262.39
352.502	253.13
352.884	266.24
353.267	302.39
353.65	291.55
354.032	292
354.414	289.51
354.797	306.23
355.179	330.42
355.562	339
355.944	341.94
356.326	326.12
356.709	333.58
357.091	338.1
357.473	358.66
357.855	342.39
358.238	356.63
358.62	343.07
359.002	345.78
359.384	340.81
359.766	341.71
360.148	347.82
360.53	343.75
360.912	340.36
361.294	360.7
361.676	344.65
362.057	333.58
362.439	369.28
362.821	353.24
363.203	346.01
363.584	342.62
363.966	328.38
364.348	325.9
364.729	327.93
365.111	328.16
365.493	313.01
365.874	334.03
366.256	342.84
366.637	341.26
367.019	331.09
367.4	330.64
367.781	330.87
368.163	332.67
368.544	346.01
368.925	330.64
369.306	342.62
369.688	345.56
370.069	340.81
370.45	343.97
370.831	340.81
371.212	349.85
371.593	332.45
371.974	334.48
372.355	338.55
372.736	326.57
373.117	331.09
373.498	345.56
373.879	356.86
374.26	339.68
374.641	358.66
375.021	315.73
375.402	367.7
375.783	339
376.163	383.3
376.544	369.51
376.925	382.84
377.305	373.13
377.686	362.5
378.066	357.53
378.447	385.78
378.827	372.45
379.208	370.87
379.588	393.69
379.968	366.8
380.349	417.19
380.729	375.16
381.109	399.57
381.489	392.11
381.87	384.88
382.25	386.91
382.63	384.65
383.01	412.22
383.39	402.28
383.77	399.11
384.15	401.6
384.53	400.24
384.91	411.32
385.29	404.54
385.67	415.16
386.049	394.82
386.429	428.94
386.809	423.07
387.189	433.01
387.568	420.13
387.948	416.97
388.328	438.21
388.707	426.46
389.087	444.76
389.466	449.06
389.846	444.99
390.225	438.21
390.605	447.93
390.984	463.97
391.363	460.36
391.743	448.38
392.122	456.51
392.501	465.78
392.881	480.69
393.26	466.91
393.639	461.71
394.018	482.28
394.397	486.12
394.776	472.33
395.155	481.6
395.534	512.78
395.913	488.83
396.292	499.22
396.671	514.59
397.05	496.74
397.429	515.04
397.808	498.55
398.186	517.98
398.565	526.34
398.944	517.3
399.323	517.98
399.701	529.28
400.08	542.84
400.458	543.97
400.837	535.16
401.215	542.16
401.594	566.79
401.972	560.01
402.351	562.95
402.729	573.35
403.107	571.54
403.486	586.91
403.864	571.31
404.242	581.93
404.62	584.42
404.999	584.42
405.377	601.37
405.755	600.69
406.133	610.41
406.511	602.95
406.889	621.48
407.267	614.93
407.645	617.41
408.023	628.94
408.401	638.43
408.779	654.25
409.156	660.8
409.534	651.08
409.912	669.62
410.29	690.18
410.667	684.76
411.045	694.47
411.422	717.98
411.8	696.51
412.178	715.72
412.555	714.59
412.933	743.29
413.31	752.1
413.687	715.04
414.065	746.68
414.442	766.79
414.819	772.21
415.197	757.07
415.574	782.83
415.951	793.68
416.328	773.12
416.705	789.61
417.082	821.02
417.46	804.75
417.837	826.67
418.214	826.22
418.591	853.34
418.967	833.23
419.344	841.14
419.721	852.66
420.098	860.57
420.475	874.13
420.852	889.27
421.228	896.5
421.605	906.9
421.982	889.04
422.358	890.63
422.735	926.78
423.111	912.32
423.488	934.69
423.864	933.56
424.241	934.01
424.617	970.17
424.994	962.71
425.37	961.58
425.746	987.12
426.123	1000.23
426.499	995.93
426.875	1028.02
427.251	1052.43
427.627	1027.8
428.003	1057.4
428.379	1046.55
428.756	1077.97
429.132	1078.87
429.507	1098.53
429.883	1094.91
430.259	1107.57
430.635	1123.16
431.011	1144.4
431.387	1177.62
431.763	1177.17
432.138	1214.46
432.514	1208.13
432.89	1231.41
433.265	1249.49
433.641	1234.35
434.016	1294.23
434.392	1288.13
434.767	1337.39
435.143	1290.62
435.518	1341.24
435.894	1331.74
436.269	1384.85
436.644	1387.11
437.02	1381.69
437.395	1389.14
437.77	1425.98
438.145	1438.86
438.52	1466.43
438.895	1441.12
439.271	1470.5
439.646	1526.32
440.021	1514.79
440.395	1518.18
440.77	1533.32
441.145	1525.41
441.52	1565.41
441.895	1566.54
442.27	1592.3
442.645	1583.94
443.019	1596.37
443.394	1622.58
443.769	1618.74
444.143	1608.8
444.518	1647.22
444.892	1644.96
445.267	1682.02
445.641	1701
446.016	1722.92
446.39	1725.86
446.764	1719.31
447.139	1741.23
447.513	1759.98
447.887	1768.8
448.262	1771.73
448.636	1830.26
449.01	1808.57
449.384	1800.43
449.758	1847.89
450.132	1880.88
450.506	1884.72
450.88	1927.21
451.254	1917.27
451.628	1939.41
452.002	1968.34
452.376	1964.95
452.75	1971.28
453.123	2013.99
453.497	1996.81
453.871	2034.33
454.244	2075.23
454.618	2101.67
454.992	2070.26
455.365	2114.55
455.739	2146.64
456.112	2194.09
456.486	2173.3
456.859	2212.17
457.232	2240.87
457.606	2246.97
457.979	2264.38
458.352	2320.87
458.725	2336.46
459.099	2348.67
459.472	2390.25
459.845	2426.18
460.218	2434.31
460.591	2454.88
460.964	2495.56
461.337	2484.03
461.71	2567.42
462.083	2618.49
462.456	2629.79
462.829	2607.42
463.201	2637.47
463.574	2667.98
463.947	2706.62
464.32	2752.95
464.692	2795.89
465.065	2789.11
465.438	2837.24
465.81	2861.42
466.183	2889.67
466.555	2910.23
466.928	2968.99
467.3	2966.96
467.672	3013.96
468.045	3105.26
468.417	3141.41
468.789	3131.7
469.161	3153.62
469.534	3255.08
469.906	3295.31
470.278	3287.17
470.65	3358.81
471.022	3413.95
471.394	3425.02
471.766	3484.46
472.138	3505.25
472.51	3610.1
472.882	3678.12
473.253	3696.88
473.625	3750.21
473.997	3855.29
474.369	3802.64
474.74	3876.76
475.112	3912.69
475.484	4010.32
475.855	4070.66
476.227	4097.77
476.598	4196.53
476.97	4287.6
477.341	4340.71
477.713	4436.3
478.084	4459.12
478.455	4484.2
478.827	4584.09
479.198	4658.21
479.569	4758.32
479.94	4882.61
480.311	4874.48
480.682	5024.75
481.053	5115.6
481.424	5198.99
481.795	5266.33
482.166	5303.39
482.537	5374.35
482.908	5495.93
483.279	5588.58
483.65	5663.38
484.021	5730.05
484.391	5822.47
484.762	5883.26
485.133	5919.87
485.503	6046.65
485.874	6144.27
486.244	6170.04
486.615	6235.57
486.985	6365.96
487.356	6539.74
487.726	6546.97
488.097	6701.09
488.467	6719.63
488.837	6874.2
489.207	6980.41
489.578	7035.78
489.948	7155.77
490.318	7200.97
490.688	7254.53
491.058	7359.83
491.428	7453.39
491.798	7542.65
492.168	7684.8
492.538	7749.65
492.908	7868.97
493.278	7937.9
493.648	7967.28
494.017	8056.09
494.387	8061.51
494.757	8219.93
495.126	8309.19
495.496	8308.96
495.866	8425.12
496.235	8489.97
496.605	8545.34
496.974	8571.55
497.344	8639.35
497.713	8777.88
498.082	8774.49
498.452	8942.17
498.821	8990.07
499.19	8988.04
499.559	9147.58
499.928	9101.94
500.298	9206.57
500.667	9343.29
501.036	9352.1
501.405	9428.48
501.774	9499.67
502.143	9542.83
502.512	9608.14
502.88	9707.34
503.249	9759.32
503.618	9762.26
503.987	9801.8
504.356	9905.3
504.724	9956.83
505.093	9978.07
505.462	10096.26
505.83	10188.46
506.199	10223.49
506.567	10406.53
506.936	10460.09
507.304	10534.21
507.672	10627.32
508.041	10718.16
508.409	10791.83
508.777	10785.73
509.145	10902.57
509.514	10926.75
509.882	10969.23
510.25	11023.02
510.618	11152.96
510.986	11192.73
511.354	11311.82
511.722	11437.02
512.09	11569.89
512.458	11550.91
512.826	11623.9
513.193	11673.85
513.561	11718.36
513.929	11919.49
514.297	11953.16
514.664	12036.55
515.032	12026.83
515.4	12241.29
515.767	12328.52
516.135	12454.39
516.502	12356.77
516.869	12607.38
517.237	12633.37
517.604	12705.91
517.972	12885.11
518.339	12901.61
518.706	12901.61
519.073	13020.02
519.44	13143.19
519.808	13250.08
520.175	13306.12
520.542	13454.59
520.909	13606.68
521.276	13537.3
521.643	13704.75
522.009	13807.57
522.376	13975.25
522.743	14038.08
523.11	14196.04
523.477	14320.33
523.843	14400.1
524.21	14549.25
524.577	14709.02
524.943	14688.91
525.31	14704.27
525.676	15018.16
526.043	15076.47
526.409	15185.39
526.776	15243.92
527.142	15349
527.508	15437.59
527.874	15452.28
528.241	15691.37
528.607	15690.01
528.973	15892.49
529.339	15878.25
529.705	16088.87
530.071	16169.32
530.437	16313.72
530.803	16449.54
531.169	16478.92
531.535	16412.93
531.901	16542.87
532.267	16506.94
532.632	16772.02
532.998	16732.7
533.364	16975.4
533.73	16908.06
534.095	17089.97
534.461	17217.88
534.826	17270.76
535.192	17301.27
535.557	17427.82
535.923	17360.93
536.288	17500.81
536.653	17574.93
537.019	17618.1
537.384	17724.99
537.749	17848.37
538.114	17828.03
538.479	17913.46
538.845	18034.36
539.21	18011.76
539.575	18086.11
539.94	18148.03
540.305	18376.95
540.67	18417.4
541.034	18436.15
541.399	18501.46
541.764	18512.08
542.129	18644.74
542.494	18589.6
542.858	18779.87
543.223	18880.21
543.587	18892.86
543.952	18952.52
544.316	19004.95
544.681	18962.47
545.045	19187.77
545.41	19283.14
545.774	19275
546.138	19296.92
546.503	19351.38
546.867	19380.99
547.231	19568.1
547.595	19654.2
547.959	19551.83
548.324	19713.41
548.688	19857.13
549.052	19772.39
549.416	19934.19
549.779	20078.37
550.143	20042.67
550.507	20199.72
550.871	20215.77
551.235	20268.87
551.599	20412.15
551.962	20475.87
552.326	20606.04
552.689	20581.18
553.053	20571.01
553.417	20654.17
553.78	20865.69
554.143	20855.75
554.507	20869.08
554.87	21065.01
555.234	21192.69
555.597	21113.15
555.96	21178.68
556.323	21306.36
556.686	21375.74
557.05	21527.6
557.413	21670.64
557.776	21662.96
558.139	21843.07
558.502	21836.06
558.865	21876.52
559.228	22063.85
559.59	22168.03
559.953	22200.35
560.316	22386.78
560.679	22426.11
561.041	22654.12
561.404	22698.87
561.767	22855.7
562.129	22808.02
562.492	23083.04
562.854	23013.21
563.217	23088.01
563.579	23204.84
563.941	23440.54
564.304	23401.67
564.666	23630.14
565.028	23698.84
565.39	23728.67
565.753	23844.6
566.115	23886.86
566.477	24124.59
566.839	24172.73
567.201	24317.81
567.563	24283.01
567.925	24450.68
568.287	24539.72
568.648	24619.49
569.01	24815.19
569.372	24902.65
569.734	24745.37
570.095	25107.84
570.457	25178.12
570.819	25174.73
571.18	25175.64
571.542	25287.27
571.903	25373.6
572.265	25400.04
572.626	25513.48
572.987	25543.09
573.349	25660.6
573.71	25660.6
574.071	25874.6
574.432	25876.86
574.794	26053.13
575.155	26061.04
575.516	25997.31
575.877	26128.15
576.238	26240.69
576.599	26314.14
576.96	26241.37
577.32	26336.96
577.681	26519.78
578.042	26584.41
578.403	26492.21
578.763	26528.14
579.124	26627.12
579.485	26687.01
579.845	26700.8
580.206	26666.67
580.566	26638.65
580.927	26706.67
581.287	26748.48
581.648	26743.51
582.008	26894.46
582.368	26861.92
582.728	26881.81
583.089	26889.04
583.449	26856.95
583.809	26950.28
584.169	27009.71
584.529	26839.1
584.889	27109.6
585.249	26896.95
585.609	26883.84
585.969	26961.58
586.329	26950.96
586.688	26955.48
587.048	26955.48
587.408	26989.6
587.768	26982.82
588.127	26946.89
588.487	26957.51
588.846	27073.67
589.206	26917.29
589.565	26984.18
589.925	27155.25
590.284	26985.99
590.643	27151.4
591.003	27112.08
591.362	27231.85
591.721	27093.33
592.08	27202.93
592.44	27237.96
592.799	27135.36
593.158	27104.17
593.517	27150.95
593.876	27126.77
594.235	27023.27
594.593	27163.83
594.952	27190.5
595.311	27111.41
595.67	27257.84
596.029	27255.81
596.387	27291.97
596.746	27405.41
597.104	27247.9
597.463	27313.21
597.822	27373.55
598.18	27372.87
598.538	27293.77
598.897	27449.93
599.255	27211.97
599.613	27633.88
599.972	27440.21
600.33	27512.3
600.688	27375.58
601.046	27555.69
601.404	27648.34
601.762	27564.05
602.12	27665.29
602.478	27758.17
602.836	27625.97
603.194	27489.93
603.552	27664.39
603.91	27510.94
604.268	27781.67
604.625	27574.22
604.983	27872.52
605.341	27686.08
605.698	27857.15
606.056	27958.84
606.413	27868.22
606.771	27954.55
607.128	27961.33
607.485	27863.02
607.843	27898.28
608.2	28044.26
608.557	28063.7
608.914	27990.48
609.272	28150.7
609.629	28138.05
609.986	28254.88
610.343	28149.34
610.7	28417.81
611.057	28343.69
611.414	28358.38
611.771	28324.03
612.127	28540.07
612.484	28519.28
612.841	28614.87
613.198	28468.66
613.554	28429.11
613.911	28606.73
614.267	28557.02
614.624	28577.13
614.98	28414.87
615.337	28754.75
615.693	28613.74
616.05	28566.73
616.406	28670.46
616.762	28532.61
617.118	28572.16
617.475	28608.77
617.831	28645.6
618.187	28693.51
618.543	28718.82
618.899	28954.97
619.255	28938.7
619.611	28846.95
619.967	28993.39
620.323	29041.52
620.678	28903
621.034	28787.07
621.39	28923.34
621.746	28732.38
622.101	29108.19
622.457	29074.29
622.812	28827.97
623.168	29047.63
623.523	28980.96
623.879	28972.37
624.234	28901.64
624.589	28886.73
624.945	28914.97
625.3	29046.27
625.655	28914.07
626.01	28967.63
626.365	28933.28
626.72	28918.82
627.075	28935.99
627.43	28812.15
627.785	28796.11
628.14	28891.7
628.495	28895.54
628.85	28995.2
629.205	28766.05
629.559	28837.01
629.914	28698.71
630.269	28771.7
630.623	28757.46
630.978	28627.52
631.332	28774.64
631.687	28815.32
632.041	28535.78
632.396	28599.73
632.75	28444.93
633.104	28590.01
633.459	28444.7
633.813	28383.69
634.167	28439.05
634.521	28556.34
634.875	28393.41
635.229	28351.37
635.583	28223.24
635.937	28222.11
636.291	28329
636.645	28179.85
636.999	28148.44
637.352	28229.57
637.706	28117.71
638.06	28277.93
638.413	28182.79
638.767	28034.77
639.121	28058.73
639.474	27896.24
639.828	27855.57
640.181	28001.1
640.534	27887.43
640.888	27798.62
641.241	27655.35
641.594	27743.71
641.947	27795.46
642.301	27612.41
642.654	27728.79
643.007	27531.51
643.36	27608.79
643.713	27484.96
644.066	27588.68
644.419	27507.55
644.771	27263.49
645.124	27114.8
645.477	27051.29
645.83	26837.06
646.182	26679.78
646.535	26522.49
646.888	26576.96
647.24	26385.32
647.593	26757.97
647.945	26531.99
648.298	26414.47
648.65	26331.99
649.002	26269.17
649.355	26329.73
649.707	26314.82
650.059	26450.86
650.411	26728.37
650.763	26749.16
651.115	27033.89
651.467	26884.07
651.819	26917.96
652.171	26857.18
652.523	26776.73
652.875	26757.97
653.227	26649.05
653.578	26892.2
653.93	26750.29
654.282	26695.82
654.633	26665.77
654.985	26705.99
655.337	26668.71
655.688	26738.08
656.039	26703.28
656.391	26509.39
656.742	26628.25
657.094	26584.41
657.445	26452.67
657.796	26487.02
658.147	26485.66
658.498	26426.45
658.849	26385.78
659.2	26367.92
659.551	26361.14
659.902	26423.29
660.253	26320.01
660.604	26446.34
660.955	26210.19
661.306	26260.81
661.656	26246.12
662.007	26295.61
662.358	26236.63
662.708	26225.33
663.059	26209.51
663.409	26089.29
663.76	26311.2
664.11	26268.94
664.461	26248.38
664.811	26226.23
665.161	26243.18
665.511	26172.67
665.862	26136.52
666.212	26297.19
666.562	26108.72
666.912	26082.73
667.262	26230.07
667.612	26072.11
667.962	26169.28
668.312	25928.16
668.662	26098.1
669.011	26067.14
669.361	26037.76
669.711	25941.95
670.06	26096.74
670.41	25927.48
670.76	25836.41
671.109	25984.88
671.459	25934.26
671.808	26010.42
672.157	26011.55
672.507	25893.13
672.856	25723.65
673.205	25867.14
673.554	25904.21
673.904	25785.79
674.253	25777.2
674.602	25808.16
674.951	25360.04
675.3	25140.61
675.649	25501.5
675.998	25628.73
676.346	25715.74
676.695	25731.33
677.044	25496.98
677.393	25543.09
677.741	25612.24
678.09	25506.7
678.438	25455.4
678.787	25485.23
679.135	25557.77
679.484	25430.32
679.832	25378.8
680.181	25215.64
680.529	25384.9
680.877	25340.15
681.225	25165.69
681.573	25412.47
681.922	25142.42
682.27	25067.62
682.618	25083.66
682.966	24960.95
683.314	24976.32
683.661	24839.38
684.009	24741.75
684.357	24699.27
684.705	24720.96
685.053	24821.97
685.4	24683
685.748	24584.47
686.095	24587.4
686.443	24446.84
686.79	24478.93
687.138	24355.77
687.485	24428.99
687.832	24205.95
688.18	24417.24
688.527	24182.22
688.874	24158.72
689.221	24149.45
689.568	24127.08
689.915	23933.41
690.262	23926.4
690.609	23928.21
690.956	23750.82
691.303	23753.3
691.65	23632.4
691.997	23723.7
692.344	23498.62
692.69	23518.28
693.037	23528.9
693.383	23328.23
693.73	23429.92
694.077	23206.42
694.423	23233.09
694.769	23182.02
695.116	23094.34
695.462	23210.72
695.808	22967.11
696.155	23046.65
696.501	22882.36
696.847	22870.61
697.193	22810.28
697.539	22785.64
697.885	22618.87
698.231	22511.98
698.577	22449.16
698.923	22428.37
699.269	22387.91
699.614	22263.4
699.96	22218.88
700.306	22278.54
700.651	22068.6
700.997	22101.14
701.342	22024.08
701.688	22062.05
702.033	21991.09
702.379	21855.95
702.724	21837.19
703.069	21840.58
703.415	21712.68
703.76	21720.81
704.105	21669.74
704.45	21708.16
704.795	21566.92
705.14	21534.38
705.485	21466.58
705.83	21342.29
706.175	21476.3
706.52	21354.27
706.865	21219.58
707.209	21209.41
707.554	21094.39
707.899	21150.66
708.243	20987.5
708.588	20977.78
708.932	20914.28
709.277	20832.25
709.621	20854.85
709.966	20627.28
710.31	20667.73
710.654	20457.34
710.998	20470
711.342	20580.96
711.687	20501.18
712.031	20372.83
712.375	20354.07
712.719	20420.96
713.063	20422.32
713.407	20443.33
713.75	20295.77
714.094	20243.79
714.438	20127.18
714.782	20233.39
715.125	20135.54
715.469	20184.58
715.812	19997.24
716.156	19981.42
716.499	20011.71
716.843	20009.22
717.186	19869.79
717.53	19909.11
717.873	19877.02
718.216	19757.02
718.559	19675.9
718.902	19583.24
719.246	19515.9
719.589	19515.45
719.932	19452.62
720.275	19433.42
720.617	19543.24
720.96	19434.77
721.303	19296.7
721.646	19370.82
721.989	19293.31
722.331	19246.53
722.674	19255.34
723.016	19284.49
723.359	19245.4
723.701	19133.54
724.044	19106.64
724.386	19032.52
724.729	19082.01
725.071	19052.63
725.413	19059.19
725.755	18941.68
726.097	18964.05
726.439	18902.58
726.782	18863.49
727.124	18890.38
727.465	18715.92
727.807	18785.75
728.149	18742.81
728.491	18625.3
728.833	18675.02
729.175	18619.43
729.516	18597.96
729.858	18589.37
730.199	18593.66
730.541	18349.15
730.882	18474.8
731.224	18543.04
731.565	18388.47
731.906	18362.94
732.248	18431.63
732.589	18268.7
732.93	18269.83
733.271	18241.13
733.612	18183.5
733.953	18153.9
734.294	18051.98
734.635	17992.78
734.976	18101.25
735.317	17956.17
735.658	18029.16
735.999	17995.71
736.339	17838.2
736.68	17960.23
737.021	17910.29
737.361	17830.75
737.702	17920.46
738.042	17897.64
738.383	17756.17
738.723	17767.24
739.063	17738.32
739.404	17833.91
739.744	17720.47
740.084	17661.94
740.424	17750.97
740.764	17640.92
741.104	17769.28
741.444	17651.32
741.784	17582.16
742.124	17617.64
742.464	17582.16
742.804	17449.96
743.143	17427.59
743.483	17420.36
743.823	17394.83
744.162	17407.25
744.502	17406.12
744.841	17261.27
745.181	17352.34
745.52	17219.91
745.86	17298.1
746.199	17223.53
746.538	17207.03
746.877	17082.52
747.216	17140.14
747.556	17059.92
747.895	17091.33
748.234	17025.12
748.573	17021.73
748.911	16891.56
749.25	16955.51
749.589	16856.76
749.928	16880.04
750.267	16898.34
750.605	16853.14
750.944	16797.33
751.283	16719.14
751.621	16744.45
751.96	16582.87
752.298	16668.29
752.636	16705.8
752.975	16646.82
753.313	16474.85
753.651	16527.5
753.989	16486.6
754.327	16374.74
754.666	16365.02
755.004	16360.05
755.342	16398.02
755.679	16329.77
756.017	16250.67
756.355	16273.5
756.693	16118.93
757.031	16182.2
757.368	16006.16
757.706	15981.3
758.044	15905.6
758.381	15951.7
758.719	15887.75
759.056	15917.12
759.394	15828.99
759.731	15760.29
760.068	15746.73
760.405	15652.72
760.743	15617.7
761.08	15639.62
761.417	15571.37
761.754	15561.88
762.091	15505.84
762.428	15376.35
762.765	15365.73
763.102	15410.24
763.438	15381.77
763.775	15321.43
764.112	15246.41
764.449	15116.69
764.785	15152.4
765.122	14982.01
765.458	15014.77
765.795	14947.21
766.131	14896.81
766.467	14846.42
766.804	14713.09
767.14	14774.33
767.476	14655.91
767.812	14607.55
768.148	14655.24
768.485	14544.73
768.821	14407.79
769.157	14431.06
769.492	14386.99
769.828	14316.26
770.164	14269.03
770.5	14187
770.836	14219.32
771.171	14130.73
771.507	14185.19
771.842	14075.36
772.178	14074.23
772.513	14006.89
772.849	13909.94
773.184	13906.56
773.519	13838.99
773.855	13790.63
774.19	13714.92
774.525	13676.96
774.86	13627.47
775.195	13596.73
775.53	13504.53
775.865	13457.75
776.2	13358.32
776.535	13330.3
776.87	13371.43
777.205	13330.53
777.539	13207.59
777.874	13279
778.209	13127.14
778.543	13089.4
778.878	13069.06
779.212	12964.89
779.547	13014.83
779.881	13015.51
780.215	12865.23
780.55	12905.9
780.884	12798.11
781.218	12782.07
781.552	12692.58
781.886	12733.48
782.22	12654.61
782.554	12533.71
782.888	12461.4
783.222	12382.75
783.556	12418.46
783.889	12427.95
784.223	12218.46
784.557	12277.9
784.89	12304.56
785.224	12169.88
785.557	12160.61
785.891	12183.44
786.224	12120.16
786.558	12036.32
786.891	11912.94
787.224	11886.95
787.557	11894.18
787.891	11837.91
788.224	11826.61
788.557	11857.34
788.89	11740.74
789.223	11762.88
789.556	11645.82
789.888	11626.16
790.221	11593.85
790.554	11497.35
790.887	11534.64
791.219	11473.17
791.552	11391.14
791.884	11351.14
792.217	11372.38
792.549	11357.7
792.882	11235.67
793.214	11221.43
793.546	11196.12
793.879	11057.36
794.211	11026.86
794.543	11046.97
794.875	11039.06
795.207	11025.73
795.539	11057.59
795.871	11046.74
796.203	10904.6
796.535	10876.13
796.867	10821.44
797.198	10764.26
797.53	10847.2
797.862	10799.97
798.193	10776.92
798.525	10611.73
798.856	10670.48
799.188	10510.49
799.519	10501
799.85	10500.54
800.182	10491.28
800.513	10505.06
800.844	10343.49
801.175	10391.39
801.506	10415.35
801.837	10322.92
802.168	10308.23
802.499	10308.23
802.83	10217.84
803.161	10190.95
803.491	10236.6
803.822	10272.07
804.153	10159.99
804.483	10024.4
804.814	10023.72
805.145	10056.94
805.475	9978.07
805.805	9970.84
806.136	9890.16
806.466	9904.63
806.796	9898.07
807.126	9872.31
807.457	9804.74
807.787	9843.39
808.117	9729.26
808.447	9718.19
808.777	9732.43
809.107	9700.34
809.436	9702.82
809.766	9590.74
810.096	9662.37
810.426	9635.26
810.755	9609.49
811.085	9544.64
811.414	9581.47
811.744	9466.67
812.073	9463.06
812.403	9446.56
812.732	9386.22
813.061	9381.02
813.39	9348.03
813.719	9311.65
814.049	9436.16
814.378	9339.67
814.707	9283.4
815.036	9249.95
815.365	9265.55
815.693	9112.78
816.022	9223.97
816.351	9127.92
816.68	9033.92
817.008	9166.11
817.337	8963.86
817.665	9007.93
817.994	8984.88
818.322	9060.35
818.651	8953.92
818.979	8935.84
819.307	8930.64
819.636	8914.37
819.964	8942.17
820.292	8900.36
820.62	8905.1
820.948	8866.24
821.276	8882.05
821.604	8914.37
821.932	8922.05
822.259	8878.89
822.587	8887.48
822.915	8814.49
823.243	8936.52
823.57	8819.46
823.898	8856.52
824.225	8851.32
824.553	8805.67
824.88	8869.17
825.207	8886.12
825.535	8819.91
825.862	8814.49
826.189	8795.96
826.516	8896.97
826.843	8927.48
827.17	8883.86
827.497	8861.26
827.824	8866.46
828.151	8838.21
828.478	8823.53
828.805	8857.87
829.131	8840.25
829.458	8745.11
829.785	8754.83
830.111	8871.21
830.438	8826.24
830.764	8821.72
831.09	8797.09
831.417	8727.71
831.743	8790.53
832.069	8768.61
832.395	8732
832.722	8796.86
833.048	8791.21
833.374	8844.32
833.7	8720.48
834.026	8751.89
834.351	8759.35
834.677	8730.65
835.003	8719.35
835.329	8753.24
835.654	8679.8
835.98	8736.97
836.306	8721.83
836.631	8720.02
836.956	8709.86
837.282	8738.1
837.607	8658.11
837.932	8648.39
838.258	8635.28
838.583	8691.33
838.908	8601.84
839.233	8603.64
839.558	8592.57
839.883	8496.08
840.208	8570.2
840.533	8560.48
840.858	8499.24
841.182	8550.31
841.507	8498.79
841.832	8457.43
842.156	8437.77
842.481	8390.99
842.805	8427.15
843.13	8370.43
843.454	8364.33
843.778	8308.51
844.103	8278.23
844.427	8332.01
844.751	8313.03
845.075	8278.68
845.399	8254.5
845.723	8263.09
846.047	8203.65
846.371	8192.36
846.695	8149.19
847.019	8106.93
847.343	8026.48
847.666	8058.57
847.99	8007.5
848.313	7996.2
848.637	7964.34
848.96	7901.97
849.284	7937.9
849.607	7864
849.931	7812.7
850.254	7727.73
850.577	7700.62
850.9	7680.05
851.223	7670.79
851.546	7604.57
851.869	7598.92
852.192	7611.13
852.515	7526.38
852.838	7506.05
853.161	7465.14
853.483	7426.95
853.806	7439.83
854.129	7443.45
854.451	7335.43
854.774	7360.06
855.096	7348.08
855.419	7322.32
855.741	7343.79
856.063	7276.45
856.385	7225.15
856.708	7242.32
857.03	7236.67
857.352	7209.78
857.674	7209.56
857.996	7105.15
858.318	7079.16
858.64	7124.13
858.961	7141.76
859.283	7052.05
859.605	7014.08
859.926	7038.26
860.248	7037.58
860.57	6975.21
860.891	6999.39
861.212	6958.04
861.534	6930.69
861.855	6946.06
862.176	6941.77
862.498	6895.21
862.819	6911.48
863.14	6859.28
863.461	6855.44
863.782	6806.4
864.103	6855.89
864.424	6868.55
864.745	6859.28
865.065	6803.92
865.386	6758.27
865.707	6724.82
866.027	6845.5
866.348	6740.19
866.668	6744.03
866.989	6674.66
867.309	6658.84
867.63	6691.38
867.95	6703.13
868.27	6644.37
868.59	6659.06
868.91	6606.41
869.23	6611.38
869.55	6569.12
869.87	6635.56
870.19	6620.65
870.51	6643.47
870.83	6585.84
871.15	6570.02
871.469	6584.71
871.789	6508.78
872.109	6545.39
872.428	6522.34
872.748	6525.73
873.067	6450.48
873.386	6481.21
873.706	6485.06
874.025	6458.16
874.344	6449.12
874.663	6492.29
874.982	6473.53
875.301	6423.36
875.62	6367.09
875.939	6361.89
876.258	6411.61
876.577	6398.96
876.896	6368
877.214	6351.73
877.533	6322.35
877.852	6324.83
878.17	6298.62
878.489	6315.79
878.807	6295.68
879.125	6299.3
879.444	6263.82
879.762	6237.38
880.08	6274.21
880.398	6262.91
880.716	6240.77
881.034	6214.1
881.352	6191.05
881.67	6198.74
881.988	6244.38
882.306	6169.81
882.624	6187.44
882.941	6138.62
883.259	6139.08
883.577	6165.06
883.894	6095.91
884.212	6151.05
884.529	6097.27
884.846	6043.03
885.164	6095.91
885.481	6033.54
885.798	6078.29
886.115	6049.81
886.432	6032.41
886.75	6063.15
887.067	6076.48
887.383	5965.07
887.7	6039.87
888.017	5979.98
888.334	5987.67
888.651	5951.96
888.967	5912.64
889.284	5941.57
889.6	5937.05
889.917	5869.25
890.233	5883.72
890.55	5828.35
890.866	5884.39
891.182	5790.38
891.498	5747.22
891.815	5810.04
892.131	5724.62
892.447	5743.61
892.763	5698.86
893.079	5720.56
893.395	5696.83
893.71	5622.25
894.026	5659.99
894.342	5640.11
894.657	5551.29
894.973	5555.81
895.289	5551.07
895.604	5571.63
895.92	5485.53
896.235	5522.59
896.55	5467.91
896.865	5492.31
897.181	5450.28
897.496	5515.14
897.811	5432.88
898.126	5374.58
898.441	5458.19
898.756	5357.4
899.071	5358.31
899.386	5352.2
899.7	5329.61
900.015	5333.22
900.33	5251.19
900.644	5281.92
900.959	5252.32
901.273	5276.5
901.588	5218.42
901.902	5237.18
902.216	5190.4
902.531	5237.86
902.845	5159.89
903.159	5152.44
903.473	5139.1
903.787	5069.73
904.101	5109.05
904.415	5095.26
904.729	5052.32
905.042	4994.93
905.356	5038.99
905.67	4984.76
905.984	4974.81
906.297	4972.78
906.611	4945.21
906.924	4951.08
907.237	4917.19
907.551	4889.17
907.864	4890.75
908.177	4847.81
908.491	4866.11
908.804	4799.68
909.117	4778.43
909.43	4764.65
909.743	4784.54
910.056	4781.37
910.368	4726.01
910.681	4717.87
910.994	4687.36
911.307	4690.07
911.619	4668.15
911.932	4647.82
912.244	4641.49
912.557	4606.69
912.869	4568.72
913.181	4583.18
913.494	4563.75
913.806	4548.84
914.118	4492.57
914.43	4471.78
914.742	4486.92
915.054	4414.6
915.366	4460.93
915.678	4416.86
915.99	4413.7
916.302	4381.61
916.613	4367.15
916.925	4373.47
917.236	4320.14
917.548	4320.14
917.859	4311.78
918.171	4284.44
918.482	4262.97
918.794	4279.92
919.105	4253.25
919.416	4211.89
919.727	4218.67
920.038	4205.57
920.349	4195.62
920.66	4160.82
920.971	4125.8
921.282	4112.69
921.593	4089.41
921.903	4077.89
922.214	4081.28
922.525	4094.38
922.835	4042.41
923.146	3968.06
923.456	4052.35
923.767	3986.36
924.077	3942.52
924.387	3932.13
924.697	3990.66
925.008	3923.99
925.318	3867.72
925.628	3882.19
925.938	3835.41
926.248	3827.72
926.558	3820.72
926.867	3804.9
927.177	3788.86
927.487	3812.36
927.796	3758.35
928.106	3754.73
928.416	3744.11
928.725	3730.1
929.034	3749.76
929.344	3721.06
929.653	3701.85
929.962	3711.34
930.271	3668.18
930.581	3621.18
930.89	3654.4
931.199	3605.81
931.508	3570.33
931.817	3610.33
932.125	3586.15
932.434	3542.99
932.743	3534.4
933.051	3504.79
933.36	3548.41
933.669	3488.07
933.977	3445.36
934.286	3516.09
934.594	3481.52
934.902	3470.9
935.21	3412.82
935.519	3378.24
935.827	3447.17
936.135	3374.85
936.443	3353.39
936.751	3349.54
937.059	3339.6
937.367	3299.6
937.674	3317.91
937.982	3309.32
938.29	3285.14
938.597	3293.27
938.905	3241.75
939.213	3268.87
939.52	3239.27
939.827	3247.85
940.135	3202.2
940.442	3206.95
940.749	3212.83
941.056	3190.23
941.363	3172.6
941.67	3170.34
941.977	3099.38
942.284	3098.03
942.591	3106.16
942.898	3052.6
943.205	3096.9
943.511	3044.92
943.818	3081.53
944.125	3037.69
944.431	3045.82
944.738	3068.42
945.044	2983
945.35	3026.16
945.657	3028.88
945.963	2975.32
946.269	2979.16
946.575	2941.65
946.881	2960.63
947.187	2918.14
947.493	2889.67
947.799	2891.48
948.105	2865.94
948.41	2883.12
948.716	2907.52
949.022	2854.19
949.327	2863.68
949.633	2859.39
949.938	2832.72
950.244	2829.56
950.549	2786.4
950.854	2794.08
951.16	2795.89
951.465	2772.84
951.77	2741.65
952.075	2690.35
952.38	2744.59
952.685	2746.62
952.99	2710.92
953.294	2712.27
953.599	2680.86
953.904	2657.13
954.209	2658.04
954.513	2629.56
954.818	2614.42
955.122	2633.86
955.426	2615.33
955.731	2606.97
956.035	2579.4
956.339	2573.29
956.643	2580.53
956.948	2587.3
957.252	2528.1
957.556	2538.49
957.86	2533.07
958.163	2555.44
958.467	2531.49
958.771	2484.26
959.075	2525.39
959.378	2498.04
959.682	2466.18
959.985	2472.96
960.289	2432.28
960.592	2438.83
960.896	2432.05
961.199	2431.38
961.502	2383.92
961.805	2410.13
962.108	2414.65
962.411	2417.82
962.714	2366.75
963.017	2343.47
963.32	2362.68
963.623	2344.15
963.926	2360.64
964.228	2345.73
964.531	2344.83
964.833	2331.94
965.136	2324.26
965.438	2290.59
965.741	2282.23
966.043	2261.66
966.345	2286.52
966.648	2246.75
966.95	2278.61
967.252	2232.06
967.554	2244.71
967.856	2239.07
968.158	2223.47
968.46	2171.04
968.761	2234.55
969.063	2185.73
969.365	2192.06
969.666	2163.81
969.968	2149.12
970.269	2178.05
970.571	2167.65
970.872	2132.18
971.174	2135.79
971.475	2106.87
971.776	2119.07
972.077	2098.05
972.378	2094.44
972.679	2053.08
972.98	2083.59
973.281	2075.68
973.582	2089.69
973.883	2065.74
974.183	2028.22
974.484	2056.7
974.785	2029.35
975.085	2038.84
975.386	2017.6
975.686	1994.78
975.986	1990.26
976.287	1936.02
976.587	1971.5
976.887	1936.7
977.187	1963.14
977.487	1961.33
977.787	1951.84
978.087	1954.1
978.387	1913.2
978.687	1932.41
978.987	1886.31
979.286	1898.28
979.586	1878.85
979.885	1899.41
980.185	1916.36
980.484	1884.5
980.784	1853.54
981.083	1874.78
981.382	1871.39
981.682	1843.37
981.981	1851.96
982.28	1850.15
982.579	1825.74
982.878	1811.28
983.177	1840.66
983.475	1774.67
983.774	1806.53
984.073	1783.26
984.372	1766.08
984.67	1769.47
984.969	1733.09
985.267	1759.98
985.566	1736.48
985.864	1741.9
986.162	1685.63
986.461	1709.81
986.759	1707.1
987.057	1712.75
987.355	1709.59
987.653	1699.42
987.951	1683.15
988.249	1674.33
988.547	1681.11
988.844	1687.22
989.142	1656.03
989.44	1638.86
989.737	1658.74
990.035	1635.24
990.332	1626.43
990.63	1632.53
990.927	1614.9
991.224	1596.82
991.521	1618.06
991.819	1614.22
992.116	1594.56
992.413	1560.44
992.71	1576.71
993.006	1576.94
993.303	1578.74
993.6	1577.39
993.897	1549.14
994.193	1545.3
994.49	1508.01
994.787	1545.3
995.083	1517.95
995.379	1503.72
995.676	1520.21
995.972	1513.43
996.268	1505.53
996.565	1476.15
996.861	1445.19
997.157	1482.02
997.453	1496.03
997.749	1445.64
998.044	1460.78
998.34	1461.01
998.636	1426.88
998.932	1424.85
999.227	1430.05
999.523	1430.5
999.818	1428.47
1000.114	1399.09
1000.409	1409.48
1000.704	1406.54
1001	1383.27
1001.295	1371.07
1001.59	1363.83
1001.885	1367.9
1002.18	1390.95
1002.475	1386.66
1002.77	1359.54
1003.065	1335.36
1003.359	1337.39
1003.654	1342.82
1003.949	1330.16
1004.243	1322.93
1004.538	1308.02
1004.832	1326.32
1005.127	1297.85
1005.421	1308.69
1005.715	1296.94
1006.009	1294.91
1006.304	1266.89
1006.598	1281.58
1006.892	1267.57
1007.186	1262.59
1007.48	1238.41
1007.773	1236.61
1008.067	1253.1
1008.361	1231.18
1008.655	1205.42
1008.948	1208.36
1009.242	1213.33
1009.535	1188.7
1009.829	1200
1010.122	1195.03
1010.415	1178.98
1010.708	1184.18
1011.001	1207.68
1011.295	1172.65
1011.588	1150.51
1011.881	1165.87
1012.173	1154.8
1012.466	1141.92
1012.759	1154.57
1013.052	1132.2
1013.344	1141.47
1013.637	1131.07
1013.93	1136.5
1014.222	1124.29
1014.514	1100.56
1014.807	1101.92
1015.099	1123.61
1015.391	1091.07
1015.683	1109.83
1015.976	1089.72
1016.268	1042.03
1016.56	1068.7
1016.851	1042.94
1017.143	1073.9
1017.435	1037.29
1017.727	1043.16
1018.018	1040.23
1018.31	1039.77
1018.602	1044.75
1018.893	1040.45
1019.185	1018.31
1019.476	1011.08
1019.767	993.45
1020.058	1005.2
1020.35	984.18
1020.641	1019.21
1020.932	950.74
1021.223	978.31
1021.514	976.5
1021.804	997.06
1022.095	963.39
1022.386	945.54
1022.677	964.75
1022.967	942.83
1023.258	932.66
1023.548	964.3
1023.839	930.4
1024.129	932.66
1024.419	941.25
1024.709	922.26
1025	927.69
1025.29	909.61
1025.58	900.12
1025.87	854.92
1026.16	889.04
1026.449	882.26
1026.739	891.53
1027.029	879.55
1027.319	873.45
1027.608	871.87
1027.898	855.37
1028.187	854.47
1028.477	860.57
1028.766	880.68
1029.055	849.05
1029.344	861.25
1029.634	845.88
1029.923	843.85
1030.212	828.26
1030.501	842.49
1030.79	822.61
1031.078	804.07
1031.367	810.85
1031.656	816.28
1031.945	800.01
1032.233	795.94
1032.522	763.62
1032.81	779.44
1033.099	790.06
1033.387	789.16
1033.675	778.54
1033.963	765.88
1034.251	747.81
1034.54	762.04
1034.828	744.87
1035.116	757.97
1035.403	756.17
1035.691	753.68
1035.979	761.14
1036.267	745.09
1036.554	731.31
1036.842	734.25
1037.129	722.27
1037.417	709.84
1037.704	731.31
1037.992	707.81
1038.279	703.29
1038.566	714.13
1038.853	714.13
1039.14	714.13
