Data from foam1_polythene_foam_FLMS001491_00004.txt Node
Date: Wed Feb 08 10:54:17 GMT 2017
User: dcchb
Spectrometer: FLMS00149
Trigger mode: 0
Integration Time (sec): 2.000000E-2
Scans to average: 10
Electric dark correction enabled: true
Nonlinearity correction enabled: false
Boxcar width: 0
XAxis mode: Wavelengths
Number of Pixels in Spectrum: 2048
>>>>>Begin Spectral Data<<<<<
341.393	0.81
341.776	0.81
342.16	0.81
342.543	-67.44
342.927	-61.34
343.31	-71.06
343.693	-69.93
344.077	-74
344.46	-74.67
344.843	-40.32
345.226	-45.97
345.61	-37.39
345.993	-25.86
346.376	5.55
346.759	15.04
347.142	35.61
347.525	63.63
347.908	55.49
348.291	52.78
348.674	101.82
349.057	109.28
349.44	110.41
349.823	155.38
350.206	167.81
350.588	169.16
350.971	200.12
351.354	222.72
351.737	215.04
352.119	247.8
352.502	252.1
352.884	271.08
353.267	262.27
353.65	271.08
354.032	281.25
354.414	272.89
354.797	306.79
355.179	312.66
355.562	315.83
355.944	307.92
356.326	326.9
356.709	322.15
357.091	338.2
357.473	314.92
357.855	314.24
358.238	328.25
358.62	318.76
359.002	309.95
359.384	327.12
359.766	307.92
360.148	311.08
360.53	299.78
360.912	307.24
361.294	327.58
361.676	321.25
362.057	328.48
362.439	290.74
362.821	308.82
363.203	308.59
363.584	311.08
363.966	316.73
364.348	309.27
364.729	305.2
365.111	299.55
365.493	304.53
365.874	300.23
366.256	287.58
366.637	307.69
367.019	305.66
367.4	283.51
367.781	315.6
368.163	289.61
368.544	293.45
368.925	308.37
369.306	307.01
369.688	296.16
370.069	306.56
370.45	290.06
370.831	284.41
371.212	288.93
371.593	293.68
371.974	286.45
372.355	293.45
372.736	270.85
373.117	295.94
373.498	284.19
373.879	314.24
374.26	309.95
374.641	307.01
375.021	283.28
375.402	293.68
375.783	286.9
376.163	307.92
376.544	301.59
376.925	300.01
377.305	299.1
377.686	311.08
378.066	296.84
378.447	332.1
378.827	302.04
379.208	318.08
379.588	321.25
379.968	309.95
380.349	310.18
380.729	317.18
381.109	322.38
381.489	352.43
381.87	326.45
382.25	338.88
382.63	315.83
383.01	317.86
383.39	332.77
383.77	305.43
384.15	321.93
384.53	318.31
384.91	323.28
385.29	334.36
385.67	331.87
386.049	328.48
386.429	341.59
386.809	320.34
387.189	336.62
387.568	324.86
387.948	317.63
388.328	356.73
388.707	356.28
389.087	343.39
389.466	342.72
389.846	340.01
390.225	364.41
390.605	343.17
390.984	333.9
391.363	344.3
391.743	349.04
392.122	339.33
392.501	340.23
392.881	346.11
393.26	346.33
393.639	341.36
394.018	347.46
394.397	353.11
394.776	347.46
395.155	353.56
395.534	358.76
395.913	365.54
396.292	356.5
396.671	370.29
397.05	358.99
397.429	360.57
397.808	360.57
398.186	364.64
398.565	354.92
398.944	357.86
399.323	359.44
399.701	364.86
400.08	392.66
400.458	364.19
400.837	359.67
401.215	374.35
401.594	356.28
401.972	388.37
402.351	382.26
402.729	383.62
403.107	393.79
403.486	391.53
403.864	393.34
404.242	380
404.62	395.6
404.999	393.34
405.377	367.12
405.755	367.8
406.133	379.78
406.511	387.46
406.889	386.56
407.267	384.98
407.645	391.08
408.023	389.5
408.401	406.67
408.779	409.16
409.156	403.73
409.534	415.48
409.912	412.77
410.29	400.12
410.667	417.29
411.045	412.77
411.422	403.51
411.8	415.03
412.178	402.38
412.555	426.33
412.933	417.97
413.31	447.35
413.687	425.43
414.065	433.11
414.442	430.62
414.819	437.4
415.197	429.04
415.574	449.83
415.951	440.57
416.328	439.44
416.705	446.9
417.082	440.57
417.46	468.36
417.837	444.41
418.214	427.91
418.591	447.8
418.967	421.13
419.344	453.22
419.721	462.04
420.098	471.75
420.475	465.88
420.852	439.44
421.228	455.26
421.605	467.91
421.982	483.05
422.358	452.09
422.735	455.03
423.111	465.2
423.488	469.04
423.864	498.19
424.241	480.34
424.617	478.53
424.994	485.99
425.37	501.13
425.746	515.59
426.123	501.81
426.499	500.23
426.875	497.29
427.251	523.5
427.627	517.4
428.003	518.53
428.379	518.76
428.756	551.3
429.132	507.01
429.507	543.84
429.883	523.96
430.259	542.03
430.635	558.53
431.011	528.47
431.387	533.9
431.763	570.96
432.138	566.89
432.514	545.2
432.89	556.27
433.265	572.54
433.641	576.16
434.016	596.04
434.392	581.58
434.767	607.79
435.143	608.92
435.518	595.14
435.894	609.6
436.269	610.51
436.644	595.82
437.02	611.41
437.395	594.91
437.77	618.42
438.145	619.32
438.52	637.4
438.895	642.82
439.271	626.78
439.646	639.88
440.021	668.58
440.395	663.39
440.77	665.65
441.145	669.04
441.52	667.68
441.895	658.19
442.27	665.19
442.645	672.43
443.019	684.18
443.394	702.93
443.769	686.44
444.143	678.3
444.518	712.88
444.892	677.17
445.267	706.32
445.641	711.07
446.016	714.46
446.39	740.9
446.764	727.11
447.139	727.57
447.513	739.09
447.887	755.81
448.262	757.85
448.636	775.47
449.01	805.76
449.384	771.86
449.758	772.08
450.132	799.65
450.506	806.89
450.88	797.39
451.254	810.05
451.628	798.3
452.002	812.54
452.376	838.3
452.75	817.05
453.123	824.96
453.497	841.91
453.871	827.9
454.244	847.56
454.618	883.27
454.992	859.31
455.365	849.14
455.739	860.9
456.112	883.72
456.486	889.37
456.859	882.82
457.232	886.43
457.606	900.67
457.979	915.81
458.352	891.86
458.725	907.22
459.099	895.24
459.472	901.57
459.845	924.17
460.218	928.46
460.591	927.56
460.964	919.88
461.337	950.16
461.71	944.51
462.083	956.26
462.456	933.21
462.829	950.16
463.201	938.86
463.574	974.56
463.947	967.79
464.32	988.35
464.692	982.47
465.065	1001.23
465.438	1005.07
465.81	996.49
466.183	1022.7
466.555	1042.13
466.928	1030.61
467.3	1024.28
467.672	1063.15
468.045	1041
468.417	1064.51
468.789	1040.1
469.161	1066.77
469.534	1098.63
469.906	1101.57
470.278	1121.91
470.65	1093.43
471.022	1126.88
471.394	1144.5
471.766	1131.4
472.138	1154.22
472.51	1165.75
472.882	1186.54
473.253	1210.72
473.625	1198.97
473.997	1226.54
474.369	1230.38
474.74	1265.4
475.112	1279.19
475.484	1284.16
475.855	1257.95
476.227	1283.48
476.598	1319.19
476.97	1316.48
477.341	1330.49
477.713	1366.42
478.084	1374.78
478.455	1406.87
478.827	1398.06
479.198	1465.17
479.569	1451.61
479.94	1481.44
480.311	1492.97
480.682	1500.43
481.053	1542.46
481.424	1532.52
481.795	1547.21
482.166	1591.05
482.537	1601.89
482.908	1606.19
483.279	1637.15
483.65	1653.19
484.021	1676.47
484.391	1696.81
484.762	1717.6
485.133	1758.27
485.503	1753.98
485.874	1767.76
486.244	1789.68
486.615	1822.23
486.985	1868.33
487.356	1886.86
487.726	1886.41
488.097	1939.51
488.467	1920.53
488.837	1961.88
489.207	1999.4
489.578	1998.27
489.948	1990.58
490.318	2064.71
490.688	2034.88
491.058	2070.58
491.428	2091.15
491.798	2132.95
492.168	2123.46
492.538	2154.42
492.908	2189.45
493.278	2190.13
493.648	2215.21
494.017	2263.34
494.387	2281.2
494.757	2305.83
495.126	2321.42
495.496	2313.51
495.866	2333.85
496.235	2394.64
496.605	2382.44
496.974	2394.87
497.344	2410.91
497.713	2427.86
498.082	2423.11
498.452	2464.7
498.821	2487.52
499.19	2524.58
499.559	2467.86
499.928	2529.55
500.298	2548.99
500.667	2548.53
501.036	2573.39
501.405	2579.95
501.774	2572.26
502.143	2656.78
502.512	2644.13
502.88	2681.64
503.249	2650.45
503.618	2701.07
503.987	2687.29
504.356	2719.83
504.724	2738.13
505.093	2743.78
505.462	2750.56
505.83	2771.13
506.199	2777
506.567	2804.8
506.936	2845.48
507.304	2878.24
507.672	2880.28
508.041	2901.52
508.409	2914.17
508.777	2926.15
509.145	2973.83
509.514	2953.27
509.882	2991.69
510.25	2972.7
510.618	3020.39
510.986	3047.05
511.354	3059.71
511.722	3071.91
512.09	3103.77
512.458	3109.65
512.826	3162.76
513.193	3163.21
513.561	3136.99
513.929	3164.11
514.297	3233.49
514.664	3219.7
515.032	3262.41
515.4	3299.25
515.767	3307.84
516.135	3300.15
516.502	3299.93
516.869	3342.41
517.237	3395.52
517.604	3416.08
517.972	3470.54
518.339	3462.18
518.706	3454.05
519.073	3484.33
519.44	3484.78
519.808	3554.61
520.175	3551.67
520.542	3603.2
520.909	3583.99
521.276	3605.91
521.643	3646.58
522.009	3687.04
522.376	3727.94
522.743	3754.38
523.11	3789.86
523.477	3824.21
523.843	3776.07
524.21	3833.7
524.577	3865.34
524.943	3929.06
525.31	3889.97
525.676	3976.29
526.043	3968.84
526.409	3988.72
526.776	4031.89
527.142	4037.08
527.508	4073.01
527.874	4114.82
528.241	4122.28
528.607	4122.73
528.973	4183.75
529.339	4204.99
529.705	4236.17
530.071	4275.49
530.437	4256.96
530.803	4306.91
531.169	4315.04
531.535	4375.83
531.901	4306.68
532.267	4357.75
532.632	4400.69
532.998	4435.72
533.364	4455.6
533.73	4442.95
534.095	4446.79
534.461	4515.26
534.826	4511.42
535.192	4550.29
535.557	4578.54
535.923	4575.37
536.288	4614.7
536.653	4609.05
537.019	4618.76
537.384	4684.07
537.749	4674.58
538.114	4733.34
538.479	4752.32
538.845	4705.09
539.21	4745.31
539.575	4722.04
539.94	4760.68
540.305	4757.06
540.67	4798.42
541.034	4837.97
541.399	4875.93
541.764	4884.97
542.129	4934.23
542.494	4893.33
542.858	4929.26
543.223	4874.8
543.587	4929.94
543.952	4919.32
544.316	4923.39
544.681	4962.71
545.045	5027.57
545.41	5037.73
545.774	5062.82
546.138	5082.48
546.503	5102.14
546.867	5035.47
547.231	5119.54
547.595	5151.86
547.959	5118.86
548.324	5161.35
548.688	5172.19
549.052	5194.79
549.416	5222.36
549.779	5208.58
550.143	5238.18
550.507	5285.41
550.871	5244.96
551.235	5283.15
551.599	5302.36
551.962	5307.78
552.326	5329.7
552.689	5361.34
553.053	5369.03
553.417	5424.39
553.78	5413.77
554.143	5467.55
554.507	5473.43
554.87	5495.58
555.234	5592.52
555.597	5545.07
555.96	5529.93
556.323	5558.4
556.686	5583.48
557.05	5569.92
557.413	5675.68
557.776	5646.08
558.139	5699.19
558.502	5722.01
558.865	5748.22
559.228	5791.16
559.59	5793.42
559.953	5798.17
560.316	5913.87
560.679	5839.97
561.041	5886.53
561.404	5916.81
561.767	5976.69
562.129	5985.28
562.492	5995.45
562.854	5994.32
563.217	5997.26
563.579	6097.14
563.941	6142.56
564.304	6130.14
564.666	6198.61
565.028	6190.7
565.39	6201.55
565.753	6206.07
566.115	6272.28
566.477	6289.23
566.839	6288.55
567.201	6357.47
567.563	6327.87
567.925	6375.55
568.287	6450.58
568.648	6471.14
569.01	6470.92
569.372	6451.48
569.734	6414.87
570.095	6507.07
570.457	6562.89
570.819	6602.67
571.18	6547.75
571.542	6580.07
571.903	6610.8
572.265	6625.72
572.626	6626.85
572.987	6728.09
573.349	6675.43
573.71	6662.1
574.071	6789.1
574.432	6761.76
574.794	6837.91
575.155	6784.58
575.516	6779.16
575.877	6836.11
576.238	6825.03
576.599	6904.58
576.96	6895.54
577.32	6826.39
577.681	6878.14
578.042	6941.19
578.403	6967.63
578.763	6846.95
579.124	6930.79
579.485	7003.11
579.845	6996.33
580.206	6987.97
580.566	6884.01
580.927	6949.1
581.287	7013.95
581.648	6952.94
582.008	7032.03
582.368	7011.69
582.728	7058.7
583.089	7010.34
583.449	7035.87
583.809	7016.21
584.169	7044.01
584.529	7024.58
584.889	7085.14
585.249	7022.09
585.609	7061.18
585.969	7027.96
586.329	7066.16
586.688	7104.35
587.048	7077.68
587.408	7059.38
587.768	7024.12
588.127	7010.11
588.487	7086.95
588.846	7067.51
589.206	7003.78
589.565	7040.39
589.925	7056.21
590.284	7052.82
590.643	7069.09
591.003	7106.15
591.362	7143.89
591.721	7098.92
592.08	7051.69
592.44	7128.75
592.799	7052.15
593.158	7081.97
593.517	7051.47
593.876	7086.49
594.235	7067.51
594.593	7038.13
594.952	7121.52
595.311	7116.1
595.67	7110.9
596.029	7133.95
596.387	7130.56
596.746	7126.04
597.104	7130.56
597.463	7086.72
597.822	7116.1
598.18	7097.79
598.538	7057.12
598.897	7135.31
599.255	7064.8
599.613	7158.13
599.972	7133.95
600.33	7130.79
600.688	7156.55
601.046	7167.17
601.404	7150.9
601.762	7170.33
602.12	7140.05
602.478	7198.13
602.836	7182.31
603.194	7134.4
603.552	7140.5
603.91	7126.27
604.268	7199.71
604.625	7147.06
604.983	7234.74
605.341	7140.05
605.698	7239.94
606.056	7160.62
606.413	7212.14
606.771	7227.06
607.128	7195.64
607.485	7201.29
607.843	7230.9
608.2	7292.36
608.557	7298.92
608.914	7261.41
609.272	7249.65
609.629	7317.45
609.986	7290.56
610.343	7278.13
610.7	7295.3
611.057	7379.37
611.414	7304.79
611.771	7324
612.127	7387.96
612.484	7318.35
612.841	7378.69
613.198	7342.08
613.554	7342.31
613.911	7394.51
614.267	7339.14
614.624	7400.16
614.98	7356.32
615.337	7378.24
615.693	7377.56
616.05	7385.47
616.406	7424.34
616.762	7349.54
617.118	7372.14
617.475	7373.72
617.831	7422.3
618.187	7404.9
618.543	7430.21
618.899	7434.06
619.255	7443.77
619.611	7359.48
619.967	7476.31
620.323	7434.73
620.678	7493.94
621.034	7362.65
621.39	7381.4
621.746	7349.76
622.101	7561.51
622.457	7437.45
622.812	7420.5
623.168	7498.24
623.523	7461.85
623.879	7478.35
624.234	7407.62
624.589	7419.37
624.945	7463.89
625.3	7426.6
625.655	7480.38
626.01	7463.89
626.365	7431.57
626.72	7360.61
627.075	7376.43
627.43	7373.04
627.785	7345.02
628.14	7372.36
628.495	7485.13
628.85	7383.44
629.205	7385.92
629.559	7424.79
629.914	7379.14
630.269	7445.58
630.623	7343.21
630.978	7335.75
631.332	7340.27
631.687	7389.54
632.041	7317.9
632.396	7306.38
632.75	7307.73
633.104	7338.92
633.459	7247.62
633.813	7331.23
634.167	7261.63
634.521	7320.39
634.875	7335.53
635.229	7337.34
635.583	7261.86
635.937	7238.58
636.291	7244
636.645	7298.69
636.999	7205.14
637.352	7174.63
637.706	7110.9
638.06	7166.72
638.413	7139.37
638.767	7150.45
639.121	7157.68
639.474	7112.26
639.828	7122.2
640.181	7134.63
640.534	7059.6
640.888	7084.69
641.241	7107.96
641.594	7096.66
641.947	7121.52
642.301	7099.38
642.654	7119.04
643.007	7018.7
643.36	7030.45
643.713	6969.89
644.066	7046.27
644.419	6983.45
644.771	6906.84
645.124	6895.31
645.477	6850.57
645.83	6846.27
646.182	6823.22
646.535	6800.4
646.888	6863
647.24	6789.33
647.593	6827.97
647.945	6806.05
648.298	6740.29
648.65	6739.16
649.002	6674.08
649.355	6710.69
649.707	6685.15
650.059	6724.24
650.411	6772.83
650.763	6778.25
651.115	6867.74
651.467	6861.64
651.819	6857.12
652.171	6878.36
652.523	6832.49
652.875	6822.32
653.227	6789.33
653.578	6837.24
653.93	6806.73
654.282	6782.55
654.633	6765.37
654.985	6752.27
655.337	6733.28
655.688	6725.15
656.039	6743
656.391	6658.03
656.742	6754.53
657.094	6686.05
657.445	6743
657.796	6758.59
658.147	6732.61
658.498	6707.97
658.849	6723.57
659.2	6702.32
659.551	6707.75
659.902	6727.63
660.253	6685.15
660.604	6681.76
660.955	6623.46
661.306	6632.27
661.656	6658.03
662.007	6613.06
662.358	6628.88
662.708	6617.35
663.059	6561.54
663.409	6547.07
663.76	6631.37
664.11	6639.05
664.461	6596.79
664.811	6601.31
665.161	6607.19
665.511	6602.21
665.862	6629.78
666.212	6657.58
666.562	6638.14
666.912	6574.19
667.262	6599.73
667.612	6567.86
667.962	6587.75
668.312	6559.05
668.662	6578.94
669.011	6532.16
669.361	6485.38
669.711	6542.55
670.06	6514.31
670.41	6536.68
670.76	6533.06
671.109	6594.08
671.459	6528.09
671.808	6527.41
672.157	6548.43
672.507	6476.34
672.856	6534.64
673.205	6547.53
673.554	6541.65
673.904	6498.04
674.253	6520.63
674.602	6482.89
674.951	6411.48
675.3	6365.61
675.649	6469.79
675.998	6459.84
676.346	6390.92
676.695	6454.42
677.044	6382.56
677.393	6420.75
677.741	6487.19
678.09	6381.43
678.438	6400.64
678.787	6446.96
679.135	6472.95
679.484	6452.39
679.832	6440.86
680.181	6403.12
680.529	6420.07
680.877	6373.97
681.225	6333.97
681.573	6400.64
681.922	6402.22
682.27	6356.34
682.618	6264.37
682.966	6254.2
683.314	6251.94
683.661	6274.09
684.009	6290.81
684.357	6239.29
684.705	6169.68
685.053	6313.86
685.4	6290.58
685.748	6255.78
686.095	6239.06
686.443	6242
686.79	6183.02
687.138	6217.82
687.485	6253.07
687.832	6166.74
688.18	6162.68
688.527	6107.76
688.874	6063.02
689.221	6039.52
689.568	6062.79
689.915	6038.84
690.262	6013.98
690.609	6027.54
690.956	6008.33
691.303	6019.4
691.65	6002.91
691.997	5992.96
692.344	5978.05
692.69	6042.23
693.037	6035.22
693.383	5916.36
693.73	5982.34
694.077	5943.47
694.423	5965.85
694.769	5917.03
695.116	5864.38
695.462	5873.64
695.808	5802.23
696.155	5826.41
696.501	5811.05
696.847	5733.31
697.193	5716.59
697.539	5732.41
697.885	5715.68
698.231	5719.07
698.577	5720.65
698.923	5691.05
699.269	5729.24
699.614	5729.92
699.96	5726.53
700.306	5742.12
700.651	5683.59
700.997	5654.67
701.342	5632.07
701.688	5581.68
702.033	5576.93
702.379	5574.22
702.724	5528.34
703.069	5490.38
703.415	5456.48
703.76	5487.67
704.105	5464.39
704.45	5466.2
704.795	5484.5
705.14	5409.48
705.485	5437.05
705.83	5451.28
706.175	5506.65
706.52	5469.36
706.865	5427.78
707.209	5385.3
707.554	5377.61
707.899	5364.96
708.243	5370.38
708.588	5340.78
708.932	5288.58
709.277	5323.38
709.621	5306.43
709.966	5208.8
710.31	5232.76
710.654	5228.01
710.998	5207.22
711.342	5188.01
711.687	5164.74
712.031	5176.49
712.375	5194.79
712.719	5167.45
713.063	5230.72
713.407	5217.62
713.75	5202.48
714.094	5140.33
714.438	5196.6
714.782	5105.53
715.125	5101.24
715.469	5106.66
715.812	5067.79
716.156	5051.29
716.499	5061.01
716.843	5071.86
717.186	5023.5
717.53	5038.64
717.873	5020.11
718.216	4991.63
718.559	4986.21
718.902	4970.17
719.246	4971.97
719.589	4971.52
719.932	4947.57
720.275	5038.41
720.617	5025.76
720.96	5040.9
721.303	5018.3
721.646	4979.21
721.989	4963.16
722.331	4968.13
722.674	4918.87
723.016	4900.56
723.359	4909.38
723.701	4846.1
724.044	4895.14
724.386	4830.51
724.729	4826.67
725.071	4814.46
725.413	4815.82
725.755	4838.87
726.097	4778.08
726.439	4809.94
726.782	4814.01
727.124	4797.29
727.465	4810.62
727.807	4828.7
728.149	4815.59
728.491	4818.53
728.833	4848.81
729.175	4842.71
729.516	4803.39
729.858	4769.04
730.199	4753
730.541	4752.09
730.882	4694.92
731.224	4748.25
731.565	4717.97
731.906	4689.72
732.248	4675.94
732.589	4641.36
732.93	4654.47
733.271	4657.41
733.612	4653.11
733.953	4645.65
734.294	4665.54
734.635	4672.09
734.976	4678.87
735.317	4727.23
735.658	4671.64
735.999	4671.64
736.339	4668.93
736.68	4647.91
737.021	4685.65
737.361	4589.38
737.702	4660.8
738.042	4571.31
738.383	4586
738.723	4610.18
739.063	4552.32
739.404	4583.06
739.744	4534.92
740.084	4536.51
740.424	4530.4
740.764	4535.38
741.104	4546.67
741.444	4510.74
741.784	4524.98
742.124	4502.38
742.464	4535.6
742.804	4552.78
743.143	4538.99
743.483	4520.01
743.823	4523.62
744.162	4574.47
744.502	4542.61
744.841	4508.26
745.181	4513.45
745.52	4425.1
745.86	4486.34
746.199	4477.52
746.538	4420.58
746.877	4376.96
747.216	4398.66
747.556	4374.02
747.895	4368.83
748.234	4344.65
748.573	4365.66
748.911	4358.43
749.25	4387.13
749.589	4391.65
749.928	4392.55
750.267	4357.07
750.605	4330.18
750.944	4365.21
751.283	4353.01
751.621	4404.53
751.96	4360.01
752.298	4346.45
752.636	4303.06
752.975	4296.29
753.313	4263.52
753.651	4259
753.989	4268.26
754.327	4255.16
754.666	4263.52
755.004	4187.36
755.342	4174.25
755.679	4166.8
756.017	4116.18
756.355	4140.81
756.693	4143.52
757.031	4159.57
757.368	4168.61
757.706	4121.6
758.044	4148.49
758.381	4166.8
758.719	4127.25
759.056	4179.45
759.394	4141.94
759.731	4106.69
760.068	4157.31
760.405	4167.48
760.743	4091.32
761.08	4118.44
761.417	4038.66
761.754	4054.71
762.091	4082.51
762.428	4016.97
762.765	3977.65
763.102	3975.84
763.438	3974.71
763.775	3954.15
764.112	3948.5
764.449	3951.89
764.785	3933.13
765.122	3931.32
765.458	3886.58
765.795	3864.21
766.131	3910.98
766.467	3871.66
766.804	3882.74
767.14	3885.67
767.476	3916.18
767.812	3871.21
768.148	3898.1
768.485	3864.21
768.821	3837.99
769.157	3899.01
769.492	3838.22
769.828	3799.58
770.164	3808.84
770.5	3745.79
770.836	3765.45
771.171	3725.45
771.507	3734.72
771.842	3623.53
772.178	3651.56
772.513	3647.26
772.849	3701.27
773.184	3606.36
773.519	3676.19
773.855	3591.67
774.19	3612.46
774.525	3604.33
774.86	3592.8
775.195	3610.88
775.53	3595.51
775.865	3592.58
776.2	3563.88
776.535	3554.61
776.87	3562.07
777.205	3582.18
777.539	3543.54
777.874	3544.89
778.209	3528.62
778.543	3528.17
778.878	3457.66
779.212	3451.56
779.547	3435.97
779.881	3426.48
780.215	3426.7
780.55	3375.63
780.884	3387.38
781.218	3384.9
781.552	3360.49
781.886	3356.65
782.22	3338.8
782.554	3304.45
782.888	3340.15
783.222	3298.12
783.556	3301.06
783.889	3330.21
784.223	3289.53
784.557	3299.48
784.89	3314.39
785.224	3289.31
785.557	3326.14
785.891	3282.07
786.224	3243.66
786.558	3258.8
786.891	3218.8
787.224	3234.17
787.557	3230.55
787.891	3192.81
788.224	3207.27
788.557	3171.57
788.89	3134.06
789.223	3142.87
789.556	3150.1
789.888	3099.48
790.221	3043.21
790.554	3095.86
790.887	3061.29
791.219	3046.6
791.552	3060.16
791.884	3043.21
792.217	3019.48
792.549	3003.44
792.882	3062.42
793.214	3008.41
793.546	3058.35
793.879	3047.05
794.211	2997.79
794.543	3018.58
794.875	3012.03
795.207	3042.31
795.539	3026.04
795.871	2994.85
796.203	2968.41
796.535	2981.74
796.867	2924.8
797.198	2938.81
797.53	2942.87
797.862	2884.35
798.193	2852.03
798.525	2847.96
798.856	2847.74
799.188	2857.68
799.519	2831.92
799.85	2807.74
800.182	2853.84
800.513	2813.16
800.844	2782.43
801.175	2835.98
801.506	2848.87
801.837	2856.78
802.168	2859.71
802.499	2827.17
802.83	2791.92
803.161	2843.22
803.491	2804.57
803.822	2768.64
804.153	2815.65
804.483	2787.85
804.814	2782.65
805.145	2777
805.475	2733.39
805.805	2722.54
806.136	2720.73
806.466	2688.87
806.796	2684.8
807.126	2697.01
807.457	2672.15
807.787	2634.18
808.117	2670.57
808.447	2646.84
808.777	2661.98
809.107	2614.3
809.436	2618.36
809.766	2625.82
810.096	2600.74
810.426	2636.44
810.755	2624.01
811.085	2632.37
811.414	2638.93
811.744	2591.92
812.073	2624.46
812.403	2640.51
812.732	2628.31
813.061	2614.97
813.39	2592.6
813.719	2610.68
814.049	2621.53
814.378	2585.37
814.707	2568.42
815.036	2578.82
815.365	2571.36
815.693	2498.37
816.022	2522.09
816.351	2521.19
816.68	2493.85
817.008	2475.77
817.337	2465.82
817.665	2462.21
817.994	2520.06
818.322	2464.47
818.651	2433.06
818.979	2477.12
819.307	2490.01
819.636	2473.73
819.964	2441.19
820.292	2453.17
820.62	2460.85
820.948	2484.36
821.276	2474.19
821.604	2467.63
821.932	2496.33
822.259	2491.81
822.587	2462.66
822.915	2474.86
823.243	2535.65
823.57	2450.01
823.898	2472.6
824.225	2456.11
824.553	2468.76
824.88	2473.51
825.207	2487.07
825.535	2443.68
825.862	2433.06
826.189	2416.11
826.516	2430.8
826.843	2456.79
827.17	2436.67
827.497	2444.36
827.824	2420.85
828.151	2438.03
828.478	2421.76
828.805	2451.36
829.131	2416.33
829.458	2426.5
829.785	2436.9
830.111	2462.89
830.438	2465.82
830.764	2418.82
831.09	2478.48
831.417	2438.71
831.743	2467.86
832.069	2478.48
832.395	2454.75
832.722	2457.92
833.048	2464.7
833.374	2469.89
833.7	2445.26
834.026	2448.42
834.351	2456.11
834.677	2420.63
835.003	2443.45
835.329	2426.05
835.654	2423.79
835.98	2398.26
836.306	2398.48
836.631	2402.32
836.956	2388.99
837.282	2372.27
837.607	2385.83
837.932	2382.21
838.258	2344.47
838.583	2345.15
838.908	2324.59
839.233	2381.76
839.558	2372.95
839.883	2365.94
840.208	2377.01
840.533	2377.01
840.858	2369.1
841.182	2380.4
841.507	2365.26
841.832	2383.79
842.156	2346.96
842.481	2350.35
842.805	2393.96
843.13	2346.05
843.454	2367.75
843.778	2358.03
844.103	2372.49
844.427	2343.34
844.751	2365.71
845.075	2309.9
845.399	2309.22
845.723	2341.53
846.047	2242.78
846.371	2272.61
846.695	2278.49
847.019	2256.34
847.343	2245.94
847.666	2197.36
847.99	2221.31
848.313	2216.11
848.637	2193.74
848.96	2196.23
849.284	2202.33
849.607	2202.78
849.931	2181.76
850.254	2166.17
850.577	2134.76
850.9	2163.23
851.223	2172.73
851.546	2157.58
851.869	2181.54
852.192	2183.57
852.515	2126.62
852.838	2146.51
853.161	2135.66
853.483	2143.12
853.806	2145.16
854.129	2123.69
854.451	2104.7
854.774	2080.07
855.096	2099.05
855.419	2085.27
855.741	2094.76
856.063	2038.49
856.385	2067.42
856.708	2048.66
857.03	2026.97
857.352	2037.81
857.674	2038.49
857.996	2040.53
858.318	2034.88
858.64	2019.96
858.961	2029.9
859.283	1987.19
859.605	1988.78
859.926	1981.54
860.248	2007.08
860.57	1978.38
860.891	1970.02
861.212	1979.74
861.534	1994.88
861.855	1989.91
862.176	1992.84
862.498	2018.38
862.819	1992.84
863.14	1967.76
863.461	1988.78
863.782	1998.94
864.103	1999.62
864.424	1985.16
864.745	1973.86
865.065	1941.09
865.386	1977.48
865.707	1964.6
866.027	1965.73
866.348	1945.39
866.668	1919.85
866.989	1917.59
867.309	1940.19
867.63	1917.14
867.95	1927.31
868.27	1886.63
868.59	1930.47
868.91	1913.98
869.23	1905.84
869.55	1907.65
869.87	1891.15
870.19	1897.93
870.51	1893.86
870.83	1930.02
871.15	1902.9
871.469	1903.58
871.789	1914.65
872.109	1886.18
872.428	1914.43
872.748	1895.22
873.067	1897.48
873.386	1899.96
873.706	1924.82
874.025	1893.86
874.344	1887.99
874.663	1904.48
874.982	1885.28
875.301	1899.29
875.62	1890.7
875.939	1862.68
876.258	1872.62
876.577	1840.08
876.896	1859.51
877.214	1861.77
877.533	1839.17
877.852	1836.24
878.17	1842.11
878.489	1822
878.807	1819.97
879.125	1822.23
879.444	1829.01
879.762	1824.94
880.08	1819.06
880.398	1783.81
880.716	1829.23
881.034	1837.59
881.352	1832.85
881.67	1798.72
881.988	1800.98
882.306	1824.03
882.624	1800.31
882.941	1785.62
883.259	1796.01
883.577	1793.75
883.894	1806.41
884.212	1770.7
884.529	1780.19
884.846	1806.63
885.164	1809.8
885.481	1787.42
885.798	1782.45
886.115	1791.49
886.432	1783.58
886.75	1784.71
887.067	1766.18
887.383	1783.36
887.7	1762.79
888.017	1765.73
888.334	1762.79
888.651	1752.4
888.967	1733.64
889.284	1719.4
889.6	1737.48
889.917	1749.91
890.233	1710.14
890.55	1732.06
890.866	1734.54
891.182	1702.46
891.498	1698.39
891.815	1667.43
892.131	1683.7
892.447	1673.98
892.763	1712.62
893.079	1690.93
893.395	1672.85
893.71	1673.98
894.026	1710.59
894.342	1685.51
894.657	1648.9
894.973	1648.67
895.289	1671.95
895.604	1679.86
895.92	1661.78
896.235	1650.03
896.55	1647.77
896.865	1643.7
897.181	1658.84
897.496	1663.13
897.811	1636.92
898.126	1663.59
898.441	1637.6
898.756	1617.71
899.071	1645.28
899.386	1610.71
899.7	1629.24
900.015	1602.57
900.33	1591.5
900.644	1604.15
900.959	1592.4
901.273	1595.79
901.588	1569.35
901.902	1560.09
902.216	1555.11
902.531	1547.66
902.845	1542.01
903.159	1538.62
903.473	1549.69
903.787	1551.5
904.101	1505.62
904.415	1514.89
904.729	1533.87
905.042	1516.47
905.356	1517.83
905.67	1517.83
905.984	1508.79
906.297	1500.65
906.611	1492.52
906.924	1533.65
907.237	1492.07
907.551	1525.51
907.864	1497.49
908.177	1507.43
908.491	1481.44
908.804	1453.65
909.117	1472.4
909.43	1486.42
909.743	1463.82
910.056	1447.32
910.368	1457.72
910.681	1467.43
910.994	1449.81
911.307	1430.82
911.619	1424.04
911.932	1414.55
912.244	1403.03
912.557	1422.01
912.869	1417.72
913.181	1401.9
913.494	1415.46
913.806	1393.31
914.118	1379.3
914.43	1390.15
914.742	1365.74
915.054	1380.2
915.366	1341.56
915.678	1358.51
915.99	1351.05
916.302	1393.76
916.613	1350.15
916.925	1359.64
917.236	1364.61
917.548	1355.8
917.859	1359.64
918.171	1336.14
918.482	1323.71
918.794	1332.3
919.105	1333.88
919.416	1321.67
919.727	1321.45
920.038	1324.84
920.349	1316.25
920.66	1314.22
920.971	1340.88
921.282	1359.41
921.593	1312.86
921.903	1313.31
922.214	1307.21
922.525	1312.41
922.835	1286.42
923.146	1276.93
923.456	1288.23
923.767	1257.27
924.077	1252.07
924.387	1250.72
924.697	1262.69
925.008	1250.49
925.318	1231.51
925.628	1224.05
925.938	1235.12
926.248	1217.72
926.558	1220.21
926.867	1208.91
927.177	1216.59
927.487	1217.5
927.796	1192.86
928.106	1212.75
928.416	1199.42
928.725	1205.75
929.034	1219.98
929.344	1193.09
929.653	1196.03
929.962	1196.25
930.271	1198.29
930.581	1194.22
930.89	1156.93
931.199	1162.36
931.508	1158.29
931.817	1167.55
932.125	1155.35
932.434	1178.4
932.743	1153.32
933.051	1167.55
933.36	1158.97
933.669	1141.57
933.977	1157.16
934.286	1139.31
934.594	1179.76
934.902	1144.05
935.21	1118.97
935.519	1111.96
935.827	1134.33
936.135	1123.49
936.443	1126.43
936.751	1120.55
937.059	1127.78
937.367	1100.89
937.674	1102.7
937.982	1098.4
938.29	1096.6
938.597	1090.27
938.905	1077.61
939.213	1078.97
939.52	1063.6
939.827	1081.91
940.135	1071.51
940.442	1068.35
940.749	1069.7
941.056	1044.62
941.363	1077.16
941.67	1066.54
941.977	1074.22
942.284	1043.49
942.591	1031.06
942.898	1038.97
943.205	1055.24
943.511	1033.32
943.818	1022.02
944.125	1006.2
944.431	1013.89
944.738	1040.33
945.044	992.19
945.35	1029.25
945.657	1035.81
945.963	1025.41
946.269	1002.36
946.575	994.9
946.881	1008.46
947.187	994
947.493	990.61
947.799	1003.04
948.105	999.42
948.41	971.18
948.716	975.02
949.022	962.81
949.327	986.77
949.633	964.85
949.938	965.3
950.244	956.26
950.549	978.18
950.854	973.21
951.16	949.93
951.465	942.48
951.77	958.52
952.075	944.51
952.38	936.37
952.685	934.34
952.99	940.67
953.294	951.97
953.599	946.54
953.904	934.79
954.209	906.32
954.513	909.26
954.818	901.57
955.122	916.49
955.426	917.84
955.731	919.2
956.035	937.05
956.339	888.24
956.643	928.92
956.948	895.47
957.252	910.84
957.556	909.03
957.86	896.6
958.163	910.61
958.467	900.89
958.771	895.24
959.075	891.4
959.378	898.18
959.682	885.98
959.985	894.11
960.289	877.17
960.592	902.48
960.896	890.27
961.199	881.01
961.502	876.49
961.805	860.67
962.108	878.52
962.411	841.91
962.714	866.09
963.017	896.37
963.32	852.53
963.623	827.45
963.926	861.35
964.228	849.6
964.531	863.38
964.833	852.08
965.136	832.87
965.438	838.75
965.741	827.22
966.043	829.71
966.345	829.03
966.648	810.73
966.95	839.88
967.252	830.39
967.554	797.85
967.856	820.9
968.158	814.57
968.46	821.35
968.761	810.5
969.063	785.19
969.365	796.72
969.666	809.6
969.968	782.93
970.269	790.61
970.571	790.16
970.872	789.26
971.174	803.72
971.475	772.54
971.776	789.48
972.077	786.1
972.378	793.55
972.679	779.09
972.98	791.07
973.281	754.46
973.582	779.77
973.883	773.21
974.183	799.65
974.484	790.84
974.785	771.41
975.085	769.15
975.386	776.38
975.686	775.47
975.986	782.48
976.287	779.09
976.587	771.86
976.887	788.81
977.187	757.85
977.487	752.88
977.787	729.83
978.087	749.71
978.387	748.58
978.687	728.47
978.987	717.85
979.286	732.09
979.586	731.63
979.885	697.06
980.185	745.42
980.484	733.67
980.784	722.14
981.083	717.4
981.382	724.4
981.682	717.4
981.981	724.4
982.28	700.45
982.579	723.27
982.878	695.93
983.177	706.32
983.475	703.61
983.774	686.44
984.073	709.49
984.372	704.29
984.67	688.7
984.969	717.4
985.267	685.98
985.566	725.08
985.864	703.39
986.162	678.75
986.461	711.29
986.759	699.77
987.057	696.15
987.355	713.33
987.653	678.75
987.951	677.62
988.249	675.82
988.547	686.21
988.844	675.14
989.142	672.88
989.44	680.56
989.737	675.14
990.035	688.02
990.332	652.99
990.63	661.58
990.927	683.95
991.224	662.93
991.521	656.83
991.819	646.89
992.116	663.16
992.413	653.44
992.71	672.88
993.006	637.4
993.303	645.31
993.6	645.53
993.897	658.64
994.193	633.78
994.49	641.69
994.787	632.2
995.083	627.91
995.379	644.18
995.676	643.27
995.972	645.99
996.268	602.37
996.565	622.48
996.861	645.31
997.157	610.05
997.453	605.08
997.749	633.1
998.044	612.99
998.34	623.16
998.636	619.32
998.932	617.51
999.227	611.18
999.523	598.3
999.818	634.01
1000.114	611.64
1000.409	606.89
1000.704	612.09
1001	615.7
1001.295	594.91
1001.59	598.76
1001.885	594.01
1002.18	618.42
1002.475	631.3
1002.77	603.5
1003.065	587
1003.359	594.46
1003.654	576.61
1003.949	596.72
1004.243	594.24
1004.538	594.46
1004.832	588.81
1005.127	584.52
1005.421	579.77
1005.715	577.29
1006.009	572.32
1006.304	572.77
1006.598	577.51
1006.892	571.19
1007.186	579.09
1007.48	557.17
1007.773	563.73
1008.067	574.12
1008.361	549.49
1008.655	568.93
1008.948	573.45
1009.242	547.68
1009.535	578.19
1009.829	547.91
1010.122	530.28
1010.415	549.27
1010.708	521.24
1011.001	557.85
1011.295	540.23
1011.588	553.33
1011.881	528.02
1012.173	518.98
1012.466	536.84
1012.759	551.98
1013.052	524.41
1013.344	514.92
1013.637	531.86
1013.93	525.99
1014.222	517.18
1014.514	519.21
1014.807	515.59
1015.099	520.34
1015.391	529.38
1015.683	542.71
1015.976	532.99
1016.268	516.72
1016.56	505.88
1016.851	518.31
1017.143	520.57
1017.435	520.11
1017.727	507.91
1018.018	502.03
1018.31	527.34
1018.602	501.13
1018.893	502.26
1019.185	518.31
1019.476	497.06
1019.767	498.19
1020.058	507.23
1020.35	512.2
1020.641	499.77
1020.932	493.9
1021.223	489.83
1021.514	502.03
1021.804	503.62
1022.095	483.05
1022.386	477.63
1022.677	473.56
1022.967	476.95
1023.258	483.73
1023.548	495.03
1023.839	464.75
1024.129	493.45
1024.419	477.18
1024.709	453.67
1025	468.14
1025.29	461.58
1025.58	497.52
1025.87	467.23
1026.16	461.81
1026.449	479.21
1026.739	444.86
1027.029	474.69
1027.319	459.32
1027.608	478.76
1027.898	455.93
1028.187	434.47
1028.477	450.51
1028.766	444.18
1029.055	467.01
1029.344	465.2
1029.634	453.45
1029.923	448.48
1030.212	458.65
1030.501	443.05
1030.79	434.92
1031.078	441.7
1031.367	433.34
1031.656	436.73
1031.945	463.62
1032.233	434.24
1032.522	444.86
1032.81	437.18
1033.099	456.61
1033.387	429.04
1033.675	457.74
1033.963	430.17
1034.251	439.44
1034.54	443.28
1034.828	435.37
1035.116	431.08
1035.403	428.36
1035.691	429.49
1035.979	436.27
1036.267	424.3
1036.554	411.42
1036.842	441.47
1037.129	413.9
1037.417	419.1
1037.704	421.81
1037.992	436.05
1038.279	437.18
1038.566	422.04
1038.853	422.04
1039.14	422.04
