Data from foam_black_FLMS001491_00066.txt Node
Date: Wed Feb 08 10:44:24 GMT 2017
User: dcchb
Spectrometer: FLMS00149
Trigger mode: 0
Integration Time (sec): 2.000000E-2
Scans to average: 10
Electric dark correction enabled: true
Nonlinearity correction enabled: false
Boxcar width: 0
XAxis mode: Wavelengths
Number of Pixels in Spectrum: 2048
>>>>>Begin Spectral Data<<<<<
341.393	-15.28
341.776	-15.28
342.16	-15.28
342.543	-67.71
342.927	-75.39
343.31	-69.07
343.693	-63.64
344.077	-74.72
344.46	-54.15
344.843	-83.08
345.226	-45.34
345.61	-45.79
345.993	-7.82
346.376	5.06
346.759	6.86
347.142	31.27
347.525	37.15
347.908	65.17
348.291	107.43
348.674	81.89
349.057	108.78
349.44	132.28
349.823	147.43
350.206	154.2
350.588	187.2
350.971	210.93
351.354	208.67
351.737	210.93
352.119	213.19
352.502	250.93
352.884	244.82
353.267	272.85
353.65	276.91
354.032	263.13
354.414	280.76
354.797	283.02
355.179	312.39
355.562	309.23
355.944	305.39
356.326	327.99
356.709	310.13
357.091	308.55
357.473	324.14
357.855	311.71
358.238	325.73
358.62	315.1
359.002	302.45
359.384	320.98
359.766	339.96
360.148	301.09
360.53	315.78
360.912	308.78
361.294	327.53
361.676	319.85
362.057	293.41
362.439	319.17
362.821	308.33
363.203	317.82
363.584	285.95
363.966	303.58
364.348	298.83
364.729	285.27
365.111	293.64
365.493	304.03
365.874	298.83
366.256	288.44
366.637	299.51
367.019	297.7
367.4	302.45
367.781	311.49
368.163	290.47
368.544	272.39
368.925	292.05
369.306	282.79
369.688	283.02
370.069	298.61
370.45	290.02
370.831	278.95
371.212	290.25
371.593	290.92
371.974	285.73
372.355	293.41
372.736	284.15
373.117	294.77
373.498	283.24
373.879	304.71
374.26	271.94
374.641	275.33
375.021	305.39
375.402	286.63
375.783	293.64
376.163	316.46
376.544	287.76
376.925	302
377.305	312.17
377.686	301.32
378.066	311.94
378.447	307.42
378.827	282.34
379.208	324.37
379.588	318.72
379.968	309
380.349	310.36
380.729	316.23
381.109	323.47
381.489	310.81
381.87	335.44
382.25	312.39
382.63	314.65
383.01	319.62
383.39	323.24
383.77	322.79
384.15	311.94
384.53	319.17
384.91	319.17
385.29	333.64
385.67	323.24
386.049	322.11
386.429	327.08
386.809	336.8
387.189	332.05
387.568	325.05
387.948	326.18
388.328	315.78
388.707	317.14
389.087	329.12
389.466	330.25
389.846	346.06
390.225	334.99
390.605	342.67
390.984	347.65
391.363	330.7
391.743	340.64
392.122	355.56
392.501	348.78
392.881	355.1
393.26	330.7
393.639	345.16
394.018	359.62
394.397	346.29
394.776	355.33
395.155	342
395.534	335.67
395.913	350.36
396.292	348.55
396.671	342
397.05	344.48
397.429	338.61
397.808	345.61
398.186	362.79
398.565	376.8
398.944	378.38
399.323	364.37
399.701	356.23
400.08	365.27
400.458	369.79
400.837	356.91
401.215	363.24
401.594	361.88
401.972	353.75
402.351	370.47
402.729	376.57
403.107	387.87
403.486	399.85
403.864	375.22
404.242	384.93
404.62	388.78
404.999	382.22
405.377	405.72
405.755	399.85
406.133	383.58
406.511	391.94
406.889	400.53
407.267	409.11
407.645	400.98
408.023	408.21
408.401	395.33
408.779	406.18
409.156	391.94
409.534	405.5
409.912	421.77
410.29	428.77
410.667	422.45
411.045	410.47
411.422	437.59
411.8	431.94
412.178	408.89
412.555	424.48
412.933	406.85
413.31	429.45
413.687	445.95
414.065	430.81
414.442	421.99
414.819	455.67
415.197	424.93
415.574	452.05
415.951	450.92
416.328	459.51
416.705	445.72
417.082	438.49
417.46	463.58
417.837	451.15
418.214	456.57
418.591	460.19
418.967	463.8
419.344	449.56
419.721	459.28
420.098	464.48
420.475	461.54
420.852	473.07
421.228	456.57
421.605	480.52
421.982	471.48
422.358	488.43
422.735	463.8
423.111	461.54
423.488	492.05
423.864	472.39
424.241	488.66
424.617	494.99
424.994	485.72
425.37	503.12
425.746	483.01
426.123	484.37
426.499	501.09
426.875	504.48
427.251	485.27
427.627	511.71
428.003	519.62
428.379	543.35
428.756	514.87
429.132	524.36
429.507	515.78
429.883	563.46
430.259	550.58
430.635	543.35
431.011	570.69
431.387	549.45
431.763	549.9
432.138	560.75
432.514	576.11
432.89	551.03
433.265	538.83
433.641	582.89
434.016	567.75
434.392	568.43
434.767	606.62
435.143	576.34
435.518	592.39
435.894	588.09
436.269	580.41
436.644	595.32
437.02	604.59
437.395	593.52
437.77	603.23
438.145	603.46
438.52	607.75
438.895	615.89
439.271	585.61
439.646	616.57
440.021	614.76
440.395	613.18
440.77	624.48
441.145	608.43
441.52	646.4
441.895	654.3
442.27	645.27
442.645	640.07
443.019	678.94
443.394	654.76
443.769	665.6
444.143	673.29
444.518	628.99
444.892	673.06
445.267	646.4
445.641	663.34
446.016	673.51
446.39	670.8
446.764	678.48
447.139	661.99
447.513	681.2
447.887	673.51
448.262	691.14
448.636	674.19
449.01	701.54
449.384	708.09
449.758	707.86
450.132	710.35
450.506	712.38
450.88	702.21
451.254	706.05
451.628	737.47
452.002	717.81
452.376	734.08
452.75	731.59
453.123	726.39
453.497	739.95
453.871	769.1
454.244	747.86
454.618	753.74
454.992	752.61
455.365	766.62
455.739	768.65
456.112	794.87
456.486	799.61
456.859	794.19
457.232	772.72
457.606	801.87
457.979	798.26
458.352	809.55
458.725	820.85
459.099	855.2
459.472	842.55
459.845	851.59
460.218	846.16
460.591	863.11
460.964	867.63
461.337	858.59
461.71	884.36
462.083	891.13
462.456	898.14
462.829	915.77
463.201	898.59
463.574	899.04
463.947	930.91
464.32	913.06
464.692	935.43
465.065	945.14
465.438	949.44
465.81	957.12
466.183	964.81
466.555	973.17
466.928	976.56
467.3	953.96
467.672	983.79
468.045	1013.17
468.417	1028.53
468.789	1019.27
469.161	1024.24
469.534	1044.13
469.906	1052.94
470.278	1077.8
470.65	1101.52
471.022	1059.94
471.394	1111.02
471.766	1108.08
472.138	1080.28
472.51	1122.54
472.882	1137.23
473.253	1145.82
473.625	1138.59
473.997	1174.52
474.369	1181.52
474.74	1192.37
475.112	1197.12
475.484	1217.45
475.855	1238.92
476.227	1248.64
476.598	1278.02
476.97	1288.64
477.341	1297.23
477.713	1300.39
478.084	1328.86
478.455	1342.42
478.827	1373.38
479.198	1395.75
479.569	1404.79
479.94	1437.34
480.311	1396.88
480.682	1450.89
481.053	1476.2
481.424	1504
481.795	1482.08
482.166	1539.48
482.537	1547.84
482.908	1558.24
483.279	1584
483.65	1602.3
484.021	1628.74
484.391	1659.02
484.762	1695.63
485.133	1668.06
485.503	1672.36
485.874	1722.53
486.244	1760.26
486.615	1781.96
486.985	1766.82
487.356	1795.07
487.726	1810.43
488.097	1839.13
488.467	1840.94
488.837	1889.53
489.207	1896.76
489.578	1926.14
489.948	1922.52
490.318	1941.5
490.688	1970.88
491.058	1986.47
491.428	2013.59
491.798	2035.74
492.168	2050.43
492.538	2045
492.908	2075.96
493.278	2095.17
493.648	2087.71
494.017	2138.33
494.387	2121.84
494.757	2125.68
495.126	2179.69
495.496	2162.06
495.866	2202.29
496.235	2213.59
496.605	2238.22
496.974	2220.82
497.344	2261.27
497.713	2292
498.082	2317.99
498.452	2312.11
498.821	2276.41
499.19	2362.51
499.559	2329.52
499.928	2358.89
500.298	2362.06
500.667	2376.07
501.036	2398.44
501.405	2403.41
501.774	2410.42
502.143	2445.44
502.512	2439.57
502.88	2468.49
503.249	2475.05
503.618	2488.83
503.987	2506.69
504.356	2522.28
504.724	2541.94
505.093	2530.87
505.462	2508.95
505.83	2531.32
506.199	2607.7
506.567	2611.99
506.936	2600.24
507.304	2653.12
507.672	2648.6
508.041	2658.55
508.409	2670.52
508.777	2675.04
509.145	2721.37
509.514	2706.45
509.882	2720.69
510.25	2705.78
510.618	2769.05
510.986	2776.51
511.354	2784.64
511.722	2829.16
512.09	2845.66
512.458	2843.4
512.826	2859.67
513.193	2913.45
513.561	2936.05
513.929	2895.38
514.297	2927.69
514.664	2974.24
515.032	2990.74
515.4	2986.22
515.767	3014.92
516.135	3029.38
516.502	3041.81
516.869	3085.2
517.237	3061.47
517.604	3063.51
517.972	3121.13
518.339	3114.13
518.706	3168.81
519.073	3176.5
519.44	3201.36
519.808	3232.77
520.175	3178.08
520.542	3242.26
520.909	3242.94
521.276	3266.67
521.643	3250.39
522.009	3296.95
522.376	3323.39
522.743	3357.74
523.11	3389.15
523.477	3421.01
523.843	3446.55
524.21	3458.98
524.577	3479.99
524.943	3525.87
525.31	3518.41
525.676	3555.47
526.043	3553.89
526.409	3597.73
526.776	3672.98
527.142	3663.72
527.508	3711.4
527.874	3710.72
528.241	3694.45
528.607	3707.56
528.973	3759.53
529.339	3732.19
529.705	3803.15
530.071	3790.27
530.437	3829.59
530.803	3827.33
531.169	3890.38
531.535	3842.02
531.901	3880.21
532.267	3844.96
532.632	3899.19
532.998	3891.06
533.364	3980.55
533.73	3949.13
534.095	3961.34
534.461	3983.71
534.826	4067.1
535.192	4048.11
535.557	4093.99
535.923	4087.21
536.288	4104.61
536.653	4122.01
537.019	4122.24
537.384	4169.01
537.749	4207.43
538.114	4199.97
538.479	4150.94
538.845	4224.15
539.21	4206.53
539.575	4230.93
539.94	4270.03
540.305	4240.88
540.67	4268
541.034	4269.13
541.399	4302.57
541.764	4319.97
542.129	4341.21
542.494	4333.76
542.858	4352.74
543.223	4371.72
543.587	4382.57
543.952	4347.54
544.316	4374.88
544.681	4359.97
545.045	4430.25
545.41	4471.38
545.774	4455.79
546.138	4426.41
546.503	4461.21
546.867	4482
547.231	4503.02
547.595	4507.76
547.959	4569.46
548.324	4523.58
548.688	4597.7
549.052	4592.28
549.416	4596.12
549.779	4652.84
550.143	4616.46
550.507	4693.97
550.871	4714.09
551.235	4695.55
551.599	4711.15
551.962	4752.95
552.326	4797.92
552.689	4803.35
553.053	4773.52
553.417	4800.41
553.78	4887.87
554.143	4845.16
554.507	4919.73
554.87	4930.8
555.234	4949.56
555.597	4914.98
555.96	4950.92
556.323	4974.87
556.686	4966.51
557.05	5034.98
557.413	5053.51
557.776	5026.17
558.139	5070.69
558.502	4996.56
558.865	5006.51
559.228	5063.23
559.59	5108.43
559.953	5083.11
560.316	5146.16
560.679	5155.88
561.041	5135.77
561.404	5243.34
561.767	5224.58
562.129	5302.54
562.492	5284.24
562.854	5315.88
563.217	5317.23
563.579	5327.4
563.941	5369.44
564.304	5425.7
564.666	5414.41
565.028	5492.14
565.39	5512.48
565.753	5566.72
566.115	5559.94
566.477	5551.35
566.839	5629.77
567.201	5619.37
567.563	5680.39
567.925	5736.43
568.287	5656.89
568.648	5670.67
569.01	5726.49
569.372	5758.8
569.734	5762.42
570.095	5768.29
570.457	5809.65
570.819	5747.5
571.18	5786.15
571.542	5867.95
571.903	5839.93
572.265	5878.12
572.626	5844.45
572.987	5940.27
573.349	5856.88
573.71	5945.92
574.071	5941.4
574.432	5949.08
574.794	5991.79
575.155	6029.76
575.516	5961.96
575.877	5990.21
576.238	6042.19
576.599	6067.27
576.96	6013.71
577.32	6041.51
577.681	6047.16
578.042	6083.09
578.403	6124.67
578.763	6024.11
579.124	6101.17
579.485	6134.84
579.845	6181.17
580.206	6127.38
580.566	6174.61
580.927	6200.83
581.287	6243.76
581.648	6233.59
582.008	6237.21
582.368	6222.52
582.728	6219.58
583.089	6199.7
583.449	6190.66
583.809	6232.69
584.169	6313.59
584.529	6241.05
584.889	6263.2
585.249	6260.71
585.609	6286.93
585.969	6279.69
586.329	6251.9
586.688	6296.64
587.048	6264.1
587.408	6267.49
587.768	6229.98
588.127	6222.07
588.487	6234.27
588.846	6267.49
589.206	6213.71
589.565	6217.77
589.925	6286.93
590.284	6222.52
590.643	6217.55
591.003	6249.19
591.362	6234.95
591.721	6253.25
592.08	6261.39
592.44	6234.5
592.799	6291.9
593.158	6259.58
593.517	6275.63
593.876	6287.38
594.235	6241.28
594.593	6228.17
594.952	6291.44
595.311	6227.27
595.67	6242.63
596.029	6274.04
596.387	6280.6
596.746	6258.23
597.104	6180.71
597.463	6288.28
597.822	6338.68
598.18	6269.3
598.538	6273.37
598.897	6347.04
599.255	6237.21
599.613	6373.48
599.972	6268.62
600.33	6365.79
600.688	6356.98
601.046	6349.97
601.404	6425
601.762	6357.21
602.12	6423.42
602.478	6382.97
602.836	6378.9
603.194	6367.6
603.552	6363.99
603.91	6308.17
604.268	6375.28
604.625	6354.72
604.983	6368.73
605.341	6330.54
605.698	6344.1
606.056	6316.98
606.413	6348.62
606.771	6417.54
607.128	6400.14
607.485	6390.88
607.843	6394.94
608.2	6400.82
608.557	6411.67
608.914	6389.3
609.272	6427.71
609.629	6455.06
609.986	6508.84
610.343	6492.34
610.7	6498.67
611.057	6499.35
611.414	6519.01
611.771	6483.98
612.127	6457.09
612.484	6499.35
612.841	6508.61
613.198	6526.69
613.554	6463.19
613.911	6578.44
614.267	6555.17
614.624	6517.88
614.98	6597.2
615.337	6582.96
615.693	6565.56
616.05	6592.45
616.406	6565.11
616.762	6578.89
617.118	6559.46
617.475	6504.55
617.831	6572.57
618.187	6602.17
618.543	6669.74
618.899	6619.8
619.255	6582.74
619.611	6611.89
619.967	6646.69
620.323	6655.73
620.678	6602.85
621.034	6589.52
621.39	6612.57
621.746	6598.78
622.101	6689.85
622.457	6575.96
622.812	6621.38
623.168	6686.46
623.523	6621.83
623.879	6647.59
624.234	6587.03
624.589	6624.09
624.945	6661.38
625.3	6660.47
625.655	6580.93
626.01	6684.65
626.365	6619.57
626.72	6590.19
627.075	6623.87
627.43	6602.62
627.785	6662.06
628.14	6623.19
628.495	6660.47
628.85	6670.19
629.205	6575.73
629.559	6641.49
629.914	6647.37
630.269	6577.31
630.623	6643.3
630.978	6691.89
631.332	6709.96
631.687	6664.99
632.041	6607.14
632.396	6627.03
632.75	6601.95
633.104	6625
633.459	6621.38
633.813	6570.76
634.167	6563.53
634.521	6530.99
634.875	6612.79
635.229	6584.32
635.583	6580.02
635.937	6551.32
636.291	6511.78
636.645	6538.44
636.999	6486.92
637.352	6519.91
637.706	6460.93
638.06	6418.9
638.413	6427.71
638.767	6446.92
639.121	6454.15
639.474	6368.5
639.828	6404.89
640.181	6432.91
640.534	6413.02
640.888	6384.55
641.241	6368.73
641.594	6357.21
641.947	6356.3
642.301	6364.44
642.654	6371.67
643.007	6393.81
643.36	6348.39
643.713	6347.71
644.066	6349.75
644.419	6329.64
644.771	6169.87
645.124	6161.5
645.477	6164.44
645.83	6158.11
646.182	6142.52
646.535	6116.76
646.888	6141.17
647.24	6094.61
647.593	6164.22
647.945	6112.69
648.298	6145.01
648.65	6120.38
649.002	6120.38
649.355	6073.15
649.707	6071.79
650.059	6112.92
650.411	6170.54
650.763	6188.17
651.115	6206.48
651.467	6193.59
651.819	6212.35
652.171	6207.38
652.523	6215.06
652.875	6188.85
653.227	6142.3
653.578	6216.64
653.93	6196.76
654.282	6224.1
654.633	6136.42
654.985	6170.09
655.337	6129.42
655.688	6141.17
656.039	6127.38
656.391	6106.82
656.742	6117.66
657.094	6152.92
657.445	6131.45
657.796	6079.47
658.147	6074.5
658.498	6085.8
658.849	6055.74
659.2	6094.61
659.551	6083.09
659.902	6066.59
660.253	6044.67
660.604	6049.42
660.955	5978.91
661.306	6006.71
661.656	6090.77
662.007	6001.06
662.358	5985.46
662.708	5974.84
663.059	5980.04
663.409	6000.38
663.76	6051.9
664.11	6090.09
664.461	6070.21
664.811	6041.96
665.161	6052.81
665.511	6061.85
665.862	6010.77
666.212	5997.89
666.562	6037.44
666.912	6049.19
667.262	6055.29
667.612	6021.4
667.962	6065.46
668.312	6004.9
668.662	6043.54
669.011	6043.54
669.361	6036.54
669.711	5988.4
670.06	6026.82
670.41	6036.54
670.76	6001.73
671.109	6003.77
671.459	5972.81
671.808	5974.62
672.157	5998.57
672.507	5955.41
672.856	5964.22
673.205	5967.84
673.554	5918.8
673.904	5932.13
674.253	5944.11
674.602	5985.69
674.951	5877.67
675.3	5853.49
675.649	5871.34
675.998	5904.56
676.346	5897.1
676.695	5869.76
677.044	5874.05
677.393	5890.33
677.741	5891.23
678.09	5862.76
678.438	5833.15
678.787	5819.82
679.135	5830.67
679.484	5781.85
679.832	5807.39
680.181	5781.18
680.529	5825.69
680.877	5785.47
681.225	5781.4
681.573	5819.37
681.922	5784.34
682.27	5777.33
682.618	5752.25
682.966	5758.13
683.314	5795.86
683.661	5759.03
684.009	5704.34
684.357	5675.42
684.705	5712.48
685.053	5717.67
685.4	5668.18
685.748	5687.39
686.095	5694.85
686.443	5690.56
686.79	5668.41
687.138	5711.12
687.485	5688.52
687.832	5628.41
688.18	5666.6
688.527	5707.51
688.874	5689.43
689.221	5615.53
689.568	5632.03
689.915	5613.72
690.262	5609.88
690.609	5612.82
690.956	5652.14
691.303	5580.73
691.65	5536.44
691.997	5556.1
692.344	5493.95
692.69	5526.27
693.037	5499.38
693.383	5474.29
693.73	5454.86
694.077	5435.42
694.423	5404.91
694.769	5431.58
695.116	5373.05
695.462	5346.38
695.808	5343.22
696.155	5327.63
696.501	5280.62
696.847	5255.77
697.193	5219.61
697.539	5299.83
697.885	5191.81
698.231	5188.65
698.577	5197.46
698.923	5187.29
699.269	5117.92
699.614	5130.35
699.96	5106.17
700.306	5140.74
700.651	5135.77
700.997	5096.45
701.342	5070.01
701.688	5082.89
702.033	5062.55
702.379	5030.01
702.724	5019.84
703.069	5038.6
703.415	4988.43
703.76	4994.3
704.105	4992.5
704.45	4959.05
704.795	4975.55
705.14	4993.4
705.485	4961.76
705.83	4946.4
706.175	4907.98
706.52	4990.46
706.865	4917.47
707.209	4903.91
707.554	4925.6
707.899	4917.92
708.243	4860.3
708.588	4924.25
708.932	4880.86
709.277	4876.57
709.621	4882.89
709.966	4836.57
710.31	4932.38
710.654	4846.74
710.998	4836.34
711.342	4850.13
711.687	4872.5
712.031	4824.14
712.375	4779.62
712.719	4781.65
713.063	4778.49
713.407	4794.99
713.75	4682.22
714.094	4745.27
714.438	4766.74
714.782	4728.77
715.125	4668.44
715.469	4651.94
715.812	4700.53
716.156	4662.34
716.499	4657.82
716.843	4646.97
717.186	4588.44
717.53	4642
717.873	4625.95
718.216	4622.11
718.559	4592.05
718.902	4552.51
719.246	4530.81
719.589	4518.61
719.932	4535.78
720.275	4506.41
720.617	4507.76
720.96	4503.7
721.303	4494.66
721.646	4451.49
721.989	4408.56
722.331	4441.78
722.674	4480.19
723.016	4463.47
723.359	4437.48
723.701	4479.06
724.044	4427.31
724.386	4434.77
724.729	4445.17
725.071	4425.96
725.413	4402.68
725.755	4388.67
726.097	4391.83
726.439	4397.26
726.782	4336.02
727.124	4353.42
727.465	4385.28
727.807	4345.51
728.149	4353.19
728.491	4329.69
728.833	4366.3
729.175	4291.95
729.516	4333.98
729.858	4378.05
730.199	4388.67
730.541	4332.17
730.882	4337.15
731.224	4338.5
731.565	4300.31
731.906	4308.45
732.248	4325.17
732.589	4317.49
732.93	4313.42
733.271	4302.57
733.612	4312.74
733.953	4279.07
734.294	4298.73
734.635	4281.33
734.976	4278.39
735.317	4264.15
735.658	4308.67
735.999	4261.44
736.339	4242.01
736.68	4242.69
737.021	4239.97
737.361	4267.77
737.702	4262.35
738.042	4255.11
738.383	4251.27
738.723	4226.64
739.063	4218.28
739.404	4192.97
739.744	4182.12
740.084	4174.21
740.424	4180.54
740.764	4189.13
741.104	4146.42
741.444	4140.31
741.784	4126.08
742.124	4119.75
742.464	4085.4
742.804	4144.16
743.143	4114.78
743.483	4115.23
743.823	4111.84
744.162	4114.1
744.502	4089.92
744.841	4080.66
745.181	4108.9
745.52	4085.4
745.86	4047.44
746.199	4058.51
746.538	4024.39
746.877	4017.38
747.216	4037.94
747.556	4064.16
747.895	3972.86
748.234	3991.84
748.573	4009.02
748.911	3961.34
749.25	3965.63
749.589	3946.87
749.928	3956.14
750.267	3980.77
750.605	3913.43
750.944	3952.75
751.283	3910.94
751.621	3904.61
751.96	3908
752.298	3899.42
752.636	3901
752.975	3882.24
753.313	3858.51
753.651	3857.16
753.989	3855.58
754.327	3857.16
754.666	3845.41
755.004	3832.07
755.342	3860.32
755.679	3847.44
756.017	3803.15
756.355	3819.19
756.693	3830.27
757.031	3839.98
757.368	3808.35
757.706	3821.45
758.044	3830.27
758.381	3811.51
758.719	3840.89
759.056	3811.06
759.394	3789.59
759.731	3797.5
760.068	3776.03
760.405	3763.38
760.743	3751.85
761.08	3762.92
761.417	3739.42
761.754	3738.97
762.091	3721.79
762.428	3714.11
762.765	3689.25
763.102	3668.69
763.438	3716.37
763.775	3678.86
764.112	3654.45
764.449	3640.67
764.785	3656.71
765.122	3671.4
765.458	3621.68
765.795	3616.94
766.131	3596.6
766.467	3600.44
766.804	3587.34
767.14	3561.35
767.476	3586.88
767.812	3527.45
768.148	3504.4
768.485	3468.69
768.821	3480.45
769.157	3494.68
769.492	3486.77
769.828	3475.47
770.164	3447.45
770.5	3425.98
770.836	3423.95
771.171	3403.16
771.507	3398.87
771.842	3353.67
772.178	3373.33
772.513	3365.42
772.849	3344.86
773.184	3327.23
773.519	3306.21
773.855	3293.78
774.19	3280.45
774.525	3288.36
774.86	3284.74
775.195	3276.83
775.53	3236.84
775.865	3261.47
776.2	3169.49
776.535	3218.08
776.87	3196.61
777.205	3164.07
777.539	3157.97
777.874	3221.69
778.209	3157.29
778.543	3167.69
778.878	3148.7
779.212	3160.23
779.547	3179.89
779.881	3138.76
780.215	3119.1
780.55	3140.12
780.884	3094.92
781.218	3083.62
781.552	3115.03
781.886	3090.17
782.22	3106.22
782.554	3074.13
782.888	3042.49
783.222	3040.46
783.556	3011.08
783.889	3017.41
784.223	3016.05
784.557	3028.03
784.89	3042.94
785.224	3014.69
785.557	2979.22
785.891	3035.49
786.224	2966.33
786.558	3027.8
786.891	2943.51
787.224	2942.15
787.557	2953
787.891	2976.05
788.224	2954.81
788.557	2948.26
788.89	2898.09
789.223	2934.7
789.556	2889.27
789.888	2890.4
790.221	2876.39
790.554	2899.44
790.887	2909.84
791.219	2869.61
791.552	2901.93
791.884	2822.16
792.217	2838.43
792.549	2802.5
792.882	2788.49
793.214	2799.11
793.546	2784.42
793.879	2796.85
794.211	2773.35
794.543	2761.59
794.875	2739
795.207	2772.22
795.539	2754.59
795.871	2756.17
796.203	2701.93
796.535	2682.05
796.867	2685.21
797.198	2660.58
797.53	2661.94
797.862	2681.6
798.193	2651.09
798.525	2649.73
798.856	2639.56
799.188	2651.99
799.519	2591.43
799.85	2599.56
800.182	2564.54
800.513	2571.54
800.844	2550.75
801.175	2574.03
801.506	2549.85
801.837	2565.44
802.168	2564.76
802.499	2533.35
802.83	2561.83
803.161	2537.19
803.491	2496.29
803.822	2501.26
804.153	2504.2
804.483	2485.44
804.814	2482.28
805.145	2470.3
805.475	2479.34
805.805	2439.12
806.136	2466.23
806.466	2433.24
806.796	2460.81
807.126	2430.3
807.457	2465.56
807.787	2424.65
808.117	2402.06
808.447	2426.01
808.777	2434.6
809.107	2446.12
809.436	2452
809.766	2412.68
810.096	2381.72
810.426	2451.32
810.755	2404.77
811.085	2413.81
811.414	2405.22
811.744	2391.21
812.073	2397.54
812.403	2418.78
812.732	2396.41
813.061	2377.88
813.39	2366.35
813.719	2375.39
814.049	2357.31
814.378	2374.71
814.707	2371.55
815.036	2357.76
815.365	2380.59
815.693	2368.38
816.022	2336.97
816.351	2328.61
816.68	2346.69
817.008	2332.68
817.337	2364.32
817.665	2335.39
817.994	2337.2
818.322	2297.2
818.651	2285.9
818.979	2306.69
819.307	2340.59
819.636	2323.87
819.964	2277.09
820.292	2306.01
820.62	2300.82
820.948	2328.16
821.276	2275.28
821.604	2305.11
821.932	2269.86
822.259	2335.16
822.587	2274.15
822.915	2253.36
823.243	2268.27
823.57	2281.38
823.898	2268.73
824.225	2266.24
824.553	2258.33
824.88	2233.02
825.207	2252.45
825.535	2250.87
825.862	2262.17
826.189	2320.02
826.516	2275.96
826.843	2242.06
827.17	2230.08
827.497	2221.04
827.824	2223.08
828.151	2233.47
828.478	2242.96
828.805	2258.56
829.131	2229.86
829.458	2244.09
829.785	2266.69
830.111	2241.38
830.438	2218.11
830.764	2226.24
831.09	2230.31
831.417	2228.27
831.743	2211.78
832.069	2197.32
832.395	2179.01
832.722	2233.25
833.048	2198.9
833.374	2219.69
833.7	2231.44
834.026	2225.11
834.351	2211.78
834.677	2215.17
835.003	2221.27
835.329	2195.73
835.654	2187.6
835.98	2191.67
836.306	2212.23
836.631	2205.22
836.956	2190.08
837.282	2216.98
837.607	2191.21
837.932	2208.39
838.258	2181.72
838.583	2195.73
838.908	2172.01
839.233	2192.34
839.558	2186.02
839.883	2181.72
840.208	2172.68
840.533	2185.56
840.858	2163.87
841.182	2180.59
841.507	2188.5
841.832	2181.95
842.156	2162.29
842.481	2175.85
842.805	2162.97
843.13	2198.45
843.454	2155.06
843.778	2160.25
844.103	2128.39
844.427	2178.11
844.751	2163.87
845.075	2145.57
845.399	2152.12
845.723	2142.18
846.047	2138.79
846.371	2118.9
846.695	2098.11
847.019	2079.13
847.343	2120.71
847.666	2079.35
847.99	2078.67
848.313	2088.17
848.637	2040.71
848.96	2068.05
849.284	2057.88
849.607	2035.51
849.931	2046.36
850.254	2038.22
850.577	2027.38
850.9	2049.52
851.223	2016.08
851.546	2030.99
851.869	1981.28
852.192	2002.07
852.515	2008.17
852.838	2013.82
853.161	2016.08
853.483	1958.45
853.806	1966.59
854.129	1935.18
854.451	1963.65
854.774	1952.12
855.096	1945.57
855.419	1936.98
855.741	1943.99
856.063	1933.59
856.385	1912.58
856.708	1906.93
857.03	1894.5
857.352	1930.88
857.674	1908.96
857.996	1903.99
858.318	1900.83
858.64	1908.96
858.961	1886.81
859.283	1866.93
859.605	1904.67
859.926	1837.55
860.248	1874.16
860.57	1849.3
860.891	1837.78
861.212	1824.9
861.534	1864.89
861.855	1842.97
862.176	1833.03
862.498	1851.11
862.819	1814.05
863.14	1813.37
863.461	1821.28
863.782	1805.91
864.103	1833.26
864.424	1811.11
864.745	1830.55
865.065	1770.21
865.386	1780.83
865.707	1785.12
866.027	1808.62
866.348	1800.49
866.668	1785.35
866.989	1782.86
867.309	1787.83
867.63	1790.77
867.95	1765.46
868.27	1762.98
868.59	1769.08
868.91	1752.81
869.23	1770.21
869.55	1761.85
869.87	1749.42
870.19	1758.23
870.51	1751.23
870.83	1744.45
871.15	1733.15
871.469	1774.95
871.789	1737.44
872.109	1734.28
872.428	1737.21
872.748	1750.1
873.067	1724.56
873.386	1733.82
873.706	1741.96
874.025	1740.83
874.344	1723.2
874.663	1711.45
874.982	1739.25
875.301	1738.12
875.62	1728.17
875.939	1685.69
876.258	1719.14
876.577	1715.97
876.896	1713.94
877.214	1705.35
877.533	1690.44
877.852	1680.72
878.17	1727.95
878.489	1696.31
878.807	1711.68
879.125	1714.84
879.444	1707.61
879.762	1684.33
880.08	1698.57
880.398	1719.81
880.716	1712.81
881.034	1696.09
881.352	1715.29
881.67	1699.48
881.988	1708.06
882.306	1736.31
882.624	1689.76
882.941	1681.4
883.259	1681.62
883.577	1659.48
883.894	1681.85
884.212	1661.96
884.529	1685.92
884.846	1665.13
885.164	1669.42
885.481	1672.58
885.798	1684.56
886.115	1656.31
886.432	1665.35
886.75	1649.76
887.067	1669.87
887.383	1653.6
887.7	1640.49
888.017	1671.91
888.334	1653.6
888.651	1638.46
888.967	1641.62
889.284	1625.8
889.6	1613.6
889.917	1601.17
890.233	1616.99
890.55	1597.56
890.866	1621.51
891.182	1607.27
891.498	1640.27
891.815	1609.76
892.131	1603.21
892.447	1572.02
892.763	1583.55
893.079	1567.28
893.395	1571.79
893.71	1558.69
894.026	1554.17
894.342	1548.29
894.657	1550.33
894.973	1548.97
895.289	1532.47
895.604	1554.39
895.92	1501.74
896.235	1524.11
896.55	1510.78
896.865	1525.47
897.181	1512.81
897.496	1514.17
897.811	1495.86
898.126	1465.81
898.441	1468.07
898.756	1462.87
899.071	1446.15
899.386	1456.09
899.7	1471.01
900.015	1472.59
900.33	1453.61
900.644	1455.64
900.959	1453.38
901.273	1440.72
901.588	1430.1
901.902	1452.25
902.216	1428.97
902.531	1409.09
902.845	1402.08
903.159	1407.96
903.473	1387.62
903.787	1381.74
904.101	1407.28
904.415	1416.09
904.729	1403.89
905.042	1364.79
905.356	1363.44
905.67	1392.36
905.984	1377.68
906.297	1375.42
906.611	1369.77
906.924	1367.28
907.237	1370.9
907.551	1370.22
907.864	1358.24
908.177	1363.21
908.491	1337.9
908.804	1336.09
909.117	1343.55
909.43	1338.35
909.743	1306.94
910.056	1337.45
910.368	1303.55
910.681	1321.41
910.994	1309.88
911.307	1321.86
911.619	1318.24
911.932	1317.79
912.244	1303.55
912.557	1294.51
912.869	1295.42
913.181	1301.75
913.494	1246.38
913.806	1235.53
914.118	1279.83
914.43	1269.43
914.742	1263.1
915.054	1264.01
915.366	1276.89
915.678	1272.59
915.99	1281.41
916.302	1268.53
916.613	1227.62
916.925	1232.14
917.236	1281.63
917.548	1278.47
917.859	1231.01
918.171	1228.53
918.482	1215.65
918.794	1245.25
919.105	1237.57
919.416	1219.94
919.727	1222.65
920.038	1193.95
920.349	1199.6
920.66	1214.52
920.971	1209.54
921.282	1221.97
921.593	1195.31
921.903	1212.03
922.214	1189.66
922.525	1191.69
922.835	1172.48
923.146	1160.73
923.456	1191.92
923.767	1174.07
924.077	1184.91
924.387	1144.91
924.697	1147.17
925.008	1176.1
925.318	1157.34
925.628	1177.91
925.938	1160.05
926.248	1139.94
926.558	1141.52
926.867	1122.77
927.177	1112.6
927.487	1108.08
927.796	1115.99
928.106	1121.41
928.416	1119.6
928.725	1129.55
929.034	1126.83
929.344	1102.65
929.653	1131.35
929.962	1102.2
930.271	1082.09
930.581	1078.02
930.89	1078.93
931.199	1095.88
931.508	1068.98
931.817	1045.93
932.125	1078.02
932.434	1065.59
932.743	1045.93
933.051	1056.33
933.36	1067.63
933.669	1038.25
933.977	1063.11
934.286	1033.96
934.594	1018.14
934.902	1047.29
935.21	1023.33
935.519	1031.7
935.827	1045.71
936.135	992.15
936.443	1021.75
936.751	1007.52
937.059	987.18
937.367	995.54
937.674	988.53
937.982	1011.58
938.29	977.46
938.597	997.8
938.905	959.16
939.213	961.42
939.52	968.87
939.827	959.38
940.135	956.44
940.442	953.05
940.749	959.83
941.056	956.44
941.363	947.4
941.67	948.08
941.977	927.97
942.284	927.29
942.591	938.37
942.898	933.62
943.205	911.93
943.511	942.43
943.818	917.8
944.125	938.14
944.431	918.7
944.738	925.48
945.044	928.65
945.35	878.71
945.657	900.17
945.963	899.04
946.269	892.94
946.575	902.21
946.881	883.9
947.187	910.12
947.493	906.05
947.799	898.82
948.105	889.55
948.41	885.26
948.716	874.86
949.022	888.65
949.327	892.26
949.633	915.31
949.938	894.3
950.244	869.44
950.549	867.18
950.854	849.1
951.16	873.73
951.465	864.92
951.77	863.11
952.075	877.8
952.38	844.58
952.685	857.92
952.99	852.49
953.294	861.08
953.599	854.3
953.904	840.06
954.209	837.12
954.513	845.03
954.818	846.62
955.122	822.89
955.426	841.87
955.731	850.91
956.035	855.66
956.339	842.55
956.643	836.67
956.948	836.22
957.252	832.61
957.556	832.38
957.86	833.51
958.163	810.23
958.467	835.99
958.771	810.23
959.075	808.88
959.378	803.23
959.682	792.15
959.985	815.43
960.289	787.63
960.592	817.24
960.896	797.58
961.199	800.97
961.502	795.09
961.805	811.81
962.108	792.61
962.411	804.13
962.714	791.93
963.017	796.45
963.32	788.31
963.623	792.61
963.926	774.53
964.228	785.6
964.531	756.9
964.833	777.01
965.136	756.9
965.438	767.97
965.741	783.12
966.043	770.69
966.345	777.69
966.648	788.31
966.95	760.74
967.252	774.3
967.554	760.74
967.856	744.02
968.158	759.16
968.46	726.39
968.761	738.6
969.063	713.96
969.365	745.15
969.666	726.85
969.968	734.75
970.269	730.01
970.571	739.5
970.872	714.87
971.174	715.77
971.475	708.31
971.776	713.29
972.077	744.47
972.378	713.29
972.679	729.56
972.98	747.18
973.281	702.44
973.582	723.91
973.883	678.48
974.183	696.79
974.484	680.97
974.785	728.2
975.085	699.05
975.386	687.75
975.686	688.65
975.986	700.63
976.287	710.8
976.587	677.81
976.887	680.29
977.187	681.87
977.487	656.11
977.787	677.58
978.087	680.52
978.387	668.54
978.687	668.09
978.987	662.44
979.286	674.19
979.586	647.53
979.885	635.32
980.185	669.9
980.484	655.66
980.784	648.2
981.083	675.55
981.382	641.65
981.682	659.28
981.981	644.81
982.28	669.9
982.579	647.3
982.878	648.43
983.177	669.67
983.475	630.8
983.774	647.98
984.073	652.95
984.372	660.18
984.67	652.5
984.969	610.69
985.267	627.64
985.566	623.12
985.864	639.16
986.162	645.04
986.461	629.9
986.759	622.44
987.057	619.96
987.355	653.63
987.653	626.96
987.951	610.46
988.249	600.29
988.547	607.3
988.844	611.14
989.142	620.18
989.44	612.27
989.737	596.68
990.035	608.88
990.332	613.18
990.63	627.64
990.927	611.82
991.224	605.94
991.521	610.69
991.819	589.67
992.116	587.41
992.413	585.61
992.71	584.48
993.006	577.92
993.303	595.55
993.6	585.83
993.897	573.63
994.193	586.51
994.49	568.43
994.787	583.8
995.083	595.78
995.379	593.52
995.676	586.96
995.972	601.42
996.268	590.13
996.565	581.54
996.861	597.36
997.157	583.12
997.453	584.02
997.749	591.03
998.044	586.74
998.34	576.11
998.636	558.49
998.932	572.27
999.227	565.04
999.523	569.34
999.818	547.19
1000.114	553.52
1000.409	560.97
1000.704	553.06
1001	572.73
1001.295	551.48
1001.59	563.69
1001.885	559.17
1002.18	549.45
1002.475	558.71
1002.77	538.38
1003.065	529.56
1003.359	534.53
1003.654	543.35
1003.949	539.73
1004.243	517.36
1004.538	545.38
1004.832	549.22
1005.127	522.78
1005.421	541.77
1005.715	523.46
1006.009	552.16
1006.304	532.05
1006.598	513.52
1006.892	547.87
1007.186	511.48
1007.48	523.01
1007.773	524.14
1008.067	523.46
1008.361	530.47
1008.655	510.81
1008.948	516.46
1009.242	496.12
1009.535	533.63
1009.829	509.9
1010.122	524.59
1010.415	526.62
1010.708	489.79
1011.001	518.04
1011.295	518.72
1011.588	501.09
1011.881	507.42
1012.173	490.24
1012.466	501.54
1012.759	501.77
1013.052	498.83
1013.344	498.15
1013.637	500.86
1013.93	498.38
1014.222	502.22
1014.514	500.86
1014.807	478.72
1015.099	503.57
1015.391	480.07
1015.683	482.11
1015.976	466.51
1016.268	505.38
1016.56	483.46
1016.851	467.87
1017.143	471.94
1017.435	476.91
1017.727	485.95
1018.018	457.7
1018.31	455.21
1018.602	473.97
1018.893	476.68
1019.185	463.35
1019.476	464.93
1019.767	464.71
1020.058	473.52
1020.35	451.37
1020.641	488.43
1020.932	460.41
1021.223	461.09
1021.514	434.2
1021.804	464.48
1022.095	448.43
1022.386	445.95
1022.677	427.42
1022.967	439.17
1023.258	444.59
1023.548	437.81
1023.839	447.08
1024.129	454.54
1024.419	450.69
1024.709	436.91
1025	468.77
1025.29	454.99
1025.58	440.98
1025.87	421.09
1026.16	448.89
1026.449	423.12
1026.739	445.95
1027.029	428.1
1027.319	425.61
1027.608	427.19
1027.898	436.01
1028.187	412.5
1028.477	427.42
1028.766	423.8
1029.055	456.8
1029.344	416.34
1029.634	439.62
1029.923	435.55
1030.212	433.52
1030.501	414.31
1030.79	434.88
1031.078	427.19
1031.367	409.11
1031.656	414.54
1031.945	402.11
1032.233	411.83
1032.522	437.59
1032.81	440.3
1033.099	407.53
1033.387	407.53
1033.675	403.69
1033.963	406.85
1034.251	413.63
1034.54	390.81
1034.828	406.4
1035.116	404.37
1035.403	418.38
1035.691	420.41
1035.979	414.31
1036.267	413.86
1036.554	383.13
1036.842	415.22
1037.129	415.89
1037.417	410.24
1037.704	382.45
1037.992	399.85
1038.279	389.23
1038.566	405.27
1038.853	405.27
1039.14	405.27
