Data from foam2_polystyrene_foam_FLMS001491_00070.txt Node
Date: Wed Feb 08 10:58:21 GMT 2017
User: dcchb
Spectrometer: FLMS00149
Trigger mode: 0
Integration Time (sec): 2.000000E-2
Scans to average: 10
Electric dark correction enabled: true
Nonlinearity correction enabled: false
Boxcar width: 0
XAxis mode: Wavelengths
Number of Pixels in Spectrum: 2048
>>>>>Begin Spectral Data<<<<<
341.393	-24.31
341.776	-24.31
342.16	-24.31
342.543	-57.53
342.927	-48.94
343.31	-67.92
343.693	-75.61
344.077	-65.66
344.46	-53.46
344.843	-59.33
345.226	-33.12
345.61	-18.43
345.993	-20.01
346.376	-31.76
346.759	7.78
347.142	38.52
347.525	42.81
347.908	64.05
348.291	68.8
348.674	103.6
349.057	99.76
349.44	152.19
349.823	137.04
350.206	163.94
350.588	208
350.971	235.35
351.354	245.74
351.737	249.81
352.119	234.67
352.502	270.83
352.884	277.61
353.267	298.4
353.65	309.24
354.032	304.05
354.414	306.53
354.797	316.02
355.179	316.93
355.562	342.01
355.944	327.32
356.326	338.4
356.709	340.43
357.091	328.9
357.473	344.04
357.855	347.43
358.238	344.5
358.62	322.35
359.002	330.71
359.384	348.34
359.766	364.38
360.148	360.99
360.53	337.49
360.912	342.91
361.294	368.22
361.676	352.63
362.057	340.88
362.439	330.71
362.821	342.69
363.203	339.07
363.584	337.94
363.966	333.88
364.348	349.02
364.729	337.04
365.111	344.27
365.493	334.78
365.874	335.23
366.256	340.65
366.637	332.97
367.019	328.23
367.4	347.21
367.781	344.72
368.163	348.56
368.544	320.99
368.925	326.42
369.306	345.63
369.688	344.04
370.069	342.01
370.45	327.55
370.831	333.2
371.212	333.2
371.593	337.27
371.974	356.7
372.355	337.49
372.736	333.65
373.117	359.86
373.498	334.55
373.879	330.71
374.26	354.44
374.641	328.68
375.021	344.5
375.402	356.02
375.783	360.99
376.163	356.7
376.544	356.7
376.925	357.6
377.305	369.13
377.686	348.79
378.066	375.68
378.447	351.05
378.827	368.9
379.208	352.18
379.588	368.22
379.968	394.44
380.349	373.87
380.729	403.93
381.109	369.35
381.489	400.54
381.87	387.21
382.25	371.39
382.63	410.48
383.01	379.75
383.39	391.28
383.77	405.29
384.15	399.86
384.53	413.65
384.91	428.79
385.29	412.07
385.67	411.16
386.049	400.31
386.429	413.2
386.809	402.35
387.189	416.59
387.568	431.73
387.948	412.74
388.328	429.24
388.707	455.23
389.087	448
389.466	423.82
389.846	441.22
390.225	452.06
390.605	451.84
390.984	444.83
391.363	465.85
391.743	465.62
392.122	450.48
392.501	439.64
392.881	460.88
393.26	466.98
393.639	476.92
394.018	472.18
394.397	474.66
394.776	469.92
395.155	470.82
395.534	479.18
395.913	482.8
396.292	485.96
396.671	489.58
397.05	501.33
397.429	508.11
397.808	510.37
398.186	485.96
398.565	495.45
398.944	511.27
399.323	499.07
399.701	507.43
400.08	498.84
400.458	515.57
400.837	524.83
401.215	549.01
401.594	523.7
401.972	527.32
402.351	551.95
402.729	520.76
403.107	542.23
403.486	558.73
403.864	551.5
404.242	538.62
404.62	564.83
404.999	575.45
405.377	578.16
405.755	577.26
406.133	583.59
406.511	581.33
406.889	575.45
407.267	610.25
407.645	591.72
408.023	605.51
408.401	629.01
408.779	624.04
409.156	629.01
409.534	633.3
409.912	610.7
410.29	628.56
410.667	657.03
411.045	672.4
411.422	648.67
411.8	637.37
412.178	675.34
412.555	661.32
412.933	667.88
413.31	670.82
413.687	684.15
414.065	707.2
414.442	711.94
414.819	724.6
415.197	720.08
415.574	712.4
415.951	726.41
416.328	740.19
416.705	721.21
417.082	739.74
417.46	744.94
417.837	732.51
418.214	765.5
418.591	778.84
418.967	756.92
419.344	782.68
419.721	789
420.098	783.58
420.475	803.92
420.852	804.15
421.228	807.08
421.605	830.36
421.982	805.73
422.358	821.77
422.735	838.04
423.111	831.94
423.488	865.84
423.864	836.24
424.241	857.48
424.617	870.36
424.994	863.13
425.37	905.61
425.746	898.83
426.123	891.83
426.499	899.96
426.875	915.33
427.251	938.83
427.627	936.57
428.003	950.81
428.379	966.4
428.756	978.6
429.132	983.8
429.507	980.41
429.883	1028.55
430.259	996
430.635	1019.06
431.011	1026.96
431.387	1026.51
431.763	1061.99
432.138	1087.53
432.514	1094.53
432.89	1110.58
433.265	1103.57
433.641	1127.07
434.016	1131.37
434.392	1141.09
434.767	1174.08
435.143	1139.73
435.518	1166.17
435.894	1192.84
436.269	1195.77
436.644	1189.67
437.02	1231.25
437.395	1210.91
437.77	1250.24
438.145	1259.95
438.52	1275.09
438.895	1297.92
439.271	1282.55
439.646	1311.48
440.021	1343.79
440.395	1341.53
440.77	1333.17
441.145	1345.83
441.52	1371.59
441.895	1353.28
442.27	1378.14
442.645	1397.12
443.019	1386.28
443.394	1423.56
443.769	1426.73
444.143	1377.92
444.518	1422.43
444.892	1468.99
445.267	1461.76
445.641	1474.64
446.016	1454.98
446.39	1497.23
446.764	1477.57
447.139	1508.53
447.513	1530
447.887	1529.78
448.262	1550.11
448.636	1560.06
449.01	1515.09
449.384	1566.84
449.758	1561.41
450.132	1618.81
450.506	1603.45
450.88	1636.89
451.254	1627.63
451.628	1649.1
452.002	1659.94
452.376	1659.49
452.75	1690.22
453.123	1688.87
453.497	1725.48
453.871	1725.93
454.244	1762.31
454.618	1779.26
454.992	1786.49
455.365	1778.36
455.739	1830.79
456.112	1893.61
456.486	1846.83
456.859	1861.97
457.232	1913.95
457.606	1906.49
457.979	1921.4
458.352	1956.43
458.725	1931.8
459.099	1937.68
459.472	2002.08
459.845	2034.85
460.218	2038.01
460.591	2080.72
460.964	2057.9
461.337	2104
461.71	2148.74
462.083	2161.85
462.456	2177.44
462.829	2131.57
463.201	2184.9
463.574	2204.56
463.947	2260.38
464.32	2238.23
464.692	2271.45
465.065	2296.08
465.438	2333.14
465.81	2391
466.183	2373.6
466.555	2449.3
466.928	2437.1
467.3	2435.29
467.672	2475.06
468.045	2557.77
468.417	2522.52
468.789	2548.73
469.161	2618.34
469.534	2605.23
469.906	2660.59
470.278	2666.24
470.65	2719.35
471.022	2772
471.394	2837.54
471.766	2802.74
472.138	2889.97
472.51	2917.08
472.882	2904.88
473.253	2960.92
473.625	3036.86
473.997	3062.84
474.369	3107.14
474.74	3152.56
475.112	3145.78
475.484	3187.59
475.855	3265.55
476.227	3302.16
476.598	3374.47
476.97	3406.11
477.341	3502.38
477.713	3526.33
478.084	3555.94
478.455	3615.37
478.827	3679.32
479.198	3770.17
479.569	3778.08
479.94	3831.18
480.311	3901.47
480.682	3976.49
481.053	4051.97
481.424	4140.1
481.795	4161.8
482.166	4219.87
482.537	4280.44
482.908	4341.68
483.279	4404.28
483.65	4462.35
484.021	4522.47
484.391	4596.59
484.762	4660.99
485.133	4668.9
485.503	4737.6
485.874	4833.87
486.244	4908.67
486.615	4968.56
486.985	5062.34
487.356	5138.49
487.726	5144.82
488.097	5237.48
488.467	5278.83
488.837	5346.4
489.207	5430.24
489.578	5467.98
489.948	5527.19
490.318	5624.58
490.688	5622.32
491.058	5754.52
491.428	5804.69
491.798	5885.82
492.168	5976.44
492.538	5996.55
492.908	6041.75
493.278	6197.9
493.648	6185.7
494.017	6209.88
494.387	6304.79
494.757	6369.2
495.126	6416.88
495.496	6436.31
495.866	6508.4
496.235	6581.85
496.605	6560.15
496.974	6639.02
497.344	6716.53
497.713	6782.97
498.082	6817.55
498.452	6881.73
498.821	6899.13
499.19	6868.62
499.559	6998.56
499.928	6995.17
500.298	7098.22
500.667	7156.75
501.036	7131.21
501.405	7234.26
501.774	7204.2
502.143	7309.29
502.512	7370.98
502.88	7366.23
503.249	7456.63
503.618	7486
503.987	7524.42
504.356	7641.03
504.724	7690.29
505.093	7729.61
505.462	7692.1
505.83	7807.35
506.199	7900
506.567	7938.2
506.936	7986.78
507.304	8030.17
507.672	8033.56
508.041	8147.91
508.409	8168.47
508.777	8262.93
509.145	8293.67
509.514	8332.08
509.882	8371.4
510.25	8464.96
510.618	8559.2
510.986	8599.42
511.354	8639.87
511.722	8632.41
512.09	8787.21
512.458	8742.47
512.826	8858.17
513.193	8919.19
513.561	8834.67
513.929	9023.59
514.297	9066.98
514.664	9130.03
515.032	9241.89
515.4	9193.08
515.767	9297.93
516.135	9379.51
516.502	9367.99
516.869	9500.64
517.237	9488.44
517.604	9530.7
517.972	9651.82
518.339	9786.96
518.706	9785.38
519.073	9887.07
519.44	9951.02
519.808	10066.27
520.175	9977.01
520.542	10162.54
520.909	10232.37
521.276	10225.82
521.643	10372.26
522.009	10448.19
522.376	10493.38
522.743	10577.67
523.11	10688.18
523.477	10785.35
523.843	10814.5
524.21	10931.56
524.577	11034.39
524.943	11060.82
525.31	11239.13
525.676	11269.86
526.043	11302.63
526.409	11369.07
526.776	11490.64
527.142	11472.11
527.508	11572.68
527.874	11682.73
528.241	11814.03
528.607	11797.3
528.973	11972.89
529.339	11946.23
529.705	12098.31
530.071	12124.75
530.437	12226.22
530.803	12262.15
531.169	12336.05
531.535	12312.09
531.901	12435.48
532.267	12487.23
532.632	12572.42
532.998	12560.22
533.364	12688.35
533.73	12683.61
534.095	12791.63
534.461	12881.79
534.826	12864.62
535.192	12965.18
535.557	13110.49
535.923	13061.9
536.288	13188.68
536.653	13258.06
537.019	13190.26
537.384	13222.58
537.749	13274.78
538.114	13341.67
538.479	13416.02
538.845	13468.9
539.21	13442.23
539.575	13512.96
539.94	13657.82
540.305	13763.13
540.67	13663.47
541.034	13812.17
541.399	13762.45
541.764	13876.34
542.129	13933.29
542.494	14017.81
542.858	14006.74
543.223	13991.14
543.587	14131.7
543.952	14142.33
544.316	14250.8
544.681	14244.47
545.045	14249.22
545.41	14295.32
545.774	14336.9
546.138	14448.53
546.503	14374.86
546.867	14509.77
547.231	14607.4
547.595	14589.32
547.959	14704.35
548.324	14724.68
548.688	14808.75
549.052	14816.21
549.416	14799.03
549.779	14839.48
550.143	14881.52
550.507	15018.01
550.871	15124.45
551.235	15105.24
551.599	15241.73
551.962	15327.15
552.326	15256.42
552.689	15389.3
553.053	15386.59
553.417	15453.03
553.78	15588.62
554.143	15539.13
554.507	15638.56
554.87	15717.88
555.234	15957.87
555.597	15768.05
555.96	15840.36
556.323	15885.56
556.686	15988.15
557.05	16139.11
557.413	16161.71
557.776	16162.39
558.139	16305.43
558.502	16319.44
558.865	16389.05
559.228	16586.78
559.59	16653.67
559.953	16619.55
560.316	16885.76
560.679	16703.61
561.041	16859.09
561.404	16988.58
561.767	17117.39
562.129	17145.18
562.492	17154.22
562.854	17256.59
563.217	17260.44
563.579	17354.9
563.941	17494.33
564.304	17528.23
564.666	17650.26
565.028	17653.42
565.39	17732.06
565.753	17923.92
566.115	17858.16
566.477	18029
566.839	17987.2
567.201	18214.99
567.563	18213.18
567.925	18403.68
568.287	18304.48
568.648	18434.19
569.01	18544.7
569.372	18586.95
569.734	18610.91
570.095	18668.99
570.457	18802.09
570.819	18810
571.18	18876.89
571.542	18989.88
571.903	18953.72
572.265	19079.15
572.626	19110.78
572.987	19163.44
573.349	19221.74
573.71	19376.09
574.071	19404.79
574.432	19459.93
574.794	19588.28
575.155	19509.42
575.516	19527.04
575.877	19588.06
576.238	19621.28
576.599	19734.27
576.96	19717.55
577.32	19808.84
577.681	19844.55
578.042	19881.61
578.403	19868.05
578.763	19969.52
579.124	19971.1
579.485	20026.92
579.845	20064.2
580.206	20045.9
580.566	20023.3
580.927	20036.18
581.287	20176.52
581.648	20117.99
582.008	20289.28
582.368	20096.75
582.728	20154.37
583.089	20219.91
583.449	20129.06
583.809	20213.13
584.169	20243.86
584.529	20225.33
584.889	20301.26
585.249	20246.35
585.609	20207.03
585.969	20366.57
586.329	20189.85
586.688	20264.2
587.048	20248.15
587.408	20302.62
587.768	20194.6
588.127	20227.14
588.487	20262.16
588.846	20423.52
589.206	20265.33
589.565	20269.62
589.925	20325.44
590.284	20327.47
590.643	20272.33
591.003	20369.96
591.362	20486.11
591.721	20362.95
592.08	20396.4
592.44	20422.61
592.799	20387.81
593.158	20333.35
593.517	20407.02
593.876	20454.48
594.235	20356.63
594.593	20390.3
594.952	20556.39
595.311	20394.36
595.67	20367.47
596.029	20592.78
596.387	20508.71
596.746	20496.06
597.104	20590.97
597.463	20387.59
597.822	20568.6
598.18	20491.09
598.538	20508.94
598.897	20645.21
599.255	20438.88
599.613	20729.27
599.972	20744.64
600.33	20698.09
600.688	20611.08
601.046	20756.39
601.404	20845.88
601.762	20698.99
602.12	20743.28
602.478	20720.91
602.836	20773.11
603.194	20672.32
603.552	20764.07
603.91	20592.33
604.268	20798.2
604.625	20767.24
604.983	20743.51
605.341	20720.91
605.698	20772.21
606.056	20794.58
606.413	20814.69
606.771	20938.53
607.128	20895.14
607.485	20812.88
607.843	20803.62
608.2	20943.05
608.557	21075.93
608.914	21028.25
609.272	21054.91
609.629	21150.5
609.986	21124.97
610.343	21091.3
610.7	21266.43
611.057	21186.43
611.414	21130.62
611.771	21185.98
612.127	21308.69
612.484	21227.56
612.841	21421.68
613.198	21214
613.554	21230.73
613.911	21394.34
614.267	21302.36
614.624	21382.14
614.98	21314.11
615.337	21501
615.693	21470.04
616.05	21382.59
616.406	21524.5
616.762	21478.86
617.118	21448.35
617.475	21473.88
617.831	21617.16
618.187	21481.34
618.543	21521.57
618.899	21676.82
619.255	21611.28
619.611	21570.15
619.967	21737.15
620.323	21683.82
620.678	21625.07
621.034	21522.47
621.39	21466.2
621.746	21526.99
622.101	21803.14
622.457	21548.01
622.812	21583.03
623.168	21614.22
623.523	21675.69
623.879	21804.95
624.234	21544.39
624.589	21764.72
624.945	21598.85
625.3	21615.35
625.655	21663.26
626.01	21644.28
626.365	21627.78
626.72	21613.99
627.075	21678.4
627.43	21638.63
627.785	21515.69
628.14	21558.18
628.495	21604.73
628.85	21666.87
629.205	21425.3
629.559	21504.62
629.914	21445.86
630.269	21576.03
630.623	21399.76
630.978	21413.77
631.332	21448.8
631.687	21509.14
632.041	21490.83
632.396	21388.46
632.75	21242.93
633.104	21411.51
633.459	21221.46
633.813	21315.02
634.167	21245.42
634.521	21191.41
634.875	21228.24
635.229	21199.09
635.583	21101.24
635.937	21150.73
636.291	21066.21
636.645	20990.06
636.999	20894.92
637.352	21032.09
637.706	20813.11
638.06	20964.29
638.413	20959.55
638.767	20875.03
639.121	20857.18
639.474	20702.38
639.828	20787.12
640.181	20826.9
640.534	20780.57
640.888	20608.6
641.241	20568.37
641.594	20566.56
641.947	20586
642.301	20644.3
642.654	20623.29
643.007	20698.99
643.36	20666
643.713	20584.64
644.066	20644.08
644.419	20438.88
644.771	20343.07
645.124	20006.58
645.477	19910.31
645.83	19814.04
646.182	19721.39
646.535	19735.63
646.888	19838.67
647.24	19713.93
647.593	19968.61
647.945	19824.66
648.298	19739.69
648.65	19730.65
649.002	19548.51
649.355	19548.74
649.707	19539.47
650.059	19670.99
650.411	19878.67
650.763	19891.1
651.115	20028.5
651.467	19961.38
651.819	20012.91
652.171	19943.3
652.523	19889.07
652.875	19880.48
653.227	19846.58
653.578	19872.34
653.93	19887.49
654.282	19815.4
654.633	19679.81
654.985	19758.45
655.337	19742.18
655.688	19747.38
656.039	19759.58
656.391	19676.19
656.742	19605.91
657.094	19621.96
657.445	19689.98
657.796	19605.01
658.147	19581.96
658.498	19590.09
658.849	19566.59
659.2	19561.62
659.551	19509.42
659.902	19557.78
660.253	19528.62
660.604	19611.33
660.955	19448.18
661.306	19465.35
661.656	19473.71
662.007	19486.14
662.358	19443.2
662.708	19439.36
663.059	19381.74
663.409	19248.63
663.76	19482.75
664.11	19461.73
664.461	19391.68
664.811	19400.49
665.161	19455.63
665.511	19346.48
665.862	19246.37
666.212	19377.67
666.562	19242.08
666.912	19416.09
667.262	19271.23
667.612	19272.59
667.962	19265.58
668.312	19249.54
668.662	19315.52
669.011	19272.81
669.361	19201.63
669.711	19172.02
670.06	19106.94
670.41	19185.13
670.76	19074.4
671.109	19214.28
671.459	19138.58
671.808	19108.3
672.157	19069.2
672.507	18994.85
672.856	19024.46
673.205	19074.4
673.554	19045.47
673.904	19066.49
674.253	19078.02
674.602	18993.72
674.951	18682.77
675.3	18594.19
675.649	19036.43
675.998	18897.68
676.346	18918.02
676.695	19041.41
677.044	18814.07
677.393	18888.42
677.741	18887.29
678.09	18858.13
678.438	18755.76
678.787	18793.05
679.135	18767.97
679.484	18718.25
679.832	18716.44
680.181	18499.95
680.529	18644.81
680.877	18709.89
681.225	18609.33
681.573	18723.22
681.922	18552.38
682.27	18501.08
682.618	18576.79
682.966	18478.94
683.314	18503.79
683.661	18431.93
684.009	18379.05
684.357	18262.22
684.705	18211.15
685.053	18266.96
685.4	18287.08
685.748	18162.11
686.095	18202.78
686.443	18196.46
686.79	18079.4
687.138	18104.03
687.485	18071.71
687.832	17997.82
688.18	17993.98
688.527	17930.7
688.874	17883.47
689.221	17849.8
689.568	17853.41
689.915	17772.06
690.262	17812.06
690.609	17680.76
690.956	17602.35
691.303	17604.83
691.65	17555.8
691.997	17507.21
692.344	17464.72
692.69	17530.03
693.037	17409.81
693.383	17196.71
693.73	17223.15
694.077	17228.35
694.423	17191.51
694.769	17100.44
695.116	17140.44
695.462	17088.24
695.808	16911.52
696.155	17003.95
696.501	16866.1
696.847	16859.32
697.193	16825.87
697.539	16739.77
697.885	16677.4
698.231	16646.89
698.577	16628.59
698.923	16570.28
699.269	16548.59
699.614	16435.6
699.96	16434.47
700.306	16430.85
700.651	16374.58
700.997	16293.91
701.342	16363.96
701.688	16244.87
702.033	16148.15
702.379	16228.15
702.724	16180.24
703.069	16114.25
703.415	15939.57
703.76	16010.98
704.105	16035.61
704.45	15926.69
704.795	15817.54
705.14	15804.2
705.485	15792.9
705.83	15737.99
706.175	15737.99
706.52	15734.83
706.865	15667.71
707.209	15636.75
707.554	15564.21
707.899	15585.45
708.243	15488.96
708.588	15523.76
708.932	15374.16
709.277	15314.05
709.621	15393.82
709.966	15327.38
710.31	15288.74
710.654	15196.54
710.998	15240.15
711.342	15170.1
711.687	15067.27
712.031	15130.32
712.375	15023.88
712.719	15110.21
713.063	14945.69
713.407	15074.05
713.75	15004.68
714.094	14991.57
714.438	14910.22
714.782	14877
715.125	14791.8
715.469	14727.4
715.812	14718.81
716.156	14622.31
716.499	14673.39
716.843	14689.88
717.186	14596.55
717.53	14640.84
717.873	14696.66
718.216	14544.12
718.559	14560.62
718.902	14446.95
719.246	14419.15
719.589	14378.48
719.932	14401.3
720.275	14371.7
720.617	14376.9
720.96	14239.72
721.303	14338.93
721.646	14350.23
721.989	14234.53
722.331	14256.67
722.674	14151.59
723.016	14188.88
723.359	14124.47
723.701	14185.04
724.044	14061.88
724.386	13971.26
724.729	14049.9
725.071	14076.11
725.413	14017.36
725.755	14007.41
726.097	13980.07
726.439	13860.3
726.782	13918.15
727.124	13953.18
727.465	13799.06
727.807	13869.56
728.149	13884.25
728.491	13841.77
728.833	13823.24
729.175	13702.79
729.516	13703.02
729.858	13725.39
730.199	13720.19
730.541	13690.59
730.882	13645.16
731.224	13679.74
731.565	13569.01
731.906	13620.08
732.248	13590.7
732.589	13445.4
732.93	13541.89
733.271	13477.71
733.612	13458.95
733.953	13525.39
734.294	13457.15
734.635	13348.22
734.976	13419.18
735.317	13331.95
735.658	13315.68
735.999	13327.88
736.339	13344.15
736.68	13276.81
737.021	13298.28
737.361	13199.53
737.702	13253.31
738.042	13177.38
738.383	13213.54
738.723	13233.88
739.063	13116.59
739.404	13204.5
739.744	13084.95
740.084	12991.17
740.424	13103.94
740.764	12980.55
741.104	13006.76
741.444	12918.4
741.784	12939.65
742.124	12903.26
742.464	12972.41
742.804	12938.97
743.143	12891.51
743.483	12898.29
743.823	12796.6
744.162	12721.12
744.502	12799.99
744.841	12733.32
745.181	12811.51
745.52	12682.48
745.86	12698.07
746.199	12706.21
746.538	12629.6
746.877	12766.32
747.216	12609.71
747.556	12611.97
747.895	12683.83
748.234	12510.5
748.573	12607.9
748.911	12579.88
749.25	12514.35
749.589	12483.39
749.928	12452.43
750.267	12523.39
750.605	12472.09
750.944	12459.43
751.283	12394.8
751.621	12464.4
751.96	12320.45
752.298	12280.91
752.636	12265.54
752.975	12279.55
753.313	12166.56
753.651	12303.05
753.989	12205.88
754.327	12190.06
754.666	12083.17
755.004	12145.77
755.342	12092.21
755.679	12083.17
756.017	12016.96
756.355	12030.97
756.693	11927.24
757.031	11882.95
757.368	11857.41
757.706	11879.11
758.044	11869.17
758.381	11787.13
758.719	11745.55
759.056	11761.15
759.394	11672.33
759.731	11649.06
760.068	11690.19
760.405	11592.79
760.743	11640.92
761.08	11551.43
761.417	11483.19
761.754	11516.63
762.091	11481.15
762.428	11458.33
762.765	11328.84
763.102	11376.97
763.438	11330.87
763.775	11293.14
764.112	11250.88
764.449	11280.03
764.785	11165.91
765.122	11129.52
765.458	11139.92
765.795	11067.6
766.131	11087.94
766.467	11044.78
766.804	10991.9
767.14	10956.42
767.476	10882.07
767.812	10811.57
768.148	10820.15
768.485	10784
768.821	10734.96
769.157	10760.49
769.492	10666.26
769.828	10646.15
770.164	10565.02
770.5	10513.49
770.836	10621.29
771.171	10487.05
771.507	10475.3
771.842	10384.23
772.178	10404.57
772.513	10375.65
772.849	10294.07
773.184	10302.43
773.519	10357.79
773.855	10258.13
774.19	10184.92
774.525	10178.81
774.86	10176.55
775.195	10158.48
775.53	10032.6
775.865	10059.5
776.2	9969.78
776.535	9896.34
776.87	9902.44
777.205	9854.98
777.539	9860.4
777.874	9895.43
778.209	9794.64
778.543	9735.21
778.878	9654.31
779.212	9649.79
779.547	9674.65
779.881	9668.32
780.215	9534.54
780.55	9531.6
780.884	9493.86
781.218	9537.25
781.552	9503.13
781.886	9456.57
782.22	9400.76
782.554	9403.47
782.888	9287.31
783.222	9175.9
783.556	9198.28
783.889	9208.22
784.223	9142.68
784.557	9056.58
784.89	9157.15
785.224	9070.82
785.557	9015.23
785.891	8992.4
786.224	9052.74
786.558	8973.65
786.891	8829.25
787.224	8904.72
787.557	8881.22
787.891	8902.24
788.224	8852.75
788.557	8824.27
788.89	8746.99
789.223	8759.42
789.556	8654.79
789.888	8657.72
790.221	8582.7
790.554	8495.47
790.887	8590.16
791.219	8538.18
791.552	8552.87
791.884	8461.12
792.217	8451.4
792.549	8391.29
792.882	8358.07
793.214	8292.08
793.546	8373.66
793.879	8309.03
794.211	8284.17
794.543	8281.24
794.875	8288.47
795.207	8311.97
795.539	8215.02
795.871	8201.01
796.203	8128.02
796.535	8158.75
796.867	8120.56
797.198	8040.79
797.53	8072.65
797.862	8043.96
798.193	8023.16
798.525	7966.22
798.856	7935.71
799.188	7877.63
799.519	7879.21
799.85	7777.75
800.182	7801.93
800.513	7780.01
800.844	7719.22
801.175	7804.41
801.506	7747.01
801.837	7771.87
802.168	7719.9
802.499	7628.6
802.83	7679.22
803.161	7594.25
803.491	7640.58
803.822	7629.05
804.153	7561.03
804.483	7523.06
804.814	7478.55
805.145	7453.69
805.475	7428.15
805.805	7480.81
806.136	7517.42
806.466	7413.24
806.796	7397.64
807.126	7353.35
807.457	7300.92
807.787	7351.09
808.117	7270.64
808.447	7245.33
808.777	7314.26
809.107	7222.73
809.436	7231.55
809.766	7294.82
810.096	7249.63
810.426	7189.51
810.755	7175.73
811.085	7041.27
811.414	7112
811.744	7089.63
812.073	7070.2
812.403	7098.9
812.732	7056.18
813.061	7003.76
813.39	6964.89
813.719	6983.87
814.049	6986.58
814.378	6992.91
814.707	6951.55
815.036	7020.93
815.365	6867.26
815.693	6818.9
816.022	6807.38
816.351	6854.16
816.68	6797.43
817.008	6860.48
817.337	6743.2
817.665	6747.49
817.994	6754.5
818.322	6767.38
818.651	6758.11
818.979	6704.33
819.307	6728.06
819.636	6744.33
819.964	6643.09
820.292	6654.84
820.62	6655.07
820.948	6628.63
821.276	6680.6
821.604	6610.09
821.932	6715.63
822.259	6627.72
822.587	6648.06
822.915	6617.1
823.243	6654.61
823.57	6594.28
823.898	6650.55
824.225	6593.15
824.553	6599.47
824.88	6599.02
825.207	6581.39
825.535	6615.29
825.862	6596.76
826.189	6568.06
826.516	6559.93
826.843	6600.83
827.17	6586.82
827.497	6626.82
827.824	6565.58
828.151	6586.14
828.478	6629.08
828.805	6568.74
829.131	6576.42
829.458	6537.33
829.785	6525.58
830.111	6576.2
830.438	6605.35
830.764	6582.98
831.09	6563.99
831.417	6571.23
831.743	6569.19
832.069	6594.73
832.395	6540.04
832.722	6578.01
833.048	6574.39
833.374	6585.46
833.7	6570.1
834.026	6563.09
834.351	6584.11
834.677	6541.4
835.003	6515.18
835.329	6504.56
835.654	6505.69
835.98	6460.95
836.306	6493.71
836.631	6514.28
836.956	6511.34
837.282	6458.46
837.607	6469.31
837.932	6455.97
838.258	6433.83
838.583	6379.37
838.908	6370.78
839.233	6397.67
839.558	6364.23
839.883	6353.15
840.208	6363.77
840.533	6399.25
840.858	6373.04
841.182	6352.02
841.507	6324.9
841.832	6284
842.156	6318.58
842.481	6248.07
842.805	6274.28
843.13	6295.53
843.454	6212.82
843.778	6244.45
844.103	6220.73
844.427	6174.85
844.751	6294.4
845.075	6165.59
845.399	6162.42
845.723	6127.4
846.047	6107.28
846.371	6072.71
846.695	6093.27
847.019	6037.91
847.343	5990
847.666	5969.43
847.99	5983.67
848.313	5997.68
848.637	5949.55
848.96	5949.77
849.284	5923.56
849.607	5841.3
849.931	5847.4
850.254	5821.41
850.577	5778.48
850.9	5755.43
851.223	5756.11
851.546	5709.33
851.869	5678.82
852.192	5742.32
852.515	5639.95
852.838	5636.33
853.161	5651.02
853.483	5652.61
853.806	5553.63
854.129	5544.13
854.451	5532.16
854.774	5541.65
855.096	5510.01
855.419	5519.05
855.741	5479.28
856.063	5464.81
856.385	5447.19
856.708	5427.98
857.03	5403.12
857.352	5419.62
857.674	5392.05
857.996	5328.09
858.318	5382.33
858.64	5335.1
858.961	5287.87
859.283	5344.37
859.605	5286.51
859.926	5248.77
860.248	5251.03
860.57	5265.5
860.891	5271.82
861.212	5223.69
861.534	5250.81
861.855	5187.53
862.176	5205.16
862.498	5246.06
862.819	5256.01
863.14	5167.87
863.461	5149.34
863.782	5175.33
864.103	5153.18
864.424	5105.95
864.745	5146.4
865.065	5114.54
865.386	5103.92
865.707	5163.35
866.027	5117.7
866.348	5049.01
866.668	5097.14
866.989	5094.88
867.309	5074.09
867.63	5068.67
867.95	5015.11
868.27	5012.17
868.59	5021.21
868.91	5065.5
869.23	4948.67
869.55	4966.52
869.87	5008.55
870.19	4987.76
870.51	5011.49
870.83	4953.87
871.15	4951.61
871.469	4959.97
871.789	4973.98
872.109	4927.65
872.428	4927.2
872.748	4902.34
873.067	4932.4
873.386	4958.84
873.706	4933.98
874.025	4955.22
874.344	4880.2
874.663	4884.04
874.982	4863.93
875.301	4890.37
875.62	4837.03
875.939	4807.43
876.258	4866.19
876.577	4819.41
876.896	4821.67
877.214	4821.89
877.533	4817.83
877.852	4806.75
878.17	4813.98
878.489	4801.33
878.807	4754.1
879.125	4771.95
879.444	4794.78
879.762	4738.28
880.08	4801.1
880.398	4754.78
880.716	4735.34
881.034	4736.47
881.352	4735.79
881.67	4723.36
881.988	4772.4
882.306	4724.27
882.624	4717.26
882.941	4648.11
883.259	4669.13
883.577	4611.05
883.894	4618.06
884.212	4642.24
884.529	4619.41
884.846	4630.03
885.164	4562.01
885.481	4588.68
885.798	4553.88
886.115	4614.67
886.432	4594.1
886.75	4513.88
887.067	4552.52
887.383	4508.23
887.7	4500.55
888.017	4532.41
888.334	4484.05
888.651	4467.55
888.967	4455.35
889.284	4453.09
889.6	4413.32
889.917	4372.41
890.233	4428.46
890.55	4385.07
890.866	4422.36
891.182	4421
891.498	4379.87
891.815	4340.1
892.131	4375.8
892.447	4356.59
892.763	4318.86
893.079	4316.6
893.395	4324.5
893.71	4300.32
894.026	4251.51
894.342	4267.56
894.657	4218.07
894.973	4264.17
895.289	4233.43
895.604	4199.31
895.92	4203.15
896.235	4144.4
896.55	4184.4
896.865	4209.03
897.181	4152.98
897.496	4146.2
897.811	4138.97
898.126	4093.78
898.441	4093.78
898.756	4070.05
899.071	4064.62
899.386	4068.01
899.7	4071.86
900.015	4046.09
900.33	4020.78
900.644	4003.16
900.959	3970.62
901.273	3974.23
901.588	3948.47
901.902	3938.98
902.216	3938.3
902.531	3937.4
902.845	3899.21
903.159	3881.58
903.473	3903.73
903.787	3870.73
904.101	3825.08
904.415	3841.13
904.729	3841.81
905.042	3824.18
905.356	3834.12
905.67	3795.48
905.984	3785.08
906.297	3806.55
906.611	3745.09
906.924	3757.74
907.237	3753.45
907.551	3745.99
907.864	3695.82
908.177	3682.26
908.491	3663.28
908.804	3674.58
909.117	3655.37
909.43	3634.58
909.743	3608.59
910.056	3585.77
910.368	3579.44
910.681	3584.64
910.994	3583.28
911.307	3580.34
911.619	3523.62
911.932	3506.45
912.244	3494.47
912.557	3513.45
912.869	3484.53
913.181	3502.38
913.494	3489.95
913.806	3455.15
914.118	3418.99
914.43	3400.69
914.742	3393
915.054	3378.77
915.366	3392.1
915.678	3378.09
915.99	3336.73
916.302	3343.97
916.613	3303.97
916.925	3316.17
917.236	3277.75
917.548	3289.5
917.859	3246.79
918.171	3289.5
918.482	3252.44
918.794	3253.35
919.105	3193.24
919.416	3197.08
919.727	3221.48
920.038	3182.16
920.349	3157.98
920.66	3147.13
920.971	3112.56
921.282	3126.12
921.593	3107.59
921.903	3077.08
922.214	3074.37
922.525	3080.7
922.835	3067.59
923.146	3053.35
923.456	3062.17
923.767	3006.35
924.077	3029.4
924.387	3041.37
924.697	3009.96
925.008	2968.61
925.318	2963.18
925.628	2977.42
925.938	2988.95
926.248	2931.77
926.558	2906.46
926.867	2936.74
927.177	2883.86
927.487	2860.81
927.796	2894.03
928.106	2861.72
928.416	2873.92
928.725	2859.91
929.034	2814.26
929.344	2826.47
929.653	2791.89
929.962	2839.12
930.271	2803.19
930.581	2770.87
930.89	2785.11
931.199	2724.55
931.508	2734.94
931.817	2743.3
932.125	2720.48
932.434	2710.99
932.743	2662.18
933.051	2682.74
933.36	2704.66
933.669	2690.42
933.977	2669.86
934.286	2665.34
934.594	2643.42
934.902	2635.06
935.21	2592.12
935.519	2596.87
935.827	2576.3
936.135	2556.42
936.443	2584.66
936.751	2545.57
937.059	2529.52
937.367	2525
937.674	2564.78
937.982	2558.68
938.29	2514.61
938.597	2504.67
938.905	2444.78
939.213	2477.32
939.52	2478.9
939.827	2490.65
940.135	2451.56
940.442	2440.94
940.749	2414.72
941.056	2413.59
941.363	2401.84
941.67	2386.02
941.977	2388.28
942.284	2356.2
942.591	2382.41
942.898	2324.56
943.205	2350.77
943.511	2310.55
943.818	2374.5
944.125	2343.99
944.431	2310.77
944.738	2300.83
945.044	2299.7
945.35	2307.38
945.657	2310.09
945.963	2281.85
946.269	2259.93
946.575	2275.52
946.881	2242.3
947.187	2256.31
947.493	2235.07
947.799	2230.55
948.105	2224
948.41	2185.58
948.716	2220.61
949.022	2194.84
949.327	2219.25
949.633	2165.92
949.938	2156.88
950.244	2136.99
950.549	2131.34
950.854	2127.95
951.16	2137.22
951.465	2143.32
951.77	2107.61
952.075	2102.42
952.38	2126.37
952.685	2078.46
952.99	2069.65
953.294	2081.17
953.599	2045.92
953.904	2058.35
954.209	2047.28
954.513	2062.87
954.818	2020.16
955.122	2021.06
955.426	2033.94
955.731	2028.75
956.035	1986.26
956.339	1977.9
956.643	1996.88
956.948	1937.68
957.252	1972.25
957.556	1953.04
957.86	1937.45
958.163	1967.28
958.467	1954.85
958.771	1948.52
959.075	1929.31
959.378	1903.55
959.682	1887.28
959.985	1891.57
960.289	1886.6
960.592	1882.54
960.896	1859.49
961.199	1873.72
961.502	1842.54
961.805	1829.2
962.108	1865.81
962.411	1807.51
962.714	1815.19
963.017	1840.05
963.32	1850.67
963.623	1807.28
963.926	1830.33
964.228	1778.58
964.531	1793.72
964.833	1779.49
965.136	1757.79
965.438	1744.91
965.741	1751.92
966.043	1726.38
966.345	1704.69
966.648	1720.05
966.95	1730.9
967.252	1717.79
967.554	1705.36
967.856	1692.03
968.158	1697
968.46	1702.2
968.761	1681.18
969.063	1673.05
969.365	1664.69
969.666	1684.57
969.968	1662.2
970.269	1666.27
970.571	1633.73
970.872	1669.89
971.174	1639.38
971.475	1617.01
971.776	1650.68
972.077	1646.16
972.378	1632.15
972.679	1621.53
972.98	1592.37
973.281	1624.69
973.582	1582.43
973.883	1597.35
974.183	1584.46
974.484	1539.04
974.785	1568.87
975.085	1577.91
975.386	1567.52
975.686	1575.2
975.986	1555.31
976.287	1528.87
976.587	1532.26
976.887	1517.57
977.187	1526.61
977.487	1520.06
977.787	1509.44
978.087	1509.66
978.387	1467.4
978.687	1497.91
978.987	1485.48
979.286	1484.13
979.586	1505.6
979.885	1448.42
980.185	1464.69
980.484	1431.02
980.784	1466.28
981.083	1456.33
981.382	1461.3
981.682	1454.75
981.981	1447.29
982.28	1429.67
982.579	1416.11
982.878	1421.3
983.177	1421.98
983.475	1401.42
983.774	1386.73
984.073	1398.48
984.372	1419.72
984.67	1376.56
984.969	1398.25
985.267	1376.56
985.566	1361.64
985.864	1367.29
986.162	1370.91
986.461	1335.66
986.759	1335.66
987.057	1357.35
987.355	1328.2
987.653	1310.12
987.951	1326.62
988.249	1317.35
988.547	1296.79
988.844	1286.84
989.142	1322.32
989.44	1290.23
989.737	1274.19
990.035	1263.57
990.332	1285.26
990.63	1268.77
990.927	1267.18
991.224	1268.09
991.521	1259.95
991.819	1254.53
992.116	1240.29
992.413	1248.2
992.71	1257.24
993.006	1233.74
993.303	1240.29
993.6	1230.35
993.897	1240.07
994.193	1221.99
994.49	1197.81
994.787	1207.75
995.083	1221.08
995.379	1187.86
995.676	1177.47
995.972	1179.95
996.268	1191.48
996.565	1172.5
996.861	1163.46
997.157	1191.03
997.453	1140.86
997.749	1149.45
998.044	1147.87
998.34	1177.92
998.636	1139.28
998.932	1129.11
999.227	1134.08
999.523	1148.32
999.818	1118.04
1000.114	1111.71
1000.409	1114.65
1000.704	1121.2
1001	1112.84
1001.295	1081.88
1001.59	1095.21
1001.885	1093.4
1002.18	1093.4
1002.475	1067.19
1002.77	1078.94
1003.065	1035.55
1003.359	1042.56
1003.654	1063.12
1003.949	1062.67
1004.243	1058.15
1004.538	1006.4
1004.832	1052.27
1005.127	1059.28
1005.421	1034.42
1005.715	1016.57
1006.009	1027.42
1006.304	998.72
1006.598	996.91
1006.892	1030.81
1007.186	980.41
1007.48	1001.43
1007.773	982.45
1008.067	971.15
1008.361	985.38
1008.655	986.97
1008.948	969.56
1009.242	989
1009.535	953.29
1009.829	967.98
1010.122	953.29
1010.415	956.01
1010.708	967.53
1011.001	943.58
1011.295	957.36
1011.588	944.48
1011.881	909
1012.173	921.66
1012.466	931.83
1012.759	922.11
1013.052	906.52
1013.344	911.94
1013.637	944.03
1013.93	910.81
1014.222	891.37
1014.514	886.63
1014.807	882.11
1015.099	894.09
1015.391	895.22
1015.683	879.17
1015.976	878.49
1016.268	876.69
1016.56	861.09
1016.851	869.68
1017.143	839.85
1017.435	840.98
1017.727	850.25
1018.018	841.66
1018.31	833.3
1018.602	829
1018.893	824.94
1019.185	814.09
1019.476	837.36
1019.767	817.7
1020.058	792.17
1020.35	790.36
1020.641	805.28
1020.932	804.6
1021.223	788.55
1021.514	788.78
1021.804	770.7
1022.095	787.2
1022.386	772.28
1022.677	763.92
1022.967	760.76
1023.258	759.17
1023.548	779.06
1023.839	755.11
1024.129	747.2
1024.419	760.3
1024.709	729.57
1025	741.77
1025.29	724.6
1025.58	734.32
1025.87	728.44
1026.16	741.77
1026.449	733.41
1026.739	731.38
1027.029	727.09
1027.319	707.2
1027.608	708.78
1027.898	715.33
1028.187	702
1028.477	680.31
1028.766	715.79
1029.055	702
1029.344	697.71
1029.634	663.58
1029.923	695
1030.212	674.66
1030.501	688.67
1030.79	688.22
1031.078	666.97
1031.367	674.43
1031.656	678.5
1031.945	664.26
1032.233	675.56
1032.522	664.94
1032.81	632.85
1033.099	653.42
1033.387	659.29
1033.675	650.48
1033.963	643.25
1034.251	640.99
1034.54	649.35
1034.828	609.8
1035.116	640.08
1035.403	638.73
1035.691	622.23
1035.979	627.2
1036.267	621.33
1036.554	629.23
1036.842	612.29
1037.129	599.86
1037.417	588.11
1037.704	610.03
1037.992	601.89
1038.279	576.35
1038.566	601.44
1038.853	601.44
1039.14	601.44
