Data from foam_black_FLMS001491_00046.txt Node
Date: Wed Feb 08 10:43:57 GMT 2017
User: dcchb
Spectrometer: FLMS00149
Trigger mode: 0
Integration Time (sec): 2.000000E-2
Scans to average: 10
Electric dark correction enabled: true
Nonlinearity correction enabled: false
Boxcar width: 0
XAxis mode: Wavelengths
Number of Pixels in Spectrum: 2048
>>>>>Begin Spectral Data<<<<<
341.393	-26.61
341.776	-26.61
342.16	-26.61
342.543	-63.67
342.927	-88.75
343.31	-85.14
343.693	-83.56
344.077	-63.67
344.46	-69.55
344.843	-55.99
345.226	-46.04
345.61	-18.25
345.993	-28.19
346.376	7.74
346.759	5.25
347.142	23.33
347.525	60.85
347.908	70.11
348.291	86.83
348.674	94.97
349.057	101.3
349.44	110.11
349.823	132.26
350.206	166.15
350.588	170
350.971	195.08
351.354	201.41
351.737	223.55
352.119	233.95
352.502	263.55
352.884	262.65
353.267	266.94
353.65	272.82
354.032	283.44
354.414	289.77
354.797	289.99
355.179	320.73
355.562	304.91
355.944	291.12
356.326	333.61
356.709	323.21
357.091	335.87
357.473	343.78
357.855	344.45
358.238	325.47
358.62	331.35
359.002	321.4
359.384	335.64
359.766	332.03
360.148	335.41
360.53	350.56
360.912	323.66
361.294	331.35
361.676	325.25
362.057	322.31
362.439	334.28
362.821	325.92
363.203	323.89
363.584	315.08
363.966	317.34
364.348	323.21
364.729	316.88
365.111	300.61
365.493	318.01
365.874	315.08
366.256	323.44
366.637	306.26
367.019	307.85
367.4	304
367.781	286.15
368.163	303.78
368.544	330.22
368.925	318.47
369.306	321.86
369.688	308.52
370.069	305.36
370.45	316.66
370.831	287.96
371.212	322.31
371.593	327.28
371.974	328.18
372.355	318.47
372.736	329.54
373.117	321.63
373.498	318.01
373.879	319.6
374.26	316.66
374.641	329.54
375.021	328.41
375.402	322.08
375.783	334.28
376.163	330.9
376.544	313.04
376.925	334.74
377.305	339.48
377.686	308.07
378.066	329.31
378.447	350.56
378.827	332.7
379.208	341.74
379.588	357.11
379.968	321.86
380.349	341.52
380.729	316.88
381.109	327.51
381.489	351.69
381.87	338.35
382.25	348.3
382.63	341.97
383.01	350.78
383.39	350.33
383.77	368.63
384.15	353.95
384.53	367.5
384.91	355.53
385.29	373.15
385.67	355.53
386.049	368.63
386.429	366.37
386.809	377.45
387.189	366.6
387.568	369.76
387.948	373.83
388.328	374.06
388.707	376.54
389.087	389.88
389.466	391.46
389.846	378.8
390.225	381.97
390.605	384.45
390.984	390.55
391.363	392.81
391.743	393.72
392.122	369.54
392.501	394.4
392.881	412.48
393.26	402.98
393.639	395.98
394.018	406.37
394.397	392.59
394.776	404.34
395.155	416.32
395.534	409.09
395.913	418.58
396.292	411.12
396.671	417.67
397.05	406.15
397.429	433.04
397.808	394.62
398.186	424.68
398.565	418.58
398.944	424.9
399.323	439.59
399.701	424.68
400.08	431.68
400.458	434.85
400.837	441.63
401.215	420.38
401.594	433.27
401.972	427.62
402.351	441.63
402.729	451.34
403.107	455.19
403.486	465.81
403.864	461.51
404.242	444.34
404.62	464.68
404.999	455.86
405.377	482.3
405.755	491.34
406.133	483.43
406.511	482.98
406.889	484.34
407.267	476.65
407.645	494.28
408.023	489.08
408.401	486.15
408.779	494.05
409.156	491.79
409.534	493.38
409.912	508.07
410.29	502.87
410.667	518.69
411.045	532.7
411.422	534.51
411.8	539.7
412.178	558.69
412.555	530.44
412.933	520.27
413.31	535.18
413.687	558.46
414.065	567.5
414.442	549.42
414.819	573.6
415.197	555.97
415.574	564.79
415.951	565.69
416.328	570.89
416.705	571.57
417.082	556.88
417.46	614.05
417.837	584.22
418.214	587.84
418.591	586.26
418.967	606.37
419.344	589.42
419.721	604.56
420.098	595.75
420.475	607.95
420.852	629.42
421.228	627.61
421.605	618.12
421.982	631.68
422.358	618.35
422.735	645.92
423.111	619.7
423.488	637.78
423.864	674.16
424.241	668.51
424.617	674.62
424.994	659.25
425.37	661.28
425.746	665.8
426.123	674.16
426.499	695.63
426.875	676.65
427.251	699.02
427.627	697.44
428.003	724.56
428.379	729.08
428.756	728.4
429.132	755.97
429.507	726.82
429.883	742.64
430.259	766.82
430.635	756.65
431.011	776.53
431.387	757.55
431.763	787.61
432.138	767.95
432.514	783.99
432.89	790.09
433.265	827.38
433.641	816.08
434.016	810.88
434.392	823.31
434.767	826.02
435.143	840.03
435.518	841.39
435.894	828.28
436.269	847.27
436.644	870.54
437.02	879.58
437.395	880.94
437.77	891.11
438.145	868.28
438.52	896.98
438.895	893.37
439.271	919.13
439.646	904.89
440.021	945.12
440.395	925.91
440.77	934.27
441.145	924.78
441.52	948.73
441.895	962.52
442.27	954.38
442.645	969.75
443.019	978.79
443.394	958.22
443.769	978.79
444.143	959.35
444.518	985.57
444.892	987.15
445.267	992.12
445.641	988.96
446.016	1002.06
446.39	1018.56
446.764	1019.69
447.139	1033.48
447.513	1019.24
447.887	994.83
448.262	1025.57
448.636	1029.41
449.01	1052.46
449.384	1069.63
449.758	1033.7
450.132	1086.13
450.506	1087.49
450.88	1070.76
451.254	1099.01
451.628	1098.78
452.002	1105.79
452.376	1122.06
452.75	1140.37
453.123	1119.12
453.497	1131.78
453.871	1127.71
454.244	1176.3
454.618	1187.82
454.992	1187.6
455.365	1202.74
455.739	1202.28
456.112	1210.19
456.486	1256.07
456.859	1249.74
457.232	1284.09
457.606	1262.4
457.979	1260.14
458.352	1300.36
458.725	1301.27
459.099	1334.94
459.472	1336.52
459.845	1338.1
460.218	1366.35
460.591	1361.15
460.964	1397.76
461.337	1413.8
461.71	1440.47
462.083	1459.68
462.456	1454.03
462.829	1440.7
463.201	1435.95
463.574	1453.58
463.947	1499.9
464.32	1498.1
464.692	1530.64
465.065	1548.26
465.438	1531.32
465.81	1532.9
466.183	1571.77
466.555	1637.3
466.928	1622.39
467.3	1612.22
467.672	1616.51
468.045	1667.81
468.417	1687.7
468.789	1680.92
469.161	1724.08
469.534	1759.78
469.906	1774.47
470.278	1819.9
470.65	1796.85
471.022	1836.39
471.394	1840.01
471.766	1899.44
472.138	1888.59
472.51	1916.39
472.882	1929.95
473.253	1973.11
473.625	2010.85
473.997	2017.86
474.369	2022.38
474.74	2070.06
475.112	2123.62
475.484	2115.71
475.855	2141.7
476.227	2155.03
476.598	2189.6
476.97	2244.97
477.341	2272.99
477.713	2305.98
478.084	2312.09
478.455	2374.46
478.827	2388.02
479.198	2480.22
479.569	2454.23
479.94	2510.5
480.311	2554.57
480.682	2575.13
481.053	2605.64
481.424	2681.79
481.795	2684.51
482.166	2709.14
482.537	2794.33
482.908	2825.52
483.279	2861.68
483.65	2926.99
484.021	2921.56
484.391	2981.22
484.762	2985.74
485.133	3002.46
485.503	3039.75
485.874	3142.12
486.244	3185.06
486.615	3207.66
486.985	3252.85
487.356	3298.73
487.726	3328.33
488.097	3377.37
488.467	3373.53
488.837	3472.06
489.207	3478.84
489.578	3513.18
489.948	3529.68
490.318	3620.07
490.688	3606.97
491.058	3656.23
491.428	3704.37
491.798	3756.34
492.168	3799.73
492.538	3831.82
492.908	3866.85
493.278	3892.16
493.648	3901.87
494.017	3964.47
494.387	4039.95
494.757	4044.24
495.126	4091.93
495.496	4114.75
495.866	4109.1
496.235	4172.15
496.605	4173.05
496.974	4241.98
497.344	4239.04
497.713	4287.63
498.082	4315.88
498.452	4394.52
498.821	4349.32
499.19	4438.13
499.559	4404.46
499.928	4517
500.298	4537.34
500.667	4578.69
501.036	4580.73
501.405	4602.87
501.774	4591.8
502.143	4653.27
502.512	4650.1
502.88	4725.58
503.249	4700.27
503.618	4730.78
503.987	4793.15
504.356	4814.39
504.724	4839.03
505.093	4852.13
505.462	4862.08
505.83	4880.38
506.199	4936.88
506.567	5012.58
506.936	4970.32
507.304	5067.04
507.672	5074.05
508.041	5072.24
508.409	5109.53
508.777	5154.72
509.145	5175.74
509.514	5224.1
509.882	5252.12
510.25	5205.34
510.618	5315.62
510.986	5308.62
511.354	5359.24
511.722	5449.4
512.09	5490.08
512.458	5512.68
512.826	5542.06
513.193	5571.44
513.561	5580.02
513.929	5612.56
514.297	5717.87
514.664	5732.56
515.032	5810.75
515.4	5859.11
515.767	5872.22
516.135	5886.91
516.502	5907.92
516.869	5966
517.237	6038.54
517.604	6041.03
517.972	6116.96
518.339	6091.2
518.706	6175.71
519.073	6189.95
519.44	6229.5
519.808	6288.48
520.175	6342.04
520.542	6367.35
520.909	6379.32
521.276	6422.71
521.643	6500
522.009	6567.79
522.376	6585.42
522.743	6629.03
523.11	6684.17
523.477	6739.77
523.843	6810.95
524.21	6883.49
524.577	6908.12
524.943	6950.38
525.31	6980.21
525.676	7063.83
526.043	7100.66
526.409	7179.08
526.776	7182.92
527.142	7239.64
527.508	7281.45
527.874	7357.15
528.241	7368.45
528.607	7443.25
528.973	7493.87
529.339	7485.06
529.705	7600.76
530.071	7662.91
530.437	7694.54
530.803	7716.01
531.169	7823.58
531.535	7741.77
531.901	7759.4
532.267	7823.35
532.632	7899.51
532.998	7909.91
533.364	7981.99
533.73	7976.34
534.095	7986.29
534.461	8084.14
534.826	8097.02
535.192	8123.68
535.557	8177.47
535.923	8174.3
536.288	8239.16
536.653	8356.67
537.019	8327.07
537.384	8355.77
537.749	8431.47
538.114	8445.71
538.479	8497.46
538.845	8498.59
539.21	8508.31
539.575	8651.13
539.94	8588.08
540.305	8688.64
540.67	8657.68
541.034	8656.78
541.399	8811.8
541.764	8816.32
542.129	8887.73
542.494	8871.46
542.858	8923.44
543.223	8949.65
543.587	8988.75
543.952	9004.34
544.316	9025.81
544.681	9013.6
545.045	9129.53
545.41	9125.47
545.774	9188.06
546.138	9229.19
546.503	9262.19
546.867	9301.51
547.231	9336.76
547.595	9325.69
547.959	9339.7
548.324	9431.45
548.688	9400.04
549.052	9472.12
549.416	9423.09
549.779	9464.44
550.143	9581.5
550.507	9599.13
550.871	9617.2
551.235	9685.9
551.599	9709.63
551.962	9773.58
552.326	9754.83
552.689	9855.84
553.053	9849.06
553.417	9841.61
553.78	10025.33
554.143	9967.7
554.507	10021.04
554.87	10086.34
555.234	10144.2
555.597	10135.38
555.96	10234.82
556.323	10228.49
556.686	10288.6
557.05	10307.81
557.413	10426.45
557.776	10447.24
558.139	10451.99
558.502	10518.2
558.865	10513.9
559.228	10622.83
559.59	10674.58
559.953	10701.02
560.316	10770.39
560.679	10838.19
561.041	10769.26
561.404	10908.02
561.767	10987.11
562.129	10976.04
562.492	11021.91
562.854	11058.52
563.217	11141.46
563.579	11143.94
563.941	11300.1
564.304	11283.38
564.666	11454.44
565.028	11396.37
565.39	11485.18
565.753	11529.47
566.115	11576.02
566.477	11646.08
566.839	11686.53
567.201	11871.16
567.563	11814.66
567.925	11907.31
568.287	11952.74
568.648	12009.01
569.01	12188.44
569.372	12236.57
569.734	12138.49
570.095	12321.99
570.457	12237.25
570.819	12355.21
571.18	12313.63
571.542	12441.09
571.903	12504.13
572.265	12503
572.626	12590.23
572.987	12538.26
573.349	12578.71
573.71	12645.37
574.071	12694.41
574.432	12758.82
574.794	12839.94
575.155	12775.54
575.516	12830.23
575.877	12871.13
576.238	12881.98
576.599	12887.18
576.96	12830.23
577.32	12924.24
577.681	12968.76
578.042	13075.87
578.403	13015.31
578.763	13070
579.124	13119.26
579.485	13060.73
579.845	13086.27
580.206	13094.63
580.566	13091.46
580.927	13105.25
581.287	13210.1
581.648	13086.49
582.008	13221.86
582.368	13225.02
582.728	13157.22
583.089	13173.5
583.449	13211.23
583.809	13222.53
584.169	13211.46
584.529	13207.62
584.889	13342.98
585.249	13307.73
585.609	13278.8
585.969	13274.74
586.329	13314.06
586.688	13251.46
587.048	13331.46
587.408	13306.37
587.768	13378.01
588.127	13244.91
588.487	13353.15
588.846	13363.09
589.206	13399.03
589.565	13411.46
589.925	13461.62
590.284	13436.31
590.643	13400.83
591.003	13491.45
591.362	13544.11
591.721	13518.35
592.08	13539.81
592.44	13665.91
592.799	13612.81
593.158	13555.18
593.517	13629.53
593.876	13631.11
594.235	13544.33
594.593	13568.51
594.952	13592.92
595.311	13589.98
595.67	13686.7
596.029	13692.8
596.387	13751.11
596.746	13655.52
597.104	13609.87
597.463	13710.66
597.822	13698.91
598.18	13723.09
598.538	13731.67
598.897	13802.41
599.255	13661.17
599.613	13866.13
599.972	13790.65
600.33	13855.96
600.688	13740.94
601.046	13809.18
601.404	13843.31
601.762	13791.78
602.12	13897.32
602.478	13918.11
602.836	13903.42
603.194	13788.39
603.552	13824.33
603.91	13698.45
604.268	13839.69
604.625	13857.55
604.983	13869.07
605.341	13838.79
605.698	13892.35
606.056	13998.78
606.413	13931.89
606.771	14003.98
607.128	13957.43
607.485	13926.47
607.843	14052.79
608.2	14020.7
608.557	14033.81
608.914	14076.3
609.272	14075.39
609.629	14063.42
609.986	14127.37
610.343	14098.67
610.7	14264.77
611.057	14169.85
611.414	14164.2
611.771	14227.48
612.127	14306.12
612.484	14266.35
612.841	14321.94
613.198	14236.74
613.554	14285.1
613.911	14335.72
614.267	14406.23
614.624	14243.98
614.98	14371.2
615.337	14436.06
615.693	14408.49
616.05	14411.2
616.406	14518.54
616.762	14484.42
617.118	14571.65
617.475	14445.78
617.831	14584.31
618.187	14642.84
618.543	14591.76
618.899	14700.91
619.255	14579.33
619.611	14580.92
619.967	14690.29
620.323	14723.06
620.678	14699.56
621.034	14674.92
621.39	14688.03
621.746	14627.47
622.101	14754.24
622.457	14572.55
622.812	14638.77
623.168	14780.01
623.523	14685.09
623.879	14754.92
624.234	14636.96
624.589	14773.23
624.945	14699.56
625.3	14806.67
625.655	14735.71
626.01	14724.64
626.365	14726.22
626.72	14667.02
627.075	14675.38
627.43	14791.31
627.785	14645.55
628.14	14737.07
628.495	14697.07
628.85	14671.08
629.205	14613.01
629.559	14732.78
629.914	14642.84
630.269	14670.41
630.623	14599.22
630.978	14582.05
631.332	14624.53
631.687	14663.4
632.041	14550.63
632.396	14614.14
632.75	14570.07
633.104	14619.33
633.459	14526
633.813	14439.9
634.167	14500.24
634.521	14435.61
634.875	14494.82
635.229	14536.4
635.583	14298.44
635.937	14413.69
636.291	14434.93
636.645	14462.05
636.999	14390.64
637.352	14390.86
637.706	14276.29
638.06	14257.53
638.413	14330.98
638.767	14278.1
639.121	14274.03
639.474	14190.64
639.828	14136.63
640.181	14288.27
640.534	14279.46
640.888	14090.31
641.241	14203.3
641.594	14221.38
641.947	14306.57
642.301	14207.37
642.654	14158.78
643.007	14197.88
643.36	14238.78
643.713	14132.57
644.066	14111.78
644.419	14108.84
644.771	13970.99
645.124	13766.93
645.477	13768.51
645.83	13683.76
646.182	13637.21
646.535	13744.1
646.888	13824.33
647.24	13702.3
647.593	13830.88
647.945	13786.81
648.298	13705.46
648.65	13582.07
649.002	13629.75
649.355	13674.27
649.707	13525.12
650.059	13688.96
650.411	13774.61
650.763	13771.45
651.115	13939.58
651.467	13870.65
651.819	13912.91
652.171	13833.37
652.523	13827.49
652.875	13764.89
653.227	13798.34
653.578	13848.28
653.93	13791.11
654.282	13759.92
654.633	13719.24
654.985	13782.52
655.337	13663.2
655.688	13636.53
656.039	13722.86
656.391	13691.9
656.742	13714.95
657.094	13755.4
657.445	13699.81
657.796	13631.56
658.147	13639.25
658.498	13676.31
658.849	13653.03
659.2	13637.21
659.551	13609.87
659.902	13657.32
660.253	13630.43
660.604	13664.78
660.955	13598.79
661.306	13656.42
661.656	13577.33
662.007	13608.06
662.358	13571.23
662.708	13560.15
663.059	13557.44
663.409	13525.35
663.76	13632.47
664.11	13641.73
664.461	13660.71
664.811	13636.99
665.161	13568.51
665.511	13512.92
665.862	13584.11
666.212	13666.36
666.562	13613.71
666.912	13571.23
667.262	13613.48
667.612	13599.25
667.962	13619.81
668.312	13539.59
668.662	13594.28
669.011	13619.13
669.361	13498.01
669.711	13566.71
670.06	13490.78
670.41	13491.45
670.76	13519.02
671.109	13596.54
671.459	13514.5
671.808	13470.89
672.157	13533.26
672.507	13438.57
672.856	13427.27
673.205	13442.64
673.554	13492.36
673.904	13398.57
674.253	13500.94
674.602	13403.55
674.951	13199.03
675.3	13157.45
675.649	13352.93
675.998	13381.4
676.346	13269.09
676.695	13366.03
677.044	13279.03
677.393	13230.67
677.741	13315.64
678.09	13293.72
678.438	13257.56
678.787	13247.39
679.135	13277.67
679.484	13121.07
679.832	13221.18
680.181	13139.37
680.529	13215.98
680.877	13146.83
681.225	13150.67
681.573	13257.11
681.922	13077.45
682.27	13111.58
682.618	13123.78
682.966	13128.07
683.314	13129.43
683.661	13058.7
684.009	13020.05
684.357	12935.08
684.705	12965.59
685.053	13059.37
685.4	12917.68
685.748	12918.59
686.095	12873.84
686.443	12799.49
686.79	12825.48
687.138	12853.28
687.485	12825.26
687.832	12779.61
688.18	12775.09
688.527	12724.69
688.874	12728.99
689.221	12711.36
689.568	12714.75
689.915	12590.01
690.262	12609.67
690.609	12491.71
690.956	12563.34
691.303	12514.3
691.65	12391.82
691.997	12423.46
692.344	12393.63
692.69	12343.01
693.037	12295.33
693.383	12211.49
693.73	12229.34
694.077	12174.2
694.423	12202.45
694.769	12120.87
695.116	12098.95
695.462	12093.75
695.808	12028.89
696.155	12023.7
696.501	11980.08
696.847	11912.29
697.193	11810.59
697.539	11898.95
697.885	11873.42
698.231	11812.18
698.577	11788.9
698.923	11805.17
699.269	11704.38
699.614	11656.7
699.96	11675
700.306	11705.29
700.651	11648.11
700.997	11589.58
701.342	11583.03
701.688	11587.77
702.033	11574.22
702.379	11559.75
702.724	11541.45
703.069	11502.13
703.415	11372.41
703.76	11426.65
704.105	11465.97
704.45	11499.64
704.795	11462.35
705.14	11431.62
705.485	11390.27
705.83	11374.67
706.175	11413.54
706.52	11359.98
706.865	11315.01
707.209	11276.6
707.554	11348.68
707.899	11307.56
708.243	11292.64
708.588	11230.72
708.932	11122.48
709.277	11242.25
709.621	11128.13
709.966	11160.89
710.31	11191.17
710.654	11016.72
710.998	11054.68
711.342	11054
711.687	11096.04
712.031	10945.31
712.375	11002.93
712.719	10969.03
713.063	10865.99
713.407	10978.52
713.75	10892.2
714.094	10918.87
714.438	10934.23
714.782	10751.19
715.125	10817.17
715.469	10807
715.812	10798.42
716.156	10621.92
716.499	10691.75
716.843	10698.98
717.186	10582.6
717.53	10638.19
717.873	10612.88
718.216	10575.6
718.559	10521.14
718.902	10426
719.246	10427.8
719.589	10440.69
719.932	10402.72
720.275	10406.79
720.617	10383.96
720.96	10371.54
721.303	10282.05
721.646	10356.62
721.989	10247.7
722.331	10243.63
722.674	10158.66
723.016	10204.53
723.359	10180.58
723.701	10198.88
724.044	10038.44
724.386	10049.74
724.729	10092.22
725.071	10033.24
725.413	10052.67
725.755	10011.09
726.097	9944.88
726.439	9885.9
726.782	9922.73
727.124	10010.87
727.465	9974.03
727.807	9844.77
728.149	9867.82
728.491	9890.19
728.833	9906.46
729.175	9836.63
729.516	9830.08
729.858	9835.96
730.199	9897.88
730.541	9828.05
730.882	9762.51
731.224	9842.28
731.565	9789.63
731.906	9746.69
732.248	9804.77
732.589	9788.27
732.93	9753.47
733.271	9728.16
733.612	9810.87
733.953	9768.16
734.294	9720.03
734.635	9840.93
734.976	9823.3
735.317	9711.44
735.658	9708.73
735.999	9703.76
736.339	9707.82
736.68	9757.77
737.021	9687.71
737.361	9670.08
737.702	9629.18
738.042	9744.89
738.383	9741.27
738.723	9738.78
739.063	9738.33
739.404	9666.02
739.744	9645.23
740.084	9641.61
740.424	9643.42
740.764	9677.99
741.104	9712.12
741.444	9543.31
741.784	9583.76
742.124	9560.48
742.464	9526.36
742.804	9529.52
743.143	9496.76
743.483	9600.71
743.823	9460.37
744.162	9456.08
744.502	9464.67
744.841	9475.06
745.181	9442.97
745.52	9354.39
745.86	9405.91
746.199	9334.5
746.538	9333.14
746.877	9353.48
747.216	9393.93
747.556	9355.97
747.895	9275.07
748.234	9246.37
748.573	9262.41
748.911	9169.53
749.25	9208.4
749.589	9187.61
749.928	9147.39
750.267	9153.04
750.605	9179.25
750.944	9131.57
751.283	9153.94
751.621	9119.14
751.96	9034.17
752.298	9005.47
752.636	9088.86
752.975	8950.56
753.313	9018.35
753.651	9029.65
753.989	8990.33
754.327	8940.61
754.666	8914.17
755.004	8945.36
755.342	8847.28
755.679	8844.12
756.017	8865.13
756.355	8863.1
756.693	8830.78
757.031	8835.98
757.368	8701.07
757.706	8675.08
758.044	8772.26
758.381	8755.76
758.719	8707.85
759.056	8663.56
759.394	8691.35
759.731	8551.24
760.068	8623.33
760.405	8622.88
760.743	8567.06
761.08	8549.21
761.417	8508.08
761.754	8558.25
762.091	8471.7
762.428	8465.37
762.765	8398.93
763.102	8424.92
763.438	8384.47
763.775	8320.52
764.112	8377.24
764.449	8349.22
764.785	8339.27
765.122	8224.02
765.458	8270.8
765.795	8221.54
766.131	8225.83
766.467	8167.53
766.804	8185.15
767.14	8140.41
767.476	8060.64
767.812	8033.29
768.148	8056.57
768.485	8042.1
768.821	7996.91
769.157	8002.56
769.492	7970.02
769.828	7969.11
770.164	7882.34
770.5	7847.99
770.836	7879.85
771.171	7838.95
771.507	7778.38
771.842	7703.58
772.178	7686.18
772.513	7730.7
772.849	7641.89
773.184	7661.32
773.519	7631.72
773.855	7593.08
774.19	7597.14
774.525	7508.33
774.86	7510.82
775.195	7568.45
775.53	7484.15
775.865	7393.08
776.2	7323.71
776.535	7335.91
776.87	7298.85
777.205	7270.83
777.539	7241.67
777.874	7257.04
778.209	7255.91
778.543	7166.65
778.878	7131.39
779.212	7158.51
779.547	7098.4
779.881	7116.25
780.215	7040.32
780.55	7012.53
780.884	7015.24
781.218	6979.53
781.552	6964.17
781.886	6888.24
782.22	6914.45
782.554	6839.65
782.888	6834.23
783.222	6825.64
783.556	6779.54
783.889	6778.41
784.223	6720.78
784.557	6727.79
784.89	6747.45
785.224	6704.51
785.557	6620.22
785.891	6640.11
786.224	6613.44
786.558	6675.14
786.891	6608.92
787.224	6597.4
787.557	6565.76
787.891	6560.56
788.224	6566.66
788.557	6538.19
788.89	6479.66
789.223	6514.91
789.556	6496.83
789.888	6510.62
790.221	6430.17
790.554	6399.89
790.887	6416.38
791.219	6433.79
791.552	6353.11
791.884	6383.17
792.217	6375.03
792.549	6344.97
792.882	6325.09
793.214	6300
793.546	6302.72
793.879	6307.69
794.211	6251.87
794.543	6290.06
794.875	6245.54
795.207	6269.04
795.539	6205.77
795.871	6154.24
796.203	6157.86
796.535	6140.91
796.867	6091.65
797.198	6117.86
797.53	6076.28
797.862	6031.08
798.193	6087.58
798.525	6053.91
798.856	6055.94
799.188	5990.86
799.519	5967.58
799.85	5938.21
800.182	5917.19
800.513	6009.62
800.844	5893.23
801.175	5974.59
801.506	5935.27
801.837	5896.17
802.168	5853.01
802.499	5854.14
802.83	5810.53
803.161	5815.27
803.491	5778.66
803.822	5811.43
804.153	5764.88
804.483	5735.5
804.814	5657.99
805.145	5761.03
805.475	5715.84
805.805	5687.14
806.136	5647.14
806.466	5620.47
806.796	5619.12
807.126	5618.44
807.457	5599.68
807.787	5580.7
808.117	5536.18
808.447	5537.31
808.777	5556.52
809.107	5537.99
809.436	5480.82
809.766	5480.14
810.096	5450.76
810.426	5468.84
810.755	5437.43
811.085	5431.55
811.414	5368.95
811.744	5357.2
812.073	5352.68
812.403	5357.2
812.732	5328.28
813.061	5315.17
813.39	5264.32
813.719	5289.18
814.049	5260.94
814.378	5274.04
814.707	5232.24
815.036	5230.88
815.365	5237.21
815.693	5209.19
816.022	5208.06
816.351	5160.82
816.68	5124.67
817.008	5126.02
817.337	5076.31
817.665	5036.76
817.994	5152.01
818.322	5105.01
818.651	5014.84
818.979	5099.13
819.307	5076.08
819.636	5065.91
819.964	4951.11
820.292	5019.81
820.62	4968.06
820.948	4971.23
821.276	5011.68
821.604	4983.88
821.932	5021.17
822.259	4945.01
822.587	4968.06
822.915	4970.55
823.243	5006.93
823.57	4972.36
823.898	4990.43
824.225	4941.85
824.553	4953.37
824.88	4964.9
825.207	4983.88
825.535	4938.68
825.862	4912.47
826.189	4961.96
826.516	4977.33
826.843	4928.06
827.17	4978.91
827.497	4952.24
827.824	4986.59
828.151	4993.37
828.478	4994.05
828.805	4979.59
829.131	4953.15
829.458	4990.66
829.785	4991.79
830.111	4913.6
830.438	5024.33
830.764	4944.11
831.09	5005.35
831.417	4964.67
831.743	4983.2
832.069	4945.01
832.395	4912.24
832.722	4954.5
833.048	4945.69
833.374	4984.33
833.7	4916.09
834.026	4933.26
834.351	4959.02
834.677	5000.6
835.003	4978
835.329	4929.87
835.654	4924.22
835.98	4916.09
836.306	4931.23
836.631	4946.37
836.956	4949.76
837.282	4960.38
837.607	4878.57
837.932	4883.09
838.258	4876.09
838.583	4876.09
838.908	4813.04
839.233	4852.36
839.558	4867.05
839.883	4837.9
840.208	4847.39
840.533	4871.34
840.858	4844.9
841.182	4862.3
841.507	4848.97
841.832	4811.46
842.156	4823.66
842.481	4835.64
842.805	4785.69
843.13	4805.13
843.454	4777.11
843.778	4760.84
844.103	4780.95
844.427	4785.02
844.751	4762.64
845.075	4753.38
845.399	4735.75
845.723	4679.26
846.047	4760.84
846.371	4700.95
846.695	4708.41
847.019	4691.68
847.343	4616.21
847.666	4619.14
847.99	4598.35
848.313	4610.33
848.637	4592.93
848.96	4604.46
849.284	4574.4
849.607	4532.82
849.931	4524.46
850.254	4490.11
850.577	4499.37
850.9	4470.67
851.223	4450.56
851.546	4460.96
851.869	4380.28
852.192	4401.97
852.515	4428.19
852.838	4364.69
853.161	4385.03
853.483	4362.65
853.806	4387.29
854.129	4378.02
854.451	4268.87
854.774	4286.5
855.096	4285.59
855.419	4340.51
855.741	4305.71
856.063	4276.1
856.385	4257.57
856.708	4230.68
857.03	4194.52
857.352	4252.15
857.674	4223.45
857.996	4210.79
858.318	4188.87
858.64	4185.03
858.961	4166.05
859.283	4143.22
859.605	4140.96
859.926	4179.83
860.248	4119.72
860.57	4121.76
860.891	4081.08
861.212	4115.2
861.534	4118.37
861.855	4115.88
862.176	4105.71
862.498	4075.43
862.819	4126.5
863.14	4087.86
863.461	4070.01
863.782	4072.49
864.103	4014.41
864.424	4022.32
864.745	3997.92
865.065	3945.04
865.386	3964.02
865.707	3981.19
866.027	3972.61
866.348	3996.56
866.668	3972.83
866.989	3945.72
867.309	3917.47
867.63	3930.8
867.95	3907.75
868.27	3889.45
868.59	3952.49
868.91	3886.28
869.23	3917.02
869.55	3919.28
869.87	3943.46
870.19	3895.55
870.51	3863.68
870.83	3883.34
871.15	3860.29
871.469	3822.33
871.789	3859.62
872.109	3824.59
872.428	3828.43
872.748	3825.72
873.067	3827.07
873.386	3820.3
873.706	3805.61
874.025	3764.48
874.344	3743.01
874.663	3807.64
874.982	3776.45
875.301	3748.88
875.62	3767.87
875.939	3730.13
876.258	3763.35
876.577	3711.6
876.896	3688.1
877.214	3649.68
877.533	3678.83
877.852	3663.91
878.17	3719.05
878.489	3682.67
878.807	3682.22
879.125	3611.94
879.444	3645.61
879.762	3658.49
880.08	3638.38
880.398	3593.41
880.716	3610.81
881.034	3587.31
881.352	3622.79
881.67	3589.57
881.988	3604.93
882.306	3568.55
882.624	3564.03
882.941	3551.6
883.259	3544.14
883.577	3551.6
883.894	3571.71
884.212	3505.5
884.529	3506.4
884.846	3512.73
885.164	3491.04
885.481	3496.91
885.798	3501.89
886.115	3473.64
886.432	3483.13
886.75	3447.2
887.067	3486.52
887.383	3444.03
887.7	3442.68
888.017	3413.53
888.334	3449.23
888.651	3433.41
888.967	3421.66
889.284	3431.15
889.6	3392.51
889.917	3358.39
890.233	3387.31
890.55	3369.91
890.866	3403.81
891.182	3378.05
891.498	3359.29
891.815	3373.98
892.131	3347.09
892.447	3320.42
892.763	3304.15
893.079	3295.34
893.395	3284.49
893.71	3289.24
894.026	3292.63
894.342	3315.22
894.657	3256.24
894.973	3293.53
895.289	3271.38
895.604	3276.35
895.92	3236.81
896.235	3188
896.55	3249.24
896.865	3216.02
897.181	3227.77
897.496	3257.6
897.811	3264.6
898.126	3202.68
898.441	3196.81
898.756	3199.29
899.071	3168.79
899.386	3162.23
899.7	3179.18
900.015	3171.95
900.33	3135.34
900.644	3114.32
900.959	3139.63
901.273	3166.75
901.588	3117.49
901.902	3113.42
902.216	3123.82
902.531	3124.95
902.845	3095.12
903.159	3078.85
903.473	3039.75
903.787	3046.08
904.101	3065.96
904.415	3031.84
904.729	3062.57
905.042	2996.14
905.356	3035.46
905.67	3010.6
905.984	3011.73
906.297	3030.03
906.611	3029.13
906.924	2977.83
907.237	2965.4
907.551	2986.19
907.864	2949.58
908.177	2958.17
908.491	2943.03
908.804	2941.22
909.117	2972.41
909.43	2908
909.743	2884.5
910.056	2910.26
910.368	2906.65
910.681	2866.42
910.994	2852.86
911.307	2856.03
911.619	2818.97
911.932	2808.57
912.244	2820.55
912.557	2843.15
912.869	2806.31
913.181	2816.48
913.494	2809.7
913.806	2794.79
914.118	2774.9
914.43	2747.78
914.742	2764.73
915.054	2737.39
915.366	2738.52
915.678	2755.69
915.99	2704.62
916.302	2672.98
916.613	2641.79
916.925	2690.61
917.236	2673.66
917.548	2702.13
917.859	2656.94
918.171	2654.68
918.482	2598.18
918.794	2637.05
919.105	2623.72
919.416	2583.49
919.727	2610.38
920.038	2583.72
920.349	2554.79
920.66	2566.77
920.971	2552.53
921.282	2557.05
921.593	2563.15
921.903	2538.07
922.214	2523.38
922.525	2545.75
922.835	2503.49
923.146	2472.99
923.456	2493.78
923.767	2472.99
924.077	2469.14
924.387	2433.89
924.697	2435.7
925.008	2413.33
925.318	2391.18
925.628	2419.2
925.938	2391.86
926.248	2361.58
926.558	2343.27
926.867	2345.31
927.177	2376.04
927.487	2304.63
927.796	2343.27
928.106	2318.41
928.416	2294.46
928.725	2321.58
929.034	2253.1
929.344	2310.96
929.653	2263.5
929.962	2259.43
930.271	2242.48
930.581	2229.6
930.89	2216.95
931.199	2186.21
931.508	2180.79
931.817	2188.93
932.125	2220.56
932.434	2145.54
932.743	2155.48
933.051	2170.39
933.36	2146.67
933.669	2131.75
933.977	2121.81
934.286	2095.82
934.594	2141.92
934.902	2126.55
935.21	2086.33
935.519	2077.52
935.827	2075.48
936.135	2063.28
936.443	2050.17
936.751	2040.91
937.059	2019.89
937.367	2041.36
937.674	2035.48
937.982	2018.08
938.29	2020.57
938.597	1998.42
938.905	1969.95
939.213	1981.25
939.52	1987.57
939.827	1948.25
940.135	1927.69
940.442	1914.58
940.749	1917.75
941.056	1903.74
941.363	1921.81
941.67	1910.97
941.977	1857.41
942.284	1880.69
942.591	1876.39
942.898	1897.18
943.205	1825.55
943.511	1841.82
943.818	1835.71
944.125	1815.6
944.431	1856.5
944.738	1811.76
945.044	1849.73
945.35	1809.95
945.657	1795.72
945.963	1791.42
946.269	1802.72
946.575	1773.8
946.881	1747.81
947.187	1764.08
947.493	1764.08
947.799	1745.32
948.105	1760.24
948.41	1758.88
948.716	1769.95
949.022	1746.68
949.327	1719.79
949.633	1700.58
949.938	1699.67
950.244	1679.56
950.549	1711.88
950.854	1729.05
951.16	1706.23
951.465	1647.7
951.77	1684.98
952.075	1667.13
952.38	1660.58
952.685	1680.24
952.99	1643.63
953.294	1654.25
953.599	1672.33
953.904	1625.78
954.209	1615.38
954.513	1640.24
954.818	1616.74
955.122	1636.62
955.426	1609.51
955.731	1608.83
956.035	1600.47
956.339	1617.19
956.643	1590.75
956.948	1581.71
957.252	1587.13
957.556	1560.02
957.86	1576.29
958.163	1575.38
958.467	1584.2
958.771	1558.43
959.075	1570.18
959.378	1570.18
959.682	1554.59
959.985	1522.95
960.289	1517.76
960.592	1505.1
960.896	1507.59
961.199	1523.41
961.502	1520.69
961.805	1504.88
962.108	1497.64
962.411	1506.91
962.714	1495.38
963.017	1489.96
963.32	1476.85
963.623	1466.68
963.926	1470.75
964.228	1469.62
964.531	1482.73
964.833	1449.74
965.136	1493.35
965.438	1445.89
965.741	1488.83
966.043	1452.45
966.345	1438.66
966.648	1471.66
966.95	1450.19
967.252	1444.54
967.554	1429.85
967.856	1418.78
968.158	1414.71
968.46	1404.99
968.761	1410.41
969.063	1377.65
969.365	1405.44
969.666	1400.47
969.968	1385.78
970.269	1387.59
970.571	1411.09
970.872	1382.39
971.174	1362.28
971.475	1385.78
971.776	1355.5
972.077	1401.15
972.378	1349.63
972.679	1372.22
972.98	1348.5
973.281	1329.06
973.582	1348.5
973.883	1344.43
974.183	1341.94
974.484	1307.14
974.785	1321.83
975.085	1321.83
975.386	1311.21
975.686	1318.67
975.986	1312.79
976.287	1270.31
976.587	1284.32
976.887	1308.5
977.187	1283.19
977.487	1303.53
977.787	1274.83
978.087	1269.4
978.387	1257.42
978.687	1252.68
978.987	1284.77
979.286	1259.91
979.586	1233.92
979.885	1249.29
980.185	1221.27
980.484	1236.41
980.784	1245.22
981.083	1263.3
981.382	1217.88
981.682	1216.75
981.981	1233.7
982.28	1203.41
982.579	1207.03
982.878	1213.13
983.177	1225.11
983.475	1171.55
983.774	1157.54
984.073	1199.12
984.372	1162.51
984.67	1169.74
984.969	1152.34
985.267	1166.35
985.566	1108.5
985.864	1154.83
986.162	1121.38
986.461	1175.17
986.759	1145.79
987.057	1154.83
987.355	1123.42
987.653	1129.74
987.951	1116.19
988.249	1103.98
988.547	1115.51
988.844	1104.89
989.142	1091.1
989.44	1107.37
989.737	1109.86
990.035	1121.83
990.332	1093.59
990.63	1057.2
990.927	1082.29
991.224	1078.67
991.521	1061.27
991.819	1064.89
992.116	1055.85
992.413	1055.4
992.71	1051.33
993.006	1041.84
993.303	1033.48
993.6	1027.6
993.897	1026.02
994.193	1039.58
994.49	1027.37
994.787	1019.46
995.083	1021.95
995.379	1030.31
995.676	1002.97
995.972	998.67
996.268	984.66
996.565	984.66
996.861	1005.23
997.157	1003.87
997.453	1019.24
997.749	1009.52
998.044	967.49
998.34	967.71
998.636	969.07
998.932	970.2
999.227	958.9
999.523	980.6
999.818	962.74
1000.114	979.01
1000.409	960.71
1000.704	960.94
1001	931.11
1001.295	927.49
1001.59	922.29
1001.885	946.47
1002.18	938.34
1002.475	911.22
1002.77	935.85
1003.065	913.93
1003.359	918.9
1003.654	901.28
1003.949	892.24
1004.243	892.24
1004.538	883.65
1004.832	907.38
1005.127	899.92
1005.421	884.33
1005.715	877.32
1006.009	876.87
1006.304	866.47
1006.598	858.34
1006.892	845.46
1007.186	844.55
1007.48	856.31
1007.773	855.18
1008.067	855.18
1008.361	860.82
1008.655	845.01
1008.948	847.04
1009.242	836.19
1009.535	839.13
1009.829	814.72
1010.122	823.99
1010.415	813.82
1010.708	799.36
1011.001	805.23
1011.295	791
1011.588	820.15
1011.881	802.75
1012.173	791.9
1012.466	769.98
1012.759	802.75
1013.052	790.32
1013.344	763.43
1013.637	770.66
1013.93	757.1
1014.222	774.73
1014.514	757.55
1014.807	783.99
1015.099	754.39
1015.391	750.09
1015.683	749.42
1015.976	757.32
1016.268	748.06
1016.56	739.25
1016.851	742.86
1017.143	701.73
1017.435	737.21
1017.727	731.79
1018.018	731.11
1018.31	739.47
1018.602	731.11
1018.893	709.42
1019.185	713.94
1019.476	701.96
1019.767	708.29
1020.058	691.34
1020.35	697.44
1020.641	693.6
1020.932	687.27
1021.223	672.13
1021.514	678.23
1021.804	685.69
1022.095	680.72
1022.386	673.49
1022.677	687.04
1022.967	669.87
1023.258	675.07
1023.548	659.47
1023.839	662.19
1024.129	657.21
1024.419	638.01
1024.709	640.27
1025	645.92
1025.29	656.08
1025.58	640.04
1025.87	637.33
1026.16	628.74
1026.449	622.64
1026.739	629.42
1027.029	629.64
1027.319	601.4
1027.608	619.02
1027.898	619.93
1028.187	617.44
1028.477	620.38
1028.766	612.02
1029.055	595.97
1029.344	604.56
1029.634	618.35
1029.923	598.23
1030.212	576.99
1030.501	602.98
1030.79	590.32
1031.078	574.96
1031.367	604.11
1031.656	579.25
1031.945	569.99
1032.233	555.3
1032.522	571.79
1032.81	545.58
1033.099	596.65
1033.387	545.8
1033.675	581.51
1033.963	574.28
1034.251	565.01
1034.54	563.66
1034.828	561.17
1035.116	556.88
1035.403	559.14
1035.691	560.72
1035.979	546.71
1036.267	552.13
1036.554	557.1
1036.842	527.73
1037.129	541.96
1037.417	537.44
1037.704	556.88
1037.992	546.03
1038.279	531.34
1038.566	553.04
1038.853	553.04
1039.14	553.04
