Data from foam1_polythene_foam_FLMS001491_00031.txt Node
Date: Wed Feb 08 10:54:44 GMT 2017
User: dcchb
Spectrometer: FLMS00149
Trigger mode: 0
Integration Time (sec): 2.000000E-2
Scans to average: 10
Electric dark correction enabled: true
Nonlinearity correction enabled: false
Boxcar width: 0
XAxis mode: Wavelengths
Number of Pixels in Spectrum: 2048
>>>>>Begin Spectral Data<<<<<
341.393	-8.52
341.776	-8.52
342.16	-8.52
342.543	-46.93
342.927	-74.05
343.31	-84.45
343.693	-79.02
344.077	-60.49
344.46	-52.81
344.843	-52.13
345.226	-31.12
345.61	-40.38
345.993	-25.47
346.376	13.18
346.759	19.73
347.142	17.92
347.525	30.58
347.908	62.89
348.291	64.7
348.674	98.15
349.057	118.71
349.44	118.71
349.823	142.67
350.206	142.21
350.588	157.35
350.971	180.63
351.354	191.93
351.737	217.69
352.119	219.05
352.502	255.66
352.884	242.1
353.267	272.15
353.65	281.42
354.032	264.02
354.414	317.58
354.797	291.36
355.179	313.51
355.562	315.77
355.944	300.18
356.326	297.46
356.709	299.72
357.091	316.45
357.473	337.24
357.855	306.5
358.238	334.98
358.62	317.12
359.002	306.05
359.384	334.3
359.766	330.68
360.148	328.2
360.53	333.4
360.912	335.66
361.294	304.92
361.676	321.42
362.057	325.26
362.439	312.83
362.821	320.06
363.203	299.05
363.584	306.96
363.966	299.05
364.348	293.85
364.729	317.8
365.111	330.46
365.493	310.8
365.874	299.05
366.256	308.99
366.637	293.62
367.019	289.78
367.4	304.47
367.781	287.52
368.163	311.7
368.544	293.62
368.925	280.06
369.306	309.89
369.688	283
370.069	298.82
370.45	284.58
370.831	292.49
371.212	307.18
371.593	294.98
371.974	311.25
372.355	298.37
372.736	303.34
373.117	300.85
373.498	275.77
373.879	295.2
374.26	311.93
374.641	296.56
375.021	302.21
375.402	291.14
375.783	295.88
376.163	292.04
376.544	319.61
376.925	310.34
377.305	298.37
377.686	321.19
378.066	304.7
378.447	307.41
378.827	301.76
379.208	311.25
379.588	315.09
379.968	324.81
380.349	299.72
380.729	313.28
381.109	296.11
381.489	317.58
381.87	325.71
382.25	318.48
382.63	325.94
383.01	313.96
383.39	325.03
383.77	316.22
384.15	314.64
384.53	344.47
384.91	321.19
385.29	318.93
385.67	339.72
386.049	326.84
386.429	320.51
386.809	347.86
387.189	320.29
387.568	334.98
387.948	318.03
388.328	315.77
388.707	351.25
389.087	332.04
389.466	324.58
389.846	345.82
390.225	332.72
390.605	335.43
390.984	320.51
391.363	334.3
391.743	340.85
392.122	339.04
392.501	342.66
392.881	338.37
393.26	332.04
393.639	337.24
394.018	342.21
394.397	344.02
394.776	344.92
395.155	365.48
395.534	365.71
395.913	349.67
396.292	346.05
396.671	374.52
397.05	367.74
397.429	351.93
397.808	356.67
398.186	356.9
398.565	353.96
398.944	378.14
399.323	358.71
399.701	359.38
400.08	371.36
400.458	359.16
400.837	377.91
401.215	382.43
401.594	369.33
401.972	394.41
402.351	367.52
402.729	361.19
403.107	366.39
403.486	385.6
403.864	365.48
404.242	362.09
404.62	394.86
404.999	398.7
405.377	373.17
405.755	370.46
406.133	391.02
406.511	397.57
406.889	393.73
407.267	396.44
407.645	368.65
408.023	387.18
408.401	384.47
408.779	389.89
409.156	393.05
409.534	394.64
409.912	405.94
410.29	410.91
410.667	421.53
411.045	407.07
411.422	435.99
411.8	412.49
412.178	408.65
412.555	405.48
412.933	446.16
413.31	405.48
413.687	436.67
414.065	431.47
414.442	422.88
414.819	440.06
415.197	431.7
415.574	444.13
415.951	459.49
416.328	425.37
416.705	451.58
417.082	432.83
417.46	448.65
417.837	443.9
418.214	444.8
418.591	452.94
418.967	441.64
419.344	451.13
419.721	447.52
420.098	448.65
420.475	459.27
420.852	450.68
421.228	449.78
421.605	459.04
421.982	456.33
422.358	462.43
422.735	475.09
423.111	469.21
423.488	457.46
423.864	487.97
424.241	486.61
424.617	496.1
424.994	493.16
425.37	469.44
425.746	479.61
426.123	505.14
426.499	497.23
426.875	510.34
427.251	519.6
427.627	492.04
428.003	516.44
428.379	505.82
428.756	496.55
429.132	508.31
429.507	522.54
429.883	518.93
430.259	521.19
430.635	517.8
431.011	542.43
431.387	530.68
431.763	534.07
432.138	527.06
432.514	560.96
432.89	571.36
433.265	558.7
433.641	575.65
434.016	573.16
434.392	570.45
434.767	550.56
435.143	579.72
435.518	570.68
435.894	586.72
436.269	581.3
436.644	599.83
437.02	605.48
437.395	628.53
437.77	606.83
438.145	593.05
438.52	638.25
438.895	621.52
439.271	625.36
439.646	638.47
440.021	631.69
440.395	652.93
440.77	635.76
441.145	632.82
441.52	673.27
441.895	641.86
442.27	664.23
442.645	663.78
443.019	656.32
443.394	659.94
443.769	704.68
444.143	678.7
444.518	701.52
444.892	675.76
445.267	686.15
445.641	708.75
446.016	734.97
446.39	712.37
446.764	708.75
447.139	711.46
447.513	730.45
447.887	715.98
448.262	711.92
448.636	705.81
449.01	739.26
449.384	745.81
449.758	743.33
450.132	744.01
450.506	762.99
450.88	755.53
451.254	765.02
451.628	767.96
452.002	778.81
452.376	782.42
452.75	773.61
453.123	784.46
453.497	794.17
453.871	776.32
454.244	803.89
454.618	826.49
454.992	801.18
455.365	822.42
455.739	830.56
456.112	854.96
456.486	845.47
456.859	850.67
457.232	844.34
457.606	840.95
457.979	830.11
458.352	869.65
458.725	863.1
459.099	878.01
459.472	869.65
459.845	862.65
460.218	868.75
460.591	881.4
460.964	877.79
461.337	890.89
461.71	898.8
462.083	928.18
462.456	902.87
462.829	902.65
463.201	902.42
463.574	929.09
463.947	903.32
464.32	937.67
464.692	957.56
465.065	921.63
465.438	966.82
465.81	961.63
466.183	951.01
466.555	951.68
466.928	964.34
467.3	978.35
467.672	985.13
468.045	989.65
468.417	993.94
468.789	987.84
469.161	1033.26
469.534	1021.29
469.906	1042.76
470.278	1030.55
470.65	1053.6
471.022	1064
471.394	1076.43
471.766	1098.57
472.138	1069.42
472.51	1103.09
472.882	1154.62
473.253	1144.45
473.625	1131.34
473.997	1135.63
474.369	1138.8
474.74	1158.46
475.112	1181.28
475.484	1191.9
475.855	1209.76
476.227	1203.88
476.598	1218.57
476.97	1244.11
477.341	1269.64
477.713	1265.57
478.084	1288.62
478.455	1294.73
478.827	1328.4
479.198	1339.47
479.569	1346.48
479.94	1369.53
480.311	1373.37
480.682	1395.97
481.053	1399.13
481.424	1419.92
481.795	1426.47
482.166	1472.35
482.537	1462.63
482.908	1506.25
483.279	1492.69
483.65	1515.06
484.021	1570.65
484.391	1566.36
484.762	1580.82
485.133	1598.45
485.503	1586.47
485.874	1657.65
486.244	1630.31
486.615	1693.59
486.985	1706.01
487.356	1735.17
487.726	1740.59
488.097	1776.07
488.467	1763.41
488.837	1807.93
489.207	1819.23
489.578	1824.88
489.948	1846.8
490.318	1855.62
490.688	1849.06
491.058	1893.35
491.428	1895.84
491.798	1916.63
492.168	1969.28
492.538	1942.84
492.908	1963.41
493.278	2009.06
493.648	2019.9
494.017	2041.37
494.387	2058.77
494.757	2075.72
495.126	2101.48
495.496	2083.41
495.866	2122.73
496.235	2106.91
496.605	2146
496.974	2147.13
497.344	2144.2
497.713	2150.75
498.082	2171.99
498.452	2213.35
498.821	2238.66
499.19	2232.55
499.559	2269.16
499.928	2263.97
500.298	2262.38
500.667	2302.16
501.036	2260.8
501.405	2319.33
501.774	2315.94
502.143	2348.03
502.512	2371.31
502.88	2409.05
503.249	2377.18
503.618	2375.15
503.987	2388.03
504.356	2451.31
504.724	2437.52
505.093	2450.85
505.462	2445.2
505.83	2503.51
506.199	2521.81
506.567	2549.38
506.936	2471.42
507.304	2522.26
507.672	2548.7
508.041	2567.01
508.409	2609.04
508.777	2600
509.145	2620.79
509.514	2634.35
509.882	2620.57
510.25	2648.81
510.618	2678.19
510.986	2656.05
511.354	2715.93
511.722	2752.54
512.09	2758.42
512.458	2749.15
512.826	2782.14
513.193	2806.1
513.561	2804.52
513.929	2821.01
514.297	2853.55
514.664	2882.25
515.032	2870.28
515.4	2896.04
515.767	2917.96
516.135	2935.13
516.502	2926.32
516.869	2959.99
517.237	2996.38
517.604	2996.83
517.972	3001.57
518.339	3036.6
518.706	3023.04
519.073	3063.49
519.44	3083.38
519.808	3087.45
520.175	3113.66
520.542	3131.29
520.909	3144.39
521.276	3176.03
521.643	3177.84
522.009	3198.4
522.376	3254.45
522.743	3263.04
523.11	3302.81
523.477	3356.14
523.843	3310.94
524.21	3359.08
524.577	3385.97
524.943	3413.54
525.31	3436.36
525.676	3399.98
526.043	3479.08
526.409	3500.77
526.776	3525.18
527.142	3504.39
527.508	3523.14
527.874	3572.86
528.241	3593.42
528.607	3580.32
528.973	3608.34
529.339	3643.59
529.705	3632.29
530.071	3665.51
530.437	3692.18
530.803	3689.92
531.169	3749.35
531.535	3752.06
531.901	3740.76
532.267	3801.1
532.632	3796.35
532.998	3800.42
533.364	3759.75
533.73	3860.99
534.095	3858.27
534.461	3877.93
534.826	3903.47
535.192	3953.19
535.557	3916.8
535.923	3905.5
536.288	3947.31
536.653	3929.91
537.019	3948.44
537.384	3969.01
537.749	4001.55
538.114	4007.2
538.479	4054.65
538.845	4026.18
539.21	4013.07
539.575	4056.01
539.94	4017.59
540.305	4096.69
540.67	4063.01
541.034	4166.51
541.399	4166.29
541.764	4117.7
542.129	4141.66
542.494	4130.13
542.858	4176.46
543.223	4182.79
543.587	4205.84
543.952	4223.69
544.316	4255.55
544.681	4249.22
545.045	4287.64
545.41	4294.42
545.774	4280.64
546.138	4257.36
546.503	4320.41
546.867	4336.23
547.231	4326.06
547.595	4357.7
547.959	4391.14
548.324	4365.83
548.688	4389.56
549.052	4459.61
549.416	4406.51
549.779	4404.25
550.143	4437.24
550.507	4442.67
550.871	4487.86
551.235	4475.21
551.599	4507.07
551.962	4511.59
552.326	4551.59
552.689	4506.84
553.053	4544.13
553.417	4541.65
553.78	4655.77
554.143	4568.31
554.507	4582.1
554.87	4670
555.234	4721.53
555.597	4711.81
555.96	4715.88
556.323	4707.97
556.686	4713.62
557.05	4766.05
557.413	4792.94
557.776	4781.41
558.139	4805.37
558.502	4819.6
558.865	4853.5
559.228	4881.07
559.59	4896.21
559.953	4896.21
560.316	4958.81
560.679	4932.82
561.041	4974.18
561.404	5010.33
561.767	5047.17
562.129	5028.19
562.492	5020.05
562.854	5030.45
563.217	5088.07
563.579	5095.3
563.941	5142.99
564.304	5178.01
564.666	5215.53
565.028	5209.2
565.39	5205.13
565.753	5210.56
566.115	5289.2
566.477	5253.49
566.839	5269.08
567.201	5302.08
567.563	5291.23
567.925	5358.57
568.287	5415.3
568.648	5367.39
569.01	5393.83
569.372	5424.79
569.734	5409.42
570.095	5466.14
570.457	5517.21
570.819	5482.19
571.18	5505.01
571.542	5528.06
571.903	5562.64
572.265	5571.68
572.626	5590.21
572.987	5622.52
573.349	5621.39
573.71	5667.04
574.071	5656.19
574.432	5657.1
574.794	5710.65
575.155	5692.58
575.516	5714.72
575.877	5764.21
576.238	5678.57
576.599	5743.65
576.96	5727.6
577.32	5764.21
577.681	5702.29
578.042	5793.59
578.403	5758.56
578.763	5758.34
579.124	5779.13
579.485	5775.06
579.845	5801.73
580.206	5850.31
580.566	5826.81
580.927	5805.12
581.287	5865.45
581.648	5837.88
582.008	5860.71
582.368	5858.67
582.728	5893.25
583.089	5873.81
583.449	5905.45
583.809	5866.58
584.169	5854.15
584.529	5864.55
584.889	5835.62
585.249	5905
585.609	5832.69
585.969	5896.19
586.329	5890.54
586.688	5894.38
587.048	5897.09
587.408	5821.39
587.768	5846.92
588.127	5859.35
588.487	5829.52
588.846	5906.36
589.206	5885.11
589.565	5881.5
589.925	5890.31
590.284	5825.23
590.643	5904.55
591.003	5853.7
591.362	5915.4
591.721	5886.7
592.08	5887.83
592.44	5865.23
592.799	5878.79
593.158	5854.38
593.517	5886.92
593.876	5936.41
594.235	5818.45
594.593	5881.05
594.952	5865.91
595.311	5863.19
595.67	5903.87
596.029	5913.59
596.387	5898.45
596.746	5947.03
597.104	5898.9
597.463	5894.38
597.822	5947.94
598.18	5904.1
598.538	5943.19
598.897	5958.11
599.255	5906.81
599.613	5921.72
599.972	5891.44
600.33	5987.03
600.688	5865.68
601.046	5943.19
601.404	5954.04
601.762	5943.42
602.12	5970.99
602.478	5921.5
602.836	5939.58
603.194	5924.66
603.552	5957.43
603.91	5906.81
604.268	5900.25
604.625	5961.04
604.983	5936.19
605.341	5920.59
605.698	5980.7
606.056	5922.17
606.413	5941.38
606.771	6016.18
607.128	6025.45
607.485	5987.26
607.843	5940.71
608.2	6000.36
608.557	6012.34
608.914	5969.18
609.272	6047.14
609.629	6053.47
609.986	6074.04
610.343	5968.95
610.7	6042.85
611.057	6030.19
611.414	6048.73
611.771	6036.52
612.127	6069.29
612.484	6067.93
612.841	6034.04
613.198	6071.55
613.554	6049.63
613.911	6081.04
614.267	6090.08
614.624	6070.87
614.98	6089.4
615.337	6102.06
615.693	6088.72
616.05	6079.01
616.406	6116.52
616.762	6048.5
617.118	6056.41
617.475	6047.6
617.831	6088.27
618.187	6092.34
618.543	6117.88
618.899	6114.94
619.255	6097.09
619.611	6090.98
619.967	6065.45
620.323	6137.31
620.678	6103.86
621.034	6080.59
621.39	6064.09
621.746	6084.66
622.101	6130.76
622.457	6070.65
622.812	6042.4
623.168	6083.98
623.523	6110.64
623.879	6065.22
624.234	6064.77
624.589	6056.63
624.945	6108.61
625.3	6065.9
625.655	6059.35
626.01	6066.35
626.365	6051.44
626.72	6058.89
627.075	6069.06
627.43	6028.84
627.785	6044.21
628.14	6025.9
628.495	6043.3
628.85	6027.93
629.205	6039.91
629.559	6014.38
629.914	6015.96
630.269	6043.3
630.623	6003.53
630.978	5996.3
631.332	6042.85
631.687	6007.6
632.041	5924.89
632.396	6042.85
632.75	5910.2
633.104	5963.76
633.459	5957.65
633.813	5919.46
634.167	5928.73
634.521	5980.7
634.875	5888.5
635.229	5953.59
635.583	5933.93
635.937	5889.18
636.291	5827.04
636.645	5930.08
636.999	5857.32
637.352	5870.42
637.706	5797.43
638.06	5882.4
638.413	5844.21
638.767	5789.75
639.121	5818.45
639.474	5783.2
639.828	5773.7
640.181	5789.52
640.534	5788.39
640.888	5782.74
641.241	5748.17
641.594	5742.29
641.947	5763.08
642.301	5710.43
642.654	5705.23
643.007	5770.54
643.36	5712.91
643.713	5730.99
644.066	5747.49
644.419	5652.8
644.771	5564.67
645.124	5510.21
645.477	5499.14
645.83	5499.59
646.182	5479.02
646.535	5507.5
646.888	5504.56
647.24	5474.95
647.593	5471.11
647.945	5543.2
648.298	5505.01
648.65	5498.01
649.002	5476.08
649.355	5487.61
649.707	5453.49
650.059	5416.88
650.411	5486.25
650.763	5541.62
651.115	5547.95
651.467	5477.21
651.819	5524.22
652.171	5535.97
652.523	5495.29
652.875	5501.62
653.227	5498.01
653.578	5490.32
653.93	5502.07
654.282	5463.88
654.633	5466.82
654.985	5486.25
655.337	5434.05
655.688	5484.67
656.039	5463.43
656.391	5407.39
656.742	5415.07
657.094	5432.24
657.445	5467.95
657.796	5391.79
658.147	5418.91
658.498	5399.48
658.849	5369.19
659.2	5460.49
659.551	5354.96
659.902	5435.41
660.253	5424.79
660.604	5357.44
660.955	5378.23
661.306	5385.01
661.656	5340.27
662.007	5391.57
662.358	5333.94
662.708	5371.45
663.059	5319.03
663.409	5321.96
663.76	5368.07
664.11	5356.99
664.461	5370.1
664.811	5351.57
665.161	5345.69
665.511	5345.47
665.862	5288.07
666.212	5375.75
666.562	5325.35
666.912	5290.1
667.262	5306.6
667.612	5304.79
667.962	5239.48
668.312	5275.41
668.662	5258.69
669.011	5289.65
669.361	5247.62
669.711	5280.84
670.06	5258.01
670.41	5278.35
670.76	5258.69
671.109	5245.58
671.459	5251.91
671.808	5253.94
672.157	5267.73
672.507	5146.15
672.856	5198.8
673.205	5224.34
673.554	5252.81
673.904	5199.93
674.253	5232.02
674.602	5217.56
674.951	5126.49
675.3	5105.02
675.649	5154.96
675.998	5185.25
676.346	5153.16
676.695	5157.68
677.044	5133.49
677.393	5206.94
677.741	5144.12
678.09	5140.5
678.438	5136.43
678.787	5096.43
679.135	5109.09
679.484	5120.84
679.832	5122.87
680.181	5094.4
680.529	5113.38
680.877	5065.47
681.225	5072.25
681.573	5114.96
681.922	5060.05
682.27	5078.58
682.618	5060.28
682.966	5042.42
683.314	5062.54
683.661	5053.72
684.009	5027.74
684.357	4976.44
684.705	4991.58
685.053	5016.66
685.4	5031.12
685.748	4951.8
686.095	4976.44
686.443	4929.21
686.79	4925.59
687.138	4967.62
687.485	4965.36
687.832	4915.2
688.18	4914.74
688.527	4912.26
688.874	4944.8
689.221	4910.22
689.568	4872.94
689.915	4878.36
690.262	4823.22
690.609	4862.99
690.956	4856.44
691.303	4785.03
691.65	4720.85
691.997	4787.74
692.344	4744.8
692.69	4735.77
693.037	4729.21
693.383	4737.35
693.73	4678.59
694.077	4725.82
694.423	4730.57
694.769	4685.6
695.116	4684.47
695.462	4643.34
695.808	4650.57
696.155	4654.86
696.501	4621.87
696.847	4633.85
697.193	4619.38
697.539	4646.95
697.885	4585.26
698.231	4579.61
698.577	4548.65
698.923	4550.46
699.269	4536
699.614	4514.53
699.96	4509.1
700.306	4490.57
700.651	4477.24
700.997	4463.68
701.342	4455.09
701.688	4469.11
702.033	4419.62
702.379	4450.58
702.724	4394.98
703.069	4444.93
703.415	4403.12
703.76	4399.05
704.105	4352.5
704.45	4374.87
704.795	4333.97
705.14	4334.42
705.485	4298.26
705.83	4324.7
706.175	4301.88
706.52	4246.51
706.865	4280.18
707.209	4327.64
707.554	4327.19
707.899	4287.42
708.243	4253.07
708.588	4234.54
708.932	4225.04
709.277	4235.21
709.621	4215.1
709.966	4222.11
710.31	4158.38
710.654	4156.57
710.998	4180.07
711.342	4178.27
711.687	4154.54
712.031	4161.32
712.375	4155.22
712.719	4138.49
713.063	4110.7
713.407	4138.27
713.75	4088.32
714.094	4119.28
714.438	4065.05
714.782	4095.56
715.125	4056.91
715.469	4081.09
715.812	4044.03
716.156	4003.81
716.499	4048.1
716.843	4000.87
717.186	3992.96
717.53	4032.96
717.873	4034.09
718.216	4030.25
718.559	4060.75
718.902	3957.25
719.246	4006.74
719.589	3997.71
719.932	3968.55
720.275	3922.23
720.617	3934.2
720.96	3940.31
721.303	3915.22
721.646	3934.2
721.989	3924.26
722.331	3916.58
722.674	3918.84
723.016	3924.49
723.359	3907.09
723.701	3882.91
724.044	3844.72
724.386	3877.03
724.729	3841.55
725.071	3868.44
725.413	3858.05
725.755	3863.92
726.097	3834.55
726.439	3818.05
726.782	3830.7
727.124	3895.11
727.465	3782.8
727.807	3810.37
728.149	3827.31
728.491	3744.6
728.833	3826.86
729.175	3819.86
729.516	3749.58
729.858	3782.34
730.199	3776.47
730.541	3785.73
730.882	3773.3
731.224	3757.71
731.565	3755
731.906	3748.67
732.248	3776.69
732.589	3727.43
732.93	3700.99
733.271	3712.97
733.612	3743.02
733.953	3709.8
734.294	3732.85
734.635	3673.42
734.976	3675.68
735.317	3673.87
735.658	3674.78
735.999	3637.94
736.339	3665.51
736.68	3643.36
737.021	3675.23
737.361	3668.22
737.702	3647.21
738.042	3625.51
738.383	3616.47
738.723	3622.12
739.063	3651.73
739.404	3638.84
739.744	3627.77
740.084	3573.08
740.424	3637.49
740.764	3616.02
741.104	3548.9
741.444	3565.63
741.784	3530.6
742.124	3561.78
742.464	3610.82
742.804	3594.1
743.143	3557.72
743.483	3555.23
743.823	3545.74
744.162	3567.89
744.502	3548
744.841	3522.92
745.181	3527.21
745.52	3502.13
745.86	3500.54
746.199	3562.91
746.538	3552.29
746.877	3492.41
747.216	3505.97
747.556	3453.31
747.895	3485.85
748.234	3474.1
748.573	3466.19
748.911	3457.38
749.25	3467.32
749.589	3491.5
749.928	3456.48
750.267	3486.53
750.605	3440.21
750.944	3440.66
751.283	3410.38
751.621	3438.62
751.96	3406.31
752.298	3422.81
752.636	3410.83
752.975	3347.78
753.313	3365.41
753.651	3382.81
753.989	3396.37
754.327	3374.67
754.666	3336.71
755.004	3338.97
755.342	3381.68
755.679	3357.27
756.017	3302.13
756.355	3312.3
756.693	3291.06
757.031	3309.14
757.368	3263.49
757.706	3264.17
758.044	3262.36
758.381	3306.42
758.719	3295.35
759.056	3293.09
759.394	3249.93
759.731	3239.31
760.068	3216.71
760.405	3211.29
760.743	3206.09
761.08	3231.4
761.417	3208.57
761.754	3230.72
762.091	3170.38
762.428	3169.93
762.765	3154.79
763.102	3158.86
763.438	3140.78
763.775	3152.08
764.112	3158.86
764.449	3138.07
764.785	3126.54
765.122	3108.24
765.458	3089.71
765.795	3092.64
766.131	3090.38
766.467	3072.76
766.804	3063.27
767.14	3049.26
767.476	3044.74
767.812	3030.5
768.148	3025.53
768.485	3038.63
768.821	3034.79
769.157	2950.95
769.492	3001.8
769.828	2980.33
770.164	2971.97
770.5	2973.55
770.836	2956.38
771.171	2945.76
771.507	2930.39
771.842	2952.08
772.178	2961.35
772.513	2874.8
772.849	2916.83
773.184	2901.46
773.519	2895.36
773.855	2875.48
774.19	2877.06
774.525	2854.01
774.86	2863.5
775.195	2865.53
775.53	2833.44
775.865	2809.04
776.2	2809.04
776.535	2778.08
776.87	2811.75
777.205	2781.01
777.539	2758.87
777.874	2732.65
778.209	2712.54
778.543	2748.7
778.878	2747.12
779.212	2697.85
779.547	2701.92
779.881	2698.98
780.215	2713.9
780.55	2706.44
780.884	2703.28
781.218	2708.7
781.552	2671.41
781.886	2657.18
782.22	2666.22
782.554	2678.87
782.888	2629.61
783.222	2632.32
783.556	2585.54
783.889	2625.09
784.223	2586.44
784.557	2567.46
784.89	2584.86
785.224	2574.69
785.557	2590.74
785.891	2531.53
786.224	2552.55
786.558	2570.4
786.891	2544.18
787.224	2549.61
787.557	2503.06
787.891	2508.71
788.224	2510.29
788.557	2500.34
788.89	2473.68
789.223	2499.21
789.556	2490.63
789.888	2475.49
790.221	2482.04
790.554	2429.16
790.887	2446.56
791.219	2467.58
791.552	2405.88
791.884	2432.78
792.217	2424.19
792.549	2427.8
792.882	2399.56
793.214	2393.91
793.546	2407.92
793.879	2369.95
794.211	2351.42
794.543	2369.73
794.875	2355.49
795.207	2367.01
795.539	2370.4
795.871	2381.7
796.203	2359.78
796.535	2313.68
796.867	2329.05
797.198	2344.19
797.53	2321.59
797.862	2288.15
798.193	2268.26
798.525	2281.37
798.856	2285.66
799.188	2280.69
799.519	2273.23
799.85	2268.49
800.182	2290.63
800.513	2294.02
800.844	2251.08
801.175	2235.04
801.506	2254.25
801.837	2265.77
802.168	2214.02
802.499	2232.33
802.83	2212.44
803.161	2209.96
803.491	2199.56
803.822	2200.69
804.153	2183.97
804.483	2170.41
804.814	2172.22
805.145	2167.25
805.475	2166.12
805.805	2193.23
806.136	2169.51
806.466	2183.97
806.796	2189.17
807.126	2137.19
807.457	2128.6
807.787	2121.37
808.117	2105.78
808.447	2134.48
808.777	2117.76
809.107	2146.45
809.436	2119.79
809.766	2094.93
810.096	2102.84
810.426	2087.93
810.755	2079.56
811.085	2060.81
811.414	2079.56
811.744	2074.14
812.073	2077.53
812.403	2075.27
812.732	2062.84
813.061	2046.57
813.39	2026.46
813.719	2030.75
814.049	2037.31
814.378	2007.7
814.707	2034.37
815.036	2033.69
815.365	2017.19
815.693	2039.11
816.022	2003.86
816.351	2011.54
816.68	1999.57
817.008	1999.57
817.337	2005.89
817.665	2015.84
817.994	1954.6
818.322	1974.03
818.651	1967.48
818.979	1959.57
819.307	1969.51
819.636	1951.66
819.964	1953.24
820.292	1951.21
820.62	1979.91
820.948	1956.4
821.276	1944.43
821.604	1952.56
821.932	1964.54
822.259	1938.32
822.587	1942.84
822.915	1946.69
823.243	1964.09
823.57	1946.23
823.898	1941.71
824.225	1954.37
824.553	1922.73
824.88	1950.08
825.207	1940.81
825.535	1944.88
825.862	1950.53
826.189	1927.03
826.516	1949.62
826.843	1926.12
827.17	1941.04
827.497	1950.75
827.824	1940.36
828.151	1905.78
828.478	1941.94
828.805	1948.04
829.131	1919.34
829.458	1901.49
829.785	1938.1
830.111	1937.65
830.438	1975.39
830.764	1953.47
831.09	1964.99
831.417	1918.66
831.743	1959.57
832.069	1923.64
832.395	1942.84
832.722	1933.35
833.048	1940.58
833.374	1913.69
833.7	1928.16
834.026	1922.05
834.351	1933.81
834.677	1924.54
835.003	1935.39
835.329	1911.21
835.654	1914.14
835.98	1917.08
836.306	1884.99
836.631	1900.59
836.956	1884.54
837.282	1919.12
837.607	1924.99
837.932	1881.38
838.258	1923.18
838.583	1892.9
838.908	1882.96
839.233	1892.9
839.558	1857.2
839.883	1866.91
840.208	1888.38
840.533	1908.72
840.858	1878.44
841.182	1884.09
841.507	1886.57
841.832	1844.32
842.156	1854.49
842.481	1860.59
842.805	1846.12
843.13	1872.11
843.454	1839.34
843.778	1846.12
844.103	1865.56
844.427	1833.24
844.751	1859.23
845.075	1835.28
845.399	1825.33
845.723	1814.49
846.047	1805.22
846.371	1796.41
846.695	1780.59
847.019	1815.62
847.343	1789.18
847.666	1814.03
847.99	1759.57
848.313	1781.72
848.637	1754.37
848.96	1737.43
849.284	1774.94
849.607	1743.75
849.931	1744.43
850.254	1719.12
850.577	1720.03
850.9	1701.95
851.223	1720.7
851.546	1691.78
851.869	1673.02
852.192	1732.23
852.515	1703.53
852.838	1683.42
853.161	1713.47
853.483	1695.17
853.806	1680.7
854.129	1670.31
854.451	1693.81
854.774	1658.11
855.096	1644.1
855.419	1650.2
855.741	1636.41
856.063	1659.46
856.385	1664.43
856.708	1619.92
857.03	1646.58
857.352	1631.21
857.674	1616.75
857.996	1634.15
858.318	1621.27
858.64	1621.27
858.961	1629.63
859.283	1598.67
859.605	1593.93
859.926	1585.34
860.248	1622.17
860.57	1586.02
860.891	1585.34
861.212	1586.02
861.534	1608.84
861.855	1575.4
862.176	1588.05
862.498	1559.35
862.819	1583.98
863.14	1575.85
863.461	1559.8
863.782	1570.2
864.103	1573.81
864.424	1589.18
864.745	1558.67
865.065	1564.78
865.386	1584.44
865.707	1565.45
866.027	1578.11
866.348	1549.18
866.668	1574.72
866.989	1563.19
867.309	1545.57
867.63	1510.54
867.95	1530.2
868.27	1546.02
868.59	1549.41
868.91	1535.62
869.23	1513.25
869.55	1523.19
869.87	1496.75
870.19	1494.04
870.51	1522.97
870.83	1484.33
871.15	1514.61
871.469	1494.95
871.789	1557.54
872.109	1503.99
872.428	1496.98
872.748	1491.78
873.067	1493.82
873.386	1522.52
873.706	1511.9
874.025	1482.74
874.344	1499.92
874.663	1505.34
874.982	1510.77
875.301	1503.53
875.62	1489.52
875.939	1497.66
876.258	1485.23
876.577	1498.56
876.896	1498.56
877.214	1504.21
877.533	1455.85
877.852	1462.18
878.17	1437.77
878.489	1483.2
878.807	1452.46
879.125	1468.51
879.444	1449.98
879.762	1450.88
880.08	1442.29
880.398	1454.95
880.716	1433.25
881.034	1466.25
881.352	1451.11
881.67	1464.44
881.988	1430.77
882.306	1459.24
882.624	1433.48
882.941	1438.45
883.259	1429.64
883.577	1436.64
883.894	1414.04
884.212	1446.59
884.529	1438.68
884.846	1413.82
885.164	1413.59
885.481	1426.93
885.798	1415.63
886.115	1407.27
886.432	1407.04
886.75	1415.17
887.067	1409.53
887.383	1428.96
887.7	1407.72
888.017	1382.41
888.334	1399.81
888.651	1420.82
888.967	1398
889.284	1376.98
889.6	1384.44
889.917	1381.96
890.233	1388.06
890.55	1363.42
890.866	1357.55
891.182	1362.29
891.498	1376.31
891.815	1366.36
892.131	1355.74
892.447	1345.35
892.763	1348.51
893.079	1328.17
893.395	1351.67
893.71	1321.84
894.026	1327.72
894.342	1321.17
894.657	1303.09
894.973	1326.36
895.289	1309.87
895.604	1312.8
895.92	1300.38
896.235	1301.73
896.55	1313.03
896.865	1309.41
897.181	1314.84
897.496	1322.52
897.811	1300.15
898.126	1279.36
898.441	1287.72
898.756	1283.65
899.071	1282.75
899.386	1287.27
899.7	1274.16
900.015	1276.65
900.33	1281.62
900.644	1267.16
900.959	1252.24
901.273	1243.88
901.588	1243.88
901.902	1228.74
902.216	1235.52
902.531	1256.99
902.845	1256.99
903.159	1245.01
903.473	1253.82
903.787	1219.7
904.101	1219.7
904.415	1211.11
904.729	1198.23
905.042	1197.78
905.356	1203.88
905.67	1197.78
905.984	1215.41
906.297	1174.95
906.611	1189.87
906.924	1188.29
907.237	1195.97
907.551	1187.38
907.864	1181.28
908.177	1193.26
908.491	1200.94
908.804	1151.9
909.117	1192.81
909.43	1148.74
909.743	1193.71
910.056	1174.05
910.368	1150.55
910.681	1141.28
910.994	1183.54
911.307	1144.45
911.619	1163.88
911.932	1106.48
912.244	1136.99
912.557	1119.36
912.869	1126.14
913.181	1146.03
913.494	1129.08
913.806	1121.62
914.118	1153.94
914.43	1134.96
914.742	1100.15
915.054	1122.53
915.366	1114.84
915.678	1099.93
915.99	1079.14
916.302	1083.88
916.613	1061.74
916.925	1081.62
917.236	1073.26
917.548	1080.95
917.859	1065.58
918.171	1053.6
918.482	1061.06
918.794	1089.76
919.105	1055.41
919.416	1070.78
919.727	1045.47
920.038	1056.99
920.349	1039.14
920.66	1054.73
920.971	1036.43
921.282	1031.68
921.593	1046.37
921.903	1020.16
922.214	1021.96
922.525	1021.96
922.835	1029.42
923.146	995.75
923.456	1020.16
923.767	999.82
924.077	1028.74
924.387	995.3
924.697	998.01
925.008	1003.43
925.318	996.43
925.628	972.7
925.938	1013.6
926.248	991.68
926.558	965.69
926.867	966.82
927.177	974.28
927.487	972.25
927.796	960.95
928.106	938.8
928.416	984
928.725	978.8
929.034	976.77
929.344	958.46
929.653	953.72
929.962	944
930.271	948.07
930.581	922.98
930.89	967.95
931.199	913.72
931.508	937.67
931.817	943.55
932.125	904.45
932.434	918.69
932.743	911.69
933.051	913.04
933.36	907.17
933.669	891.8
933.977	911.23
934.286	902.19
934.594	884.79
934.902	911.23
935.21	898.8
935.519	898.13
935.827	892.02
936.135	859.26
936.443	863.78
936.751	848.41
937.059	881.18
937.367	880.27
937.674	869.43
937.982	909.2
938.29	888.63
938.597	846.83
938.905	890.44
939.213	871.69
939.52	883.21
939.827	848.18
940.135	842.99
940.442	885.25
940.749	863.1
941.056	863.55
941.363	853.38
941.67	853.61
941.977	844.34
942.284	829.88
942.591	854.74
942.898	843.44
943.205	815.64
943.511	819.48
943.818	837.11
944.125	828.98
944.431	814.51
944.738	807.06
945.044	829.88
945.35	803.44
945.657	832.59
945.963	814.06
946.269	803.21
946.575	825.36
946.881	809.54
947.187	814.06
947.493	790.78
947.799	804.12
948.105	797.79
948.41	790.33
948.716	800.95
949.022	794.85
949.327	809.09
949.633	782.2
949.938	788.75
950.244	795.76
950.549	780.39
950.854	776.55
951.16	778.13
951.465	798.69
951.77	765.93
952.075	778.36
952.38	774.29
952.685	755.98
952.99	749.43
953.294	759.6
953.599	761.86
953.904	744.23
954.209	736.77
954.513	763.67
954.818	731.58
955.122	752.82
955.426	760.05
955.731	755.76
956.035	741.75
956.339	722.76
956.643	731.8
956.948	732.25
957.252	737.45
957.556	740.16
957.86	719.37
958.163	720.05
958.467	732.71
958.771	749.88
959.075	723.44
959.378	738.36
959.682	722.54
959.985	729.99
960.289	718.02
960.592	699.71
960.896	711.92
961.199	714.4
961.502	684.12
961.805	695.19
962.108	689.54
962.411	696.55
962.714	679.83
963.017	694.74
963.32	699.94
963.623	690
963.926	711.92
964.228	693.84
964.531	678.47
964.833	662.2
965.136	688.41
965.438	665.36
965.741	673.95
966.043	667.17
966.345	653.16
966.648	639.6
966.95	672.37
967.252	672.14
967.554	685.48
967.856	690.45
968.158	676.21
968.46	676.44
968.761	649.32
969.063	661.75
969.365	662.88
969.666	658.58
969.968	653.16
970.269	655.87
970.571	641.18
970.872	634.18
971.174	654.06
971.475	648.87
971.776	638.92
972.077	642.99
972.378	648.42
972.679	650.22
972.98	658.81
973.281	638.02
973.582	648.19
973.883	650.22
974.183	616.55
974.484	646.61
974.785	627.17
975.085	616.78
975.386	630.79
975.686	610.45
975.986	606.38
976.287	634.18
976.587	623.11
976.887	634.63
977.187	635.53
977.487	626.27
977.787	605.93
978.087	604.12
978.387	612.94
978.687	623.78
978.987	617.68
979.286	595.08
979.586	614.52
979.885	617.68
980.185	584.01
980.484	605.03
980.784	612.48
981.083	610.68
981.382	595.54
981.682	598.47
981.981	602.77
982.28	593.73
982.579	611.81
982.878	607.06
983.177	596.89
983.475	596.67
983.774	586.5
984.073	581.98
984.372	595.76
984.67	577.68
984.969	573.61
985.267	593.5
985.566	564.35
985.864	574.52
986.162	566.38
986.461	572.94
986.759	582.2
987.057	546.72
987.355	543.79
987.653	546.27
987.951	560.28
988.249	565.71
988.547	571.81
988.844	556.67
989.142	572.26
989.44	559.15
989.737	542.66
990.035	544.24
990.332	543.79
990.63	572.94
990.927	526.38
991.224	542.88
991.521	527.06
991.819	543.56
992.116	549.21
992.413	558.47
992.71	541.3
993.006	531.81
993.303	548.98
993.6	551.47
993.897	562.77
994.193	545.14
994.49	549.43
994.787	518.48
995.083	539.27
995.379	545.37
995.676	557.8
995.972	512.37
996.268	538.14
996.565	537.68
996.861	512.83
997.157	535.42
997.453	523.45
997.749	520.06
998.044	525.25
998.34	517.8
998.636	521.41
998.932	504.46
999.227	503.79
999.523	522.99
999.818	502.88
1000.114	530.23
1000.409	519.83
1000.704	504.92
1001	521.19
1001.295	495.65
1001.59	516.89
1001.885	510.11
1002.18	515.09
1002.475	499.04
1002.77	500.62
1003.065	518.02
1003.359	506.05
1003.654	505.59
1003.949	511.24
1004.243	483.9
1004.538	499.49
1004.832	504.92
1005.127	494.29
1005.421	481.19
1005.715	489.78
1006.009	480.06
1006.304	490.91
1006.598	477.35
1006.892	493.39
1007.186	497.68
1007.48	499.27
1007.773	487.74
1008.067	475.54
1008.361	472.83
1008.655	494.29
1008.948	468.31
1009.242	470.34
1009.535	464.24
1009.829	479.61
1010.122	489.78
1010.415	467.18
1010.708	483
1011.001	469.21
1011.295	485.71
1011.588	492.94
1011.881	462.43
1012.173	461.53
1012.466	471.02
1012.759	478.25
1013.052	446.16
1013.344	458.82
1013.637	444.58
1013.93	470.11
1014.222	467.85
1014.514	471.24
1014.807	448.87
1015.099	464.69
1015.391	465.37
1015.683	434.41
1015.976	462.88
1016.268	466.73
1016.56	462.21
1016.851	450.68
1017.143	447.52
1017.435	450.68
1017.727	436.44
1018.018	449.1
1018.31	447.74
1018.602	446.61
1018.893	435.77
1019.185	435.99
1019.476	451.81
1019.767	435.54
1020.058	459.27
1020.35	418.82
1020.641	423.34
1020.932	452.71
1021.223	440.51
1021.514	416.56
1021.804	433.73
1022.095	426.05
1022.386	408.42
1022.677	428.31
1022.967	422.66
1023.258	431.92
1023.548	420.85
1023.839	425.37
1024.129	414.07
1024.419	432.15
1024.709	400.96
1025	429.89
1025.29	406.39
1025.58	418.36
1025.87	414.52
1026.16	422.66
1026.449	410.46
1026.739	402.09
1027.029	404.35
1027.319	407.29
1027.608	437.8
1027.898	397.57
1028.187	412.04
1028.477	407.07
1028.766	382.66
1029.055	392.15
1029.344	411.81
1029.634	411.13
1029.923	378.37
1030.212	408.87
1030.501	391.92
1030.79	383.11
1031.078	383.11
1031.367	413.39
1031.656	406.16
1031.945	400.06
1032.233	394.41
1032.522	377.69
1032.81	404.58
1033.099	395.09
1033.387	413.62
1033.675	393.05
1033.963	399.38
1034.251	388.53
1034.54	407.74
1034.828	394.41
1035.116	398.48
1035.403	380.85
1035.691	396.44
1035.979	386.28
1036.267	388.76
1036.554	381.08
1036.842	403.22
1037.129	393.28
1037.417	384.02
1037.704	364.35
1037.992	365.94
1038.279	384.24
1038.566	370.46
1038.853	370.46
1039.14	370.46
