Data from foam1_polythene_foam_FLMS001491_00037.txt Node
Date: Wed Feb 08 10:54:45 GMT 2017
User: dcchb
Spectrometer: FLMS00149
Trigger mode: 0
Integration Time (sec): 2.000000E-2
Scans to average: 10
Electric dark correction enabled: true
Nonlinearity correction enabled: false
Boxcar width: 0
XAxis mode: Wavelengths
Number of Pixels in Spectrum: 2048
>>>>>Begin Spectral Data<<<<<
341.393	-24.41
341.776	-24.41
342.16	-24.41
342.543	-49.04
342.927	-65.99
343.31	-56.04
343.693	-73.22
344.077	-50.39
344.46	-53.78
344.843	-70.73
345.226	-40.22
345.61	-36.61
345.993	-23.95
346.376	7.23
346.759	17.63
347.142	22.82
347.525	39.77
347.908	51.3
348.291	67.34
348.674	80.68
349.057	118.19
349.44	113.22
349.823	160.9
350.206	173.1
350.588	163.16
350.971	199.99
351.354	211.29
351.737	222.14
352.119	252.87
352.502	249.71
352.884	245.87
353.267	274.57
353.65	267.79
354.032	291.97
354.414	288.58
354.797	294.23
355.179	321.35
355.562	296.72
355.944	303.27
356.326	324.29
356.709	304.85
357.091	303.04
357.473	336.71
357.855	322.93
358.238	306.66
358.62	309.37
359.002	341.91
359.384	320.22
359.766	319.77
360.148	325.19
360.53	329.03
360.912	325.42
361.294	322.48
361.676	320.44
362.057	324.51
362.439	301.91
362.821	323.16
363.203	296.26
363.584	329.48
363.966	292.87
364.348	314.12
364.729	292.2
365.111	303.27
365.493	288.58
365.874	299.88
366.256	298.75
366.637	285.19
367.019	309.37
367.4	292.42
367.781	304.62
368.163	281.12
368.544	296.94
368.925	294.46
369.306	297.17
369.688	305.98
370.069	305.53
370.45	282.48
370.831	301.24
371.212	315.47
371.593	297.62
371.974	308.24
372.355	272.99
372.736	290.84
373.117	301.69
373.498	292.87
373.879	293.55
374.26	316.38
374.641	303.72
375.021	298.98
375.402	305.08
375.783	291.07
376.163	328.58
376.544	299.43
376.925	296.94
377.305	312.99
377.686	295.36
378.066	295.13
378.447	323.38
378.827	327.45
379.208	323.83
379.588	325.42
379.968	317.05
380.349	316.6
380.729	313.21
381.109	305.53
381.489	305.3
381.87	312.31
382.25	311.86
382.63	316.15
383.01	320.9
383.39	307.79
383.77	326.32
384.15	295.59
384.53	309.37
384.91	328.8
385.29	319.09
385.67	311.63
386.049	335.36
386.429	302.36
386.809	320.9
387.189	342.14
387.568	331.97
387.948	333.78
388.328	338.52
388.707	309.6
389.087	327.22
389.466	330.16
389.846	360.67
390.225	335.81
390.605	332.19
390.984	338.07
391.363	341.23
391.743	336.71
392.122	336.49
392.501	340.78
392.881	353.66
393.26	349.6
393.639	345.75
394.018	336.26
394.397	365.41
394.776	341.69
395.155	359.09
395.534	353.44
395.913	348.24
396.292	347.79
396.671	353.44
397.05	363.61
397.429	351.86
397.808	374.45
398.186	362.02
398.565	359.76
398.944	378.07
399.323	381.01
399.701	370.61
400.08	365.19
400.458	360.89
400.837	372.42
401.215	379.88
401.594	375.58
401.972	354.34
402.351	391.63
402.729	381.01
403.107	386.88
403.486	369.48
403.864	363.15
404.242	385.75
404.62	396.37
404.999	387.79
405.377	389.59
405.755	384.62
406.133	382.14
406.511	400.67
406.889	403.38
407.267	385.98
407.645	380.55
408.023	366.54
408.401	387.11
408.779	385.75
409.156	399.09
409.534	377.62
409.912	436.37
410.29	418.97
410.667	407.22
411.045	414
411.422	422.59
411.8	409.03
412.178	430.5
412.555	424.17
412.933	422.81
413.31	428.24
413.687	448.12
414.065	418.97
414.442	411.97
414.819	445.41
415.197	405.64
415.574	443.15
415.951	432.31
416.328	436.37
416.705	432.31
417.082	450.84
417.46	440.21
417.837	463.72
418.214	439.31
418.591	444.73
418.967	465.3
419.344	454.9
419.721	461.46
420.098	446.09
420.475	450.38
420.852	457.16
421.228	450.38
421.605	450.61
421.982	472.3
422.358	468.91
422.735	492.64
423.111	464.17
423.488	456.26
423.864	450.16
424.241	477.28
424.617	485.86
424.994	466.43
425.37	469.59
425.746	485.64
426.123	476.6
426.499	481.12
426.875	503.94
427.251	514.11
427.627	493.32
428.003	517.05
428.379	507.78
428.756	529.7
429.132	497.39
429.507	542.13
429.883	519.08
430.259	529.93
430.635	500.33
431.011	559.99
431.387	531.51
431.763	550.49
432.138	556.82
432.514	540.1
432.89	549.36
433.265	568.57
433.641	572.64
434.016	571.51
434.392	559.31
434.767	566.09
435.143	583.26
435.518	585.75
435.894	586.65
436.269	573.09
436.644	607.89
437.02	583.71
437.395	612.64
437.77	609.7
438.145	609.48
438.52	616.93
438.895	632.53
439.271	641.11
439.646	648.34
440.021	646.76
440.395	640.44
440.77	649.47
441.145	645.18
441.52	636.82
441.895	666.65
442.27	659.42
442.645	658.29
443.019	678.17
443.394	680.66
443.769	689.47
444.143	674.11
444.518	693.99
444.892	676.14
445.267	677.27
445.641	690.83
446.016	706.42
446.39	712.3
446.764	727.89
447.139	711.62
447.513	721.79
447.887	752.3
448.262	736.48
448.636	757.72
449.01	765.86
449.384	757.72
449.758	756.59
450.132	752.07
450.506	780.77
450.88	746.87
451.254	770.83
451.628	804.95
452.002	785.97
452.376	761.56
452.75	806.08
453.123	790.71
453.497	802.24
453.871	826.64
454.244	805.4
454.618	811.5
454.992	826.19
455.365	813.76
455.739	855.57
456.112	849.24
456.486	847.89
456.859	865.29
457.232	856.93
457.606	839.3
457.979	838.62
458.352	857.6
458.725	853.31
459.099	866.64
459.472	874.78
459.845	871.16
460.218	881.11
460.591	883.82
460.964	855.8
461.337	880.65
461.71	909.81
462.083	880.65
462.456	899.19
462.829	904.61
463.201	926.08
463.574	935.79
463.947	914.55
464.32	932.86
464.692	958.39
465.065	953.87
465.438	977.15
465.81	940.54
466.183	958.17
466.555	969.24
466.928	988.45
467.3	987.54
467.672	1007.88
468.045	1004.49
468.417	1011.5
468.789	1010.59
469.161	1026.87
469.534	1018.28
469.906	1052.85
470.278	1053.08
470.65	1040.88
471.022	1051.05
471.394	1099.86
471.766	1058.05
472.138	1061.67
472.51	1118.16
472.882	1109.12
473.253	1132.63
473.625	1146.64
473.997	1166.75
474.369	1146.41
474.74	1145.96
475.112	1159.29
475.484	1185.51
475.855	1177.14
476.227	1207.88
476.598	1230.7
476.97	1253.75
477.341	1254.88
477.713	1289.01
478.084	1289.23
478.455	1298.04
478.827	1333.3
479.198	1349.12
479.569	1335.33
479.94	1364.03
480.311	1384.14
480.682	1398.61
481.053	1429.11
481.424	1436.8
481.795	1464.37
482.166	1475.89
482.537	1475.44
482.908	1511.15
483.279	1519.28
483.65	1548.21
484.021	1519.51
484.391	1575.78
484.762	1595.89
485.133	1577.13
485.503	1620.3
485.874	1624.82
486.244	1653.97
486.615	1696.45
486.985	1684.02
487.356	1689.67
487.726	1734.42
488.097	1757.69
488.467	1757.92
488.837	1784.81
489.207	1826.84
489.578	1847.41
489.948	1832.95
490.318	1865.94
490.688	1876.79
491.058	1868.2
491.428	1926.73
491.798	1938.03
492.168	1963.11
492.538	1971.47
492.908	1964.47
493.278	1992.04
493.648	1997.91
494.017	2021.64
494.387	2034.75
494.757	2039.95
495.126	2074.07
495.496	2091.24
495.866	2088.08
496.235	2096.67
496.605	2123.79
496.974	2143.45
497.344	2181.19
497.713	2176.21
498.082	2190
498.452	2218.47
498.821	2211.92
499.19	2259.38
499.559	2245.59
499.928	2294.4
500.298	2281.52
500.667	2275.65
501.036	2284.91
501.405	2339.83
501.774	2309.32
502.143	2362.65
502.512	2373.04
502.88	2376.43
503.249	2370.11
503.618	2417.56
503.987	2379.82
504.356	2418.47
504.724	2420.73
505.093	2466.15
505.462	2477.22
505.83	2503.89
506.199	2538.24
506.567	2536.2
506.936	2527.84
507.304	2549.76
507.672	2565.36
508.041	2563.77
508.409	2583.89
508.777	2592.7
509.145	2632.7
509.514	2636.77
509.882	2633.38
510.25	2662.08
510.618	2680.83
510.986	2709.31
511.354	2698.91
511.722	2707.95
512.09	2751.34
512.458	2766.93
512.826	2783.2
513.193	2780.49
513.561	2796.76
513.929	2819.36
514.297	2842.19
514.664	2886.03
515.032	2837.89
515.4	2902.3
515.767	2933.03
516.135	2933.48
516.502	2927.61
516.869	2963.31
517.237	2989.98
517.604	2989.3
517.972	3008.73
518.339	3011.9
518.706	3018.9
519.073	3048.51
519.44	3096.19
519.808	3119.47
520.175	3116.3
520.542	3160.37
520.909	3161.27
521.276	3148.17
521.643	3224.77
522.009	3199.01
522.376	3221.84
522.743	3240.82
523.11	3298.9
523.477	3306.58
523.843	3355.84
524.21	3366.47
524.577	3404.66
524.943	3370.76
525.31	3404.2
525.676	3464.99
526.043	3446.92
526.409	3449.63
526.776	3517.87
527.142	3540.25
527.508	3549.06
527.874	3556.29
528.241	3588.61
528.607	3632.9
528.973	3637.64
529.339	3594.26
529.705	3667.93
530.071	3656.63
530.437	3669.06
530.803	3695.04
531.169	3738.21
531.535	3723.97
531.901	3761.93
532.267	3770.07
532.632	3799.67
532.998	3798.77
533.364	3806.23
533.73	3865.44
534.095	3874.93
534.461	3884.42
534.826	3925.77
535.192	3903.4
535.557	3963.29
535.923	3935.26
536.288	3917.19
536.653	3946.34
537.019	3948.82
537.384	4006.45
537.749	4035.37
538.114	4013.91
538.479	4009.61
538.845	4051.42
539.21	4037.18
539.575	4048.48
539.94	4089.84
540.305	4070.18
540.67	4078.31
541.034	4054.81
541.399	4129.61
541.764	4110.85
542.129	4122.15
542.494	4143.17
542.858	4188.14
543.223	4230.4
543.587	4236.95
543.952	4177.52
544.316	4210.74
544.681	4238.76
545.045	4227.23
545.41	4278.53
545.774	4247.12
546.138	4302.71
546.503	4328.47
546.867	4280.34
547.231	4312.43
547.595	4370.05
547.959	4361.47
548.324	4365.08
548.688	4396.27
549.052	4399.66
549.416	4430.84
549.779	4448.7
550.143	4450.96
550.507	4472.65
550.871	4492.99
551.235	4534.34
551.599	4498.19
551.962	4513.1
552.326	4576.38
552.689	4560.33
553.053	4553.55
553.417	4591.07
553.78	4625.19
554.143	4590.61
554.507	4560.56
554.87	4643.27
555.234	4683.49
555.597	4665.64
555.96	4695.7
556.323	4738.18
556.686	4761
557.05	4807.33
557.413	4807.33
557.776	4773.21
558.139	4816.37
558.502	4768.91
558.865	4821.57
559.228	4842.13
559.59	4839.87
559.953	4899.98
560.316	4947.21
560.679	4974.56
561.041	5016.59
561.404	5006.2
561.767	4995.35
562.129	4981.56
562.492	5055.01
562.854	5040.32
563.217	5043.71
563.579	5099.75
563.941	5163.71
564.304	5145.63
564.666	5161.9
565.028	5210.71
565.39	5200.77
565.753	5235.57
566.115	5244.61
566.477	5326.41
566.839	5299.75
567.201	5279.86
567.563	5308.79
567.925	5384.49
568.287	5343.81
568.648	5365.73
569.01	5389.69
569.372	5439.18
569.734	5443.47
570.095	5496.13
570.457	5517.14
570.819	5523.7
571.18	5525.96
571.542	5508.1
571.903	5563.24
572.265	5582.9
572.626	5579.74
572.987	5600.3
573.349	5574.54
573.71	5598.5
574.071	5685.73
574.432	5731.37
574.794	5749.91
575.155	5688.44
575.516	5665.39
575.877	5722.11
576.238	5742.45
576.599	5762.11
576.96	5757.36
577.32	5763.92
577.681	5719.17
578.042	5821.09
578.403	5786.74
578.763	5785.84
579.124	5826.74
579.485	5791.94
579.845	5857.25
580.206	5811.37
580.566	5841.88
580.927	5829.45
581.287	5850.02
581.648	5845.5
582.008	5901.77
582.368	5844.37
582.728	5838.94
583.089	5823.58
583.449	5892.73
583.809	5837.81
584.169	5861.31
584.529	5856.57
584.889	5907.19
585.249	5849.11
585.609	5839.85
585.969	5880.07
586.329	5841.43
586.688	5868.09
587.048	5899.73
587.408	5891.14
587.768	5891.37
588.127	5905.83
588.487	5914.65
588.846	5859.51
589.206	5845.95
589.565	5883.24
589.925	5909.9
590.284	5943.57
590.643	5877.13
591.003	5897.7
591.362	5916.23
591.721	5914.65
592.08	5897.47
592.44	5876.91
592.799	5905.61
593.158	5939.28
593.517	5874.65
593.876	5858.83
594.235	5860.64
594.593	5887.98
594.952	5889.79
595.311	5875.1
595.67	5896.12
596.029	5900.64
596.387	5919.39
596.746	5920.07
597.104	5897.92
597.463	5915.55
597.822	5899.73
598.18	5885.04
598.538	5924.14
598.897	5952.39
599.255	5896.57
599.613	5967.75
599.972	5920.97
600.33	5974.08
600.688	5928.88
601.046	5958.49
601.404	5957.81
601.762	5952.61
602.12	5978.6
602.478	5979.28
602.836	5938.6
603.194	5905.38
603.552	5938.37
603.91	5919.84
604.268	5997.58
604.625	5931.14
604.983	5937.02
605.341	5934.08
605.698	5987.19
606.056	5979.73
606.413	5940.18
606.771	5969.33
607.128	6013.18
607.485	5945.38
607.843	5926.85
608.2	5965.27
608.557	6007.98
608.914	6001.2
609.272	6022.44
609.629	5991.03
609.986	6033.51
610.343	6035.77
610.7	6014.76
611.057	6034.64
611.414	6047.07
611.771	6016.79
612.127	6029.22
612.484	6004.36
612.841	6078.48
613.198	6027.64
613.554	6035.1
613.911	6048.88
614.267	6088.2
614.624	6057.02
614.98	6060.41
615.337	6082.33
615.693	6013.4
616.05	6059.05
616.406	6100.4
616.762	6055.66
617.118	6024.47
617.475	6075.55
617.831	6059.73
618.187	6089.11
618.543	6074.64
618.899	6108.09
619.255	6092.04
619.611	6104.47
619.967	6122.78
620.323	6144.7
620.678	6059.73
621.034	6134.75
621.39	6080.29
621.746	6083.23
622.101	6105.6
622.457	6107.64
622.812	6103.57
623.168	6057.24
623.523	6098.6
623.879	6082.55
624.234	6069.9
624.589	6082.78
624.945	6096.79
625.3	6076.22
625.655	6124.13
626.01	6122.32
626.365	6083
626.72	6105.15
627.075	6037.58
627.43	6036.9
627.785	6054.76
628.14	6099.05
628.495	6037.81
628.85	6068.77
629.205	6022.21
629.559	6021.54
629.914	6021.76
630.269	6020.86
630.623	5945.15
630.978	5940.18
631.332	5994.42
631.687	6022.21
632.041	5965.49
632.396	5951.48
632.75	5940.41
633.104	5975.89
633.459	5931.37
633.813	5933.18
634.167	5874.65
634.521	5919.84
634.875	5934.53
635.229	5916.23
635.583	5867.64
635.937	5870.58
636.291	5910.35
636.645	5879.62
636.999	5862.44
637.352	5844.82
637.706	5845.27
638.06	5850.69
638.413	5884.14
638.767	5783.58
639.121	5774.99
639.474	5812.95
639.828	5785.61
640.181	5813.18
640.534	5809.56
640.888	5751.71
641.241	5730.24
641.594	5761.66
641.947	5723.24
642.301	5717.14
642.654	5743.13
643.007	5683.01
643.36	5731.15
643.713	5689.12
644.066	5742.67
644.419	5667.87
644.771	5628.78
645.124	5478.27
645.477	5500.42
645.83	5521.66
646.182	5506.75
646.535	5483.02
646.888	5549.01
647.24	5511.49
647.593	5529.12
647.945	5485.73
648.298	5483.47
648.65	5474.66
649.002	5461.78
649.355	5517.14
649.707	5416.35
650.059	5429.91
650.411	5495.9
650.763	5536.13
651.115	5551.49
651.467	5519.18
651.819	5511.27
652.171	5556.01
652.523	5493.87
652.875	5498.61
653.227	5492.96
653.578	5483.25
653.93	5474.66
654.282	5456.35
654.633	5436.92
654.985	5425.62
655.337	5453.42
655.688	5428.11
656.039	5464.26
656.391	5441.89
656.742	5389.69
657.094	5403.93
657.445	5439.86
657.796	5391.72
658.147	5433.98
658.498	5389.24
658.849	5366.19
659.2	5369.12
659.551	5420.42
659.902	5414.55
660.253	5381.1
660.604	5384.72
660.955	5380.42
661.306	5393.08
661.656	5373.42
662.007	5360.76
662.358	5375
662.708	5350.59
663.059	5317.6
663.409	5332.52
663.76	5346.98
664.11	5354.66
664.461	5366.64
664.811	5374.55
665.161	5316.24
665.511	5302.23
665.862	5340.65
666.212	5330.03
666.562	5326.19
666.912	5355.11
667.262	5309.69
667.612	5275.79
667.962	5296.81
668.312	5289.8
668.662	5295.45
669.011	5318.5
669.361	5283.48
669.711	5273.76
670.06	5273.99
670.41	5250.71
670.76	5273.31
671.109	5240.09
671.459	5254.1
671.808	5201.67
672.157	5209.58
672.507	5217.49
672.856	5226.53
673.205	5234.44
673.554	5212.97
673.904	5194.67
674.253	5210.71
674.602	5222.91
674.951	5105.85
675.3	5116.02
675.649	5156.93
675.998	5183.14
676.346	5218.17
676.695	5204.83
677.044	5082.8
677.393	5146.08
677.741	5208.22
678.09	5164.38
678.438	5109.02
678.787	5152.86
679.135	5125.97
679.484	5084.84
679.832	5143.59
680.181	5128.9
680.529	5112.63
680.877	5095.46
681.225	5127.55
681.573	5076.25
681.922	5099.75
682.27	5060.66
682.618	5070.38
682.966	5034.67
683.314	5057.95
683.661	5021.79
684.009	4967.55
684.357	4997.38
684.705	5020.43
685.053	4995.35
685.4	5001.68
685.748	4942.02
686.095	4955.35
686.443	4928.91
686.79	4931.4
687.138	4945.18
687.485	4942.02
687.832	4930.72
688.18	4911.28
688.527	4881.91
688.874	4890.72
689.221	4908.57
689.568	4861.12
689.915	4829.25
690.262	4880.78
690.609	4806.2
690.956	4822.92
691.303	4809.59
691.65	4810.49
691.997	4805.75
692.344	4729.82
692.69	4725.53
693.037	4754
693.383	4742.7
693.73	4747.67
694.077	4681.01
694.423	4739.99
694.769	4699.31
695.116	4708.12
695.462	4677.62
695.808	4672.42
696.155	4681.01
696.501	4587.22
696.847	4611.86
697.193	4572.08
697.539	4628.13
697.885	4555.13
698.231	4562.37
698.577	4558.07
698.923	4532.99
699.269	4532.99
699.614	4484.85
699.96	4459.77
700.306	4509.71
700.651	4474.23
700.997	4488.24
701.342	4430.17
701.688	4429.49
702.033	4461.35
702.379	4426.55
702.724	4412.99
703.069	4421.13
703.415	4366.21
703.76	4389.49
704.105	4363.73
704.45	4342.94
704.795	4321.69
705.14	4343.16
705.485	4295.71
705.83	4281.24
706.175	4342.48
706.52	4306.78
706.865	4309.94
707.209	4286.44
707.554	4264.75
707.899	4258.19
708.243	4244.63
708.588	4288.7
708.932	4222.71
709.277	4219.1
709.621	4250.06
709.966	4206.44
710.31	4176.39
710.654	4181.13
710.998	4146.56
711.342	4191.53
711.687	4150.85
712.031	4133.45
712.375	4122.38
712.719	4130.29
713.063	4121.25
713.407	4176.84
713.75	4127.58
714.094	4073.79
714.438	4100.91
714.782	4104.3
715.125	4074.02
715.469	4034.92
715.812	4059.78
716.156	4014.81
716.499	4083.28
716.843	4062.94
717.186	4031.76
717.53	4015.71
717.873	3962.16
718.216	4036.28
718.559	4026.79
718.902	3970.29
719.246	3947.92
719.589	3968.71
719.932	3931.2
720.275	3973.91
720.617	3889.16
720.96	3897.07
721.303	3941.59
721.646	3931.2
721.989	3940.69
722.331	3915.6
722.674	3869.95
723.016	3886.9
723.359	3889.84
723.701	3900.46
724.044	3871.08
724.386	3844.87
724.729	3850.52
725.071	3826.57
725.413	3846.68
725.755	3833.57
726.097	3809.84
726.439	3846.68
726.782	3791.76
727.124	3819.33
727.465	3805.32
727.807	3843.74
728.149	3801.48
728.491	3783.63
728.833	3793.12
729.175	3815.04
729.516	3790.86
729.858	3762.84
730.199	3764.19
730.541	3763.52
730.882	3735.95
731.224	3742.95
731.565	3751.77
731.906	3737.98
732.248	3706.8
732.589	3720.81
732.93	3695.72
733.271	3719.9
733.612	3704.31
733.953	3740.92
734.294	3686
734.635	3679
734.976	3684.65
735.317	3662.73
735.658	3647.14
735.999	3694.37
736.339	3660.92
736.68	3670.41
737.021	3635.16
737.361	3638.77
737.702	3619.57
738.042	3643.07
738.383	3604.2
738.723	3616.18
739.063	3594.93
739.404	3594.71
739.744	3592.67
740.084	3577.08
740.424	3602.39
740.764	3576.4
741.104	3584.76
741.444	3612.11
741.784	3556.52
742.124	3605.33
742.464	3580.24
742.804	3562.17
743.143	3571.21
743.483	3574.37
743.823	3532.11
744.162	3524.2
744.502	3500.47
744.841	3527.14
745.181	3549.96
745.52	3493.92
745.86	3531.88
746.199	3522.85
746.538	3508.83
746.877	3475.16
747.216	3499.12
747.556	3476.29
747.895	3498.21
748.234	3483.75
748.573	3467.03
748.911	3431.55
749.25	3459.8
749.589	3465.9
749.928	3462.28
750.267	3449.17
750.605	3435.16
750.944	3442.62
751.283	3398.55
751.621	3430.42
751.96	3392.23
752.298	3407.82
752.636	3389.29
752.975	3432
753.313	3380.48
753.651	3375.73
753.989	3365.34
754.327	3391.32
754.666	3333.47
755.004	3394.71
755.342	3327.37
755.679	3353.58
756.017	3314.04
756.355	3339.35
756.693	3358.56
757.031	3348.84
757.368	3274.04
757.706	3294.6
758.044	3288.5
758.381	3256.64
758.719	3271.33
759.056	3266.13
759.394	3258.9
759.731	3272
760.068	3261.84
760.405	3256.86
760.743	3252.57
761.08	3221.16
761.417	3231.33
761.754	3235.17
762.091	3214.6
762.428	3155.17
762.765	3149.52
763.102	3137.32
763.438	3156.3
763.775	3115.62
764.112	3109.52
764.449	3124.44
764.785	3119.69
765.122	3061.84
765.458	3121.05
765.795	3134.61
766.131	3065.46
766.467	3105.23
766.804	3082.86
767.14	3027.94
767.476	3061.39
767.812	3027.49
768.148	3011.45
768.485	3001.05
768.821	3059.13
769.157	3021.62
769.492	2992.69
769.828	2953.37
770.164	2936.65
770.5	2941.39
770.836	2961.05
771.171	2938.23
771.507	2944.33
771.842	2908.17
772.178	2913.82
772.513	2919.02
772.849	2907.72
773.184	2874.05
773.519	2876.31
773.855	2880.83
774.19	2856.65
774.525	2872.69
774.86	2860.49
775.195	2867.04
775.53	2826.82
775.865	2825.91
776.2	2817.1
776.535	2768.97
776.87	2777.55
777.205	2760.61
777.539	2749.31
777.874	2834.95
778.209	2742.07
778.543	2744.11
778.878	2698.91
779.212	2728.52
779.547	2712.25
779.881	2697.33
780.215	2705.47
780.55	2689.65
780.884	2674.51
781.218	2692.13
781.552	2690.32
781.886	2675.64
782.22	2672.47
782.554	2615.07
782.888	2619.82
783.222	2597.22
783.556	2625.69
783.889	2607.84
784.223	2603.32
784.557	2599.71
784.89	2589.08
785.224	2571.68
785.557	2558.58
785.891	2554.74
786.224	2539.59
786.558	2541.4
786.891	2509.99
787.224	2516.32
787.557	2525.13
787.891	2544.57
788.224	2543.89
788.557	2511.35
788.89	2505.02
789.223	2480.61
789.556	2492.82
789.888	2439.03
790.221	2458.92
790.554	2437.22
790.887	2446.26
791.219	2424.12
791.552	2430.44
791.884	2443.55
792.217	2401.07
792.549	2422.99
792.882	2399.94
793.214	2353.38
793.546	2397.23
793.879	2387.73
794.211	2376.89
794.543	2389.32
794.875	2351.12
795.207	2356.32
795.539	2342.99
795.871	2367.62
796.203	2346.83
796.535	2317.23
796.867	2308.19
797.198	2292.82
797.53	2309.09
797.862	2295.08
798.193	2325.81
798.525	2271.58
798.856	2289.21
799.188	2290.11
799.519	2296.44
799.85	2241.52
800.182	2240.17
800.513	2243.78
800.844	2216.44
801.175	2244.46
801.506	2273.84
801.837	2245.14
802.168	2215.53
802.499	2249.66
802.83	2232.03
803.161	2192.26
803.491	2163.11
803.822	2223.22
804.153	2217.57
804.483	2202.2
804.814	2175.76
805.145	2147.74
805.475	2190.22
805.805	2170.79
806.136	2183.45
806.466	2141.86
806.796	2163.11
807.126	2130.34
807.457	2114.52
807.787	2164.24
808.117	2139.38
808.447	2114.07
808.777	2121.75
809.107	2072.49
809.436	2106.61
809.766	2080.62
810.096	2099.83
810.426	2074.75
810.755	2078.82
811.085	2069.78
811.414	2088.98
811.744	2072.49
812.073	2095.76
812.403	2079.27
812.732	2079.27
813.061	2061.87
813.39	2043.79
813.719	2034.3
814.049	2063.67
814.378	2040.85
814.707	2031.36
815.036	2036.33
815.365	2022.55
815.693	1993.17
816.022	2036.1
816.351	1993.17
816.68	1991.59
817.008	2013.96
817.337	1978.93
817.665	1998.37
817.994	1983.68
818.322	1978.48
818.651	1983.45
818.979	1984.13
819.307	1942.32
819.636	1950.01
819.964	1972.83
820.292	1968.76
820.62	1959.04
820.948	1943.68
821.276	1955.2
821.604	1927.41
821.932	1940.51
822.259	1949.1
822.587	1953.62
822.915	1942.77
823.243	1952.27
823.57	1943.45
823.898	1929.21
824.225	1942.55
824.553	1926.5
824.88	1933.51
825.207	1960.17
825.535	1928.54
825.862	1951.14
826.189	1944.81
826.516	1934.86
826.843	1941.19
827.17	1906.39
827.497	1955.88
827.824	1946.62
828.151	1935.54
828.478	1930.8
828.805	1954.3
829.131	1954.75
829.458	1934.64
829.785	1918.59
830.111	1925.37
830.438	1931.25
830.764	1924.24
831.09	1909.1
831.417	1954.98
831.743	1933.28
832.069	1935.99
832.395	1922.21
832.722	1939.16
833.048	1910.46
833.374	1907.75
833.7	1893.74
834.026	1938.48
834.351	1924.92
834.677	1934.64
835.003	1914.98
835.329	1928.76
835.654	1944.13
835.98	1902.32
836.306	1926.5
836.631	1930.57
836.956	1916.79
837.282	1910.01
837.607	1905.71
837.932	1893.96
838.258	1881.53
838.583	1876.79
838.908	1896
839.233	1883.11
839.558	1875.88
839.883	1877.01
840.208	1896.67
840.533	1872.95
840.858	1904.81
841.182	1847.64
841.507	1863.91
841.832	1877.24
842.156	1871.14
842.481	1886.28
842.805	1854.41
843.13	1835.88
843.454	1837.24
843.778	1849.89
844.103	1858.48
844.427	1855.54
844.751	1844.92
845.075	1813.06
845.399	1839.95
845.723	1842.21
846.047	1813.06
846.371	1796.79
846.695	1833.17
847.019	1786.62
847.343	1801.53
847.666	1763.34
847.99	1777.81
848.313	1780.97
848.637	1753.63
848.96	1778.48
849.284	1764.93
849.607	1744.81
849.931	1726.28
850.254	1740.07
850.577	1712.72
850.9	1718.82
851.223	1701.2
851.546	1702.33
851.869	1714.31
852.192	1696.45
852.515	1685.61
852.838	1706.17
853.161	1695.77
853.483	1704.59
853.806	1693.06
854.129	1662.56
854.451	1691.48
854.774	1695.1
855.096	1656.68
855.419	1659.84
855.741	1667.53
856.063	1655.78
856.385	1660.75
856.708	1646.28
857.03	1631.37
857.352	1640.63
857.674	1642.89
857.996	1637.7
858.318	1654.65
858.64	1623.46
858.961	1636.57
859.283	1605.61
859.605	1635.21
859.926	1612.61
860.248	1595.21
860.57	1554.31
860.891	1592.73
861.212	1573.97
861.534	1582.78
861.855	1586.62
862.176	1553.86
862.498	1559.28
862.819	1581.88
863.14	1569.22
863.461	1595.44
863.782	1582.78
864.103	1562.9
864.424	1573.52
864.745	1591.6
865.065	1568.32
865.386	1571.94
865.707	1579.62
866.027	1566.29
866.348	1553.18
866.668	1564.7
866.989	1518.6
867.309	1524.93
867.63	1529
867.95	1543.01
868.27	1528.55
868.59	1538.94
868.91	1534.65
869.23	1524.71
869.55	1533.97
869.87	1504.82
870.19	1491.49
870.51	1514.08
870.83	1541.65
871.15	1505.5
871.469	1530.58
871.789	1504.37
872.109	1514.54
872.428	1496.68
872.748	1532.39
873.067	1494.88
873.386	1483.12
873.706	1510.47
874.025	1501.2
874.344	1461.88
874.663	1514.08
874.982	1505.95
875.301	1497.81
875.62	1503.24
875.939	1508.43
876.258	1499.4
876.577	1477.02
876.896	1464.37
877.214	1467.76
877.533	1469.34
877.852	1441.09
878.17	1480.19
878.489	1506.63
878.807	1476.8
879.125	1478.83
879.444	1453.07
879.762	1438.61
880.08	1427.99
880.398	1453.97
880.716	1452.84
881.034	1452.62
881.352	1447.65
881.67	1449
881.988	1442.9
882.306	1433.86
882.624	1444.03
882.941	1458.72
883.259	1440.19
883.577	1451.71
883.894	1441.09
884.212	1423.69
884.529	1432.28
884.846	1422.56
885.164	1417.59
885.481	1436.12
885.798	1408.78
886.115	1393.86
886.432	1415.78
886.75	1423.01
887.067	1416.69
887.383	1410.13
887.7	1399.96
888.017	1397.7
888.334	1377.59
888.651	1378.27
888.967	1375.11
889.284	1405.84
889.6	1385.27
889.917	1380.3
890.233	1365.39
890.55	1372.17
890.866	1362.22
891.182	1354.77
891.498	1332.85
891.815	1369.46
892.131	1353.86
892.447	1339.85
892.763	1329.46
893.079	1367.42
893.395	1357.25
893.71	1328.55
894.026	1329.91
894.342	1331.72
894.657	1328.78
894.973	1328.33
895.289	1327.87
895.604	1340.08
895.92	1320.64
896.235	1293.3
896.55	1305.05
896.865	1324.48
897.181	1294.2
897.496	1293.53
897.811	1306.18
898.126	1302.34
898.441	1312.96
898.756	1303.92
899.071	1267.76
899.386	1279.29
899.7	1275.22
900.015	1258.72
900.33	1270.25
900.644	1265.96
900.959	1273.19
901.273	1282.9
901.588	1273.41
901.902	1250.36
902.216	1263.47
902.531	1223.47
902.845	1233.41
903.159	1263.47
903.473	1216.01
903.787	1241.32
904.101	1237.93
904.415	1222.79
904.729	1200.19
905.042	1222.57
905.356	1203.58
905.67	1212.17
905.984	1212.4
906.297	1192.96
906.611	1192.96
906.924	1199.52
907.237	1186.41
907.551	1205.17
907.864	1185.51
908.177	1203.13
908.491	1170.36
908.804	1179.86
909.117	1166.52
909.43	1144.6
909.743	1157.71
910.056	1162.91
910.368	1176.69
910.681	1126.98
910.994	1143.7
911.307	1122.68
911.619	1133.08
911.932	1138.05
912.244	1126.07
912.557	1122.91
912.869	1108.9
913.181	1131.5
913.494	1117.94
913.806	1126.07
914.118	1097.15
914.43	1115.45
914.742	1118.61
915.054	1134.89
915.366	1115.9
915.678	1089.91
915.99	1094.66
916.302	1077.03
916.613	1072.06
916.925	1088.33
917.236	1058.05
917.548	1075.68
917.859	1082.68
918.171	1063.25
918.482	1076.36
918.794	1053.31
919.105	1046.53
919.416	1037.49
919.727	1045.17
920.038	1047.66
920.349	1055.79
920.66	1048.56
920.971	1027.77
921.282	1030.26
921.593	1043.36
921.903	1028.45
922.214	1018.28
922.525	1029.8
922.835	1027.77
923.146	984.83
923.456	1011.27
923.767	1020.99
924.077	1010.14
924.387	1019.63
924.697	991.39
925.008	988.67
925.318	997.71
925.628	1013.31
925.938	989.8
926.248	1000.2
926.558	964.95
926.867	962.46
927.177	966.98
927.487	974.66
927.796	966.3
928.106	958.39
928.416	962.91
928.725	969.69
929.034	967.43
929.344	940.99
929.653	945.29
929.962	961.33
930.271	950.48
930.581	969.92
930.89	943.7
931.199	948
931.508	937.6
931.817	942.12
932.125	924.5
932.434	913.65
932.743	912.29
933.051	905.96
933.36	930.15
933.669	917.26
933.977	912.29
934.286	906.87
934.594	896.47
934.902	893.08
935.21	913.87
935.519	897.83
935.827	892.63
936.135	885.63
936.443	875.01
936.751	860.32
937.059	884.5
937.367	887.43
937.674	866.42
937.982	863.93
938.29	876.59
938.597	877.04
938.905	883.14
939.213	881.33
939.52	853.31
939.827	847.44
940.135	869.36
940.442	881.33
940.749	850.6
941.056	862.12
941.363	851.05
941.67	853.08
941.977	838.17
942.284	857.83
942.591	839.75
942.898	846.76
943.205	842.69
943.511	834.55
943.818	832.75
944.125	843.59
944.431	817.38
944.738	813.31
945.044	815.35
945.35	825.97
945.657	818.74
945.963	806.98
946.269	809.7
946.575	779.64
946.881	785.74
947.187	817.61
947.493	807.66
947.799	786.42
948.105	784.61
948.41	800.66
948.716	785.52
949.022	770.15
949.327	778.96
949.633	791.84
949.938	786.19
950.244	780.32
950.549	772.41
950.854	761.11
951.16	784.16
951.465	791.39
951.77	779.87
952.075	766.08
952.38	764.27
952.685	767.66
952.99	774.67
953.294	767.66
953.599	742.13
953.904	759.08
954.209	746.2
954.513	767.21
954.818	728.57
955.122	753.2
955.426	752.52
955.731	748
956.035	729.47
956.339	726.76
956.643	755.01
956.948	720.88
957.252	749.81
957.556	730.15
957.86	718.85
958.163	712.3
958.467	730.6
958.771	705.97
959.075	713.2
959.378	722.24
959.682	700.09
959.985	715.24
960.289	724.27
960.592	726.53
960.896	721.56
961.199	703.94
961.502	717.04
961.805	703.94
962.108	721.11
962.411	710.04
962.714	688.12
963.017	686.08
963.32	689.02
963.623	698.74
963.926	717.72
964.228	679.3
964.531	690.83
964.833	708.23
965.136	663.94
965.438	694.9
965.741	675.69
966.043	657.84
966.345	700.55
966.648	678.63
966.95	675.46
967.252	667.33
967.554	658.97
967.856	660.32
968.158	673.43
968.46	675.24
968.761	657.16
969.063	668.23
969.365	667.1
969.666	687.67
969.968	641.11
970.269	658.74
970.571	672.98
970.872	656.48
971.174	651.51
971.475	659.87
971.776	658.51
972.077	655.35
972.378	658.97
972.679	656.93
972.98	645.18
973.281	640.66
973.582	623.26
973.883	640.21
974.183	676.82
974.484	632.98
974.785	639.76
975.085	649.93
975.386	625.97
975.686	644.28
975.986	599.76
976.287	641.11
976.587	618.74
976.887	607.22
977.187	612.19
977.487	642.24
977.787	611.96
978.087	606.99
978.387	620.32
978.687	632.98
978.987	623.71
979.286	604.96
979.586	586.43
979.885	612.64
980.185	585.07
980.484	606.09
980.784	608.35
981.083	610.83
981.382	607.44
981.682	591.85
981.981	593.66
982.28	603.83
982.579	587.56
982.878	586.88
983.177	587.33
983.475	597.72
983.774	585.3
984.073	588.46
984.372	582.36
984.67	606.76
984.969	595.01
985.267	576.93
985.566	583.04
985.864	575.35
986.162	564.05
986.461	585.07
986.759	572.19
987.057	547.56
987.355	565.63
987.653	595.24
987.951	572.64
988.249	579.65
988.547	583.94
988.844	551.85
989.142	549.82
989.44	555.47
989.737	538.97
990.035	547.56
990.332	553.43
990.63	557.05
990.927	545.52
991.224	567.44
991.521	551.62
991.819	560.89
992.116	541.68
992.413	534
992.71	542.13
993.006	548.91
993.303	550.49
993.6	523.15
993.897	533.32
994.193	530.61
994.49	546.65
994.787	529.25
995.083	538.74
995.379	536.94
995.676	544.17
995.972	554.11
996.268	520.89
996.565	516.6
996.861	543.49
997.157	556.37
997.453	533.55
997.749	508.46
998.044	514.34
998.34	506.65
998.636	525.18
998.932	514.79
999.227	516.82
999.523	503.94
999.818	504.17
1000.114	532.42
1000.409	536.26
1000.704	499.42
1001	516.6
1001.295	525.64
1001.59	539.19
1001.885	495.13
1002.18	495.81
1002.475	521.12
1002.77	504.62
1003.065	513.88
1003.359	489.7
1003.654	475.24
1003.949	486.99
1004.243	485.18
1004.538	498.07
1004.832	485.64
1005.127	495.81
1005.421	489.48
1005.715	482.93
1006.009	494.45
1006.304	484.73
1006.598	489.7
1006.892	475.69
1007.186	489.25
1007.48	480.89
1007.773	469.82
1008.067	481.34
1008.361	500.55
1008.655	486.31
1008.948	482.7
1009.242	482.7
1009.535	477.73
1009.829	478.86
1010.122	477.28
1010.415	472.53
1010.708	489.93
1011.001	478.86
1011.295	476.37
1011.588	472.53
1011.881	460.1
1012.173	485.86
1012.466	450.61
1012.759	442.7
1013.052	455.58
1013.344	467.11
1013.637	447.45
1013.93	460.33
1014.222	450.16
1014.514	451.29
1014.807	462.13
1015.099	458.52
1015.391	449.25
1015.683	459.42
1015.976	435.24
1016.268	437.73
1016.56	425.3
1016.851	451.29
1017.143	459.87
1017.435	458.52
1017.727	452.19
1018.018	430.5
1018.31	438.63
1018.602	425.3
1018.893	430.95
1019.185	453.55
1019.476	454.23
1019.767	456.26
1020.058	439.99
1020.35	430.95
1020.641	426.88
1020.932	419.65
1021.223	419.42
1021.514	422.36
1021.804	417.39
1022.095	432.08
1022.386	432.76
1022.677	428.69
1022.967	430.05
1023.258	419.65
1023.548	411.74
1023.839	410.61
1024.129	433.43
1024.419	433.89
1024.709	431.63
1025	439.99
1025.29	399.54
1025.58	411.74
1025.87	409.48
1026.16	436.15
1026.449	422.14
1026.739	425.07
1027.029	421.23
1027.319	400.89
1027.608	410.16
1027.898	400.44
1028.187	406.77
1028.477	407.22
1028.766	416.71
1029.055	396.37
1029.344	371.29
1029.634	420.33
1029.923	409.71
1030.212	404.96
1030.501	401.57
1030.79	411.29
1031.078	383.94
1031.367	397.96
1031.656	397.28
1031.945	399.54
1032.233	421.46
1032.522	386.43
1032.81	398.18
1033.099	398.41
1033.387	395.47
1033.675	388.69
1033.963	389.14
1034.251	409.48
1034.54	397.73
1034.828	400.22
1035.116	374.23
1035.403	381.91
1035.691	404.28
1035.979	397.73
1036.267	369.48
1036.554	376.26
1036.842	393.89
1037.129	397.05
1037.417	388.92
1037.704	401.35
1037.992	381.46
1038.279	381.68
1038.566	398.18
1038.853	398.18
1039.14	398.18
