Data from foam2_polystyrene_foam_FLMS001491_00067.txt Node
Date: Wed Feb 08 10:58:20 GMT 2017
User: dcchb
Spectrometer: FLMS00149
Trigger mode: 0
Integration Time (sec): 2.000000E-2
Scans to average: 10
Electric dark correction enabled: true
Nonlinearity correction enabled: false
Boxcar width: 0
XAxis mode: Wavelengths
Number of Pixels in Spectrum: 2048
>>>>>Begin Spectral Data<<<<<
341.393	7.02
341.776	7.02
342.16	7.02
342.543	-54.45
342.927	-63.94
343.31	-66.65
343.693	-51.06
344.077	-66.65
344.46	-58.74
344.843	-42.02
345.226	-30.95
345.61	-57.39
345.993	-11.96
346.376	-9.25
346.759	12.22
347.142	33.23
347.525	66.68
347.908	47.92
348.291	64.19
348.674	87.7
349.057	82.72
349.44	122.95
349.823	136.96
350.206	171.54
350.588	205.66
350.971	209.95
351.354	212.44
351.737	251.53
352.119	271.65
352.502	260.57
352.884	277.07
353.267	280.01
353.65	297.63
354.032	300.35
354.414	317.75
354.797	344.64
355.179	306.22
355.562	321.59
355.944	319.33
356.326	366.33
356.709	354.81
357.091	339.44
357.473	338.76
357.855	358.2
358.238	341.02
358.62	338.99
359.002	349.16
359.384	352.55
359.766	352.55
360.148	360.23
360.53	357.52
360.912	381.47
361.294	362.04
361.676	346.22
362.057	335.6
362.439	338.99
362.821	355.71
363.203	335.6
363.584	314.36
363.966	333.11
364.348	352.77
364.729	346.9
365.111	339.44
365.493	328.59
365.874	331.53
366.256	348.03
366.637	344.41
367.019	348.48
367.4	356.39
367.781	351.19
368.163	339.21
368.544	330.85
368.925	336.95
369.306	348.71
369.688	336.95
370.069	336.5
370.45	340.8
370.831	340.12
371.212	345.54
371.593	333.79
371.974	366.11
372.355	342.38
372.736	346.45
373.117	349.16
373.498	350.51
373.879	323.17
374.26	364.52
374.641	345.99
375.021	333.34
375.402	345.77
375.783	350.29
376.163	373.56
376.544	367.01
376.925	368.82
377.305	362.49
377.686	382.6
378.066	366.11
378.447	384.41
378.827	363.39
379.208	382.6
379.588	384.41
379.968	374.24
380.349	391.87
380.729	395.26
381.109	383.96
381.489	401.81
381.87	402.49
382.25	396.84
382.63	398.87
383.01	393
383.39	408.59
383.77	386.9
384.15	419.44
384.53	417.4
384.91	412.88
385.29	391.19
385.67	416.73
386.049	426.67
386.429	412.88
386.809	422.15
387.189	431.19
387.568	433.9
387.948	430.51
388.328	424.18
388.707	435.71
389.087	436.84
389.466	449.27
389.846	431.42
390.225	448.14
390.605	456.95
390.984	450.62
391.363	456.27
391.743	459.89
392.122	444.75
392.501	461.92
392.881	467.8
393.26	464.18
393.639	470.51
394.018	456.5
394.397	486.33
394.776	487.01
395.155	503.28
395.534	469.83
395.913	464.18
396.292	484.52
396.671	500.34
397.05	513.22
397.429	493.79
397.808	525.2
398.186	480.91
398.565	514.12
398.944	503.28
399.323	531.07
399.701	510.06
400.08	493.11
400.458	525.42
400.837	554.58
401.215	533.33
401.594	527.23
401.972	536.72
402.351	573.78
402.729	537.63
403.107	538.76
403.486	542.37
403.864	564.52
404.242	560
404.62	538.31
404.999	570.85
405.377	585.76
405.755	588.47
406.133	592.77
406.511	575.37
406.889	608.59
407.267	599.32
407.645	617.63
408.023	607.23
408.401	625.08
408.779	624.63
409.156	651.3
409.534	625.31
409.912	629.83
410.29	640.9
410.667	655.82
411.045	652.88
411.422	661.69
411.8	679.32
412.178	696.94
412.555	694.46
412.933	688.13
413.31	676.38
413.687	688.58
414.065	702.59
414.442	702.82
414.819	699.43
415.197	747.11
415.574	717.28
415.951	738.98
416.328	742.82
416.705	750.95
417.082	738.53
417.46	758.41
417.837	738.98
418.214	767
418.591	779.88
418.967	779.2
419.344	774.91
419.721	790.73
420.098	783.95
420.475	787.34
420.852	811.74
421.228	810.84
421.605	801.35
421.982	793.44
422.358	833.66
422.735	848.35
423.111	833.21
423.488	847.9
423.864	854
424.241	887.67
424.617	862.82
424.994	868.24
425.37	882.48
425.746	903.95
426.123	894
426.499	918.18
426.875	908.92
427.251	919.54
427.627	941.46
428.003	945.3
428.379	956.83
428.756	974.9
429.132	961.34
429.507	1001.57
429.883	991.4
430.259	1002.02
430.635	990.72
431.011	1040.21
431.387	1030.27
431.763	1067.1
432.138	1097.39
432.514	1098.29
432.89	1090.83
433.265	1099.65
433.641	1135.35
434.016	1139.65
434.392	1139.19
434.767	1139.65
435.143	1160.44
435.518	1179.64
435.894	1179.19
436.269	1193.2
436.644	1211.28
437.02	1232.75
437.395	1239.76
437.77	1257.16
438.145	1279.98
438.52	1286.53
438.895	1282.01
439.271	1320.43
439.646	1316.59
440.021	1295.12
440.395	1323.82
440.77	1341.45
441.145	1332.86
441.52	1373.76
441.895	1365.18
442.27	1418.96
442.645	1377.15
443.019	1394.78
443.394	1416.25
443.769	1437.26
444.143	1417.83
444.518	1446.3
444.892	1433.87
445.267	1448.11
445.641	1483.14
446.016	1501.44
446.39	1476.59
446.764	1505.51
447.139	1522.46
447.513	1539.41
447.887	1536.7
448.262	1507.55
448.636	1537.6
449.01	1575.79
449.384	1590.03
449.758	1587.77
450.132	1622.12
450.506	1616.69
450.88	1630.71
451.254	1616.69
451.628	1668.44
452.002	1677.48
452.376	1671.61
452.75	1694.88
453.123	1707.54
453.497	1760.65
453.871	1748.67
454.244	1778.05
454.618	1766.52
454.992	1808.78
455.365	1798.38
455.739	1820.31
456.112	1865.5
456.486	1900.3
456.859	1872.28
457.232	1910.02
457.606	1881.55
457.979	1909.79
458.352	1935.78
458.725	1989.34
459.099	1973.52
459.472	2013.75
459.845	2019.4
460.218	2071.82
460.591	2055.1
460.964	2087.64
461.337	2120.64
461.71	2158.38
462.083	2155.66
462.456	2173.29
462.829	2154.76
463.201	2192.72
463.574	2223.01
463.947	2221.2
464.32	2298.71
464.692	2283.34
465.065	2309.78
465.438	2345.26
465.81	2368.31
466.183	2406.96
466.555	2414.19
466.928	2430.23
467.3	2417.8
467.672	2504.81
468.045	2580.29
468.417	2565.37
468.789	2558.14
469.161	2549.33
469.534	2646.5
469.906	2667.97
470.278	2685.14
470.65	2695.54
471.022	2757.23
471.394	2824.12
471.766	2835.87
472.138	2848.07
472.51	2888.98
472.882	2961.74
473.253	2971.01
473.625	3038.8
473.997	3066.83
474.369	3115.19
474.74	3118.12
475.112	3149.54
475.484	3220.04
475.855	3297.55
476.227	3294.16
476.598	3417.78
476.97	3403.54
477.341	3524.89
477.713	3509.98
478.084	3518.34
478.455	3617.09
478.827	3650.09
479.198	3786.13
479.569	3745.9
479.94	3870.19
480.311	3941.38
480.682	3994.03
481.053	4018.89
481.424	4143.41
481.795	4128.27
482.166	4230.86
482.537	4259.56
482.908	4331.65
483.279	4423.17
483.65	4513.57
484.021	4594.02
484.391	4574.13
484.762	4651.19
485.133	4732.55
485.503	4709.95
485.874	4820.45
486.244	4870.62
486.615	4970.96
486.985	5028.81
487.356	5091.86
487.726	5136.83
488.097	5232.19
488.467	5221.12
488.837	5337.05
489.207	5411.17
489.578	5518.29
489.948	5570.26
490.318	5603.26
490.688	5658.4
491.058	5741.11
491.428	5823.59
491.798	5825.62
492.168	6020.65
492.538	5985.62
492.908	6058.61
493.278	6126.86
493.648	6151.26
494.017	6227.2
494.387	6297.25
494.757	6286.4
495.126	6456.57
495.496	6456.79
495.866	6497.24
496.235	6492.72
496.605	6613.4
496.974	6637.81
497.344	6723.23
497.713	6770.01
498.082	6785.15
498.452	6821.3
498.821	6890
499.19	6919.38
499.559	6961.19
499.928	7043.22
500.298	7140.62
500.667	7172.25
501.036	7156.89
501.405	7238.92
501.774	7260.39
502.143	7220.39
502.512	7328.41
502.88	7394.4
503.249	7449.31
503.618	7534.05
503.987	7577.67
504.356	7595.97
504.724	7620.6
505.093	7652.47
505.462	7774.95
505.83	7860.15
506.199	7913.7
506.567	8005
506.936	7927.49
507.304	8070.99
507.672	8087.03
508.041	8126.58
508.409	8223.98
508.777	8309.17
509.145	8341.94
509.514	8292.68
509.882	8382.39
510.25	8409.28
510.618	8499
510.986	8558.89
511.354	8629.39
511.722	8699.22
512.09	8757.3
512.458	8786.68
512.826	8836.84
513.193	8882.94
513.561	8980.79
513.929	9021.02
514.297	9095.14
514.664	9134.92
515.032	9148.47
515.4	9268.25
515.767	9333.1
516.135	9442.03
516.502	9339.43
516.869	9512.53
517.237	9559.54
517.604	9560.67
517.972	9602.25
518.339	9748.68
518.706	9794.11
519.073	9894.9
519.44	9909.58
519.808	10008.11
520.175	10017.6
520.542	10182.57
520.909	10207.66
521.276	10216.92
521.643	10372.62
522.009	10434.09
522.376	10462.56
522.743	10560.41
523.11	10688.77
523.477	10765.15
523.843	10849.9
524.21	10919.05
524.577	10966.05
524.943	11042.21
525.31	11174.64
525.676	11205.14
526.043	11241.3
526.409	11386.38
526.776	11474.97
527.142	11540.5
527.508	11633.38
527.874	11666.6
528.241	11753.83
528.607	11843.54
528.973	11926.03
529.339	11971.45
529.705	12048.51
530.071	12180.26
530.437	12206.7
530.803	12263.65
531.169	12341.38
531.535	12319.69
531.901	12385.23
532.267	12444.43
532.632	12526.69
532.998	12590.87
533.364	12648.72
533.73	12763.75
534.095	12879.68
534.461	12873.8
534.826	12890.3
535.192	12987.47
535.557	13048.26
535.923	13121.7
536.288	13143.85
536.653	13119.44
537.019	13228.82
537.384	13231.3
537.749	13299.1
538.114	13388.14
538.479	13433.33
538.845	13466.1
539.21	13438.76
539.575	13502.26
539.94	13646.43
540.305	13725.98
540.67	13752.65
541.034	13795.13
541.399	13848.46
541.764	13867.22
542.129	13962.81
542.494	13952.42
542.858	13998.06
543.223	14084.16
543.587	14143.6
543.952	14158.06
544.316	14149.92
544.681	14211.17
545.045	14284.16
545.41	14380.65
545.774	14404.16
546.138	14417.71
546.503	14496.58
546.867	14448
547.231	14575.22
547.595	14602.12
547.959	14690.48
548.324	14758.95
548.688	14787.65
549.052	14816.12
549.416	14837.36
549.779	14881.43
550.143	14868.55
550.507	15146.96
550.871	15068.54
551.235	15054.99
551.599	15237.35
551.962	15233.29
552.326	15268.77
552.689	15404.81
553.053	15330.46
553.417	15391.25
553.78	15642.77
554.143	15491.13
554.507	15638.02
554.87	15661.3
555.234	15866.72
555.597	15823.33
555.96	15871.69
556.323	15995.98
556.686	15961.63
557.05	16098.35
557.413	16211.11
557.776	16169.53
558.139	16374.95
558.502	16382.18
558.865	16343.31
559.228	16501.28
559.59	16564.78
559.953	16610.65
560.316	16762.29
560.679	16823.07
561.041	16915.5
561.404	16994.6
561.767	17063.07
562.129	17057.64
562.492	17198.43
562.854	17192.56
563.217	17258.09
563.579	17347.58
563.941	17348.71
564.304	17531.08
564.666	17626.9
565.028	17692.66
565.39	17784.63
565.753	17890.39
566.115	17928.81
566.477	17987.34
566.839	18042.48
567.201	18178.97
567.563	18182.36
567.925	18214.22
568.287	18353.43
568.648	18377.38
569.01	18543.71
569.372	18630.26
569.734	18660.09
570.095	18646.3
570.457	18823.25
570.819	18842.91
571.18	18863.25
571.542	18927.65
571.903	18949.12
572.265	19064.15
572.626	19165.84
572.987	19199.74
573.349	19265.72
573.71	19319.05
574.071	19342.33
574.432	19404.25
574.794	19589.1
575.155	19499.16
575.516	19480.18
575.877	19590.69
576.238	19693.73
576.599	19703.45
576.96	19784.58
577.32	19791.58
577.681	19784.8
578.042	19872.26
578.403	19866.38
578.763	19859.83
579.124	19959.94
579.485	20030.9
579.845	20046.72
580.206	20016.66
580.566	20006.95
580.927	20106.6
581.287	20238.8
581.648	20095.98
582.008	20146.38
582.368	20128.3
582.728	20163.55
583.089	20125.36
583.449	20120.84
583.809	20244.91
584.169	20238.58
584.529	20294.85
584.889	20373.94
585.249	20255.3
585.609	20273.15
585.969	20302.08
586.329	20239.48
586.688	20325.58
587.048	20281.74
587.408	20199.93
587.768	20304.56
588.127	20145.47
588.487	20220.27
588.846	20302.31
589.206	20343.43
589.565	20241.97
589.925	20393.83
590.284	20372.81
590.643	20328.07
591.003	20445.13
591.362	20409.87
591.721	20337.78
592.08	20389.99
592.44	20385.24
592.799	20374.17
593.158	20316.54
593.517	20376.65
593.876	20466.14
594.235	20368.52
594.593	20389.31
594.952	20501.85
595.311	20391.79
595.67	20415.3
596.029	20599.25
596.387	20551.56
596.746	20627.49
597.104	20501.85
597.463	20496.88
597.822	20688.28
598.18	20500.04
598.538	20579.81
598.897	20677.89
599.255	20514.05
599.613	20760.6
599.972	20641.96
600.33	20725.8
600.688	20652.13
601.046	20780.94
601.404	20688.06
601.762	20738
602.12	20787.49
602.478	20751.33
602.836	20720.6
603.194	20578
603.552	20685.57
603.91	20698.68
604.268	20758.79
604.625	20725.34
604.983	20818
605.341	20639.25
605.698	20846.47
606.056	20866.13
606.413	20852.35
606.771	20889.18
607.128	20915.85
607.485	20886.47
607.843	20852.35
608.2	20886.7
608.557	21023.87
608.914	20940.03
609.272	21083.3
609.629	21215.5
609.986	21144.77
610.343	21027.94
610.7	21233.81
611.057	21144.77
611.414	21193.58
611.771	21139.8
612.127	21370.53
612.484	21288.72
612.841	21334.37
613.198	21257.31
613.554	21205.11
613.911	21421.37
614.267	21359.45
614.624	21289.4
614.98	21405.33
615.337	21452.56
615.693	21456.17
616.05	21448.94
616.406	21420.69
616.762	21484.87
617.118	21413.91
617.475	21456.85
617.831	21563.51
618.187	21546.57
618.543	21602.61
618.899	21668.82
619.255	21615.72
619.611	21490.3
619.967	21634.25
620.323	21649.61
620.678	21571.42
621.034	21540.69
621.39	21498.43
621.746	21553.8
622.101	21782.27
622.457	21581.82
622.812	21631.08
623.168	21746.56
623.523	21627.69
623.879	21665.43
624.234	21560.58
624.589	21693
624.945	21630.63
625.3	21762.38
625.655	21673.34
626.01	21658.2
626.365	21601.71
626.72	21544.98
627.075	21554.48
627.43	21550.63
627.785	21530.3
628.14	21548.6
628.495	21513.57
628.85	21575.72
629.205	21442.61
629.559	21513.35
629.914	21458.88
630.269	21418.21
630.623	21400.36
630.978	21414.37
631.332	21447.13
631.687	21488.94
632.041	21418.21
632.396	21427.7
632.75	21348.38
633.104	21407.81
633.459	21172.34
633.813	21215.05
634.167	21328.72
634.521	21317.19
634.875	21218.89
635.229	21206.01
635.583	21138.89
635.937	21055.96
636.291	21046.92
636.645	20968.5
636.999	21006.47
637.352	21050.31
637.706	20888.5
638.06	20875.17
638.413	20959.69
638.767	20822.07
639.121	20872.46
639.474	20772.58
639.828	20757.43
640.181	20702.07
640.534	20712.46
640.888	20724.21
641.241	20612.58
641.594	20666.36
641.947	20643.77
642.301	20591.56
642.654	20561.73
643.007	20527.84
643.36	20620.94
643.713	20552.24
644.066	20547.04
644.419	20408.29
644.771	20254.4
645.124	20126.94
645.477	19960.85
645.83	19918.13
646.182	19854.41
646.535	19827.97
646.888	19858.25
647.24	19844.69
647.593	19902.99
647.945	19815.31
648.298	19677.01
648.65	19574.19
649.002	19562.21
649.355	19698.25
649.707	19658.03
650.059	19758.59
650.411	19893.73
650.763	19821.87
651.115	20147.96
651.467	20085.59
651.819	19961.52
652.171	19992.26
652.523	19839.72
652.875	19851.24
653.227	19726.28
653.578	19959.04
653.93	19787.29
654.282	19695.54
654.633	19752.72
654.985	19785.71
655.337	19709.1
655.688	19606.5
656.039	19877.23
656.391	19610.8
656.742	19677.91
657.094	19653.06
657.445	19703
657.796	19702.09
658.147	19634.75
658.498	19600.4
658.849	19678.14
659.2	19461.2
659.551	19448.32
659.902	19480.18
660.253	19522.44
660.604	19513.4
660.955	19417.36
661.306	19461.88
661.656	19471.59
662.007	19423.46
662.358	19312.95
662.708	19413.29
663.059	19460.52
663.409	19321.09
663.76	19430.01
664.11	19377.58
664.461	19386.4
664.811	19353.86
665.161	19337.13
665.511	19297.13
665.862	19305.72
666.212	19314.99
666.562	19328.09
666.912	19327.19
667.262	19352.73
667.612	19287.87
667.962	19231.6
668.312	19231.37
668.662	19286.06
669.011	19310.47
669.361	19187.31
669.711	19219.4
670.06	19139.85
670.41	19170.81
670.76	19119.29
671.109	19208.32
671.459	19155.44
671.808	19082
672.157	19090.13
672.507	19012.85
672.856	19030.47
673.205	18997.03
673.554	19097.37
673.904	19128.32
674.253	19129.91
674.602	19072.96
674.951	18696.02
675.3	18669.13
675.649	19060.3
675.998	19052.17
676.346	18881.55
676.695	18983.92
677.044	18833.42
677.393	18883.59
677.741	18938.73
678.09	18801.78
678.438	18841.1
678.787	18874.55
679.135	18788.9
679.484	18703.25
679.832	18795.45
680.181	18670.26
680.529	18708.9
680.877	18597.72
681.225	18673.2
681.573	18737.15
681.922	18590.94
682.27	18484.73
682.618	18508.91
682.966	18537.83
683.314	18625.74
683.661	18441.34
684.009	18350.04
684.357	18312.53
684.705	18308.46
685.053	18319.53
685.4	18200.89
685.748	18170.61
686.095	18090.61
686.443	18078.86
686.79	18111.63
687.138	18105.53
687.485	18099.65
687.832	17988.69
688.18	18013.1
688.527	17880.67
688.874	17932.2
689.221	17770.85
689.568	17762.48
689.915	17792.31
690.262	17697.85
690.609	17623.05
690.956	17641.36
691.303	17614.47
691.65	17520.46
691.997	17565.88
692.344	17420.35
692.69	17416.05
693.037	17471.87
693.383	17194.36
693.73	17346.9
694.077	17235.95
694.423	17233.46
694.769	17108.04
695.116	17115.27
695.462	17065.55
695.808	17037.31
696.155	16991.21
696.501	16870.31
696.847	16950.3
697.193	16755.28
697.539	16856.07
697.885	16616.98
698.231	16640.48
698.577	16640.71
698.923	16717.31
699.269	16569.75
699.614	16542.63
699.96	16445.23
700.306	16442.75
700.651	16352.8
700.997	16355.52
701.342	16280.94
701.688	16327.95
702.033	16192.58
702.379	16129.31
702.724	16104.22
703.069	16189.87
703.415	15974.74
703.76	15982.87
704.105	16068.52
704.45	15911.01
704.795	15892.25
705.14	15805.7
705.485	15798.92
705.83	15736.32
706.175	15719.83
706.52	15711.01
706.865	15639.38
707.209	15656.78
707.554	15523
707.899	15668.98
708.243	15550.11
708.588	15472.6
708.932	15314.64
709.277	15283
709.621	15398.03
709.966	15203.68
710.31	15345.83
710.654	15160.07
710.998	15208.43
711.342	15192.83
711.687	15126.4
712.031	15052.95
712.375	14868.78
712.719	15091.14
713.063	14935.44
713.407	14995.55
713.75	14875.78
714.094	14941.54
714.438	14830.81
714.782	14912.62
715.125	14787.2
715.469	14826.74
715.812	14726.18
716.156	14674.43
716.499	14707.65
716.843	14606.41
717.186	14639.4
717.53	14675.33
717.873	14650.7
718.216	14621.55
718.559	14469.24
718.902	14404.16
719.246	14465.17
719.589	14365.51
719.932	14387.21
720.275	14400.31
720.617	14368.22
720.96	14313.31
721.303	14331.39
721.646	14321.45
721.989	14168.68
722.331	14264.05
722.674	14200.77
723.016	14141.34
723.359	14151.96
723.701	14174.56
724.044	14045.29
724.386	13998.06
724.729	14062.02
725.071	14048.46
725.413	14013.43
725.755	13984.73
726.097	13970.04
726.439	13944.05
726.782	13951.06
727.124	13969.36
727.465	13821.57
727.807	13863.6
728.149	13756.71
728.491	13772.76
728.833	13868.58
729.175	13702.25
729.516	13736.83
729.858	13704.29
730.199	13730.05
730.541	13618.19
730.882	13672.65
731.224	13655.93
731.565	13582.93
731.906	13573.44
732.248	13567.34
732.589	13566.89
732.93	13451.19
733.271	13518.08
733.612	13505.65
733.953	13455.48
734.294	13453.22
734.635	13307.69
734.976	13447.12
735.317	13351.98
735.658	13346.1
735.999	13319.21
736.339	13285.31
736.68	13300.91
737.021	13196.5
737.361	13244.41
737.702	13231.76
738.042	13271.08
738.383	13233.79
738.723	13078.77
739.063	13116.28
739.404	13111.53
739.744	13126.22
740.084	13039.67
740.424	13023.85
740.764	13030.86
741.104	13064.53
741.444	12962.84
741.784	12942.5
742.124	12997.41
742.464	13007.13
742.804	12963.52
743.143	12859.56
743.483	12898.43
743.823	12837.19
744.162	12768.72
744.502	12808.26
744.841	12779.79
745.181	12832.9
745.52	12763.75
745.86	12768.49
746.199	12706.57
746.538	12643.3
746.877	12709.28
747.216	12707.7
747.556	12523.98
747.895	12647.59
748.234	12555.39
748.573	12612.34
748.911	12567.14
749.25	12536.18
749.589	12487.82
749.928	12431.55
750.267	12488.27
750.605	12440.59
750.944	12402.4
751.283	12343.19
751.621	12386.81
751.96	12336.41
752.298	12292.35
752.636	12290.99
752.975	12224.33
753.313	12124.22
753.651	12276.3
753.989	12171.9
754.327	12057.78
754.666	12068.85
755.004	12114.72
755.342	12120.83
755.679	12091.67
756.017	11932.36
756.355	12032.47
756.693	11912.92
757.031	11979.36
757.368	11867.05
757.706	11803.32
758.044	11822.98
758.381	11812.13
758.719	11775.3
759.056	11777.56
759.394	11714.28
759.731	11669.76
760.068	11601.29
760.405	11616.21
760.743	11582.31
761.08	11602.87
761.417	11531.69
761.754	11467.06
762.091	11524
762.428	11432.93
762.765	11377.79
763.102	11398.13
763.438	11294.18
763.775	11276.55
764.112	11307.74
764.449	11230.23
764.785	11157.46
765.122	11102.1
765.458	11089.21
765.795	11080.85
766.131	11068.42
766.467	10999.05
766.804	10910.46
767.14	10942.1
767.476	10850.12
767.812	10843.34
768.148	10848.54
768.485	10723.35
768.821	10735.33
769.157	10674.76
769.492	10686.74
769.828	10614.42
770.164	10605.84
770.5	10559.28
770.836	10567.65
771.171	10505.27
771.507	10447.88
771.842	10391.61
772.178	10376.24
772.513	10378.72
772.849	10367.88
773.184	10304.38
773.519	10377.14
773.855	10252.4
774.19	10192.97
774.525	10134.89
774.86	10147.09
775.195	10157.49
775.53	10095.34
775.865	10007.43
776.2	9999.07
776.535	9945.06
776.87	9902.35
777.205	9910.71
777.539	9887.66
777.874	9867.55
778.209	9843.82
778.543	9719.08
778.878	9715.92
779.212	9715.46
779.547	9626.43
779.881	9641.12
780.215	9630.04
780.55	9558.86
780.884	9556.37
781.218	9434.34
781.552	9493.1
781.886	9408.35
782.22	9365.87
782.554	9419.43
782.888	9314.57
783.222	9274.12
783.556	9182.6
783.889	9183.95
784.223	9106.22
784.557	9096.72
784.89	9121.81
785.224	9101.92
785.557	9019.21
785.891	8964.52
786.224	9016.27
786.558	8960
786.891	8922.04
787.224	8849.5
787.557	8903.06
787.891	8844.98
788.224	8780.35
788.557	8833.45
788.89	8797.97
789.223	8789.84
789.556	8628.04
789.888	8705.55
790.221	8653.8
790.554	8581.26
790.887	8620.13
791.219	8602.05
791.552	8543.52
791.884	8517.98
792.217	8484.76
792.549	8444.99
792.882	8388.95
793.214	8400.92
793.546	8351.88
793.879	8358.89
794.211	8293.36
794.543	8275.73
794.875	8295.16
795.207	8273.24
795.539	8220.14
795.871	8159.57
796.203	8134.72
796.535	8089.52
796.867	8121.38
797.198	8012.01
797.53	8028.96
797.862	8018.79
798.193	8007.26
798.525	7947.83
798.856	7965.91
799.188	7894.27
799.519	7864.67
799.85	7833.25
800.182	7816.76
800.513	7843.88
800.844	7744.22
801.175	7800.04
801.506	7780.37
801.837	7751.22
802.168	7681.39
802.499	7684.33
802.83	7593.71
803.161	7617.21
803.491	7607.05
803.822	7556.2
804.153	7597.1
804.483	7534.28
804.814	7555.75
805.145	7484.79
805.475	7425.81
805.805	7461.96
806.136	7443.21
806.466	7406.6
806.796	7371.35
807.126	7358.46
807.457	7305.58
807.787	7356.88
808.117	7303.55
808.447	7251.12
808.777	7283.89
809.107	7202.54
809.436	7221.97
809.766	7254.06
810.096	7211.12
810.426	7167.96
810.755	7213.16
811.085	7214.06
811.414	7168.19
811.744	7056.78
812.073	7092.93
812.403	7016.33
812.732	7002.09
813.061	7044.35
813.39	6998.93
813.719	6963.45
814.049	7020.39
814.378	6954.41
814.707	6951.7
815.036	6968.64
815.365	6899.27
815.693	6833.28
816.022	6822.43
816.351	6850.46
816.68	6807.52
817.008	6846.16
817.337	6725.94
817.665	6751.48
817.994	6751.02
818.322	6783.56
818.651	6786.73
818.979	6706.05
819.307	6738.59
819.636	6719.16
819.964	6665.83
820.292	6688.65
820.62	6670.12
820.948	6646.17
821.276	6675.32
821.604	6711.7
821.932	6682.1
822.259	6696.79
822.587	6662.21
822.915	6652.72
823.243	6628.54
823.57	6584.47
823.898	6586.73
824.225	6561.2
824.553	6630.8
824.88	6588.99
825.207	6580.63
825.535	6595.09
825.862	6590.8
826.189	6594.19
826.516	6586.06
826.843	6617.69
827.17	6605.26
827.497	6647.97
827.824	6630.8
828.151	6565.27
828.478	6562.1
828.805	6585.38
829.131	6624.02
829.458	6583.8
829.785	6575.21
830.111	6578.6
830.438	6565.49
830.764	6599.39
831.09	6546.51
831.417	6491.82
831.743	6584.25
832.069	6520.75
832.395	6513.06
832.722	6568.2
833.048	6556.9
833.374	6578.6
833.7	6520.29
834.026	6500.18
834.351	6545.83
834.677	6559.16
835.003	6570.01
835.329	6511.93
835.654	6494.98
835.98	6468.09
836.306	6425.38
836.631	6472.84
836.956	6529.56
837.282	6551.25
837.607	6432.39
837.932	6475.78
838.258	6453.4
838.583	6426.29
838.908	6361.43
839.233	6387.87
839.558	6345.38
839.883	6331.6
840.208	6372.5
840.533	6377.47
840.858	6341.77
841.182	6344.71
841.507	6336.57
841.832	6330.92
842.156	6286.85
842.481	6304.71
842.805	6277.14
843.13	6266.97
843.454	6292.73
843.778	6227.42
844.103	6241.88
844.427	6198.72
844.751	6222.68
845.075	6235.56
845.399	6160.3
845.723	6139.97
846.047	6105.84
846.371	6048.89
846.695	6098.61
847.019	6046.63
847.343	5989.69
847.666	5995.56
847.99	5944.26
848.313	5973.64
848.637	5919.41
848.96	5965.28
849.284	5894.32
849.607	5886.41
849.931	5826.08
850.254	5810.71
850.577	5774.78
850.9	5781.33
851.223	5742.69
851.546	5722.12
851.869	5657.27
852.192	5671.96
852.515	5682.8
852.838	5664.72
853.161	5653.88
853.483	5600.77
853.806	5578.17
854.129	5565.74
854.451	5588.34
854.774	5495.69
855.096	5537.95
855.419	5490.94
855.741	5438.52
856.063	5478.29
856.385	5471.96
856.708	5381.34
857.03	5365.52
857.352	5402.13
857.674	5351.96
857.996	5382.25
858.318	5363.04
858.64	5353.55
858.961	5358.07
859.283	5261.8
859.605	5300.89
859.926	5274.9
860.248	5282.36
860.57	5272.19
860.891	5282.14
861.212	5214.11
861.534	5260.89
861.855	5208.46
862.176	5228.35
862.498	5190.84
862.819	5203.95
863.14	5191.06
863.461	5138.18
863.782	5116.72
864.103	5148.81
864.424	5149.26
864.745	5153.1
865.065	5119.65
865.386	5116.26
865.707	5146.55
866.027	5091.86
866.348	5097.51
866.668	5104.96
866.989	5058.64
867.309	5037.17
867.63	5094.57
867.95	5059.09
868.27	5012.09
868.59	5039.66
868.91	5039.66
869.23	5039.43
869.55	5004.85
869.87	4994.01
870.19	4944.06
870.51	5011.41
870.83	5019.32
871.15	4924.63
871.469	4980.67
871.789	4958.53
872.109	4950.39
872.428	4945.65
872.748	4915.59
873.067	4958.53
873.386	4962.6
873.706	4935.25
874.025	4880.34
874.344	4900.22
874.663	4901.35
874.982	4895.93
875.301	4881.24
875.62	4880.79
875.939	4829.49
876.258	4812.54
876.577	4805.09
876.896	4839.89
877.214	4838.53
877.533	4822.03
877.852	4818.64
878.17	4809.61
878.489	4831.75
878.807	4793.56
879.125	4801.02
879.444	4745.2
879.762	4756.27
880.08	4777.97
880.398	4710.85
880.716	4736.61
881.034	4771.64
881.352	4711.98
881.67	4702.04
881.988	4761.02
882.306	4715.14
882.624	4676.05
882.941	4650.97
883.259	4666.78
883.577	4657.97
883.894	4656.39
884.212	4610.51
884.529	4625.43
884.846	4603.96
885.164	4608.03
885.481	4564.41
885.798	4558.54
886.115	4558.31
886.432	4570.29
886.75	4582.49
887.067	4489.61
887.383	4504.98
887.7	4500.23
888.017	4511.31
888.334	4531.87
888.651	4469.5
888.967	4479.9
889.284	4420.46
889.6	4462.27
889.917	4426.11
890.233	4429.05
890.55	4414.59
890.866	4418.2
891.182	4363.74
891.498	4364.42
891.815	4359.45
892.131	4379.11
892.447	4345.44
892.763	4332.1
893.079	4297.53
893.395	4308.38
893.71	4318.32
894.026	4299.34
894.342	4253.01
894.657	4258.66
894.973	4236.51
895.289	4207.36
895.604	4244.2
895.92	4139.11
896.235	4170.75
896.55	4186.34
896.865	4125.78
897.181	4158.32
897.496	4182.5
897.811	4146.35
898.126	4110.19
898.441	4139.34
898.756	4101.38
899.071	4063.86
899.386	4075.61
899.7	4044.65
900.015	4023.86
900.33	3963.53
900.644	4001.26
900.959	3981.15
901.273	3957.42
901.588	3942.28
901.902	3970.31
902.216	3940.02
902.531	3922.4
902.845	3922.62
903.159	3921.04
903.473	3903.41
903.787	3885.11
904.101	3831.33
904.415	3873.36
904.729	3855.28
905.042	3813.7
905.356	3777.54
905.67	3784.77
905.984	3749.52
906.297	3805.34
906.611	3730.54
906.924	3722.85
907.237	3781.84
907.551	3719.46
907.864	3721.95
908.177	3698
908.491	3667.71
908.804	3671.1
909.117	3659.13
909.43	3625.46
909.743	3623.42
910.056	3584.33
910.368	3572.12
910.681	3577.1
910.994	3570.99
911.307	3550.66
911.619	3510.66
911.932	3508.85
912.244	3492.13
912.557	3480.83
912.869	3498
913.181	3476.08
913.494	3458.68
913.806	3436.53
914.118	3403.54
914.43	3448.51
914.742	3390.43
915.054	3389.76
915.366	3371.22
915.678	3356.76
915.99	3333.94
916.302	3336.88
916.613	3288.52
916.925	3316.09
917.236	3301.85
917.548	3307.05
917.859	3305.24
918.171	3230.66
918.482	3246.71
918.794	3246.03
919.105	3264.56
919.416	3210.1
919.727	3218.23
920.038	3148.41
920.349	3124.23
920.66	3126.94
920.971	3136.65
921.282	3169.2
921.593	3170.33
921.903	3120.84
922.214	3079.93
922.525	3069.76
922.835	3077.45
923.146	3037.45
923.456	3051.46
923.767	3008.3
924.077	3025.47
924.387	2984.12
924.697	2966.49
925.008	2991.12
925.318	2984.34
925.628	2947.96
925.938	2963.78
926.248	2970.56
926.558	2911.12
926.867	2923.1
927.177	2878.36
927.487	2882.88
927.796	2895.98
928.106	2848.3
928.416	2840.39
928.725	2837.68
929.034	2863.22
929.344	2861.86
929.653	2803.33
929.962	2782.54
930.271	2806.27
930.581	2759.49
930.89	2752.94
931.199	2749.09
931.508	2735.76
931.817	2745.03
932.125	2697.8
932.434	2719.26
932.743	2701.41
933.051	2705.93
933.36	2715.87
933.669	2637.01
933.977	2646.95
934.286	2637.68
934.594	2644.69
934.902	2637.23
935.21	2595.88
935.519	2594.97
935.827	2602.66
936.135	2565.37
936.443	2563.79
936.751	2554.98
937.059	2585.03
937.367	2541.64
937.674	2542.32
937.982	2545.94
938.29	2526.95
938.597	2492.6
938.905	2452.38
939.213	2470.46
939.52	2474.07
939.827	2486.5
940.135	2483.11
940.442	2455.54
940.749	2425.26
941.056	2450.8
941.363	2389.78
941.67	2422.55
941.977	2416.22
942.284	2361.76
942.591	2367.86
942.898	2369.22
943.205	2350.46
943.511	2361.08
943.818	2330.8
944.125	2320.18
944.431	2348.65
944.738	2329.44
945.044	2343.91
945.35	2323.34
945.657	2285.83
945.963	2264.59
946.269	2252.38
946.575	2259.84
946.881	2268.2
947.187	2264.14
947.493	2222.33
947.799	2178.04
948.105	2201.54
948.41	2180.52
948.716	2173.97
949.022	2204.93
949.327	2180.52
949.633	2153.4
949.938	2154.31
950.244	2157.02
950.549	2122.67
950.854	2122.22
951.16	2126.96
951.465	2126.29
951.77	2121.09
952.075	2071.6
952.38	2056.01
952.685	2091.71
952.99	2072.5
953.294	2066.85
953.599	2070.69
953.904	2069.79
954.209	2054.42
954.513	2064.14
954.818	2055.55
955.122	2023.92
955.426	2030.02
955.731	1999.96
956.035	1994.76
956.339	2004.93
956.643	1981.2
956.948	1975.78
957.252	1977.59
957.556	1992.05
957.86	1950.7
958.163	1977.14
958.467	1967.87
958.771	1934.88
959.075	1914.99
959.378	1894.88
959.682	1911.6
959.985	1917.03
960.289	1884.26
960.592	1883.58
960.896	1866.18
961.199	1871.15
961.502	1892.85
961.805	1833.64
962.108	1843.58
962.411	1827.99
962.714	1847.2
963.017	1846.75
963.32	1844.03
963.623	1813.98
963.926	1802.45
964.228	1798.61
964.531	1814.2
964.833	1766.07
965.136	1736.47
965.438	1760.19
965.741	1779.85
966.043	1755.45
966.345	1734.66
966.648	1776.69
966.95	1741.89
967.252	1750.25
967.554	1712.06
967.856	1702.79
968.158	1686.75
968.46	1718.16
968.761	1687.43
969.063	1678.61
969.365	1707.77
969.666	1691.04
969.968	1657.82
970.269	1642
970.571	1633.19
970.872	1628.9
971.174	1664.15
971.475	1654.21
971.776	1628.9
972.077	1629.35
972.378	1625.28
972.679	1634.1
972.98	1597.26
973.281	1610.59
973.582	1617.37
973.883	1595.45
974.183	1580.76
974.484	1556.13
974.785	1574.21
975.085	1581.44
975.386	1563.14
975.686	1558.17
975.986	1566.75
976.287	1570.82
976.587	1557.26
976.887	1506.87
977.187	1527.43
977.487	1511.16
977.787	1508.9
978.087	1530.82
978.387	1502.12
978.687	1512.06
978.987	1521.56
979.286	1495.12
979.586	1455.12
979.885	1474.78
980.185	1476.36
980.484	1450.6
980.784	1463.7
981.083	1439.52
981.382	1458.28
981.682	1428.23
981.981	1457.15
982.28	1435.46
982.579	1407.43
982.878	1399.53
983.177	1426.19
983.475	1380.32
983.774	1402.24
984.073	1376.93
984.372	1372.18
984.67	1397.94
984.969	1375.12
985.267	1371.05
985.566	1347.78
985.864	1366.31
986.162	1352.07
986.461	1366.31
986.759	1321.11
987.057	1329.47
987.355	1299.87
987.653	1335.57
987.951	1333.09
988.249	1319.3
988.547	1324.5
988.844	1330.6
989.142	1287.89
989.44	1280.43
989.737	1314.78
990.035	1277.49
990.332	1303.71
990.63	1286.08
990.927	1265.74
991.224	1239.3
991.521	1279.3
991.819	1266.87
992.116	1225.97
992.413	1244.73
992.71	1255.8
993.006	1244.05
993.303	1215.58
993.6	1249.92
993.897	1235.46
994.193	1221
994.49	1210.6
994.787	1201.11
995.083	1221.68
995.379	1218.51
995.676	1199.08
995.972	1204.95
996.268	1211.51
996.565	1167.67
996.861	1176.93
997.157	1177.38
997.453	1179.87
997.749	1166.99
998.044	1145.97
998.34	1148.01
998.636	1142.58
998.932	1144.84
999.227	1139.42
999.523	1113.43
999.818	1118.63
1000.114	1154.11
1000.409	1137.84
1000.704	1125.18
1001	1092.19
1001.295	1108.91
1001.59	1125.86
1001.885	1095.58
1002.18	1108.23
1002.475	1092.19
1002.77	1071.62
1003.065	1094.67
1003.359	1070.49
1003.654	1068.91
1003.949	1062.81
1004.243	1070.49
1004.538	1043.15
1004.832	1049.03
1005.127	1063.26
1005.421	1036.82
1005.715	1028.46
1006.009	1035.92
1006.304	1012.64
1006.598	1017.39
1006.892	981.46
1007.186	1003.38
1007.48	1005.86
1007.773	977.84
1008.067	999.31
1008.361	993.89
1008.655	972.64
1008.948	987.11
1009.242	955.7
1009.535	942.14
1009.829	973.77
1010.122	976.94
1010.415	968.58
1010.708	938.07
1011.001	942.59
1011.295	954.57
1011.588	906.43
1011.881	920.44
1012.173	923.38
1012.466	926.54
1012.759	916.6
1013.052	915.7
1013.344	926.09
1013.637	913.89
1013.93	882.25
1014.222	889.26
1014.514	882.02
1014.807	905.3
1015.099	902.59
1015.391	895.58
1015.683	881.35
1015.976	889.48
1016.268	902.59
1016.56	868.47
1016.851	861.91
1017.143	861.69
1017.435	876.15
1017.727	849.94
1018.018	863.04
1018.31	840.9
1018.602	836.38
1018.893	819.88
1019.185	851.52
1019.476	819.65
1019.767	829.14
1020.058	818.3
1020.35	821.46
1020.641	794.12
1020.932	812.65
1021.223	791.18
1021.514	818.52
1021.804	792.08
1022.095	801.57
1022.386	781.24
1022.677	780.11
1022.967	760.22
1023.258	776.72
1023.548	774.23
1023.839	774.91
1024.129	764.74
1024.419	764.06
1024.709	746.44
1025	744.63
1025.29	748.47
1025.58	749.37
1025.87	735.59
1026.16	726.77
1026.449	734.46
1026.739	734.68
1027.029	717.74
1027.319	720.45
1027.608	715.7
1027.898	717.96
1028.187	705.53
1028.477	709.37
1028.766	696.49
1029.055	713.22
1029.344	687
1029.634	675.02
1029.923	685.87
1030.212	667.12
1030.501	674.35
1030.79	686.55
1031.078	681.8
1031.367	676.61
1031.656	682.03
1031.945	680.67
1032.233	641.58
1032.522	664.63
1032.81	679.09
1033.099	654.69
1033.387	649.71
1033.675	651.97
1033.963	628.92
1034.251	644.06
1034.54	632.09
1034.828	639.32
1035.116	644.97
1035.403	617.63
1035.691	614.69
1035.979	619.21
1036.267	604.29
1036.554	622.6
1036.842	588.47
1037.129	612.88
1037.417	604.29
1037.704	605.42
1037.992	603.16
1038.279	624.63
1038.566	596.16
1038.853	596.16
1039.14	596.16
