Data from foam2_polystyrene_foam_FLMS001491_00083.txt Node
Date: Wed Feb 08 10:58:37 GMT 2017
User: dcchb
Spectrometer: FLMS00149
Trigger mode: 0
Integration Time (sec): 2.000000E-2
Scans to average: 10
Electric dark correction enabled: true
Nonlinearity correction enabled: false
Boxcar width: 0
XAxis mode: Wavelengths
Number of Pixels in Spectrum: 2048
>>>>>Begin Spectral Data<<<<<
341.393	11.84
341.776	11.84
342.16	11.84
342.543	-64.32
342.927	-67.26
343.31	-77.43
343.693	-57.31
344.077	-73.36
344.46	-55.51
344.843	-42.4
345.226	-42.63
345.61	-12.57
345.993	-20.71
346.376	-5.34
346.759	-1.27
347.142	16.58
347.525	47.09
347.908	54.32
348.291	69.01
348.674	95.45
349.057	106.07
349.44	155.56
349.823	153.53
350.206	165.73
350.588	199.63
350.971	205.28
351.354	235.78
351.737	259.51
352.119	292.96
352.502	288.89
352.884	287.53
353.267	299.96
353.65	307.2
354.032	328.89
354.414	309
354.797	339.51
355.179	322.56
355.562	344.48
355.944	337.93
356.326	353.75
356.709	346.52
357.091	354.2
357.473	343.58
357.855	355.78
358.238	349.91
358.62	370.02
359.002	341.32
359.384	355.78
359.766	357.82
360.148	370.7
360.53	367.31
360.912	359.85
361.294	346.52
361.676	348.55
362.057	358.49
362.439	353.97
362.821	375.44
363.203	376.57
363.584	350.58
363.966	357.14
364.348	359.85
364.729	354.65
365.111	362.56
365.493	324.82
365.874	358.04
366.256	358.04
366.637	345.84
367.019	351.26
367.4	357.36
367.781	337.93
368.163	353.75
368.544	354.2
368.925	344.48
369.306	367.53
369.688	350.81
370.069	349
370.45	350.13
370.831	358.95
371.212	364.37
371.593	378.15
371.974	383.8
372.355	374.31
372.736	364.59
373.117	373.18
373.498	376.35
373.879	377.48
374.26	383.8
374.641	372.28
375.021	370.24
375.402	387.65
375.783	396.46
376.163	365.27
376.544	414.09
376.925	407.08
377.305	391.03
377.686	400.07
378.066	398.27
378.447	381.77
378.827	413.18
379.208	431.49
379.588	405.27
379.968	416.57
380.349	417.02
380.729	403.46
381.109	410.7
381.489	422.67
381.87	435.78
382.25	419.51
382.63	420.41
383.01	420.64
383.39	431.03
383.77	425.84
384.15	466.97
384.53	436.46
384.91	447.53
385.29	456.57
385.67	454.54
386.049	459.51
386.429	466.51
386.809	474.2
387.189	459.51
387.568	472.84
387.948	485.72
388.328	487.3
388.707	487.98
389.087	515.1
389.466	496.12
389.846	479.17
390.225	493.63
390.605	516.23
390.984	518.26
391.363	518.04
391.743	518.94
392.122	528.66
392.501	534.31
392.881	540.86
393.26	545.38
393.639	548.54
394.018	557.58
394.397	572.73
394.776	580.18
395.155	573.63
395.534	543.12
395.913	562.1
396.292	576.34
396.671	592.61
397.05	596.23
397.429	586.96
397.808	593.52
398.186	611.14
398.565	607.98
398.944	606.17
399.323	593.52
399.701	651.14
400.08	623.57
400.458	613.18
400.837	606.4
401.215	654.98
401.594	653.85
401.972	632.38
402.351	644.36
402.729	644.14
403.107	673.29
403.486	678.03
403.864	660.41
404.242	669.22
404.62	697.24
404.999	686.17
405.377	697.92
405.755	701.99
406.133	708.09
406.511	736.56
406.889	720.52
407.267	761.87
407.645	768.2
408.023	745.38
408.401	779.27
408.779	781.08
409.156	785.37
409.534	798.71
409.912	787.63
410.29	809.1
410.667	832.15
411.045	830.35
411.422	815.88
411.8	865.15
412.178	865.82
412.555	901.08
412.933	841.19
413.31	894.3
413.687	880.97
414.065	890.91
414.442	911.25
414.819	915.31
415.197	953.96
415.574	945.37
415.951	941.75
416.328	948.53
416.705	967.74
417.082	973.17
417.46	973.17
417.837	984.69
418.214	996.67
418.591	1001.19
418.967	1018.59
419.344	1006.61
419.721	1046.61
420.098	1068.76
420.475	1045.03
420.852	1082.54
421.228	1075.99
421.605	1063.79
421.982	1095.2
422.358	1127.06
422.735	1107.4
423.111	1128.87
423.488	1156.66
423.864	1156.21
424.241	1177.45
424.617	1160.51
424.994	1186.04
425.37	1151.69
425.746	1185.59
426.123	1201.41
426.499	1249.54
426.875	1233.72
427.251	1259.03
427.627	1285.7
428.003	1270.11
428.379	1342.2
428.756	1334.96
429.132	1349.65
429.507	1367.05
429.883	1397.11
430.259	1395.98
430.635	1408.64
431.011	1424.68
431.387	1458.58
431.763	1460.84
432.138	1465.13
432.514	1501.51
432.89	1526.82
433.265	1555.07
433.641	1561.85
434.016	1566.15
434.392	1596.65
434.767	1627.16
435.143	1632.13
435.518	1658.8
435.894	1657.22
436.269	1664.67
436.644	1699.25
437.02	1717.78
437.395	1750.77
437.77	1744.9
438.145	1749.64
438.52	1775.41
438.895	1795.97
439.271	1807.27
439.646	1853.14
440.021	1877.55
440.395	1888.4
440.77	1901.73
441.145	1889.98
441.52	1940.6
441.895	1965.23
442.27	1965.91
442.645	1951.45
443.019	1984.21
443.394	1992.12
443.769	2043.87
444.143	2027.15
444.518	2052.23
444.892	2051.1
445.267	2067.15
445.641	2099.92
446.016	2118.67
446.39	2120.71
446.764	2150.54
447.139	2161.16
447.513	2196.19
447.887	2179.24
448.262	2172.68
448.636	2221.04
449.01	2234.6
449.384	2247.71
449.758	2325.45
450.132	2320.02
450.506	2326.13
450.88	2335.62
451.254	2357.76
451.628	2392.56
452.002	2419
452.376	2407.93
452.75	2425.56
453.123	2480.25
453.497	2499
453.871	2508.95
454.244	2560.47
454.618	2579.45
454.992	2576.06
455.365	2634.37
455.739	2707.13
456.112	2679.79
456.486	2739.45
456.859	2789.39
457.232	2777.41
457.606	2769.05
457.979	2829.16
458.352	2909.16
458.725	2935.6
459.099	2935.6
459.472	2983.51
459.845	3000.91
460.218	3048.14
460.591	3050.63
460.964	3083.17
461.337	3154.8
461.71	3196.38
462.083	3221.24
462.456	3238.87
462.829	3242.26
463.201	3306.66
463.574	3299.88
463.947	3329.26
464.32	3437.28
464.692	3423.72
465.065	3506.21
465.438	3582.14
465.81	3592.76
466.183	3609.71
466.555	3689.93
466.928	3745.52
467.3	3731.96
467.672	3743.26
468.045	3889.7
468.417	3884.05
468.789	3923.6
469.161	3960.88
469.534	4047.21
469.906	4102.58
470.278	4121.11
470.65	4169.24
471.022	4269.8
471.394	4329.69
471.766	4355.9
472.138	4436.58
472.51	4559.74
472.882	4565.61
473.253	4653.07
473.625	4692.39
473.997	4822.78
474.369	4812.84
474.74	4874.08
475.112	4945.27
475.484	5068.88
475.855	5139.16
476.227	5173.51
476.598	5315.65
476.97	5335.31
477.341	5499.6
477.713	5534.63
478.084	5605.59
478.455	5776.2
478.827	5749.76
479.198	5979.81
479.569	5992.24
479.94	6172.8
480.311	6201.73
480.682	6304.78
481.053	6470.2
481.424	6541.16
481.795	6661.6
482.166	6696.18
482.537	6808.95
482.908	6949.73
483.279	7004.42
483.65	7131.2
484.021	7270.4
484.391	7394.92
484.762	7452.77
485.133	7472.66
485.503	7669.04
485.874	7791.97
486.244	7852.31
486.615	7947.67
486.985	8105.86
487.356	8264.05
487.726	8350.37
488.097	8546.98
488.467	8517.6
488.837	8730.7
489.207	8823.13
489.578	8962.79
489.948	9009.57
490.318	9145.83
490.688	9187.64
491.058	9328.2
491.428	9450.46
491.798	9615.88
492.168	9793.27
492.538	9757.79
492.908	9849.77
493.278	10018.35
493.648	9989.43
494.017	10153.94
494.387	10297.44
494.757	10320.27
495.126	10479.36
495.496	10483.65
495.866	10568.17
496.235	10668.5
496.605	10810.42
496.974	10927.26
497.344	10988.5
497.713	11083.86
498.082	11166.12
498.452	11279.56
498.821	11329.96
499.19	11454.02
499.559	11527.69
499.928	11602.94
500.298	11671.42
500.667	11838.64
501.036	11788.7
501.405	11898.75
501.774	11851.52
502.143	12037.06
502.512	12113.66
502.88	12235.47
503.249	12272.98
503.618	12399.53
503.987	12399.31
504.356	12429.59
504.724	12615.12
505.093	12603.6
505.462	12745.74
505.83	12781.44
506.199	12863.48
506.567	13110.02
506.936	13109.34
507.304	13279.51
507.672	13298.04
508.041	13373.97
508.409	13519.05
508.777	13680.85
509.145	13665.04
509.514	13791.13
509.882	13832.04
510.25	13897.57
510.618	14002.88
510.986	14118.13
511.354	14218.69
511.722	14349.99
512.09	14560.15
512.458	14498.69
512.826	14580.72
513.193	14721.28
513.561	14768.06
513.929	14931.9
514.297	15128.05
514.664	15188.61
515.032	15204.66
515.4	15357.87
515.767	15460.24
516.135	15526.91
516.502	15430.41
516.869	15780.23
517.237	15863.85
517.604	15804.64
517.972	16028.59
518.339	16175.93
518.706	16241.92
519.073	16266.55
519.44	16511.29
519.808	16631.29
520.175	16695.92
520.542	16880.09
520.909	16965.51
521.276	17024.27
521.643	17253.19
522.009	17372.51
522.376	17451.6
522.743	17647.08
523.11	17743.8
523.477	17979.27
523.843	18006.16
524.21	18340.17
524.577	18414.06
524.943	18529.54
525.31	18671.23
525.676	18838.23
526.043	18984.44
526.409	19000.72
526.776	19331.1
527.142	19353.25
527.508	19376.52
527.874	19571.55
528.241	19714.14
528.607	19904.42
528.973	20032.1
529.339	20094.02
529.705	20267.12
530.071	20478.19
530.437	20468.7
530.803	20590.73
531.169	20767.9
531.535	20617.85
531.901	20783.72
532.267	20870.95
532.632	21063.26
532.998	21149.13
533.364	21254.67
533.73	21417.83
534.095	21650.14
534.461	21667.09
534.826	21821.43
535.192	21909.79
535.557	21941.2
535.923	21949.11
536.288	22082.67
536.653	22298.93
537.019	22208.09
537.384	22322.66
537.749	22452.38
538.114	22501.87
538.479	22612.6
538.845	22618.93
539.21	22730.56
539.575	22857.11
539.94	22827.28
540.305	23136.88
540.67	22991.12
541.034	23234.28
541.399	23324.44
541.764	23393.37
542.129	23438.56
542.494	23463.87
542.858	23733.47
543.223	23644.66
543.587	23798.78
543.952	23799.68
544.316	23901.38
544.681	23878.78
545.045	24083.29
545.41	24227.47
545.774	24301.82
546.138	24320.12
546.503	24531.42
546.867	24418.88
547.231	24738.19
547.595	24718.76
547.959	24748.13
548.324	24814.57
548.688	24893.89
549.052	24948.13
549.416	25120.1
549.779	25087.56
550.143	25215.47
550.507	25401.9
550.871	25493.65
551.235	25377.27
551.599	25624.5
551.962	25586.76
552.326	25694.55
552.689	25870.82
553.053	25796.92
553.417	25955.11
553.78	26370.69
554.143	26337.25
554.507	26360.07
554.87	26461.54
555.234	26800.96
555.597	26600.97
555.96	26720.74
556.323	26924.35
556.686	26986.95
557.05	27246.37
557.413	27206.83
557.776	27239.59
558.139	27569.98
558.502	27561.39
558.865	27728.17
559.228	27894.72
559.59	28003.42
559.953	27923.64
560.316	28362.05
560.679	28272.56
561.041	28436.17
561.404	28542.16
561.767	28771.08
562.129	28746.9
562.492	29105.99
562.854	29057.63
563.217	29058.98
563.579	29267.34
563.941	29397.73
564.304	29558.4
564.666	29742.35
565.028	29813.31
565.39	30012.18
565.753	30086.75
566.115	30262.11
566.477	30201.78
566.839	30356.12
567.201	30575.1
567.563	30638.15
567.925	30839.05
568.287	30895.32
568.648	30905.03
569.01	31137.57
569.372	31271.13
569.734	31118.59
570.095	31289.66
570.457	31512.48
570.819	31611.68
571.18	31621.85
571.542	31781.17
571.903	31793.15
572.265	31784.79
572.626	31845.35
572.987	32124.44
573.349	32296.86
573.71	32362.85
574.071	32493.02
574.432	32537.99
574.794	32685.1
575.155	32609.85
575.516	32582.28
575.877	32759
576.238	32878.32
576.599	32953.79
576.96	33031.98
577.32	33000.35
577.681	33167.57
578.042	33277.85
578.403	33178.65
578.763	33387
579.124	33357.63
579.485	33499.77
579.845	33561.69
580.206	33427.91
580.566	33523.5
580.927	33543.84
581.287	33699.76
581.648	33585.42
582.008	33691.4
582.368	33564.85
582.728	33669.03
583.089	33607.34
583.449	33680.78
583.809	33621.8
584.169	33745.41
584.529	33557.39
584.889	33811.85
585.249	33758.97
585.609	33608.01
585.969	33795.13
586.329	33680.1
586.688	33832.87
587.048	33730.27
587.408	33792.64
587.768	33548.58
588.127	33615.02
588.487	33624.51
588.846	33722.14
589.206	33588.81
589.565	33638.75
589.925	33908.35
590.284	33724.4
590.643	33904.96
591.003	33894.11
591.362	33999.64
591.721	33853.21
592.08	33866.76
592.44	33908.57
592.799	33943.15
593.158	33978.63
593.517	33933.43
593.876	33947.89
594.235	33892.53
594.593	33861.34
594.952	34012.3
595.311	33877.39
595.67	33948.34
596.029	33996.25
596.387	34040.09
596.746	34039.64
597.104	34007.1
597.463	33991.06
597.822	34170.71
598.18	33997.61
598.538	34055.01
598.897	34277.6
599.255	33922.58
599.613	34437.6
599.972	34147.89
600.33	34387.88
600.688	34193.76
601.046	34219.3
601.404	34521.44
601.762	34584.03
602.12	34638.72
602.478	34593.98
602.836	34548.78
603.194	34446.64
603.552	34490.48
603.91	34503.58
604.268	34715.33
604.625	34579.74
604.983	34803.46
605.341	34528.89
605.698	34776.35
606.056	34884.37
606.413	34748.1
606.771	34956
607.128	34870.35
607.485	34748.55
607.843	34815.21
608.2	34926.17
608.557	35089.78
608.914	34926.4
609.272	35054.53
609.629	34982.22
609.986	35206.62
610.343	35016.57
610.7	35361.64
611.057	35104.47
611.414	35314.64
611.771	35177.24
612.127	35365.48
612.484	35433.28
612.841	35491.13
613.198	35383.56
613.554	35469.66
613.911	35634.63
614.267	35680.73
614.624	35524.57
614.98	35551.01
615.337	35793.72
615.693	35755.08
616.05	35772.7
616.406	35947.84
616.762	35812.25
617.118	35861.51
617.475	35898.58
617.831	35991.68
618.187	35948.74
618.543	36002.3
618.899	36197.78
619.255	36075.07
619.611	36082.53
619.967	36170.89
620.323	36220.6
620.678	36161.85
621.034	36077.1
621.39	36068.29
621.746	36091.79
622.101	36524.77
622.457	36354.38
622.812	36279.13
623.168	36265.12
623.523	36398.9
623.879	36489.52
624.234	36223.99
624.589	36362.07
624.945	36297.44
625.3	36293.14
625.655	36289.98
626.01	36316.64
626.365	36454.27
626.72	36268.74
627.075	36321.84
627.43	36302.41
627.785	36228.74
628.14	36256.53
628.495	36339.47
628.85	36273.03
629.205	36125.46
629.559	36306.7
629.914	36086.37
630.269	36186.03
630.623	36051.11
630.978	35954.85
631.332	35980.16
631.687	36267.61
632.041	36037.78
632.396	36012.7
632.75	35915.75
633.104	35951.46
633.459	35777.22
633.813	35702.2
634.167	35788.52
634.521	35669.43
634.875	35587.4
635.229	35577.23
635.583	35522.77
635.937	35508.76
636.291	35546.95
636.645	35565.03
636.999	35440.73
637.352	35419.27
637.706	35189.44
638.06	35502.65
638.413	35292.72
638.767	35286.16
639.121	35249.33
639.474	35008.66
639.828	35176.56
640.181	35099.95
640.534	35054.53
640.888	34919.62
641.241	34777.7
641.594	34893.63
641.947	34879.62
642.301	34797.81
642.654	34742.45
643.007	34768.44
643.36	34762.11
643.713	34714.43
644.066	34644.37
644.419	34517.6
644.771	34442.57
645.124	34020.43
645.477	33976.82
645.83	33615.7
646.182	33671.74
646.535	33455.25
646.888	33471.3
647.24	33340.23
647.593	33471.75
647.945	33303.62
648.298	33208.7
648.65	33248.48
649.002	33130.74
649.355	33192.21
649.707	32990.86
650.059	33346.1
650.411	33632.65
650.763	33734.56
651.115	33998.51
651.467	33847.1
651.819	33845.07
652.171	33742.7
652.523	33810.72
652.875	33677.39
653.227	33581.57
653.578	33800.78
653.93	33735.69
654.282	33514.46
654.633	33349.72
654.985	33528.24
655.337	33507.45
655.688	33577.28
656.039	33537.06
656.391	33379.32
656.742	33375.48
657.094	33443.73
657.445	33468.81
657.796	33361.92
658.147	33215.48
658.498	33271.53
658.849	33201.92
659.2	33173
659.551	33245.76
659.902	33264.07
660.253	33171.64
660.604	33191.75
660.955	32976.84
661.306	33067.92
661.656	33029.05
662.007	32982.72
662.358	33003.74
662.708	33041.7
663.059	32829.96
663.409	32715.61
663.76	32974.58
664.11	32949.27
664.461	32995.38
664.811	32895.49
665.161	32813.46
665.511	32776.85
665.862	32712.67
666.212	32794.7
666.562	32863.63
666.912	32798.54
667.262	32661.6
667.612	32704.76
667.962	32773.23
668.312	32581.83
668.662	32740.92
669.011	32635.16
669.361	32606.01
669.711	32554.93
670.06	32579.79
670.41	32403.98
670.76	32464.54
671.109	32522.62
671.459	32507.25
671.808	32393.58
672.157	32477.65
672.507	32305
672.856	32418.67
673.205	32382.96
673.554	32416.86
673.904	32284.43
674.253	32308.16
674.602	32126.92
674.951	31900.71
675.3	31504.79
675.649	32187.94
675.998	32105.91
676.346	32015.29
676.695	32072.01
677.044	31869.08
677.393	31884.44
677.741	31919.7
678.09	31863.43
678.438	31752.24
678.787	31814.39
679.135	31810.77
679.484	31632.02
679.832	31826.14
680.181	31496.21
680.529	31714.51
680.877	31621.4
681.225	31570.78
681.573	31632.02
681.922	31379.6
682.27	31250.79
682.618	31345.93
682.966	31242.2
683.314	31266.83
683.661	31250.11
684.009	31158.59
684.357	31126.95
684.705	30944.58
685.053	30962.89
685.4	31009.21
685.748	30793.4
686.095	30783.91
686.443	30790.91
686.79	30585.04
687.138	30461.43
687.485	30639.96
687.832	30410.81
688.18	30496.91
688.527	30244.04
688.874	30230.02
689.221	30111.38
689.568	30020.76
689.915	30051.95
690.262	30096.24
690.609	29959.3
690.956	29795.91
691.303	29828.68
691.65	29604.96
691.997	29693.77
692.344	29553.88
692.69	29449.48
693.037	29524.28
693.383	29208.81
693.73	29217.62
694.077	29107.79
694.423	29065.76
694.769	28969.72
695.116	28903.05
695.462	28927.23
695.808	28816.5
696.155	28697.41
696.501	28588.94
696.847	28559.11
697.193	28403.63
697.539	28388.26
697.885	28211.77
698.231	28121.15
698.577	28231.21
698.923	28098.55
699.269	28008.16
699.614	27889.75
699.96	27798.45
700.306	27745.12
700.651	27697.21
700.997	27670.77
701.342	27745.12
701.688	27607.95
702.033	27476.88
702.379	27405.92
702.724	27323.89
703.069	27458.35
703.415	27033.72
703.76	27078.02
704.105	27146.94
704.45	27147.85
704.795	26974.97
705.14	26992.6
705.485	26850.9
705.83	26684.81
706.175	26810.68
706.52	26669.67
706.865	26507.18
707.209	26487.52
707.554	26297.02
707.899	26489.11
708.243	26284.37
708.588	26231.71
708.932	26131.6
709.277	26099.74
709.621	26109.91
709.966	26067.2
710.31	25975.45
710.654	25793.53
710.998	25772.97
711.342	25751.95
711.687	25678.28
712.031	25588.11
712.375	25510.6
712.719	25560.09
713.063	25487.55
713.407	25705.4
713.75	25422.24
714.094	25565.29
714.438	25385.86
714.782	25327.55
715.125	25228.8
715.469	25197.84
715.812	25047.56
716.156	24964.4
716.499	24929.37
716.843	24954.91
717.186	24817.06
717.53	24950.39
717.873	24909.49
718.216	24806.89
718.559	24651.87
718.902	24538.2
719.246	24570.06
719.589	24627.91
719.932	24404.64
720.275	24442.38
720.617	24316.28
720.96	24275.38
721.303	24305.66
721.646	24313.8
721.989	24128.94
722.331	24244.42
722.674	24125.55
723.016	24067.02
723.359	24075.84
723.701	24083.75
724.044	23953.58
724.386	23940.92
724.729	23960.81
725.071	23967.36
725.413	23879.68
725.755	23949.29
726.097	23761.72
726.439	23730.08
726.782	23697.77
727.124	23887.14
727.465	23542.97
727.807	23623.42
728.149	23480.6
728.491	23512.91
728.833	23575.96
729.175	23427.72
729.516	23409.86
729.858	23393.82
730.199	23407.83
730.541	23303.65
730.882	23300.94
731.224	23288.51
731.565	23123.32
731.906	23263.2
732.248	23154.96
732.589	23085.58
732.93	23035.86
733.271	22937.79
733.612	23024.79
733.953	22974.17
734.294	22989.31
734.635	22851.91
734.976	22985.92
735.317	22767.85
735.658	22753.38
735.999	22769.66
736.339	22732.82
736.68	22638.81
737.021	22688.08
737.361	22647.4
737.702	22772.14
738.042	22522.2
738.383	22508.42
738.723	22583.67
739.063	22465.71
739.404	22550
739.744	22375.54
740.084	22200.63
740.424	22379.84
740.764	22213.29
741.104	22295.54
741.444	22164.93
741.784	22180.52
742.124	22153.63
742.464	22131.25
742.804	22129.45
743.143	22021.88
743.483	22003.12
743.823	21929.45
744.162	21937.59
744.502	21956.57
744.841	21824.82
745.181	21889
745.52	21735.78
745.86	21828.21
746.199	21800.42
746.538	21622.34
746.877	21852.84
747.216	21667.31
747.556	21609.91
747.895	21638.84
748.234	21426.19
748.573	21481.78
748.911	21418.73
749.25	21551.16
749.589	21324.95
749.928	21441.78
750.267	21293.76
750.605	21387.09
750.944	21279.53
751.283	21168.79
751.621	21275.91
751.96	21042.02
752.298	21125.86
752.636	21159.75
752.975	21070.72
753.313	20974.45
753.651	21080.89
753.989	20885.19
754.327	20931.06
754.666	20882.25
755.004	20875.47
755.342	20909.82
755.679	20748.92
756.017	20561.8
756.355	20671.41
756.693	20568.13
757.031	20509.15
757.368	20393.45
757.706	20424.86
758.044	20275.71
758.381	20383.05
758.719	20258.99
759.056	20209.95
759.394	20192.1
759.731	20049.5
760.068	20038.2
760.405	19960.24
760.743	19938.77
761.08	19836.4
761.417	19756.85
761.754	19727.7
762.091	19745.1
762.428	19632.56
762.765	19557.31
763.102	19548.27
763.438	19429.86
763.775	19401.61
764.112	19366.13
764.449	19307.15
764.785	19288.39
765.122	19160.94
765.458	19058.57
765.795	19033.48
766.131	18906.93
766.467	18968.63
766.804	18828.97
767.14	18726.37
767.476	18845.01
767.812	18741.96
768.148	18775.41
768.485	18552.37
768.821	18474.85
769.157	18531.8
769.492	18492.03
769.828	18398.02
770.164	18216.33
770.5	18197.57
770.836	18142.88
771.171	18141.98
771.507	17959.16
771.842	17839.62
772.178	17925.94
772.513	17881.87
772.849	17829.9
773.184	17701.54
773.519	17768.43
773.855	17639.62
774.19	17599.62
774.525	17454.99
774.86	17493.86
775.195	17462.22
775.53	17294.09
775.865	17235.34
776.2	17170.93
776.535	16980.66
776.87	17031.5
777.205	16952.63
777.539	16874.44
777.874	16895.91
778.209	16786.08
778.543	16653.66
778.878	16573.21
779.212	16581.57
779.547	16533.21
779.881	16567.11
780.215	16469.26
780.55	16395.13
780.884	16405.76
781.218	16336.15
781.552	16326.44
781.886	16114.01
782.22	16089.15
782.554	16095.25
782.888	15911.3
783.222	15753.57
783.556	15746.56
783.889	15762.38
784.223	15642.39
784.557	15573.69
784.89	15601.71
785.224	15553.35
785.557	15424.31
785.891	15517.42
786.224	15353.13
786.558	15307.7
786.891	15232.23
787.224	15190.19
787.557	15043.31
787.891	15034.72
788.224	15054.83
788.557	15101.16
788.89	14970.31
789.223	14954.72
789.556	14854.84
789.888	14731.45
790.221	14759.02
790.554	14552.92
790.887	14561.51
791.219	14586.82
791.552	14499.36
791.884	14359.93
792.217	14334.17
792.549	14371.91
792.882	14201.75
793.214	14200.39
793.546	14229.09
793.879	14155.42
794.211	14028.42
794.543	14080.62
794.875	14078.13
795.207	14007.63
795.539	13934.18
795.871	14037
796.203	13807.18
796.535	13781.42
796.867	13759.95
797.198	13635.88
797.53	13717.92
797.862	13549.33
798.193	13535.32
798.525	13465.72
798.856	13482.22
799.188	13329.68
799.519	13317.02
799.85	13239.74
800.182	13235.67
800.513	13174.2
800.844	13149.34
801.175	13223.24
801.506	13193.86
801.837	13032.51
802.168	12990.7
802.499	12938.73
802.83	12924.26
803.161	12843.36
803.491	12907.32
803.822	12820.31
804.153	12723.14
804.483	12655.8
804.814	12704.84
805.145	12595.69
805.475	12609.92
805.805	12581.67
806.136	12598.17
806.466	12600.21
806.796	12550.49
807.126	12425.07
807.457	12440.21
807.787	12374.22
808.117	12294.22
808.447	12319.76
808.777	12200.89
809.107	12169.71
809.436	12177.84
809.766	12204.96
810.096	12120.44
810.426	12110.27
810.755	12082.03
811.085	12061.01
811.414	11994.12
811.744	11941.01
812.073	11944.63
812.403	11898.75
812.732	11817.18
813.061	11869.15
813.39	11772.43
813.719	11762.04
814.049	11867.12
814.378	11715.26
814.707	11610.85
815.036	11653.79
815.365	11636.39
815.693	11548.71
816.022	11464.64
816.351	11423.97
816.68	11382.16
817.008	11443.63
817.337	11342.39
817.665	11394.14
817.994	11341.03
818.322	11333.57
818.651	11295.38
818.979	11209.51
819.307	11269.84
819.636	11140.36
819.964	11184.2
820.292	11121.37
820.62	11174.03
820.948	11140.81
821.276	11230.52
821.604	11183.07
821.932	11125.67
822.259	11151.66
822.587	11137.42
822.915	11091.77
823.243	11163.18
823.57	11078.44
823.898	11078.66
824.225	11101.26
824.553	11074.14
824.88	11131.54
825.207	11143.07
825.535	11157.76
825.862	11189.4
826.189	11016.07
826.516	11107.36
826.843	11133.58
827.17	11156.18
827.497	11157.76
827.824	11184.88
828.151	11180.13
828.478	11069.17
828.805	11144.42
829.131	11113.46
829.458	11086.35
829.785	11110.98
830.111	11112.79
830.438	11132.9
830.764	11169.96
831.09	11111.88
831.417	10999.34
831.743	11078.21
832.069	11095.16
832.395	11032.56
832.722	11040.92
833.048	11031.89
833.374	10997.54
833.7	10952.57
834.026	10923.19
834.351	10969.51
834.677	10965.22
835.003	10942.62
835.329	10932.45
835.654	10946.01
835.98	10828.73
836.306	10893.36
836.631	10839.35
836.956	10847.48
837.282	10934.49
837.607	10838.44
837.932	10793.02
838.258	10792.8
838.583	10786.24
838.908	10742.63
839.233	10742.18
839.558	10718.9
839.883	10700.82
840.208	10648.17
840.533	10614.04
840.858	10590.09
841.182	10606.36
841.507	10594.83
841.832	10506.25
842.156	10508.06
842.481	10573.14
842.805	10516.42
843.13	10445.23
843.454	10439.13
843.778	10361.17
844.103	10445.01
844.427	10351.23
844.751	10370.66
845.075	10337.44
845.399	10270.1
845.723	10234.84
846.047	10208.63
846.371	10075.98
846.695	10141.51
847.019	10052.7
847.343	10022.19
847.666	9964.34
847.99	9943.55
848.313	9862.88
848.637	9779.71
848.96	9802.31
849.284	9772.94
849.607	9733.39
849.931	9685.71
850.254	9583.34
850.577	9606.61
850.9	9555.09
851.223	9536.56
851.546	9456.11
851.869	9461.76
852.192	9499.27
852.515	9379.27
852.838	9323.68
853.161	9313.51
853.483	9257.24
853.806	9315.09
854.129	9211.82
854.451	9257.92
854.774	9227.19
855.096	9160.07
855.419	9150.13
855.741	9091.37
856.063	9146.06
856.385	9088.89
856.708	9046.63
857.03	8965.5
857.352	9024.48
857.674	8949
857.996	8959.17
858.318	8962.56
858.64	8906.29
858.961	8873.52
859.283	8888.89
859.605	8854.77
859.926	8753.75
860.248	8747.65
860.57	8751.27
860.891	8745.84
861.212	8692.06
861.534	8650.7
861.855	8674.66
862.176	8662
862.498	8652.51
862.819	8695
863.14	8603.02
863.461	8563.48
863.782	8534.32
864.103	8570.25
864.424	8499.3
864.745	8494.1
865.065	8575
865.386	8531.16
865.707	8452.74
866.027	8487.55
866.348	8392.86
866.668	8447.09
866.989	8436.25
867.309	8372.75
867.63	8404.61
867.95	8377.72
868.27	8298.4
868.59	8318.96
868.91	8290.49
869.23	8275.57
869.55	8341.33
869.87	8268.57
870.19	8206.42
870.51	8278.96
870.83	8293.65
871.15	8165.29
871.469	8194.9
871.789	8216.59
872.109	8227.21
872.428	8177.95
872.748	8216.82
873.067	8129.59
873.386	8167.78
873.706	8153.99
874.025	8084.84
874.344	8069.03
874.663	8124.39
874.982	8048.69
875.301	8069.03
875.62	8034.22
875.939	8049.82
876.258	8036.03
876.577	8021.57
876.896	7945.64
877.214	7931.85
877.533	7948.12
877.852	7946.99
878.17	7939.54
878.489	7902.48
878.807	7965.53
879.125	7921.46
879.444	7930.72
879.762	7862.93
880.08	7889.82
880.398	7801.91
880.716	7897.5
881.034	7801.69
881.352	7783.38
881.67	7768.47
881.988	7803.04
882.306	7776.38
882.624	7794.23
882.941	7747.68
883.259	7733.44
883.577	7690.96
883.894	7612.09
884.212	7664.97
884.529	7679.88
884.846	7634.91
885.164	7600.56
885.481	7596.95
885.798	7603.73
886.115	7545.42
886.432	7596.72
886.75	7469.04
887.067	7540
887.383	7456.39
887.7	7491.87
888.017	7371.42
888.334	7445.54
888.651	7433.11
888.967	7420.68
889.284	7329.16
889.6	7309.5
889.917	7251.87
890.233	7344.75
890.55	7269.95
890.866	7283.28
891.182	7293
891.498	7215.71
891.815	7208.03
892.131	7194.47
892.447	7209.84
892.763	7185.21
893.079	7186.11
893.395	7198.09
893.71	7116.51
894.026	7092.1
894.342	7114.93
894.657	7048.04
894.973	7005.32
895.289	7069.05
895.604	7008.49
895.92	6891.43
896.235	6941.37
896.55	6933.24
896.865	6915.16
897.181	6817.08
897.496	6860.02
897.811	6815.72
898.126	6785.9
898.441	6750.87
898.756	6788.15
899.071	6707.48
899.386	6787.93
899.7	6667.48
900.015	6666.58
900.33	6634.26
900.644	6608.05
900.959	6590.87
901.273	6556.97
901.588	6516.98
901.902	6529.86
902.216	6525.11
902.531	6481.72
902.845	6467.94
903.159	6452.8
903.473	6413.93
903.787	6397.66
904.101	6360.37
904.415	6333.7
904.729	6318.34
905.042	6285.8
905.356	6281.05
905.67	6241.5
905.984	6315.4
906.297	6219.81
906.611	6213.48
906.924	6187.04
907.237	6128.06
907.551	6147.27
907.864	6097.55
908.177	6040.83
908.491	5989.08
908.804	6020.94
909.117	5964.22
909.43	5954.5
909.743	5926.48
910.056	5982.98
910.368	5901.17
910.681	5864.79
910.994	5879.7
911.307	5862.08
911.619	5759.03
911.932	5759.26
912.244	5730.56
912.557	5780.5
912.869	5675.87
913.181	5750.44
913.494	5702.76
913.806	5674.29
914.118	5636.32
914.43	5575.08
914.742	5684.68
915.054	5576.66
915.366	5568.53
915.678	5504.57
915.99	5517.68
916.302	5420.06
916.613	5473.61
916.925	5440.39
917.236	5438.36
917.548	5389.77
917.859	5333.28
918.171	5333.73
918.482	5285.6
918.794	5260.06
919.105	5345.71
919.416	5223
919.727	5266.84
920.038	5246.27
920.349	5159.05
920.66	5152.04
920.971	5177.35
921.282	5122.21
921.593	5065.94
921.903	5068.65
922.214	5037.24
922.525	5039.5
922.835	5030.91
923.146	4960.86
923.456	4960.86
923.767	4971.48
924.077	4963.57
924.387	4893.97
924.697	4886.96
925.008	4858.26
925.318	4884.02
925.628	4871.14
925.938	4836.57
926.248	4811.71
926.558	4770.81
926.867	4755.89
927.177	4722.67
927.487	4747.76
927.796	4676.57
928.106	4653.52
928.416	4639.96
928.725	4639.06
929.034	4653.3
929.344	4677.48
929.653	4633.18
929.962	4565.16
930.271	4580.53
930.581	4555.9
930.89	4486.97
931.199	4480.64
931.508	4420.08
931.817	4444.94
932.125	4439.06
932.434	4420.53
932.743	4350.93
933.051	4372.63
933.36	4362.23
933.669	4301.44
933.977	4322.91
934.286	4289.01
934.594	4291.05
934.902	4246.98
935.21	4263.02
935.519	4237.94
935.827	4243.14
936.135	4189.58
936.443	4174.21
936.751	4160.65
937.059	4185.29
937.367	4125.85
937.674	4138.51
937.982	4115
938.29	4075.91
938.597	4079.75
938.905	4073.88
939.213	4030.94
939.52	3983.48
939.827	3999.3
940.135	3970.38
940.442	3958.4
940.749	3983.48
941.056	3983.03
941.363	3902.13
941.67	3943.26
941.977	3874.33
942.284	3872.53
942.591	3869.81
942.898	3852.19
943.205	3823.04
943.511	3789.36
943.818	3783.94
944.125	3789.14
944.431	3776.93
944.738	3789.36
945.044	3731.06
945.35	3771.51
945.657	3713.66
945.963	3708.01
946.269	3664.4
946.575	3640.44
946.881	3635.02
947.187	3648.35
947.493	3619.2
947.799	3661.68
948.105	3598.18
948.41	3572.65
948.716	3553.89
949.022	3538.97
949.327	3552.08
949.633	3522.48
949.938	3527.68
950.244	3487.68
950.549	3424.85
950.854	3434.34
951.16	3433.21
951.465	3423.95
951.77	3411.52
952.075	3390.96
952.38	3375.36
952.685	3391.86
952.99	3325.42
953.294	3318.64
953.599	3310.28
953.904	3288.59
954.209	3284.29
954.513	3260.34
954.818	3267.12
955.122	3235.93
955.426	3221.69
955.731	3206.55
956.035	3181.47
956.339	3196.84
956.643	3187.12
956.948	3117.29
957.252	3192.54
957.556	3121.36
957.86	3142.15
958.163	3141.92
958.467	3131.3
958.771	3083.85
959.075	3073.9
959.378	3079.33
959.682	3051.53
959.985	3023.73
960.289	3034.58
960.592	3006.11
960.896	3017.18
961.199	2987.12
961.502	2997.97
961.805	2957.07
962.108	2954.13
962.411	2948.48
962.714	2916.17
963.017	2904.64
963.32	2899.22
963.623	2874.36
963.926	2901.25
964.228	2877.75
964.531	2862.61
964.833	2839.56
965.136	2812.89
965.438	2824.64
965.741	2784.19
966.043	2744.19
966.345	2755.72
966.648	2737.41
966.95	2748.71
967.252	2731.31
967.554	2716.85
967.856	2713.46
968.158	2680.01
968.46	2695.38
968.761	2682.73
969.063	2653.12
969.365	2668.04
969.666	2701.93
969.968	2629.85
970.269	2614.25
970.571	2615.61
970.872	2615.61
971.174	2616.74
971.475	2601.6
971.776	2599.34
972.077	2551.2
972.378	2584.42
972.679	2528.61
972.98	2524.76
973.281	2541.49
973.582	2515.95
973.883	2490.64
974.183	2494.03
974.484	2493.35
974.785	2501.26
975.085	2473.24
975.386	2462.62
975.686	2471.88
975.986	2416.29
976.287	2445.67
976.587	2393.69
976.887	2409.29
977.187	2407.93
977.487	2389.63
977.787	2385.11
978.087	2371.32
978.387	2345.56
978.687	2324.77
978.987	2311.21
979.286	2312.34
979.586	2325.9
979.885	2279.57
980.185	2280.02
980.484	2286.13
980.784	2266.92
981.083	2242.06
981.382	2254.49
981.682	2242.06
981.981	2233.02
982.28	2229.86
982.579	2211.78
982.878	2204.77
983.177	2209.52
983.475	2211.1
983.774	2174.49
984.073	2162.51
984.372	2127.03
984.67	2164.32
984.969	2138.79
985.267	2125.68
985.566	2100.59
985.864	2089.52
986.162	2089.07
986.461	2084.78
986.759	2069.18
987.057	2072.12
987.355	2058.56
987.653	2075.74
987.951	2039.13
988.249	2032.8
988.547	2028.28
988.844	2036.64
989.142	2019.69
989.44	2031.67
989.737	2006.59
990.035	1981.05
990.332	1988.96
990.63	1956.87
990.927	1957.32
991.224	1938.11
991.521	1947.15
991.819	1892.24
992.116	1891.79
992.413	1919.81
992.71	1886.81
993.006	1897.66
993.303	1894.05
993.6	1864.44
993.897	1842.07
994.193	1887.94
994.49	1878.68
994.787	1845.69
995.083	1857.89
995.379	1813.37
995.676	1814.95
995.972	1799.81
996.268	1778.57
996.565	1818.79
996.861	1772.24
997.157	1772.92
997.453	1774.95
997.749	1751.45
998.044	1767.72
998.34	1751.23
998.636	1723.43
998.932	1731.11
999.227	1715.07
999.523	1741.28
999.818	1700.61
1000.114	1705.35
1000.409	1687.95
1000.704	1701.73
1001	1671
1001.295	1667.16
1001.59	1677.78
1001.885	1657.89
1002.18	1637.78
1002.475	1651.11
1002.77	1612.47
1003.065	1602.3
1003.359	1589.87
1003.654	1594.62
1003.949	1579.03
1004.243	1576.77
1004.538	1570.21
1004.832	1541.29
1005.127	1565.92
1005.421	1570.44
1005.715	1559.14
1006.009	1546.26
1006.304	1508.29
1006.598	1534.96
1006.892	1528.41
1007.186	1497.9
1007.48	1507.16
1007.773	1472.81
1008.067	1480.05
1008.361	1451.57
1008.655	1468.75
1008.948	1467.39
1009.242	1463.55
1009.535	1450.44
1009.829	1450.89
1010.122	1436.88
1010.415	1432.82
1010.708	1410.9
1011.001	1414.06
1011.295	1379.94
1011.588	1397.34
1011.881	1371.35
1012.173	1381.29
1012.466	1370.44
1012.759	1381.29
1013.052	1341.07
1013.344	1364.12
1013.637	1339.94
1013.93	1362.76
1014.222	1328.19
1014.514	1338.81
1014.807	1328.64
1015.099	1290.22
1015.391	1285.25
1015.683	1266.94
1015.976	1269.66
1016.268	1274.63
1016.56	1268.98
1016.851	1242.76
1017.143	1248.41
1017.435	1238.92
1017.727	1242.31
1018.018	1229.66
1018.31	1239.37
1018.602	1221.07
1018.893	1206.83
1019.185	1188.53
1019.476	1196.21
1019.767	1161.41
1020.058	1193.27
1020.35	1166.38
1020.641	1140.39
1020.932	1160.73
1021.223	1163.9
1021.514	1131.58
1021.804	1129.55
1022.095	1121.41
1022.386	1119.15
1022.677	1093.84
1022.967	1117.34
1023.258	1113.73
1023.548	1095.88
1023.839	1083.45
1024.129	1089.55
1024.419	1076.21
1024.709	1061.98
1025	1080.96
1025.29	1067.63
1025.58	1056.78
1025.87	1039.38
1026.16	1057.23
1026.449	1033.28
1026.739	1028.53
1027.029	1052.71
1027.319	996.44
1027.608	1004.8
1027.898	1005.71
1028.187	992.38
1028.477	1009.55
1028.766	960.51
1029.055	977.91
1029.344	960.74
1029.634	973.84
1029.923	971.36
1030.212	939.95
1030.501	946.5
1030.79	949.66
1031.078	944.24
1031.367	920.06
1031.656	920.96
1031.945	924.81
1032.233	900.63
1032.522	912.38
1032.81	910.12
1033.099	892.49
1033.387	902.43
1033.675	914.86
1033.963	877.8
1034.251	887.52
1034.54	883.9
1034.828	847.52
1035.116	866.73
1035.403	862.66
1035.691	843.23
1035.979	859.27
1036.267	857.92
1036.554	826.05
1036.842	828.99
1037.129	842.77
1037.417	824.47
1037.704	819.05
1037.992	810.91
1038.279	835.99
1038.566	792.15
1038.853	792.15
1039.14	792.15
