Data from foam_black_FLMS001491_00011.txt Node
Date: Wed Feb 08 10:43:34 GMT 2017
User: dcchb
Spectrometer: FLMS00149
Trigger mode: 0
Integration Time (sec): 2.000000E-2
Scans to average: 10
Electric dark correction enabled: true
Nonlinearity correction enabled: false
Boxcar width: 0
XAxis mode: Wavelengths
Number of Pixels in Spectrum: 2048
>>>>>Begin Spectral Data<<<<<
341.393	-15.17
341.776	-15.17
342.16	-15.17
342.543	-59.69
342.927	-73.7
343.31	-65.34
343.693	-82.06
344.077	-59.69
344.46	-45
344.843	-47.94
345.226	-42.06
345.61	-43.42
345.993	-26.24
346.376	-3.64
346.759	13.3
347.142	14.21
347.525	40.42
347.908	79.97
348.291	72.51
348.674	80.2
349.057	114.77
349.44	121.32
349.823	150.48
350.206	145.05
350.588	192.96
350.971	174.66
351.354	209.68
351.737	238.61
352.119	249.23
352.502	228.21
352.884	248.55
353.267	267.31
353.65	258.04
354.032	274.99
354.414	293.3
354.797	278.83
355.179	293.52
355.562	296.24
355.944	322.45
356.326	332.84
356.709	311.38
357.091	300.98
357.473	332.17
357.855	307.31
358.238	358.15
358.62	316.35
359.002	323.35
359.384	327.87
359.766	321.77
360.148	316.35
360.53	339.4
360.912	321.32
361.294	309.57
361.676	323.13
362.057	311.38
362.439	319.74
362.821	310.7
363.203	281.09
363.584	290.13
363.966	315.22
364.348	301.21
364.729	287.87
365.111	288.1
365.493	308.44
365.874	315.67
366.256	307.76
366.637	301.21
367.019	308.21
367.4	295.33
367.781	276.12
368.163	296.46
368.544	288.55
368.925	303.92
369.306	287.42
369.688	277.93
370.069	310.02
370.45	291.04
370.831	316.12
371.212	284.94
371.593	301.43
371.974	312.51
372.355	302.34
372.736	286.29
373.117	291.94
373.498	294.2
373.879	282
374.26	317.03
374.641	281.32
375.021	302.79
375.402	334.65
375.783	303.01
376.163	313.86
376.544	323.13
376.925	289.23
377.305	301.66
377.686	313.64
378.066	305.27
378.447	301.21
378.827	321.77
379.208	310.7
379.588	317.03
379.968	291.94
380.349	308.21
380.729	302.11
381.109	318.83
381.489	330.58
381.87	303.69
382.25	322.45
382.63	321.55
383.01	317.93
383.39	318.16
383.77	348.44
384.15	327.65
384.53	322
384.91	335.56
385.29	308.44
385.67	329.91
386.049	309.12
386.429	325.16
386.809	322.68
387.189	315.44
387.568	338.49
387.948	313.18
388.328	325.39
388.707	329.68
389.087	335.33
389.466	318.83
389.846	336.91
390.225	338.27
390.605	329.91
390.984	320.42
391.363	331.04
391.743	332.39
392.122	339.17
392.501	361.77
392.881	367.19
393.26	366.74
393.639	348.66
394.018	342.34
394.397	336.91
394.776	357.93
395.155	351.15
395.534	336.69
395.913	338.27
396.292	355.67
396.671	368.78
397.05	351.83
397.429	336.69
397.808	351.37
398.186	368.78
398.565	339.62
398.944	355.44
399.323	357.25
399.701	359.74
400.08	383.92
400.458	370.36
400.837	371.49
401.215	366.97
401.594	373.3
401.972	379.62
402.351	367.42
402.729	414.42
403.107	356.8
403.486	383.92
403.864	402
404.242	395.22
404.62	405.84
404.999	384.14
405.377	377.36
405.755	385.05
406.133	389.34
406.511	388.44
406.889	409.68
407.267	396.8
407.645	412.84
408.023	389.34
408.401	399.06
408.779	399.06
409.156	415.33
409.534	412.39
409.912	381.66
410.29	376.01
410.667	418.49
411.045	410.36
411.422	432.28
411.8	402.9
412.178	436.8
412.555	413.97
412.933	407.87
413.31	416.46
413.687	431.37
414.065	419.85
414.442	433.63
414.819	433.63
415.197	438.6
415.574	441.77
415.951	432.05
416.328	444.25
416.705	450.13
417.082	456.23
417.46	445.38
417.837	455.78
418.214	461.2
418.591	448.32
418.967	435.89
419.344	447.64
419.721	440.86
420.098	472.5
420.475	460.3
420.852	469.34
421.228	459.17
421.605	474.08
421.982	466.17
422.358	470.24
422.735	475.89
423.111	469.11
423.488	479.28
423.864	479.51
424.241	494.2
424.617	467.98
424.994	487.87
425.37	484.25
425.746	508.66
426.123	490.13
426.499	499.39
426.875	495.1
427.251	498.04
427.627	507.08
428.003	505.95
428.379	515.21
428.756	531.94
429.132	494.42
429.507	529.45
429.883	519.05
430.259	523.8
430.635	522.67
431.011	521.99
431.387	524.48
431.763	526.06
432.138	561.31
432.514	538.04
432.89	561.31
433.265	579.17
433.641	569.9
434.016	552.73
434.392	591.14
434.767	571.93
435.143	569.45
435.518	557.47
435.894	574.42
436.269	578.94
436.644	602.44
437.02	589.79
437.395	586.85
437.77	586.85
438.145	603.12
438.52	592.5
438.895	607.41
439.271	624.81
439.646	622.1
440.021	629.33
440.395	598.83
440.77	612.84
441.145	638.15
441.52	624.81
441.895	617.13
442.27	614.19
442.645	639.28
443.019	641.08
443.394	632.72
443.769	641.54
444.143	626.17
444.518	653.06
444.892	656
445.267	637.24
445.641	643.34
446.016	652.84
446.39	653.29
446.764	677.69
447.139	658.71
447.513	662.1
447.887	657.36
448.262	683.12
448.636	704.36
449.01	680.41
449.384	693.51
449.758	675.43
450.132	712.04
450.506	701.42
450.88	728.54
451.254	695.55
451.628	710.91
452.002	710.01
452.376	700.07
452.75	702.78
453.123	736.22
453.497	725.15
453.871	767.18
454.244	746.62
454.618	744.13
454.992	768.31
455.365	766.51
455.739	744.58
456.112	780.06
456.486	775.54
456.859	765.83
457.232	764.25
457.606	779.16
457.979	775.54
458.352	802.66
458.725	786.17
459.099	800.63
459.472	820.06
459.845	839.27
460.218	831.59
460.591	846.96
460.964	820.29
461.337	860.51
461.71	856.67
462.083	865.26
462.456	875.88
462.829	854.64
463.201	869.78
463.574	874.98
463.947	864.58
464.32	884.47
464.692	910.68
465.065	913.85
465.438	898.93
465.81	943.68
466.183	932.6
466.555	967.18
466.928	960.62
467.3	964.69
467.672	987.29
468.045	997.69
468.417	993.17
468.789	975.99
469.161	1017.8
469.534	1025.03
469.906	1019.38
470.278	1028.42
470.65	1018.7
471.022	1054.63
471.394	1072.49
471.766	1079.72
472.138	1105.93
472.51	1101.19
472.882	1127.63
473.253	1115.87
473.625	1154.29
473.997	1166.95
474.369	1169.43
474.74	1160.62
475.112	1189.32
475.484	1191.8
475.855	1205.59
476.227	1242.42
476.598	1251.92
476.97	1235.65
477.341	1250.33
477.713	1277.9
478.084	1284.01
478.455	1333.5
478.827	1315.64
479.198	1392.48
479.569	1345.7
479.94	1401.97
480.311	1410.78
480.682	1423.89
481.053	1434.51
481.424	1460.27
481.795	1455.07
482.166	1512.7
482.537	1509.76
482.908	1519.93
483.279	1550.44
483.65	1557.22
484.021	1581.17
484.391	1602.87
484.762	1626.6
485.133	1633.15
485.503	1642.19
485.874	1689.64
486.244	1717.89
486.615	1749.08
486.985	1747.04
487.356	1732.36
487.726	1809.64
488.097	1818.23
488.467	1810.32
488.837	1839.92
489.207	1844.89
489.578	1852.35
489.948	1874.72
490.318	1920.83
490.688	1891.22
491.058	1925.12
491.428	1956.3
491.798	1983.65
492.168	2020.94
492.538	1998.56
492.908	2035.85
493.278	2081.72
493.648	2062.74
494.017	2101.84
494.387	2132.12
494.757	2113.14
495.126	2140.03
495.496	2172.57
495.866	2164.43
496.235	2143.42
496.605	2167.37
496.974	2206.47
497.344	2232.23
497.713	2210.54
498.082	2241.72
498.452	2236.3
498.821	2290.08
499.19	2245.56
499.559	2262.29
499.928	2310.65
500.298	2324.43
500.667	2392.9
501.036	2356.29
501.405	2393.36
501.774	2393.13
502.143	2393.58
502.512	2420.47
502.88	2435.39
503.249	2456.18
503.618	2504.54
503.987	2489.62
504.356	2485.56
504.724	2509.96
505.093	2489.85
505.462	2499.57
505.83	2506.35
506.199	2526.91
506.567	2585.67
506.936	2551.32
507.304	2561.49
507.672	2613.01
508.041	2604.42
508.409	2626.12
508.777	2662.05
509.145	2680.13
509.514	2685.78
509.882	2714.7
510.25	2734.59
510.618	2765.1
510.986	2755.38
511.354	2772.1
511.722	2739.79
512.09	2775.94
512.458	2789.95
512.826	2818.88
513.193	2812.78
513.561	2823.85
513.929	2845.09
514.297	2861.37
514.664	2862.04
515.032	2890.52
515.4	2936.62
515.767	2966.9
516.135	3033.34
516.502	2999.21
516.869	3083.51
517.237	3086.22
517.604	3073.79
517.972	3069.04
518.339	3115.6
518.706	3111.53
519.073	3114.47
519.44	3125.31
519.808	3151.98
520.175	3163.5
520.542	3177.97
520.909	3200.79
521.276	3220.9
521.643	3226.55
522.009	3272.65
522.376	3306.78
522.743	3309.49
523.11	3319.88
523.477	3341.58
523.843	3389.71
524.21	3491.41
524.577	3479.88
524.943	3528.92
525.31	3536.6
525.676	3514.46
526.043	3580.89
526.409	3594
526.776	3582.48
527.142	3590.61
527.508	3622.25
527.874	3619.99
528.241	3617.73
528.607	3668.35
528.973	3662.7
529.339	3692.08
529.705	3695.92
530.071	3707.9
530.437	3795.58
530.803	3779.99
531.169	3827.89
531.535	3857.95
531.901	3834.67
532.267	3918.29
532.632	3945.63
532.998	3949.25
533.364	3984.95
533.73	3990.6
534.095	4018.4
534.461	4067.21
534.826	4072.41
535.192	4051.62
535.557	4105.4
535.923	4051.84
536.288	4078.06
536.653	4073.99
537.019	4017.27
537.384	4052.07
537.749	4068.11
538.114	4072.63
538.479	4088
538.845	4118.28
539.21	4128.9
539.575	4157.6
539.94	4202.8
540.305	4206.41
540.67	4259.29
541.034	4318.73
541.399	4273.98
541.764	4341.78
542.129	4374.09
542.494	4401.21
542.858	4410.7
543.223	4394.66
543.587	4431.27
543.952	4432.17
544.316	4361.66
544.681	4384.26
545.045	4429.01
545.41	4421.32
545.774	4403.02
546.138	4428.1
546.503	4462
546.867	4432.4
547.231	4455.22
547.595	4477.14
547.959	4501.1
548.324	4523.92
548.688	4563.02
549.052	4615.22
549.416	4620.19
549.779	4654.54
550.143	4673.52
550.507	4726.85
550.871	4711.94
551.235	4698.83
551.599	4803.69
551.962	4801.88
552.326	4810.24
552.689	4850.01
553.053	4795.78
553.417	4845.04
553.78	4808.66
554.143	4833.74
554.507	4793.97
554.87	4785.38
555.234	4891.59
555.597	4847.53
555.96	4822.44
556.323	4877.13
556.686	4900.18
557.05	4924.36
557.413	4933.18
557.776	4972.27
558.139	5040.29
558.502	5035.32
558.865	5047.52
559.228	5079.61
559.59	5178.59
559.953	5224.24
560.316	5263.34
560.679	5286.39
561.041	5330.23
561.404	5296.1
561.767	5304.47
562.129	5276.22
562.492	5357.57
562.854	5345.14
563.217	5349.44
563.579	5326.61
563.941	5372.03
564.304	5384.24
564.666	5387.63
565.028	5379.04
565.39	5411.81
565.753	5473.95
566.115	5485.7
566.477	5491.35
566.839	5561.63
567.201	5585.36
567.563	5614.74
567.925	5603.89
568.287	5696.32
568.648	5692.25
569.01	5733.83
569.372	5812.93
569.734	5844.34
570.095	5881.17
570.457	5930.21
570.819	5889.99
571.18	5886.82
571.542	5956.65
571.903	5905.58
572.265	5917.1
572.626	5935.18
572.987	5904.68
573.349	5935.63
573.71	5940.15
574.071	5938.8
574.432	5930.66
574.794	6007.95
575.155	5960.27
575.516	5946.03
575.877	5985.58
576.238	5984.67
576.599	6023.09
576.96	6016.31
577.32	6074.39
577.681	6107.16
578.042	6162.97
578.403	6202.97
578.763	6209.98
579.124	6273.48
579.485	6302.4
579.845	6298.34
580.206	6310.31
580.566	6295.17
580.927	6188.74
581.287	6297.21
581.648	6252.91
582.008	6330.43
582.368	6285.46
582.728	6262.86
583.089	6234.16
583.449	6227.15
583.809	6193.03
584.169	6218.11
584.529	6150.54
584.889	6252.01
585.249	6099.47
585.609	6109.19
585.969	6176.31
586.329	6193.93
586.688	6203.88
587.048	6212.01
587.408	6245.68
587.768	6293.37
588.127	6310.54
588.487	6297.21
588.846	6344.44
589.206	6371.78
589.565	6394.61
589.925	6433.93
590.284	6368.62
590.643	6415.17
591.003	6387.6
591.362	6417.88
591.721	6383.31
592.08	6369.75
592.44	6335.4
592.799	6374.27
593.158	6319.13
593.517	6263.99
593.876	6219.24
594.235	6222.63
594.593	6168.62
594.952	6223.54
595.311	6192.13
595.67	6191
596.029	6215.85
596.387	6262.41
596.746	6284.55
597.104	6272.12
597.463	6278.45
597.822	6344.21
598.18	6366.36
598.538	6327.26
598.897	6410.88
599.255	6433.25
599.613	6503.53
599.972	6508.95
600.33	6493.59
600.688	6473.47
601.046	6496.07
601.404	6494.72
601.762	6525.45
602.12	6477.32
602.478	6492.91
602.836	6495.85
603.194	6450.2
603.552	6469.18
603.91	6397.54
604.268	6450.65
604.625	6351.44
604.983	6334.49
605.341	6362.06
605.698	6348.73
606.056	6375.62
606.413	6353.7
606.771	6383.31
607.128	6406.58
607.485	6432.34
607.843	6423.76
608.2	6461.04
608.557	6531.55
608.914	6527.48
609.272	6673.02
609.629	6656.07
609.986	6644.54
610.343	6643.41
610.7	6715.05
611.057	6675.5
611.414	6704.65
611.771	6721.38
612.127	6765.44
612.484	6763.86
612.841	6690.19
613.198	6722.51
613.554	6676.41
613.911	6697.2
614.267	6647.25
614.624	6571.78
614.98	6603.41
615.337	6623.53
615.693	6563.19
616.05	6588.95
616.406	6615.62
616.762	6540.59
617.118	6605
617.475	6546.47
617.831	6568.84
618.187	6602.06
618.543	6621.94
618.899	6617.42
619.255	6652.23
619.611	6654.26
619.967	6703.52
620.323	6750.53
620.678	6766.35
621.034	6768.61
621.39	6825.33
621.746	6851.09
622.101	6852.45
622.457	6814.93
622.812	6832.56
623.168	6855.61
623.523	6869.85
623.879	6847.25
624.234	6851.09
624.589	6821.49
624.945	6836.18
625.3	6821.94
625.655	6796.4
626.01	6742.17
626.365	6761.38
626.72	6687.93
627.075	6719.34
627.43	6719.12
627.785	6648.16
628.14	6605.67
628.495	6627.59
628.85	6623.98
629.205	6593.47
629.559	6657.2
629.914	6635.5
630.269	6639.8
630.623	6607.26
630.978	6618.55
631.332	6673.47
631.687	6692
632.041	6678.67
632.396	6753.24
632.75	6708.27
633.104	6780.58
633.459	6741.26
633.813	6760.02
634.167	6714.37
634.521	6713.02
634.875	6766.57
635.229	6763.86
635.583	6671.43
635.937	6667.59
636.291	6665.33
636.645	6638.67
636.999	6662.4
637.352	6648.61
637.706	6603.87
638.06	6586.69
638.413	6557.77
638.767	6532.46
639.121	6508.5
639.474	6482.74
639.828	6459.91
640.181	6400.48
640.534	6492.91
640.888	6429.86
641.241	6371.56
641.594	6352.57
641.947	6401.39
642.301	6386.02
642.654	6412.23
643.007	6398.67
643.36	6413.81
643.713	6432.34
644.066	6477.99
644.419	6408.62
644.771	6373.36
645.124	6280.48
645.477	6373.14
645.83	6340.82
646.182	6359.58
646.535	6309.86
646.888	6383.53
647.24	6384.44
647.593	6395.06
647.945	6395.74
648.298	6305.12
648.65	6323.65
649.002	6356.87
649.355	6317.77
649.707	6310.77
650.059	6285.46
650.411	6292.69
650.763	6351.9
651.115	6370.65
651.467	6300.6
651.819	6309.18
652.171	6295.17
652.523	6282.52
652.875	6266.47
653.227	6216.53
653.578	6253.37
653.93	6173.37
654.282	6214.95
654.633	6139.7
654.985	6217.21
655.337	6239.13
655.688	6226.7
656.039	6214.27
656.391	6256.53
656.742	6223.08
657.094	6258.34
657.445	6309.18
657.796	6314.38
658.147	6291.11
658.498	6310.31
658.849	6327.26
659.2	6266.7
659.551	6314.16
659.902	6332.46
660.253	6259.24
660.604	6327.26
660.955	6256.98
661.306	6229.64
661.656	6214.95
662.007	6290.2
662.358	6247.27
662.708	6228.51
663.059	6206.14
663.409	6175.85
663.76	6163.65
664.11	6165.01
664.461	6134.95
664.811	6138.79
665.161	6105.8
665.511	6082.98
665.862	6143.77
666.212	6100.38
666.562	6084.56
666.912	6065.8
667.262	6015.41
667.612	6075.97
667.962	6090.43
668.312	6025.12
668.662	6101.05
669.011	6112.13
669.361	6098.12
669.711	6085.01
670.06	6114.16
670.41	6142.18
670.76	6131.79
671.109	6126.82
671.459	6248.17
671.808	6198.23
672.157	6233.25
672.507	6171.56
672.856	6192.8
673.205	6218.57
673.554	6202.75
673.904	6198.68
674.253	6211.56
674.602	6217.89
674.951	6094.27
675.3	6068.06
675.649	6167.27
675.998	6108.51
676.346	6144.67
676.695	6145.35
677.044	6060.6
677.393	6068.74
677.741	6014.5
678.09	5991.9
678.438	6047.04
678.787	6054.95
679.135	6014.5
679.484	5951.91
679.832	5938.12
680.181	5924.11
680.529	5954.62
680.877	5933.15
681.225	5942.41
681.573	5992.58
681.922	5899.7
682.27	5920.49
682.618	5939.25
682.966	5898.8
683.314	5944.22
683.661	5879.37
684.009	5878.01
684.357	5844.11
684.705	5891.34
685.053	5880.5
685.4	5920.49
685.748	5850.21
686.095	5885.01
686.443	5885.69
686.79	5871.91
687.138	5877.56
687.485	5872.13
687.832	5856.54
688.18	5911.68
688.527	5859.25
688.874	5866.71
689.221	5794.17
689.568	5787.84
689.915	5764.11
690.262	5697.45
690.609	5724.12
690.956	5684.12
691.303	5661.52
691.65	5624.23
691.997	5645.25
692.344	5581.52
692.69	5597.34
693.037	5569.54
693.383	5535.19
693.73	5499.04
694.077	5487.74
694.423	5457.91
694.769	5460.85
695.116	5397.34
695.462	5397.34
695.808	5417
696.155	5438.25
696.501	5414.74
696.847	5372.94
697.193	5405.03
697.539	5389.66
697.885	5360.73
698.231	5362.99
698.577	5373.39
698.923	5381.75
699.269	5369.32
699.614	5314.18
699.96	5374.29
700.306	5356.44
700.651	5358.25
700.997	5390.34
701.342	5378.59
701.688	5279.38
702.033	5269.44
702.379	5326.16
702.724	5325.03
703.069	5303.79
703.415	5276.67
703.76	5251.13
704.105	5276.9
704.45	5204.58
704.795	5216.78
705.14	5165.71
705.485	5162.32
705.83	5121.19
706.175	5134.75
706.52	5106.5
706.865	5073.74
707.209	5037.13
707.554	5036
707.899	5026.51
708.243	4983.12
708.588	5007.07
708.932	4993.29
709.277	4964.14
709.621	4951.03
709.966	4928.66
710.31	4962.1
710.654	4909.67
710.998	4900.86
711.342	4923.46
711.687	4878.71
712.031	4864.25
712.375	4903.8
712.719	4852.27
713.063	4899.96
713.407	4871.48
713.75	4900.86
714.094	4940.18
714.438	4879.84
714.782	4894.31
715.125	4850.01
715.469	4890.01
715.812	4846.62
716.156	4845.95
716.499	4856.57
716.843	4869.9
717.186	4847.3
717.53	4861.76
717.873	4865.61
718.216	4821.31
718.559	4836.23
718.902	4795.1
719.246	4809.11
719.589	4764.59
719.932	4760.3
720.275	4763.91
720.617	4727.53
720.96	4764.37
721.303	4721.88
721.646	4750.13
721.989	4691.6
722.331	4698.83
722.674	4598.04
723.016	4692.5
723.359	4662.67
723.701	4598.27
724.044	4646.63
724.386	4614.77
724.729	4605.5
725.071	4588.55
725.413	4598.95
725.755	4596.24
726.097	4530.25
726.439	4518.72
726.782	4530.93
727.124	4544.71
727.465	4536.35
727.807	4549.46
728.149	4521.89
728.491	4535.45
728.833	4537.71
729.175	4507.88
729.516	4556.69
729.858	4518.27
730.199	4558.27
730.541	4546.29
730.882	4558.04
731.224	4552.85
731.565	4524.82
731.906	4514.2
732.248	4594.65
732.589	4509.01
732.93	4501.55
733.271	4474.66
733.612	4532.28
733.953	4531.6
734.294	4503.13
734.635	4465.39
734.976	4488.44
735.317	4446.86
735.658	4429.46
735.999	4445.05
736.339	4430.59
736.68	4475.33
737.021	4409.35
737.361	4412.51
737.702	4402.79
738.042	4361.44
738.383	4368.22
738.723	4358.28
739.063	4340.87
739.404	4321.67
739.744	4309.24
740.084	4277.37
740.424	4317.15
740.764	4259.07
741.104	4284.83
741.444	4298.39
741.784	4264.72
742.124	4263.81
742.464	4231.95
742.804	4258.16
743.143	4240.09
743.483	4187.88
743.823	4211.39
744.162	4222.91
744.502	4189.24
744.841	4237.15
745.181	4250.03
745.52	4188.79
745.86	4219.97
746.199	4221.1
746.538	4226.08
746.877	4221.78
747.216	4262.23
747.556	4242.8
747.895	4246.19
748.234	4223.59
748.573	4214.78
748.911	4236.92
749.25	4161.44
749.589	4172.74
749.928	4166.64
750.267	4166.42
750.605	4198.51
750.944	4154.21
751.283	4193.53
751.621	4188.34
751.96	4137.26
752.298	4120.99
752.636	4112.41
752.975	4118.73
753.313	4045.06
753.651	4036.48
753.989	4050.26
754.327	4070.37
754.666	4028.34
755.004	4020.66
755.342	4022.92
755.679	4048.9
756.017	3972.75
756.355	4032.63
756.693	3913.77
757.031	3970.04
757.368	3923.71
757.706	3929.36
758.044	3932.52
758.381	3943.6
758.719	3902.69
759.056	3911.51
759.394	3880.32
759.731	3874.45
760.068	3881
760.405	3845.29
760.743	3859.76
761.08	3889.59
761.417	3836.48
761.754	3867.89
762.091	3846.65
762.428	3854.56
762.765	3824.96
763.102	3873.09
763.438	3823.15
763.775	3807.1
764.112	3787.89
764.449	3814.56
764.785	3809.59
765.122	3822.47
765.458	3735.47
765.795	3760.78
766.131	3775.69
766.467	3740.21
766.804	3707.44
767.14	3714.9
767.476	3747.44
767.812	3685.07
768.148	3715.35
768.485	3661.8
768.821	3635.36
769.157	3686.65
769.492	3645.53
769.828	3630.16
770.164	3609.37
770.5	3605.53
770.836	3614.57
771.171	3587
771.507	3568.47
771.842	3554.23
772.178	3548.13
772.513	3521.46
772.849	3481.01
773.184	3443.05
773.519	3478.07
773.855	3459.99
774.19	3413.22
774.525	3403.95
774.86	3396.94
775.195	3445.08
775.53	3398.75
775.865	3359.21
776.2	3355.36
776.535	3318.08
776.87	3332.31
777.205	3321.24
777.539	3267.23
777.874	3323.95
778.209	3263.84
778.543	3295.93
778.878	3288.02
779.212	3257.06
779.547	3249.15
779.881	3270.85
780.215	3251.86
780.55	3209.6
780.884	3234.24
781.218	3218.19
781.552	3191.75
781.886	3241.02
782.22	3198.76
782.554	3162.6
782.888	3145.43
783.222	3122.83
783.556	3130.06
783.889	3147.69
784.223	3116.05
784.557	3116.05
784.89	3091.64
785.224	3088.03
785.557	3032.66
785.891	3073.56
786.224	3064.52
786.558	3035.82
786.891	3053.22
787.224	3037.63
787.557	3008.48
787.891	3001.25
788.224	3059.33
788.557	3015.71
788.89	3023.4
789.223	3017.75
789.556	2983.4
789.888	2984.53
790.221	2931.65
790.554	2932.78
790.887	2934.58
791.219	2921.93
791.552	2962.15
791.884	2881.25
792.217	2915.6
792.549	2873.12
792.882	2844.87
793.214	2874.02
793.546	2872.21
793.879	2848.71
794.211	2849.16
794.543	2852.1
794.875	2827.69
795.207	2851.87
795.539	2836.51
795.871	2839.22
796.203	2773.23
796.535	2803.97
796.867	2776.17
797.198	2785.89
797.53	2748.15
797.862	2737.98
798.193	2740.01
798.525	2738.66
798.856	2717.19
799.188	2731.2
799.519	2715.83
799.85	2659.79
800.182	2736.4
800.513	2701.37
800.844	2675.61
801.175	2686.23
801.506	2666.12
801.837	2652.78
802.168	2675.83
802.499	2643.52
802.83	2657.75
803.161	2655.5
803.491	2648.49
803.822	2639.9
804.153	2624.31
804.483	2654.82
804.814	2622.05
805.145	2606.68
805.475	2620.69
805.805	2615.04
806.136	2607.81
806.466	2598.1
806.796	2610.75
807.126	2626.8
807.457	2602.62
807.787	2613.69
808.117	2583.41
808.447	2565.33
808.777	2568.04
809.107	2568.27
809.436	2525.1
809.766	2552.67
810.096	2536.4
810.426	2507.02
810.755	2530.53
811.085	2537.08
811.414	2525.56
811.744	2501.6
812.073	2518.1
812.403	2496.63
812.732	2491.43
813.061	2443.98
813.39	2467.03
813.719	2443.75
814.049	2475.61
814.378	2457.31
814.707	2474.48
815.036	2419.12
815.365	2428.83
815.693	2404.2
816.022	2417.54
816.351	2377.54
816.68	2367.82
817.008	2364.2
817.337	2359.46
817.665	2342.51
817.994	2379.12
818.322	2348.61
818.651	2360.59
818.979	2353.36
819.307	2371.43
819.636	2376.41
819.964	2344.99
820.292	2342.06
820.62	2362.62
820.948	2323.75
821.276	2332.11
821.604	2343.64
821.932	2337.09
822.259	2342.06
822.587	2324.43
822.915	2316.52
823.243	2340.93
823.57	2326.46
823.898	2316.97
824.225	2362.4
824.553	2339.35
824.88	2317.65
825.207	2309.06
825.535	2342.51
825.862	2361.04
826.189	2356.07
826.516	2336.41
826.843	2340.7
827.17	2349.06
827.497	2346.12
827.824	2305.22
828.151	2327.14
828.478	2352.9
828.805	2366.92
829.131	2367.14
829.458	2327.14
829.785	2347.25
830.111	2346.35
830.438	2325.56
830.764	2362.17
831.09	2346.58
831.417	2352.23
831.743	2318.33
832.069	2324.66
832.395	2323.07
832.722	2351.1
833.048	2357.88
833.374	2341.15
833.7	2307.03
834.026	2305.45
834.351	2334.15
834.677	2282.62
835.003	2302.96
835.329	2299.8
835.654	2283.3
835.98	2277.2
836.306	2308.39
836.631	2308.16
836.956	2307.48
837.282	2278.78
837.607	2306.13
837.932	2276.07
838.258	2290.76
838.583	2267.03
838.908	2252.12
839.233	2242.4
839.558	2274.94
839.883	2246.92
840.208	2260.03
840.533	2272
840.858	2259.12
841.182	2221.38
841.507	2217.09
841.832	2230.87
842.156	2202.63
842.481	2190.2
842.805	2225.22
843.13	2188.84
843.454	2242.62
843.778	2210.54
844.103	2197.88
844.427	2186.35
844.751	2208.95
845.075	2180.93
845.399	2184.55
845.723	2175.06
846.047	2228.16
846.371	2166.69
846.695	2211.67
847.019	2199.46
847.343	2194.26
847.666	2164.66
847.99	2182.97
848.313	2169.63
848.637	2180.03
848.96	2156.98
849.284	2132.57
849.607	2130.76
849.931	2108.16
850.254	2145.23
850.577	2100.71
850.9	2100.03
851.223	2101.16
851.546	2092.35
851.869	2074.27
852.192	2088.28
852.515	2078.56
852.838	2037.43
853.161	2071.56
853.483	2071.56
853.806	2053.25
854.129	2015.96
854.451	2013.03
854.774	1994.04
855.096	1995.63
855.419	2000.15
855.741	2001.73
856.063	1963.08
856.385	1969.64
856.708	1954.72
857.03	1952.46
857.352	1971.9
857.674	1971.22
857.996	1956.53
858.318	1937.77
858.64	1917.44
858.961	1896.42
859.283	1868.62
859.605	1914.72
859.926	1891.67
860.248	1919.02
860.57	1911.56
860.891	1926.7
861.212	1853.03
861.534	1886.7
861.855	1886.48
862.176	1902.75
862.498	1890.32
862.819	1881.05
863.14	1879.7
863.461	1849.64
863.782	1852.13
864.103	1854.16
864.424	1851.22
864.745	1853.71
865.065	1839.92
865.386	1843.77
865.707	1862.07
866.027	1874.72
866.348	1860.26
866.668	1862.97
866.989	1819.36
867.309	1833.37
867.63	1850.77
867.95	1867.27
868.27	1859.36
868.59	1845.35
868.91	1843.54
869.23	1853.48
869.55	1819.13
869.87	1843.09
870.19	1818.23
870.51	1850.32
870.83	1835.86
871.15	1841.96
871.469	1870.43
871.789	1837.44
872.109	1812.13
872.428	1818
872.748	1837.89
873.067	1823.2
873.386	1825.69
873.706	1827.72
874.025	1818
874.344	1824.33
874.663	1815.97
874.982	1789.3
875.301	1787.27
875.62	1823.2
875.939	1803.54
876.258	1822.75
876.577	1802.41
876.896	1794.27
877.214	1760.38
877.533	1772.58
877.852	1773.94
878.17	1790.89
878.489	1761.51
878.807	1770.55
879.125	1771.68
879.444	1755.41
879.762	1737.78
880.08	1749.76
880.398	1731
880.716	1728.06
881.034	1736.65
881.352	1732.36
881.67	1733.26
881.988	1719.93
882.306	1704.33
882.624	1709.31
882.941	1701.4
883.259	1699.59
883.577	1693.94
883.894	1693.26
884.212	1688.51
884.529	1680.38
884.846	1669.98
885.164	1681.51
885.481	1689.64
885.798	1648.52
886.115	1668.85
886.432	1680.15
886.75	1653.49
887.067	1652.58
887.383	1657.33
887.7	1651.68
888.017	1624.34
888.334	1622.98
888.651	1657.1
888.967	1624.79
889.284	1634.28
889.6	1627.5
889.917	1656.43
890.233	1630.89
890.55	1607.16
890.866	1617.56
891.182	1633.15
891.498	1626.14
891.815	1623.21
892.131	1617.33
892.447	1607.39
892.763	1600.16
893.079	1641.51
893.395	1610.32
893.71	1577.33
894.026	1577.33
894.342	1602.42
894.657	1588.18
894.973	1596.99
895.289	1625.69
895.604	1621.17
895.92	1572.36
896.235	1571.91
896.55	1554.06
896.865	1583.21
897.181	1577.11
897.496	1577.33
897.811	1562.87
898.126	1548.86
898.441	1542.53
898.756	1568.52
899.071	1534.85
899.386	1533.26
899.7	1527.62
900.015	1533.26
900.33	1515.19
900.644	1515.19
900.959	1521.29
901.273	1517.45
901.588	1510.89
901.902	1484.45
902.216	1467.73
902.531	1466.6
902.845	1479.48
903.159	1467.05
903.473	1446.04
903.787	1449.43
904.101	1440.16
904.415	1435.19
904.729	1440.84
905.042	1455.98
905.356	1435.41
905.67	1415.3
905.984	1417.79
906.297	1413.04
906.611	1426.15
906.924	1400.39
907.237	1405.13
907.551	1385.47
907.864	1399.48
908.177	1392.48
908.491	1375.98
908.804	1391.8
909.117	1361.74
909.43	1353.61
909.743	1349.09
910.056	1343.89
910.368	1358.81
910.681	1354.29
910.994	1358.35
911.307	1351.35
911.619	1328.75
911.932	1345.93
912.244	1355.19
912.557	1342.08
912.869	1333.5
913.181	1318.13
913.494	1283.55
913.806	1331.69
914.118	1308.64
914.43	1302.08
914.742	1306.6
915.054	1329.2
915.366	1298.92
915.678	1278.13
915.99	1293.95
916.302	1290.56
916.613	1306.38
916.925	1310.9
917.236	1299.6
917.548	1289.2
917.859	1298.92
918.171	1291.46
918.482	1282.88
918.794	1255.76
919.105	1278.36
919.416	1248.53
919.727	1273.38
920.038	1282.2
920.349	1234.06
920.66	1265.02
920.971	1250.56
921.282	1246.94
921.593	1224.57
921.903	1239.49
922.214	1231.13
922.525	1237
922.835	1213.95
923.146	1176.66
923.456	1214.63
923.767	1189.32
924.077	1181.86
924.387	1168.75
924.697	1171.69
925.008	1195.87
925.318	1171.47
925.628	1165.36
925.938	1172.82
926.248	1158.36
926.558	1181.86
926.867	1128.3
927.177	1161.07
927.487	1133.73
927.796	1141.64
928.106	1119.26
928.416	1145.48
928.725	1145.48
929.034	1106.38
929.344	1121.07
929.653	1123.33
929.962	1126.5
930.271	1136.89
930.581	1124.69
930.89	1085.37
931.199	1088.98
931.508	1088.3
931.817	1113.16
932.125	1083.79
932.434	1094.18
932.743	1067.51
933.051	1045.82
933.36	1037.01
933.669	1065.03
933.977	1064.35
934.286	1079.49
934.594	1050.11
934.902	1045.14
935.21	1058.02
935.519	1038.81
935.827	1071.81
936.135	1023.67
936.443	1015.54
936.751	1022.09
937.059	1039.04
937.367	1011.47
937.674	1059.38
937.982	1029.1
938.29	1028.42
938.597	1029.32
938.905	1018.93
939.213	1000.62
939.52	1011.92
939.827	1028.65
940.135	1004.47
940.442	989.55
940.749	1002.43
941.056	981.19
941.363	994.3
941.67	986.39
941.977	984.58
942.284	986.16
942.591	981.64
942.898	980.74
943.205	985.48
943.511	985.71
943.818	986.16
944.125	965.82
944.431	953.39
944.738	960.85
945.044	997.23
945.35	988.65
945.657	975.09
945.963	993.62
946.269	977.8
946.575	970.12
946.881	954.3
947.187	949.78
947.493	947.29
947.799	942.09
948.105	958.82
948.41	913.62
948.716	919.5
949.022	923.34
949.327	902.32
949.633	907.74
949.938	939.38
950.244	917.91
950.549	907.07
950.854	889.21
951.16	895.09
951.465	901.19
951.77	894.64
952.075	932.38
952.38	877.01
952.685	888.99
952.99	887.63
953.294	850.57
953.599	879.04
953.904	879.95
954.209	880.63
954.513	873.17
954.818	884.47
955.122	858.48
955.426	855.54
955.731	855.77
956.035	854.64
956.339	840.18
956.643	838.14
956.948	868.88
957.252	833.17
957.556	838.37
957.86	826.84
958.163	826.16
958.467	837.01
958.771	820.52
959.075	829.55
959.378	824.58
959.682	805.83
959.985	808.76
960.289	809.89
960.592	841.08
960.896	801.98
961.199	833.85
961.502	804.92
961.805	791.36
962.108	804.02
962.411	813.74
962.714	801.53
963.017	798.59
963.32	801.31
963.623	779.39
963.926	776.22
964.228	811.02
964.531	800.4
964.833	815.54
965.136	769.67
965.438	775.09
965.741	790.23
966.043	785.71
966.345	774.87
966.648	777.8
966.95	788.43
967.252	754.3
967.554	772.83
967.856	768.77
968.158	771.48
968.46	757.69
968.761	770.57
969.063	761.76
969.365	767.18
969.666	762.44
969.968	746.84
970.269	731.7
970.571	755.43
970.872	750.46
971.174	713.85
971.475	737.13
971.776	726.05
972.077	711.82
972.378	728.09
972.679	750.91
972.98	741.87
973.281	742.33
973.582	735.77
973.883	733.74
974.183	741.65
974.484	727.41
974.785	705.04
975.085	709.33
975.386	701.42
975.686	698.94
975.986	728.54
976.287	716.79
976.587	720.86
976.887	725.6
977.187	686.73
977.487	685.15
977.787	707.52
978.087	685.83
978.387	691.48
978.687	692.16
978.987	684.7
979.286	687.86
979.586	673.63
979.885	674.53
980.185	693.06
980.484	692.83
980.784	674.53
981.083	688.54
981.382	690.8
981.682	666.39
981.981	677.69
982.28	668.2
982.579	651.93
982.878	683.8
983.177	691.7
983.475	665.49
983.774	656
984.073	676.56
984.372	649.45
984.67	653.97
984.969	653.51
985.267	650.8
985.566	641.08
985.864	643.57
986.162	636.79
986.461	645.6
986.759	635.66
987.057	626.62
987.355	631.82
987.653	668.43
987.951	624.81
988.249	650.8
988.547	642.67
988.844	614.64
989.142	625.94
989.44	627.07
989.737	617.81
990.035	625.49
990.332	629.79
990.63	626.17
990.927	638.37
991.224	614.42
991.521	620.07
991.819	627.3
992.116	609
992.413	610.58
992.71	618.26
993.006	593.85
993.303	623.91
993.6	588.66
993.897	604.48
994.193	585.95
994.49	592.5
994.787	587.98
995.083	597.92
995.379	599.5
995.676	595.66
995.972	590.01
996.268	602.44
996.565	601.54
996.861	603.35
997.157	562.44
997.453	592.72
997.749	575.32
998.044	590.01
998.34	568.77
998.636	559.96
998.932	572.61
999.227	567.64
999.523	595.89
999.818	589.11
1000.114	571.03
1000.409	574.65
1000.704	569
1001	574.65
1001.295	546.62
1001.59	582.33
1001.885	564.7
1002.18	574.87
1002.475	545.27
1002.77	556.12
1003.065	567.19
1003.359	560.18
1003.654	561.99
1003.949	540.3
1004.243	552.73
1004.538	545.04
1004.832	539.62
1005.127	573.06
1005.421	559.28
1005.715	533.97
1006.009	558.38
1006.304	559.73
1006.598	555.21
1006.892	539.62
1007.186	539.39
1007.48	514.76
1007.773	519.28
1008.067	528.09
1008.361	526.06
1008.655	516.79
1008.948	522.44
1009.242	539.62
1009.535	531.03
1009.829	526.51
1010.122	507.98
1010.415	521.31
1010.708	529.9
1011.001	519.96
1011.295	531.71
1011.588	510.69
1011.881	520.86
1012.173	503.69
1012.466	519.05
1012.759	519.28
1013.052	504.82
1013.344	499.17
1013.637	520.18
1013.93	495.1
1014.222	509.34
1014.514	499.39
1014.807	498.04
1015.099	485.16
1015.391	486.96
1015.683	503.01
1015.976	502.33
1016.268	476.8
1016.56	459.62
1016.851	485.61
1017.143	505.5
1017.435	486.06
1017.727	492.16
1018.018	486.06
1018.31	487.64
1018.602	484.93
1018.893	475.21
1019.185	461.2
1019.476	455.78
1019.767	475.44
1020.058	503.46
1020.35	463.91
1020.641	469.79
1020.932	463.24
1021.223	466.17
1021.514	458.94
1021.804	463.01
1022.095	463.24
1022.386	461.88
1022.677	453.97
1022.967	470.92
1023.258	465.5
1023.548	475.21
1023.839	441.77
1024.129	444.93
1024.419	436.57
1024.709	441.77
1025	445.61
1025.29	464.14
1025.58	451.26
1025.87	465.27
1026.16	444.93
1026.449	439.96
1026.739	442.9
1027.029	441.32
1027.319	435.21
1027.608	446.51
1027.898	434.31
1028.187	433.18
1028.477	422.33
1028.766	422.33
1029.055	432.5
1029.344	452.39
1029.634	424.82
1029.923	437.47
1030.212	432.73
1030.501	415.1
1030.79	418.27
1031.078	427.53
1031.367	432.73
1031.656	423.01
1031.945	424.37
1032.233	435.89
1032.522	434.99
1032.81	418.49
1033.099	430.92
1033.387	418.94
1033.675	416.46
1033.963	426.18
1034.251	415.1
1034.54	425.95
1034.828	418.27
1035.116	419.62
1035.403	396.12
1035.691	412.39
1035.979	405.16
1036.267	384.14
1036.554	416.91
1036.842	408.32
1037.129	397.93
1037.417	370.81
1037.704	400.87
1037.992	410.58
1038.279	403.58
1038.566	388.66
1038.853	388.66
1039.14	388.66
