Data from foam2_polystyrene_foam_FLMS001491_00002.txt Node
Date: Wed Feb 08 10:57:25 GMT 2017
User: dcchb
Spectrometer: FLMS00149
Trigger mode: 0
Integration Time (sec): 2.000000E-2
Scans to average: 10
Electric dark correction enabled: true
Nonlinearity correction enabled: false
Boxcar width: 0
XAxis mode: Wavelengths
Number of Pixels in Spectrum: 2048
>>>>>Begin Spectral Data<<<<<
341.393	-15.68
341.776	-15.68
342.16	-15.68
342.543	-75.79
342.927	-65.62
343.31	-61.33
343.693	-66.98
344.077	-72.4
344.46	-49.12
344.843	-52.74
345.226	-45.28
345.61	-20.42
345.993	-24.26
346.376	10.31
346.759	20.71
347.142	10.31
347.525	34.49
347.908	55.06
348.291	57.54
348.674	98.44
349.057	105.68
349.44	109.06
349.823	149.52
350.206	163.75
350.588	172.57
350.971	219.34
351.354	237.88
351.737	239.01
352.119	261.15
352.502	264.99
352.884	275.39
353.267	290.08
353.65	281.26
354.032	311.77
354.414	302.96
354.797	330.98
355.179	312.45
355.562	341.6
355.944	326.69
356.326	342.73
356.709	352.45
357.091	316.29
357.473	360.36
357.855	347.7
358.238	379.79
358.62	354.26
359.002	352.45
359.384	355.16
359.766	355.84
360.148	354.03
360.53	342.51
360.912	339.12
361.294	342.51
361.676	371.66
362.057	340.02
362.439	355.61
362.821	342.05
363.203	354.03
363.584	346.57
363.966	346.12
364.348	333.92
364.729	330.53
365.111	346.8
365.493	348.15
365.874	329.17
366.256	342.05
366.637	349.28
367.019	342.05
367.4	344.76
367.781	333.01
368.163	328.95
368.544	362.39
368.925	344.54
369.306	362.62
369.688	355.16
370.069	335.73
370.45	342.28
370.831	359.91
371.212	343.86
371.593	344.09
371.974	358.1
372.355	337.76
372.736	325.33
373.117	348.38
373.498	346.57
373.879	339.79
374.26	356.74
374.641	347.02
375.021	370.98
375.402	338.44
375.783	371.2
376.163	369.4
376.544	355.84
376.925	363.52
377.305	373.69
377.686	378.66
378.066	370.75
378.447	369.62
378.827	394.26
379.208	384.99
379.588	391.09
379.968	379.34
380.349	369.4
380.729	406.68
381.109	397.64
381.489	394.48
381.87	389.51
382.25	404.65
382.63	394.93
383.01	398.77
383.39	404.65
383.77	390.41
384.15	395.84
384.53	404.42
384.91	425.67
385.29	429.96
385.67	409.4
386.049	437.42
386.429	416.85
386.809	443.52
387.189	436.97
387.568	433.35
387.948	435.16
388.328	476.96
388.707	450.52
389.087	455.95
389.466	473.12
389.846	445.1
390.225	490.52
390.605	477.19
390.984	485.1
391.363	494.37
391.743	486.91
392.122	500.47
392.501	511.09
392.881	487.59
393.26	467.47
393.639	497.08
394.018	515.83
394.397	517.19
394.776	520.81
395.155	511.09
395.534	512.67
395.913	526.91
396.292	544.99
396.671	548.15
397.05	539.79
397.429	533.46
397.808	544.99
398.186	528.04
398.565	548.15
398.944	555.61
399.323	547.7
399.701	561.26
400.08	576.17
400.458	558.77
400.837	578.21
401.215	568.49
401.594	581.82
401.972	581.82
402.351	586.57
402.729	604.42
403.107	599.67
403.486	644.42
403.864	607.58
404.242	620.01
404.62	619.79
404.999	650.29
405.377	644.87
405.755	633.12
406.133	653.68
406.511	657.3
406.889	667.02
407.267	674.7
407.645	681.93
408.023	678.54
408.401	683.29
408.779	705.89
409.156	708.15
409.534	732.78
409.912	697.52
410.29	737.3
410.667	758.09
411.045	755.38
411.422	761.03
411.8	759.44
412.178	768.03
412.555	787.92
412.933	786.34
413.31	802.15
413.687	811.42
414.065	810.29
414.442	811.19
414.819	808.93
415.197	841.25
415.574	869.5
415.951	830.18
416.328	889.38
416.705	862.49
417.082	864.75
417.46	911.08
417.837	900.68
418.214	902.04
418.591	896.61
418.967	909.04
419.344	928.03
419.721	957.18
420.098	946.11
420.475	966.44
420.852	971.64
421.228	967.57
421.605	1011.41
421.982	971.87
422.358	967.8
422.735	1007.57
423.111	1024.97
423.488	1019.1
423.864	1050.06
424.241	1046.89
424.617	1048.93
424.994	1070.17
425.37	1077.4
425.746	1092.09
426.123	1087.8
426.499	1094.12
426.875	1130.06
427.251	1118.53
427.627	1141.13
428.003	1158.98
428.379	1163.95
428.756	1179.32
429.132	1195.59
429.507	1206.21
429.883	1229.26
430.259	1278.07
430.635	1282.14
431.011	1253.22
431.387	1317.85
431.763	1311.97
432.138	1298.19
432.514	1361.24
432.89	1355.13
433.265	1382.03
433.641	1405.53
434.016	1411.86
434.392	1424.74
434.767	1475.36
435.143	1451.85
435.518	1474
435.894	1494.79
436.269	1509.71
436.644	1504.51
437.02	1496.37
437.395	1562.59
437.77	1569.14
438.145	1611.62
438.52	1625.64
438.895	1650.72
439.271	1619.53
439.646	1652.08
440.021	1689.14
440.395	1677.61
440.77	1692.3
441.145	1691.62
441.52	1735.91
441.895	1730.72
442.27	1744.05
442.645	1766.65
443.019	1786.08
443.394	1804.16
443.769	1812.07
444.143	1822.47
444.518	1836.03
444.892	1842.13
445.267	1844.84
445.641	1884.39
446.016	1908.34
446.39	1920.99
446.764	1891.84
447.139	1937.04
447.513	1923.93
447.887	1954.67
448.262	1961.67
448.636	1999.86
449.01	1983.37
449.384	2009.35
449.758	2033.53
450.132	2057.49
450.506	2058.84
450.88	2091.84
451.254	2124.15
451.628	2119.86
452.002	2151.72
452.376	2177.49
452.75	2190.59
453.123	2174.77
453.497	2261.55
453.871	2229.24
454.244	2309.01
454.618	2333.41
454.992	2343.36
455.365	2349.68
455.739	2384.94
456.112	2404.15
456.486	2442.79
456.859	2462.45
457.232	2513.3
457.606	2502.9
457.979	2532.73
458.352	2607.08
458.725	2638.49
459.099	2605.27
459.472	2721.2
459.845	2697.47
460.218	2673.29
460.591	2729.11
460.964	2785.38
461.337	2801.88
461.71	2872.38
462.083	2894.75
462.456	2924.36
462.829	2895.43
463.201	2945.83
463.574	2964.13
463.947	3021.98
464.32	3101.3
464.692	3143.56
465.065	3132.94
465.438	3186.72
465.81	3174.75
466.183	3259.49
466.555	3286.16
466.928	3330.22
467.3	3333.16
467.672	3397.79
468.045	3476.89
468.417	3441.18
468.789	3496.32
469.161	3541.07
469.534	3640.95
469.906	3649.76
470.278	3749.65
470.65	3719.82
471.022	3826.48
471.394	3853.15
471.766	3920.04
472.138	3989.64
472.51	4028.51
472.882	4085.01
473.253	4165.23
473.625	4202.52
473.997	4255.85
474.369	4285.68
474.74	4343.53
475.112	4441.61
475.484	4486.8
475.855	4589.4
476.227	4585.56
476.598	4749.39
476.97	4762.5
477.341	4898.09
477.713	4980.35
478.084	4954.36
478.455	5088.6
478.827	5169.5
479.198	5306.67
479.569	5280.91
479.94	5506.44
480.311	5489.26
480.682	5662.82
481.053	5781.23
481.424	5860.1
481.795	5891.96
482.166	6000.44
482.537	6093.31
482.908	6174.89
483.279	6317.72
483.65	6368.34
484.021	6499.86
484.391	6562
484.762	6679.29
485.133	6648.55
485.503	6783.01
485.874	6942.78
486.244	7056
486.615	7178.94
486.985	7273.85
487.356	7406.27
487.726	7456.44
488.097	7582.99
488.467	7610.34
488.837	7804.68
489.207	7889.65
489.578	7923.32
489.948	8032.47
490.318	8167.61
490.688	8160.38
491.058	8352.92
491.428	8405.8
491.798	8482.86
492.168	8700.03
492.538	8778.89
492.908	8790.42
493.278	8913.81
493.648	8995.16
494.017	9087.36
494.387	9164.87
494.757	9231.99
495.126	9360.57
495.496	9383.85
495.866	9443.51
496.235	9495.03
496.605	9665.65
496.974	9640.34
497.344	9813.44
497.713	9874.01
498.082	10018.86
498.452	10109.71
498.821	10139.31
499.19	10100.21
499.559	10288.23
499.928	10341.34
500.298	10387.21
500.667	10471.96
501.036	10496.81
501.405	10613.2
501.774	10600.77
502.143	10722.57
502.512	10834.88
502.88	10910.14
503.249	10931.15
503.618	10932.96
503.987	10982.45
504.356	11166.18
504.724	11205.5
505.093	11261.09
505.462	11406.62
505.83	11400.07
506.199	11496.56
506.567	11675.09
506.936	11662.66
507.304	11703.79
507.672	11877.8
508.041	11954.63
508.409	12153.04
508.777	12096.77
509.145	12245.69
509.514	12198.69
509.882	12410.21
510.25	12383.32
510.618	12551.45
510.986	12550.55
511.354	12751.22
511.722	12793.48
512.09	12913.7
512.458	12909.63
512.826	13009.97
513.193	13035.96
513.561	13220.58
513.929	13296.74
514.297	13420.81
514.664	13437.08
515.032	13574.02
515.4	13670.97
515.767	13789.38
516.135	13878.65
516.502	13768.82
516.869	14002.71
517.237	14124.06
517.604	14033.22
517.972	14267.56
518.339	14396.37
518.706	14363.38
519.073	14522.47
519.44	14595.46
519.808	14770.15
520.175	14845.63
520.542	15032.74
520.909	15105.28
521.276	15235.22
521.643	15319.06
522.009	15426.4
522.376	15571.48
522.743	15640.41
523.11	15863
523.477	15956.11
523.843	16041.08
524.21	16272.26
524.577	16464.57
524.943	16396.09
525.31	16580.95
525.676	16728.74
526.043	16821.85
526.409	16982.97
526.776	17096.41
527.142	17223.64
527.508	17322.4
527.874	17392.68
528.241	17518.32
528.607	17703.4
528.973	17857.07
529.339	17873.57
529.705	17938.43
530.071	18122.83
530.437	18171.41
530.803	18285.31
531.169	18477.4
531.535	18378.42
531.901	18570.27
532.267	18687.79
532.632	18636.04
532.998	18785.41
533.364	19022.47
533.73	19022.69
534.095	19186.98
534.461	19292.52
534.826	19339.07
535.192	19381.78
535.557	19492.06
535.923	19564.15
536.288	19586.07
536.653	19698.15
537.019	19735.44
537.384	19778.6
537.749	19982.89
538.114	19980.63
538.479	20120.74
538.845	20144.92
539.21	20174.3
539.575	20244.58
539.94	20354.63
540.305	20459.49
540.67	20448.87
541.034	20558.24
541.399	20615.42
541.764	20776.32
542.129	20853.15
542.494	20887.05
542.858	20973.15
543.223	20877.33
543.587	21128.4
543.952	21090.66
544.316	21288.62
544.681	21164.78
545.045	21421.5
545.41	21445
545.774	21545.79
546.138	21529.29
546.503	21609.06
546.867	21714.15
547.231	21864.2
547.595	21919.11
547.959	22065.1
548.324	22047.47
548.688	22090.41
549.052	22229.84
549.416	22169.95
549.779	22248.37
550.143	22422.38
550.507	22527.91
550.871	22680.9
551.235	22693.1
551.599	22798.19
551.962	22875.47
552.326	22992.53
552.689	23045.19
553.053	23044.96
553.417	23013.77
553.78	23442.24
554.143	23315.46
554.507	23481.11
554.87	23524.27
555.234	23740.53
555.597	23715.22
555.96	23749.8
556.323	23929.68
556.686	23970.58
557.05	24106.4
557.413	24255.77
557.776	24318.37
558.139	24591.13
558.502	24600.17
558.865	24546.39
559.228	24871.8
559.59	24812.6
559.953	24952.93
560.316	25152.7
560.679	25221.85
561.041	25418.68
561.404	25538.45
561.767	25646.7
562.129	25549.98
562.492	25815.51
562.854	25817.54
563.217	25803.98
563.579	26106.57
563.941	26255.72
564.304	26344.53
564.666	26500.24
565.028	26476.73
565.39	26631.08
565.753	26765.77
566.115	26956.95
566.477	27107.68
566.839	27210.5
567.201	27306.09
567.563	27403.26
567.925	27536.82
568.287	27481.23
568.648	27537.72
569.01	27805.74
569.372	28012.29
569.734	27816.81
570.095	28085.05
570.457	28148.55
570.819	28308.55
571.18	28242.11
571.542	28400.3
571.903	28427.19
572.265	28586.96
572.626	28653.4
572.987	28653.85
573.349	28805.71
573.71	28923.45
574.071	29005.25
574.432	29081.64
574.794	29312.82
575.155	29306.72
575.516	29151.47
575.877	29461.06
576.238	29359.6
576.599	29568.86
576.96	29528.86
577.32	29558.23
577.681	29735.63
578.042	29856.08
578.403	29823.76
578.763	29781.96
579.124	29801.62
579.485	30100.14
579.845	30028.05
580.206	29998
580.566	30022.85
580.927	30129.74
581.287	30177.88
581.648	30111.67
582.008	30139.69
582.368	30212
582.728	30282.06
583.089	30140.37
583.449	30183.08
583.809	30270.08
584.169	30368.61
584.529	30254.49
584.889	30544.87
585.249	30329.51
585.609	30349.17
585.969	30549.39
586.329	30393.24
586.688	30436.63
587.048	30466.01
587.408	30337.65
587.768	30268.5
588.127	30435.73
588.487	30355.5
588.846	30440.02
589.206	30222.62
589.565	30291.1
589.925	30372.22
590.284	30429.4
590.643	30441.37
591.003	30479.11
591.362	30568.83
591.721	30526.12
592.08	30473.46
592.44	30604.99
592.799	30619.9
593.158	30558.21
593.517	30669.39
593.876	30686.79
594.235	30627.13
594.593	30636.4
594.952	30709.16
595.311	30730.63
595.67	30793.91
596.029	30910.51
596.387	30821.7
596.746	30926.11
597.104	30604.76
597.463	30768.82
597.822	30872.55
598.18	30772.44
598.538	30753.91
598.897	31014.24
599.255	30641.82
599.613	31114.13
599.972	30877.75
600.33	30920.91
600.688	30729.05
601.046	30945.09
601.404	31184.63
601.762	31050.62
602.12	31244.74
602.478	31315.93
602.836	31203.61
603.194	31031.64
603.552	31112.32
603.91	31100.57
604.268	31171.98
604.625	31037.29
604.983	31206.33
605.341	31030.74
605.698	31252.88
606.056	31315.48
606.413	31259.43
606.771	31370.84
607.128	31406.32
607.485	31152.32
607.843	31306.89
608.2	31534.91
608.557	31513.89
608.914	31425.3
609.272	31671.85
609.629	31706.2
609.986	31799.53
610.343	31756.37
610.7	31896.48
611.057	31779.42
611.414	31853.09
611.771	31875.01
612.127	32069.58
612.484	31895.8
612.841	32064.38
613.198	31878.85
613.554	31922.92
613.911	32010.37
614.267	31991.16
614.624	31953.2
614.98	32060.32
615.337	32342.34
615.693	32265.73
616.05	32222.8
616.406	32452.62
616.762	32244.27
617.118	32321.1
617.475	32393.19
617.831	32343.25
618.187	32366.3
618.543	32493.75
618.899	32499.4
619.255	32428.22
619.611	32498.5
619.967	32592.73
620.323	32562.22
620.678	32433.64
621.034	32376.69
621.39	32419.63
621.746	32448.78
622.101	32696
622.457	32634.31
622.812	32542.79
623.168	32598.61
623.523	32673.41
623.879	32769.68
624.234	32632.5
624.589	32582.11
624.945	32790.47
625.3	32757.92
625.655	32688.1
626.01	32673.63
626.365	32757.02
626.72	32673.86
627.075	32698.94
627.43	32528.33
627.785	32535.1
628.14	32668.43
628.495	32729.45
628.85	32645.16
629.205	32452.4
629.559	32640.86
629.914	32390.02
630.269	32445.39
630.623	32387.09
630.978	32235.45
631.332	32471.83
631.687	32432.73
632.041	32293.53
632.396	32290.37
632.75	32178.73
633.104	32227.77
633.459	32037.94
633.813	31965.18
634.167	32064.83
634.521	31887.44
634.875	32092.86
635.229	31961.79
635.583	31917.04
635.937	31814.22
636.291	31887.66
636.645	31868
636.999	31838.4
637.352	31882.24
637.706	31682.25
638.06	31806.54
638.413	31690.83
638.767	31584.4
639.121	31661.91
639.474	31444.74
639.828	31522.25
640.181	31499.65
640.534	31481.8
640.888	31359.09
641.241	31104.18
641.594	31338.3
641.947	31405.19
642.301	31257.62
642.654	31227.57
643.007	31293.78
643.36	31246.1
643.713	31093.79
644.066	31278.41
644.419	31139.44
644.771	31024.18
645.124	30609.96
645.477	30630.75
645.83	30340.36
646.182	30198.44
646.535	30202.96
646.888	30224.88
647.24	29934.5
647.593	30131.1
647.945	30173.36
648.298	29989.86
648.65	29995.74
649.002	29823.99
649.355	29937.21
649.707	29860.6
650.059	30083.19
650.411	30315.28
650.763	30324.54
651.115	30771.54
651.467	30554.37
651.819	30526.8
652.171	30505.55
652.523	30419.23
652.875	30429.62
653.227	30236.41
653.578	30406.12
653.93	30396.86
654.282	30221.04
654.633	30119.35
654.985	30158.44
655.337	30246.58
655.688	30173.36
656.039	30279.8
656.391	30152.34
656.742	30167.48
657.094	30124.32
657.445	30115.06
657.796	30124.77
658.147	30221.95
658.498	30084.55
658.849	30174.26
659.2	30134.94
659.551	29958.9
659.902	30142.4
660.253	30093.36
660.604	30080.71
660.955	29900.6
661.306	29996.64
661.656	29902.41
662.007	29846.14
662.358	29913.7
662.708	29777.21
663.059	29775.86
663.409	29741.05
663.76	29867.6
664.11	29812.01
664.461	29798.23
664.811	29788.28
665.161	29886.59
665.511	29746.93
665.862	29729.08
666.212	29807.04
666.562	29809.75
666.912	29732.92
667.262	29687.95
667.612	29627.16
667.962	29726.82
668.312	29594.62
668.662	29755.29
669.011	29750.32
669.361	29642.07
669.711	29732.92
670.06	29591.91
670.41	29540.16
670.76	29405.24
671.109	29509.87
671.459	29555.52
671.808	29449.31
672.157	29569.76
672.507	29318.92
672.856	29259.48
673.205	29414.28
673.554	29450.67
673.904	29428.97
674.253	29500.83
674.602	29293.61
674.951	28940.62
675.3	28803.45
675.649	29289.09
675.998	29106.95
676.346	29312.14
676.695	29348.07
677.044	29045.25
677.393	29123.67
677.741	29174.29
678.09	29159.83
678.438	28990.57
678.787	28945.14
679.135	29042.09
679.484	28881.42
679.832	28988.08
680.181	28730.91
680.529	28874.41
680.877	28765.94
681.225	28765.26
681.573	28835.99
681.922	28754.41
682.27	28560.52
682.618	28606.62
682.966	28445.49
683.314	28625.38
683.661	28445.49
684.009	28181.32
684.357	28231.49
684.705	28191.72
685.053	28069.01
685.4	28071.49
685.748	27971.61
686.095	27973.87
686.443	27857.49
686.79	27796.25
687.138	27771.39
687.485	27827.21
687.832	27652.97
688.18	27670.15
688.527	27488.46
688.874	27522.58
689.221	27433.09
689.568	27362.36
689.915	27235.58
690.262	27235.36
690.609	27265.64
690.956	27099.32
691.303	27145.42
691.65	27004.4
691.997	27024.29
692.344	26780.23
692.69	26872.43
693.037	26840.57
693.383	26579.78
693.73	26726.9
694.077	26572.32
694.423	26618.65
694.769	26435.15
695.116	26478.54
695.462	26415.72
695.808	26360.58
696.155	26268.6
696.501	26104.09
696.847	25986.12
697.193	25913.58
697.539	25991.32
697.885	25866.81
698.231	25721.95
698.577	25679.69
698.923	25671.78
699.269	25525.8
699.614	25492.35
699.96	25384.33
700.306	25345.92
700.651	25162.64
700.997	25192.02
701.342	24967.62
701.688	25028.86
702.033	24898.92
702.379	24825.93
702.724	24767.63
703.069	24777.79
703.415	24559.5
703.76	24553.85
704.105	24674.97
704.45	24661.41
704.795	24315.66
705.14	24336.9
705.485	24298.26
705.83	24052.84
706.175	24180.97
706.52	24124.48
706.865	23952.05
707.209	24038.61
707.554	23990.92
707.899	23942.11
708.243	23821.21
708.588	23783.7
708.932	23680.42
709.277	23702.12
709.621	23597.49
709.966	23528.79
710.31	23507.32
710.654	23306.2
710.998	23384.61
711.342	23496.47
711.687	23437.49
712.031	23351.17
712.375	23058.07
712.719	23103.26
713.063	23065.98
713.407	23142.81
713.75	23008.8
714.094	23032.53
714.438	22839.31
714.782	22887.68
715.125	22691.3
715.469	22745.76
715.812	22603.84
716.156	22565.65
716.499	22600.68
716.843	22658.3
717.186	22477.29
717.53	22558.42
717.873	22490.85
718.216	22496.05
718.559	22417.63
718.902	22249.05
719.246	22218.54
719.589	22131.08
719.932	22035.72
720.275	22114.59
720.617	22000.47
720.96	22034.14
721.303	22089.96
721.646	21971.09
721.989	21813.58
722.331	21947.13
722.674	21802.51
723.016	21826.01
723.359	21734.26
723.701	21752.34
724.044	21616.75
724.386	21418.56
724.729	21611.55
725.071	21493.59
725.413	21456.07
725.755	21384.66
726.097	21391.44
726.439	21211.33
726.782	21351.9
727.124	21372.23
727.465	21195.06
727.807	21169.3
728.149	21144.9
728.491	21133.82
728.833	21113.94
729.175	21120.94
729.516	20984.9
729.858	20980.38
730.199	20908.07
730.541	20917.33
730.882	20841.63
731.224	20891.8
731.565	20742.19
731.906	20712.14
732.248	20679.15
732.589	20695.42
732.93	20546.04
733.271	20632.37
733.612	20506.72
733.953	20621.29
734.294	20459.49
734.635	20439.15
734.976	20541.97
735.317	20430.79
735.658	20396.89
735.999	20312.6
736.339	20372.71
736.68	20472.37
737.021	20293.62
737.361	20321.64
737.702	20301.08
738.042	20300.85
738.383	20358.02
738.723	20230.12
739.063	20127.3
739.404	20127.75
739.744	20052.72
740.084	20019.73
740.424	19917.13
740.764	19947.41
741.104	19996.23
741.444	19844.37
741.784	19811.82
742.124	19874.65
742.464	19720.53
742.804	19560.08
743.143	19592.62
743.483	19618.38
743.823	19585.39
744.162	19513.3
744.502	19559.4
744.841	19436.01
745.181	19530.02
745.52	19365.51
745.86	19418.16
746.199	19424.72
746.538	19394.89
746.877	19358.5
747.216	19459.29
747.556	19392.63
747.895	19255.68
748.234	19253.87
748.573	19190.6
748.911	19160.77
749.25	19118.28
749.589	18986.31
749.928	19150.37
750.267	19131.39
750.605	19071.28
750.944	18982.24
751.283	18919.87
751.621	19039.41
751.96	18786.31
752.298	18876.71
752.636	18766.65
752.975	18754.45
753.313	18628.58
753.651	18739.54
753.989	18574.57
754.327	18518.07
754.666	18462.25
755.004	18560.56
755.342	18498.41
755.679	18398.98
756.017	18397.4
756.355	18381.58
756.693	18298.42
757.031	18301.58
757.368	18199.89
757.706	18143.84
758.044	18060.68
758.381	18065.2
758.719	18062.94
759.056	18022.94
759.394	18031.98
759.731	17810.07
760.068	17891.42
760.405	17720.58
760.743	17748.83
761.08	17710.41
761.417	17649.39
761.754	17442.17
762.091	17500.02
762.428	17429.74
762.765	17246.92
763.102	17380.02
763.438	17297.31
763.775	17147.94
764.112	17152.01
764.449	17172.12
764.785	17030.2
765.122	16997.66
765.458	16871.11
765.795	16922.18
766.131	16879.7
766.467	16803.09
766.804	16749.76
767.14	16559.93
767.476	16699.36
767.812	16533.49
768.148	16493.49
768.485	16356.55
768.821	16344.8
769.157	16263.89
769.492	16225.93
769.828	16176.44
770.164	16039.95
770.5	16066.84
770.836	16021.41
771.171	16009.66
771.507	15870.68
771.842	15788.65
772.178	15806.96
772.513	15783
772.849	15760.18
773.184	15692.84
773.519	15637.24
773.855	15591.82
774.19	15562.9
774.525	15445.84
774.86	15526.74
775.195	15424.59
775.53	15355.22
775.865	15254.2
776.2	15093.76
776.535	15097.15
776.87	15108.9
777.205	15009.24
777.539	14925.17
777.874	14914.1
778.209	14835.91
778.543	14824.16
778.878	14684.05
779.212	14722.47
779.547	14704.61
779.881	14632.07
780.215	14611.28
780.55	14631.85
780.884	14543.26
781.218	14449.25
781.552	14428.46
781.886	14370.16
782.22	14355.02
782.554	14273.21
782.888	14183.05
783.222	14091.52
783.556	14098.3
783.889	13973.11
784.223	13817.86
784.557	13894.47
784.89	13978.76
785.224	13831.64
785.557	13781.25
785.891	13732.44
786.224	13687.01
786.558	13708.71
786.891	13590.52
787.224	13527.92
787.557	13500.35
787.891	13504.42
788.224	13426.45
788.557	13393.46
788.89	13320.02
789.223	13335.84
789.556	13285.89
789.888	13244.76
790.221	13180.81
790.554	13059.68
790.887	13096.29
791.219	12955.51
791.552	12995.28
791.884	12976.52
792.217	12883.19
792.549	12840.26
792.882	12696.08
793.214	12644.78
793.546	12755.96
793.879	12686.14
794.211	12535.4
794.543	12554.84
794.875	12536.31
795.207	12535.18
795.539	12519.81
795.871	12502.64
796.203	12360.04
796.535	12288.86
796.867	12230.78
797.198	12281.63
797.53	12209.09
797.862	12097.68
798.193	12150.1
798.525	12003.67
798.856	12137.45
799.188	12007.96
799.519	11997.11
799.85	11817.23
800.182	11904.24
800.513	11907.4
800.844	11799.83
801.175	11860.17
801.506	11754.41
801.837	11752.15
802.168	11757.8
802.499	11672.38
802.83	11577.01
803.161	11513.74
803.491	11521.87
803.822	11602.1
804.153	11507.41
804.483	11437.35
804.814	11372.27
805.145	11344.25
805.475	11359.84
805.805	11239.85
806.136	11305.15
806.466	11215.44
806.796	11263.35
807.126	11233.97
807.457	11149
807.787	11158.04
808.117	11091.15
808.447	11002.56
808.777	10988.55
809.107	11009.34
809.436	10958.27
809.766	10972.73
810.096	10855.68
810.426	10921.89
810.755	10858.16
811.085	10836.69
811.414	10833.75
811.744	10691.39
812.073	10647.77
812.403	10680.09
812.732	10645.96
813.061	10630.37
813.39	10547.43
813.719	10579.52
814.049	10604.16
814.378	10572.74
814.707	10542.69
815.036	10535.01
815.365	10411.62
815.693	10384.95
816.022	10423.82
816.351	10402.58
816.68	10287.33
817.008	10290.94
817.337	10195.58
817.665	10174.11
817.994	10262.7
818.322	10235.8
818.651	10146.77
818.979	10146.32
819.307	10211.4
819.636	10142.7
819.964	10069.71
820.292	10147.9
820.62	10071.06
820.948	10121.46
821.276	10165.75
821.604	10054.57
821.932	10154.68
822.259	10163.94
822.587	10103.6
822.915	10148.12
823.243	10088.46
823.57	10045.53
823.898	10068.13
824.225	10038.3
824.553	10033.32
824.88	10101.8
825.207	10071.06
825.535	10069.03
825.862	10047.11
826.189	10003.72
826.516	10016.6
826.843	10036.49
827.17	10045.3
827.497	10022.25
827.824	9972.08
828.151	10052.98
828.478	10090.5
828.805	10093.21
829.131	10030.39
829.458	10045.53
829.785	9915.13
830.111	10034.45
830.438	10068.58
830.764	9958.07
831.09	10021.12
831.417	9947.45
831.743	9994
832.069	9987.45
832.395	9933.21
832.722	10042.82
833.048	9843.95
833.374	9900.45
833.7	9928.02
834.026	9933.21
834.351	9867.45
834.677	9890.73
835.003	9856.83
835.329	9873.78
835.654	9861.12
835.98	9836.27
836.306	9902.71
836.631	9806.21
836.956	9890.05
837.282	9893.67
837.607	9784.29
837.932	9752.2
838.258	9734.8
838.583	9780.68
838.908	9646.67
839.233	9732.99
839.558	9663.39
839.883	9622.94
840.208	9595.6
840.533	9641.7
840.858	9627.01
841.182	9675.14
841.507	9671.75
841.832	9561.7
842.156	9546.1
842.481	9498.65
842.805	9541.81
843.13	9502.49
843.454	9464.3
843.778	9330.74
844.103	9438.54
844.427	9415.49
844.751	9362.38
845.075	9358.99
845.399	9338.88
845.723	9304.76
846.047	9257.98
846.371	9149.73
846.695	9228.15
847.019	9159.45
847.343	9165.55
847.666	9037.19
847.99	9023.18
848.313	9039
848.637	8928.95
848.96	8917.19
849.284	8936.18
849.607	8882.62
849.931	8841.94
850.254	8776.63
850.577	8711.78
850.9	8715.39
851.223	8677.65
851.546	8644.43
851.869	8589.29
852.192	8627.71
852.515	8591.78
852.838	8509.52
853.161	8491.9
853.483	8424.1
853.806	8448.51
854.129	8411.22
854.451	8365.12
854.774	8328.28
855.096	8316.08
855.419	8223.2
855.741	8337.78
856.063	8277.66
856.385	8185.01
856.708	8199.93
857.03	8172.81
857.352	8170.32
857.674	8142.3
857.996	8092.13
858.318	8135.97
858.64	8019.82
858.961	8101.62
859.283	8095.52
859.605	8036.77
859.926	7979.37
860.248	7970.33
860.57	7972.81
860.891	8015.75
861.212	7916.09
861.534	7869.09
861.855	7916.77
862.176	7945.02
862.498	7909.99
862.819	7884.23
863.14	7837.22
863.461	7862.76
863.782	7756.77
864.103	7792.93
864.424	7657.57
864.745	7781.41
865.065	7691.46
865.386	7684.46
865.707	7721.97
866.027	7681.3
866.348	7657.12
866.668	7648.53
866.989	7651.69
867.309	7590
867.63	7602.43
867.95	7536.89
868.27	7525.37
868.59	7617.34
868.91	7523.56
869.23	7558.81
869.55	7483.56
869.87	7544.8
870.19	7530.11
870.51	7552.26
870.83	7472.94
871.15	7418.25
871.469	7415.99
871.789	7461.87
872.109	7430.68
872.428	7351.13
872.748	7362.89
873.067	7458.25
873.386	7381.87
873.706	7359.72
874.025	7363.79
874.344	7305.03
874.663	7296.67
874.982	7336.45
875.301	7268.65
875.62	7311.59
875.939	7268.42
876.258	7345.94
876.577	7250.57
876.896	7227.07
877.214	7269.78
877.533	7260.52
877.852	7233.85
878.17	7201.08
878.489	7237.24
878.807	7214.64
879.125	7131.03
879.444	7181.65
879.762	7156.56
880.08	7143.91
880.398	7099.62
880.716	7166.05
881.034	7098.71
881.352	7091.48
881.67	7114.3
881.988	7111.59
882.306	7111.59
882.624	7058.03
882.941	7044.7
883.259	7006.51
883.577	6992.5
883.894	6950.69
884.212	6982.78
884.529	6924.7
884.846	6926.51
885.164	6969
885.481	6886.51
885.798	6947.53
886.115	6842.9
886.432	6873.18
886.75	6837.7
887.067	6832.73
887.383	6791.6
887.7	6801.77
888.017	6798.61
888.334	6766.07
888.651	6728.33
888.967	6762.68
889.284	6710.7
889.6	6673.19
889.917	6613.75
890.233	6664.6
890.55	6608.78
890.866	6653.07
891.182	6651.94
891.498	6568.1
891.815	6613.98
892.131	6506.86
892.447	6471.61
892.763	6497.37
893.079	6503.93
893.395	6471.16
893.71	6402.68
894.026	6437.71
894.342	6473.42
894.657	6360.88
894.973	6359.97
895.289	6403.81
895.604	6411.05
895.92	6337.38
896.235	6280.43
896.55	6319.07
896.865	6260.54
897.181	6290.15
897.496	6156.59
897.811	6162.24
898.126	6203.37
898.441	6151.39
898.756	6185.06
899.071	6160.43
899.386	6091.51
899.7	6101.22
900.015	6106.87
900.33	6062.81
900.644	5970.83
900.959	6045.41
901.273	6017.61
901.588	5980.32
901.902	5924.96
902.216	5949.36
902.531	5896.03
902.845	5861.23
903.159	5873.43
903.473	5853.32
903.787	5847.22
904.101	5784.62
904.415	5726.77
904.729	5741.23
905.042	5734.68
905.356	5696.49
905.67	5717.73
905.984	5707.56
906.297	5632.31
906.611	5584.4
906.924	5598.86
907.237	5617.39
907.551	5565.87
907.864	5505.53
908.177	5534.46
908.491	5493.78
908.804	5463.27
909.117	5437.29
909.43	5395.93
909.743	5426.89
910.056	5391.19
910.368	5364.75
910.681	5341.47
910.994	5344.86
911.307	5304.86
911.619	5250.4
911.932	5224.64
912.244	5202.72
912.557	5181.02
912.869	5174.24
913.181	5213.11
913.494	5134.02
913.806	5104.87
914.118	5179.67
914.43	5091.53
914.742	5105.32
915.054	5082.27
915.366	5027.13
915.678	5004.53
915.99	4993.91
916.302	4978.77
916.613	4939.9
916.925	4947.81
917.236	4941.93
917.548	4869.17
917.859	4927.24
918.171	4828.71
918.482	4823.74
918.794	4843.4
919.105	4836.62
919.416	4764.08
919.727	4779.45
920.038	4772.9
920.349	4752.56
920.66	4707.59
920.971	4716.85
921.282	4642.28
921.593	4681.6
921.903	4617.19
922.214	4643.86
922.525	4589.4
922.835	4605.9
923.146	4560.93
923.456	4548.72
923.767	4529.29
924.077	4500.59
924.387	4487.03
924.697	4485.22
925.008	4410.19
925.318	4429.18
925.628	4416.97
925.938	4428.73
926.248	4353.93
926.558	4366.35
926.867	4353.93
927.177	4336.52
927.487	4296.53
927.796	4275.74
928.106	4292.01
928.416	4257.43
928.725	4242.06
929.034	4199.13
929.344	4251.33
929.653	4237.32
929.962	4171.56
930.271	4130.2
930.581	4115.06
930.89	4081.62
931.199	4077.55
931.508	4079.36
931.817	4031.22
932.125	4106.7
932.434	3999.58
932.743	3978.34
933.051	3971.34
933.36	3965.23
933.669	3943.31
933.977	3921.17
934.286	3962.75
934.594	3913.26
934.902	3829.87
935.21	3833.03
935.519	3836.2
935.827	3884.11
936.135	3852.47
936.443	3801.85
936.751	3810.21
937.059	3753.71
937.367	3701.06
937.674	3694.51
937.982	3721.4
938.29	3695.86
938.597	3686.15
938.905	3662.19
939.213	3666.26
939.52	3697.67
939.827	3654.96
940.135	3632.59
940.442	3626.94
940.749	3579.71
941.056	3604.79
941.363	3528.86
941.67	3541.29
941.977	3529.54
942.284	3530.22
942.591	3500.16
942.898	3492.48
943.205	3458.58
943.511	3439.82
943.818	3438.02
944.125	3441.86
944.431	3389.43
944.738	3369.32
945.044	3394.18
945.35	3405.48
945.657	3337.91
945.963	3367.51
946.269	3306.49
946.575	3370
946.881	3249.55
947.187	3277.57
947.493	3268.53
947.799	3305.59
948.105	3244.8
948.41	3261.52
948.716	3222.43
949.022	3246.16
949.327	3233.5
949.633	3185.14
949.938	3205.25
950.244	3181.75
950.549	3173.62
950.854	3140.85
951.16	3113.96
951.465	3095.65
951.77	3085.03
952.075	3098.59
952.38	3053.39
952.685	3063.11
952.99	3016.56
953.294	3033.28
953.599	3031.93
953.904	2992.6
954.209	2983.79
954.513	2996.22
954.818	2965.26
955.122	2961.19
955.426	2924.36
955.731	2937.47
956.035	2915.77
956.339	2873.06
956.643	2877.13
956.948	2860.41
957.252	2848.2
957.556	2816.56
957.86	2809.11
958.163	2802.55
958.467	2793.06
958.771	2812.72
959.075	2800.29
959.378	2782.21
959.682	2764.14
959.985	2749.67
960.289	2736.34
960.592	2720.07
960.896	2722.1
961.199	2749.9
961.502	2732.5
961.805	2706.96
962.108	2693.4
962.411	2674.65
962.714	2659.73
963.017	2676.46
963.32	2699.05
963.623	2619.96
963.926	2654.53
964.228	2617.93
964.531	2595.55
964.833	2587.64
965.136	2589.45
965.438	2578.6
965.741	2542.9
966.043	2560.98
966.345	2558.04
966.648	2531.6
966.95	2527.31
967.252	2531.83
967.554	2462.45
967.856	2480.08
968.158	2465.84
968.46	2453.64
968.761	2424.94
969.063	2425.39
969.365	2424.26
969.666	2412.51
969.968	2376.12
970.269	2413.64
970.571	2404.37
970.872	2360.08
971.174	2380.64
971.475	2352.62
971.776	2354.88
972.077	2315.33
972.378	2325.5
972.679	2339.97
972.98	2310.36
973.281	2275.79
973.582	2297.71
973.883	2265.84
974.183	2254.55
974.484	2297.26
974.785	2272.17
975.085	2263.36
975.386	2263.58
975.686	2216.35
975.986	2229.24
976.287	2217.26
976.587	2231.95
976.887	2209.12
977.187	2213.87
977.487	2176.58
977.787	2151.95
978.087	2173.42
978.387	2111.95
978.687	2134.55
978.987	2143.81
979.286	2115.34
979.586	2112.18
979.885	2099.97
980.185	2086.19
980.484	2081.67
980.784	2057.94
981.083	2067.88
981.382	2084.61
981.682	2055
981.981	2046.87
982.28	2035.12
982.579	1994.89
982.878	2010.71
983.177	2009.35
983.475	1999.41
983.774	1993.99
984.073	1986.76
984.372	1970.94
984.67	1942.92
984.969	1959.41
985.267	1972.74
985.566	1948.79
985.864	1926.64
986.162	1967.32
986.461	1934.55
986.759	1918.06
987.057	1909.02
987.355	1899.75
987.653	1876.48
987.951	1902.24
988.249	1892.29
988.547	1849.81
988.844	1848.91
989.142	1841
989.44	1876.7
989.737	1841.45
990.035	1823.37
990.332	1784.5
990.63	1803.94
990.927	1779.98
991.224	1792.18
991.521	1798.29
991.819	1776.37
992.116	1769.59
992.413	1785.18
992.71	1714.9
993.006	1727.33
993.303	1753.32
993.6	1732.53
993.897	1725.75
994.193	1717.61
994.49	1706.31
994.787	1684.84
995.083	1689.14
995.379	1638.97
995.676	1670.38
995.972	1683.03
996.268	1653.66
996.565	1656.14
996.861	1654.34
997.157	1618.18
997.453	1634
997.749	1591.96
998.044	1605.75
998.34	1613.66
998.636	1618.18
998.932	1619.99
999.227	1571.17
999.523	1528.46
999.818	1558.74
1000.114	1582.02
1000.409	1558.74
1000.704	1535.02
1001	1563.49
1001.295	1524.85
1001.59	1517.84
1001.885	1525.07
1002.18	1521.46
1002.475	1538.41
1002.77	1513.55
1003.065	1470.16
1003.359	1460.22
1003.654	1474.68
1003.949	1469.03
1004.243	1431.97
1004.538	1444.4
1004.832	1421.12
1005.127	1427
1005.421	1448.46
1005.715	1437.84
1006.009	1372.08
1006.304	1401.46
1006.598	1390.84
1006.892	1363.27
1007.186	1349.48
1007.48	1347
1007.773	1356.94
1008.067	1344.74
1008.361	1361.46
1008.655	1361.69
1008.948	1339.54
1009.242	1326.89
1009.535	1311.07
1009.829	1318.52
1010.122	1297.73
1010.415	1315.59
1010.708	1311.52
1011.001	1338.86
1011.295	1275.59
1011.588	1272.88
1011.881	1272.88
1012.173	1249.83
1012.466	1272.65
1012.759	1270.62
1013.052	1262.93
1013.344	1250.5
1013.637	1221.35
1013.93	1220
1014.222	1215.93
1014.514	1221.13
1014.807	1204.63
1015.099	1179.09
1015.391	1188.58
1015.683	1171.86
1015.976	1163.95
1016.268	1172.31
1016.56	1146.1
1016.851	1170.73
1017.143	1167.34
1017.435	1153.56
1017.727	1118.98
1018.018	1133.44
1018.31	1108.81
1018.602	1117.85
1018.893	1125.76
1019.185	1103.39
1019.476	1099.77
1019.767	1098.42
1020.058	1092.99
1020.35	1087.57
1020.641	1080.56
1020.932	1083.28
1021.223	1052.77
1021.514	1057.06
1021.804	1043.73
1022.095	1068.81
1022.386	1019.1
1022.677	1050.96
1022.967	1022.49
1023.258	1015.71
1023.548	1015.26
1023.839	992.88
1024.129	988.36
1024.419	989.95
1024.709	1022.49
1025	982.49
1025.29	998.08
1025.58	992.66
1025.87	946.56
1026.16	968.03
1026.449	970.51
1026.739	967.35
1027.029	951.75
1027.319	965.77
1027.608	962.38
1027.898	938.87
1028.187	919.67
1028.477	934.13
1028.766	903.17
1029.055	907.24
1029.344	895.71
1029.634	877.18
1029.923	892.77
1030.212	881.7
1030.501	860.91
1030.79	879.21
1031.078	857.75
1031.367	885.54
1031.656	898.65
1031.945	843.06
1032.233	853.68
1032.522	835.15
1032.81	826.79
1033.099	846.22
1033.387	821.81
1033.675	829.27
1033.963	815.49
1034.251	823.85
1034.54	809.16
1034.828	805.77
1035.116	803.28
1035.403	810.29
1035.691	801.02
1035.979	785.43
1036.267	824.98
1036.554	796.96
1036.842	805.54
1037.129	776.17
1037.417	760.8
1037.704	756.51
1037.992	764.87
1038.279	746.56
1038.566	763.29
1038.853	763.29
1039.14	763.29
