Data from foam1_polythene_foam_FLMS001491_00023.txt Node
Date: Wed Feb 08 10:54:35 GMT 2017
User: dcchb
Spectrometer: FLMS00149
Trigger mode: 0
Integration Time (sec): 2.000000E-2
Scans to average: 10
Electric dark correction enabled: true
Nonlinearity correction enabled: false
Boxcar width: 0
XAxis mode: Wavelengths
Number of Pixels in Spectrum: 2048
>>>>>Begin Spectral Data<<<<<
341.393	-6.48
341.776	-6.48
342.16	-6.48
342.543	-81.51
342.927	-76.99
343.31	-73.37
343.693	-66.37
344.077	-59.81
344.46	-65.69
344.843	-42.41
345.226	-34.96
345.61	-37.67
345.993	-19.59
346.376	-2.87
346.759	2.78
347.142	14.76
347.525	33.29
347.908	52.72
348.291	85.49
348.674	108.09
349.057	105.6
349.44	123.68
349.823	145.83
350.206	152.16
350.588	181.99
350.971	187.86
351.354	215.21
351.737	244.36
352.119	222.89
352.502	238.93
352.884	256.56
353.267	257.01
353.65	271.48
354.032	279.61
354.414	303.79
354.797	300.4
355.179	287.52
355.562	307.18
355.944	303.11
356.326	332.27
356.709	311.93
357.091	306.5
357.473	323.9
357.855	339.5
358.238	315.09
358.62	334.3
359.002	311.25
359.384	313.96
359.766	329.1
360.148	333.85
360.53	316.9
360.912	317.8
361.294	304.47
361.676	307.86
362.057	320.74
362.439	315.32
362.821	299.72
363.203	305.37
363.584	287.52
363.966	292.49
364.348	306.28
364.729	308.99
365.111	301.98
365.493	301.08
365.874	310.12
366.256	284.13
366.637	284.13
367.019	306.28
367.4	303.79
367.781	287.52
368.163	301.08
368.544	291.81
368.925	301.53
369.306	306.28
369.688	282.78
370.069	271.48
370.45	286.62
370.831	287.29
371.212	269.22
371.593	300.4
371.974	292.04
372.355	298.59
372.736	290.91
373.117	295.66
373.498	278.71
373.879	287.07
374.26	289.78
374.641	304.24
375.021	296.56
375.402	281.65
375.783	303.34
376.163	318.25
376.544	305.15
376.925	304.7
377.305	307.63
377.686	322.32
378.066	313.51
378.447	321.87
378.827	326.84
379.208	324.81
379.588	303.57
379.968	313.73
380.349	324.13
380.729	326.16
381.109	328.42
381.489	322.55
381.87	296.33
382.25	344.92
382.63	315.32
383.01	316.45
383.39	324.36
383.77	309.89
384.15	316.67
384.53	327.97
384.91	332.94
385.29	326.16
385.67	330.46
386.049	334.3
386.429	336.78
386.809	327.29
387.189	333.85
387.568	331.14
387.948	332.72
388.328	350.57
388.707	330.01
389.087	341.08
389.466	344.92
389.846	353.06
390.225	343.34
390.605	343.56
390.984	339.27
391.363	357.12
391.743	349.44
392.122	346.5
392.501	348.54
392.881	339.27
393.26	370
393.639	347.41
394.018	377.91
394.397	341.08
394.776	351.25
395.155	360.97
395.534	354.64
395.913	379.27
396.292	362.77
396.671	378.59
397.05	367.52
397.429	358.48
397.808	367.07
398.186	367.29
398.565	380.85
398.944	365.94
399.323	390.12
399.701	373.39
400.08	356.45
400.458	390.79
400.837	376.78
401.215	386.05
401.594	393.05
401.972	381.53
402.351	354.86
402.729	393.96
403.107	389.66
403.486	376.11
403.864	396.22
404.242	403
404.62	389.44
404.999	405.71
405.377	390.34
405.755	399.61
406.133	407.29
406.511	395.99
406.889	396.9
407.267	407.74
407.645	433.96
408.023	434.86
408.401	435.09
408.779	420.4
409.156	449.32
409.534	425.37
409.912	418.82
410.29	437.12
410.667	431.47
411.045	433.28
411.422	443.22
411.8	448.19
412.178	452.26
412.555	442.09
412.933	462.43
413.31	464.47
413.687	454.07
414.065	457.91
414.442	460.17
414.819	458.36
415.197	477.57
415.574	471.24
415.951	481.64
416.328	478.02
416.705	480.51
417.082	471.24
417.46	477.57
417.837	463.34
418.214	469.66
418.591	492.49
418.967	492.71
419.344	504.69
419.721	513.96
420.098	488.42
420.475	492.49
420.852	496.78
421.228	507.18
421.605	506.95
421.982	535.65
422.358	542.2
422.735	535.65
423.111	540.17
423.488	556.89
423.864	532.49
424.241	542.43
424.617	535.88
424.994	533.39
425.37	567.06
425.746	542.66
426.123	569.32
426.499	570
426.875	592.82
427.251	580.62
427.627	568.64
428.003	593.5
428.379	579.94
428.756	584.24
429.132	605.03
429.507	599.83
429.883	586.04
430.259	593.73
430.635	607.96
431.011	635.53
431.387	618.13
431.763	641.86
432.138	638.02
432.514	621.75
432.89	659.04
433.265	654.74
433.641	662.65
434.016	670.11
434.392	682.99
434.767	690.67
435.143	673.27
435.518	676.44
435.894	704.46
436.269	701.52
436.644	696.1
437.02	700.62
437.395	714.18
437.77	732.03
438.145	745.14
438.52	731.58
438.895	742.88
439.271	749.88
439.646	755.53
440.021	769.54
440.395	775.64
440.77	775.42
441.145	760.5
441.52	790.78
441.895	809.99
442.27	786.04
442.645	783.33
443.019	818.81
443.394	784
443.769	827.62
444.143	847.05
444.518	842.53
444.892	851.12
445.267	841.63
445.641	845.02
446.016	863.78
446.39	872.82
446.764	847.96
447.139	880.27
447.513	874.62
447.887	904.23
448.262	868.52
448.636	905.13
449.01	909.2
449.384	950.78
449.758	941.06
450.132	932.93
450.506	916.66
450.88	927.96
451.254	945.58
451.628	959.59
452.002	965.69
452.376	970.89
452.75	979.03
453.123	999.14
453.497	980.61
453.871	987.16
454.244	994.17
454.618	1034.39
454.992	1005.69
455.365	1041.4
455.739	1034.39
456.112	1046.37
456.486	1050.21
456.859	1059.93
457.232	1064.68
457.606	1073.71
457.979	1074.84
458.352	1084.34
458.725	1133.15
459.099	1105.35
459.472	1123.43
459.845	1165.92
460.218	1117.78
460.591	1124.33
460.964	1146.93
461.337	1161.85
461.71	1199.14
462.083	1213.82
462.456	1194.84
462.829	1198.46
463.201	1210.21
463.574	1214.5
463.947	1236.87
464.32	1248.17
464.692	1247.95
465.065	1274.61
465.438	1294.5
465.81	1271.68
466.183	1302.86
466.555	1297.66
466.928	1315.29
467.3	1303.54
467.672	1336.98
468.045	1371.33
468.417	1363.65
468.789	1360.71
469.161	1379.7
469.534	1403.88
469.906	1443.2
470.278	1456.53
470.65	1456.98
471.022	1488.85
471.394	1487.72
471.766	1525.45
472.138	1525.23
472.51	1559.58
472.882	1561.39
473.253	1601.38
473.625	1591.89
473.997	1595.06
474.369	1622.17
474.74	1648.16
475.112	1690.42
475.484	1687.71
475.855	1715.96
476.227	1710.08
476.598	1782.85
476.97	1752.79
477.341	1804.77
477.713	1818.55
478.084	1825.11
478.455	1867.37
478.827	1885.22
479.198	1928.83
479.569	1930.64
479.94	1973.35
480.311	1970.64
480.682	2024.65
481.053	2070.98
481.424	2109.39
481.795	2121.6
482.166	2145.1
482.537	2186
482.908	2239.56
483.279	2245.66
483.65	2270.07
484.021	2323.4
484.391	2378.77
484.762	2365.66
485.133	2360.23
485.503	2427.58
485.874	2452.21
486.244	2453.57
486.615	2530.17
486.985	2539.66
487.356	2591.19
487.726	2595.93
488.097	2656.95
488.467	2638.19
488.837	2681.36
489.207	2721.58
489.578	2774.01
489.948	2813.1
490.318	2836.38
490.688	2841.13
491.058	2897.4
491.428	2931.97
491.798	2955.7
492.168	3000.22
492.538	2989.37
492.908	3056.71
493.278	3075.7
493.648	3084.96
494.017	3124.51
494.387	3142.59
494.757	3188.01
495.126	3191.4
495.496	3223.94
495.866	3256.48
496.235	3310.72
496.605	3289.25
496.974	3327.21
497.344	3396.37
497.713	3426.42
498.082	3408.34
498.452	3444.27
498.821	3498.74
499.19	3489.7
499.559	3534.44
499.928	3542.12
500.298	3569.69
500.667	3594.78
501.036	3601.78
501.405	3630.03
501.774	3659.18
502.143	3681.1
502.512	3703.25
502.88	3733.98
503.249	3756.58
503.618	3759.75
503.987	3783.02
504.356	3821.21
504.724	3848.56
505.093	3887.43
505.462	3908.22
505.83	3917.71
506.199	3931.27
506.567	3959.06
506.936	3957.71
507.304	4056.69
507.672	4060.53
508.041	4076.57
508.409	4113.18
508.777	4145.5
509.145	4199.06
509.514	4200.64
509.882	4224.14
510.25	4241.77
510.618	4275.89
510.986	4283.35
511.354	4325.15
511.722	4324.7
512.09	4408.54
512.458	4433.63
512.826	4396.34
513.193	4476.11
513.561	4464.13
513.929	4515.88
514.297	4540.29
514.664	4611.47
515.032	4593.4
515.4	4628.65
515.767	4689.66
516.135	4740.06
516.502	4725.14
516.869	4760.4
517.237	4840.85
517.604	4779.15
517.972	4876.55
518.339	4876.78
518.706	4909.32
519.073	4923.11
519.44	4984.8
519.808	4990.45
520.175	5075.42
520.542	5131.46
520.909	5142.53
521.276	5126.26
521.643	5192.7
522.009	5240.61
522.376	5244.45
522.743	5328.07
523.11	5358.57
523.477	5363.55
523.843	5448.74
524.21	5491.45
524.577	5523.09
524.943	5548.4
525.31	5614.16
525.676	5643.76
526.043	5702.29
526.409	5711.56
526.776	5776.87
527.142	5815.28
527.508	5785
527.874	5855.74
528.241	5917.43
528.607	5954.72
528.973	5946.13
529.339	5929.41
529.705	6033.36
530.071	6058.44
530.437	6083.07
530.803	6083.07
531.169	6160.59
531.535	6145.9
531.901	6175.05
532.267	6209.85
532.632	6235.61
532.998	6281.04
533.364	6292.79
533.73	6322.39
534.095	6429.73
534.461	6398.55
534.826	6411.65
535.192	6469.28
535.557	6593.34
535.923	6544.98
536.288	6580.46
536.653	6629.5
537.019	6588.15
537.384	6606
537.749	6655.49
538.114	6676.05
538.479	6710.63
538.845	6711.53
539.21	6714.24
539.575	6800.12
539.94	6786.78
540.305	6887.8
540.67	6828.37
541.034	6837.4
541.399	6861.81
541.764	6905.43
542.129	6972.32
542.494	6942.03
542.858	6982.03
543.223	7001.02
543.587	7060
543.952	7047.34
544.316	7100.22
544.681	7072.2
545.045	7120.34
545.41	7153.78
545.774	7136.15
546.138	7189.94
546.503	7191.75
546.867	7219.54
547.231	7177.28
547.595	7269.26
547.959	7349.93
548.324	7282.37
548.688	7339.99
549.052	7366.88
549.416	7397.84
549.779	7382.93
550.143	7408.69
550.507	7495.92
550.871	7527.56
551.235	7481
551.599	7516.48
551.962	7575.46
552.326	7599.42
552.689	7631.73
553.053	7597.61
553.417	7632.86
553.78	7711.51
554.143	7737.49
554.507	7807.1
554.87	7807.32
555.234	7855.01
555.597	7777.04
555.96	7838.06
556.323	7863.82
556.686	7985.85
557.05	7993.98
557.413	8062.23
557.776	8076.02
558.139	8076.69
558.502	8099.52
558.865	8115.34
559.228	8143.81
559.59	8215
559.953	8170.48
560.316	8280.3
560.679	8250.48
561.041	8325.05
561.404	8382.9
561.767	8424.71
562.129	8388.55
562.492	8481.66
562.854	8489.56
563.217	8504.03
563.579	8569.79
563.941	8588.55
564.304	8666.96
564.666	8725.04
565.028	8634.19
565.39	8766.62
565.753	8779.05
566.115	8854.3
566.477	8922.77
566.839	8878.71
567.201	8946.73
567.563	8963.9
567.925	9031.02
568.287	9061.3
568.648	9057.46
569.01	9091.13
569.372	9066.27
569.734	9099.04
570.095	9155.54
570.457	9289.77
570.819	9201.64
571.18	9278.92
571.542	9290
571.903	9324.35
572.265	9302.42
572.626	9405.47
572.987	9436.43
573.349	9424.91
573.71	9540.16
574.071	9521.85
574.432	9538.8
574.794	9657.22
575.155	9529.31
575.516	9503.32
575.877	9599.14
576.238	9537.45
576.599	9627.16
576.96	9673.71
577.32	9669.19
577.681	9653.38
578.042	9722.3
578.403	9699.25
578.763	9710.78
579.124	9752.81
579.485	9823.09
579.845	9780.6
580.206	9783.54
580.566	9795.07
580.927	9824.67
581.287	9808.85
581.648	9827.83
582.008	9948.96
582.368	9850.43
582.728	9782.19
583.089	9864.22
583.449	9842.52
583.809	9827.61
584.169	9841.85
584.529	9881.17
584.889	9889.3
585.249	9838
585.609	9798.01
585.969	9908.51
586.329	9840.72
586.688	9868.96
587.048	9896.31
587.408	9808.85
587.768	9865.57
588.127	9851.34
588.487	9841.85
588.846	9888.17
589.206	9824.22
589.565	9874.16
589.925	9969.75
590.284	9917.78
590.643	9923.2
591.003	9918
591.362	9972.69
591.721	9878.68
592.08	9899.02
592.44	9967.27
592.799	9906.25
593.158	9902.64
593.517	9942.63
593.876	9908.06
594.235	9920.94
594.593	9943.99
594.952	9976.53
595.311	9921.17
595.67	10038.68
596.029	10001.16
596.387	10042.07
596.746	9999.58
597.104	9928.17
597.463	9908.06
597.822	10026.93
598.18	9921.39
598.538	9963.65
598.897	10000.71
599.255	9974.5
599.613	10050.88
599.972	10011.33
600.33	10025.8
600.688	10052.01
601.046	10020.37
601.404	10091.1
601.762	10118
602.12	10101.5
602.478	10107.6
602.836	10107.83
603.194	10123.65
603.552	10089.3
603.91	10078
604.268	10122.29
604.625	10078.9
604.983	10090.2
605.341	10114.15
605.698	10129.52
606.056	10113.03
606.413	10101.73
606.771	10181.72
607.128	10188.73
607.485	10182.18
607.843	10149.86
608.2	10256.07
608.557	10199.58
608.914	10181.27
609.272	10255.62
609.629	10270.31
609.986	10263.76
610.343	10227.15
610.7	10372.23
611.057	10306.01
611.414	10278.67
611.771	10222.85
612.127	10311.44
612.484	10356.63
612.841	10400.48
613.198	10368.39
613.554	10326.35
613.911	10364.54
614.267	10317.99
614.624	10363.19
614.98	10369.06
615.337	10458.78
615.693	10313.92
616.05	10329.97
616.406	10395.28
616.762	10332.45
617.118	10417.65
617.475	10373.58
617.831	10485.22
618.187	10437.54
618.543	10437.76
618.899	10476.63
619.255	10512.11
619.611	10410.64
619.967	10514.82
620.323	10518.66
620.678	10430.3
621.034	10398.67
621.39	10389.63
621.746	10421.94
622.101	10510.98
622.457	10445.9
622.812	10444.77
623.168	10506.01
623.523	10518.89
623.879	10517.76
624.234	10479.34
624.589	10488.61
624.945	10520.7
625.3	10508.95
625.655	10564.99
626.01	10484.99
626.365	10507.14
626.72	10500.81
627.075	10400.48
627.43	10409.97
627.785	10444.09
628.14	10380.81
628.495	10403.41
628.85	10395.5
629.205	10490.64
629.559	10412.45
629.914	10366.35
630.269	10454.94
630.623	10342.4
630.978	10372
631.332	10435.95
631.687	10377.65
632.041	10317.77
632.396	10413.13
632.75	10286.81
633.104	10371.32
633.459	10284.77
633.813	10299.23
634.167	10186.24
634.521	10218.33
634.875	10205.23
635.229	10251.33
635.583	10177.88
635.937	10142.63
636.291	10160.26
636.645	10176.07
636.999	10095.85
637.352	10119.35
637.706	10084.78
638.06	10196.64
638.413	10141.5
638.767	10040.94
639.121	10131.56
639.474	10063.31
639.828	9957.1
640.181	10016.08
640.534	10008.62
640.888	9989.41
641.241	9956.19
641.594	9935.18
641.947	10026.93
642.301	9950.77
642.654	10012.69
643.007	9940.83
643.36	9984.89
643.713	9910.77
644.066	10004.78
644.419	9876.2
644.771	9840.72
645.124	9734.05
645.477	9696.31
645.83	9650.66
646.182	9599.59
646.535	9653.83
646.888	9575.64
647.24	9485.7
647.593	9548.75
647.945	9525.24
648.298	9454.51
648.65	9502.19
649.002	9388.3
649.355	9508.97
649.707	9436.88
650.059	9534.51
650.411	9612.93
650.763	9661.74
651.115	9764.79
651.467	9734.05
651.819	9705.13
652.171	9642.3
652.523	9613.6
652.875	9601.4
653.227	9545.36
653.578	9692.02
653.93	9588.97
654.282	9567.05
654.633	9531.8
654.985	9546.71
655.337	9536.54
655.688	9590.33
656.039	9561.63
656.391	9498.35
656.742	9543.55
657.094	9487.28
657.445	9560.5
657.796	9580.84
658.147	9503.32
658.498	9482.31
658.849	9521.63
659.2	9503.32
659.551	9462.65
659.902	9514.62
660.253	9500.84
660.604	9475.53
660.955	9427.17
661.306	9462.87
661.656	9480.5
662.007	9458.13
662.358	9549.65
662.708	9398.24
663.059	9375.19
663.409	9322.31
663.76	9374.51
664.11	9372.93
664.461	9355.3
664.811	9335.42
665.161	9388.75
665.511	9337.68
665.862	9361.18
666.212	9347.85
666.562	9338.81
666.912	9275.53
667.262	9315.98
667.612	9265.82
667.962	9339.03
668.312	9305.14
668.662	9309.2
669.011	9295.42
669.361	9223.1
669.711	9286.15
670.06	9234.4
670.41	9197.79
670.76	9221.07
671.109	9236.66
671.459	9193.95
671.808	9195.08
672.157	9167.06
672.507	9160.51
672.856	9157.12
673.205	9078.93
673.554	9191.02
673.904	9063.34
674.253	9195.76
674.602	9147.4
674.951	9066.05
675.3	8944.02
675.649	9139.72
675.998	9078.02
676.346	9137.68
676.695	9184.91
677.044	9062.88
677.393	9058.59
677.741	9123.22
678.09	9074.86
678.438	9039.15
678.787	9042.77
679.135	9086.84
679.484	9049.78
679.832	9015.2
680.181	9026.95
680.529	8993.51
680.877	9030.12
681.225	9037.12
681.573	9057.91
681.922	8973.85
682.27	8881.64
682.618	8935.2
682.966	8948.76
683.314	8951.47
683.661	8945.37
684.009	8820.63
684.357	8863.79
684.705	8824.25
685.053	8840.74
685.4	8854.53
685.748	8796.68
686.095	8772.5
686.443	8784.7
686.79	8701.31
687.138	8794.87
687.485	8763
687.832	8662.44
688.18	8663.35
688.527	8597.13
688.874	8621.76
689.221	8633.97
689.568	8550.35
689.915	8605.72
690.262	8502.9
690.609	8531.37
690.956	8501.54
691.303	8508.77
691.65	8412.05
691.997	8438.49
692.344	8401.88
692.69	8445.05
693.037	8348.78
693.383	8268.55
693.73	8325.5
694.077	8338.38
694.423	8278.95
694.769	8258.84
695.116	8233.75
695.462	8207.54
695.808	8173.64
696.155	8165.96
696.501	8052.06
696.847	8083.7
697.193	8087.54
697.539	8074.43
697.885	8032.18
698.231	7979.75
698.577	8014.78
698.923	7997.37
699.269	7922.8
699.614	7938.84
699.96	7893.65
700.306	7873.99
700.651	7881.45
700.997	7814.33
701.342	7843.48
701.688	7820.66
702.033	7758.28
702.379	7805.06
702.724	7711.96
703.069	7822.46
703.415	7742.24
703.76	7730.71
704.105	7715.8
704.45	7733.43
704.795	7619.76
705.14	7596.71
705.485	7593.77
705.83	7564.62
706.175	7555.8
706.52	7559.42
706.865	7514.68
707.209	7483.49
707.554	7489.59
707.899	7511.51
708.243	7448.69
708.588	7460.67
708.932	7416.82
709.277	7416.82
709.621	7441.91
709.966	7416.15
710.31	7376.15
710.654	7332.08
710.998	7315.36
711.342	7383.38
711.687	7309.93
712.031	7311.52
712.375	7258.18
712.719	7216.15
713.063	7211.41
713.407	7265.64
713.75	7200.33
714.094	7166.66
714.438	7175.93
714.782	7200.56
715.125	7164.63
715.469	7137.28
715.812	7171.63
716.156	7073.1
716.499	7097.74
716.843	7081.47
717.186	7036.27
717.53	7061.58
717.873	7102.48
718.216	7081.24
718.559	7033.78
718.902	6980
719.246	6985.42
719.589	6983.84
719.932	7004.41
720.275	6972.54
720.617	6974.8
720.96	6957.18
721.303	6891.41
721.646	6915.82
721.989	6874.47
722.331	6907.01
722.674	6932.32
723.016	6878.99
723.359	6873.34
723.701	6876.27
724.044	6835.6
724.386	6747.46
724.729	6822.49
725.071	6839.44
725.413	6771.87
725.755	6781.36
726.097	6695.94
726.439	6740.46
726.782	6699.33
727.124	6789.04
727.465	6714.7
727.807	6711.76
728.149	6665.88
728.491	6661.14
728.833	6739.78
729.175	6679.67
729.516	6603.51
729.858	6627.24
730.199	6572.1
730.541	6608.03
730.882	6547.24
731.224	6623.4
731.565	6536.62
731.906	6535.49
732.248	6519
732.589	6496.17
732.93	6507.24
733.271	6479.22
733.612	6469.51
733.953	6500.69
734.294	6493.46
734.635	6482.84
734.976	6453.91
735.317	6406.68
735.658	6421.14
735.999	6439.22
736.339	6476.06
736.68	6468.15
737.021	6392.67
737.361	6368.04
737.702	6436.74
738.042	6379.79
738.383	6344.08
738.723	6370.52
739.063	6413.24
739.404	6396.51
739.744	6378.43
740.084	6297.31
740.424	6350.64
740.764	6322.39
741.104	6283.97
741.444	6260.7
741.784	6264.76
742.124	6271.54
742.464	6243.97
742.804	6243.75
743.143	6248.95
743.483	6257.53
743.823	6239.45
744.162	6177.31
744.502	6219.79
744.841	6148.84
745.181	6210.53
745.52	6139.12
745.86	6156.97
746.199	6159
746.538	6191.32
746.877	6143.86
747.216	6130.98
747.556	6152.68
747.895	6161.72
748.234	6099.57
748.573	6093.92
748.911	6090.98
749.25	6105.22
749.589	6051.89
749.928	6022.29
750.267	6037.43
750.605	6036.3
750.944	5978.44
751.283	5975.05
751.621	5980.03
751.96	5963.76
752.298	5970.54
752.636	5974.15
752.975	5942.97
753.313	5883.98
753.651	5950.87
753.989	5919.91
754.327	5880.37
754.666	5851.89
755.004	5909.07
755.342	5882.85
755.679	5852.57
756.017	5789.97
756.355	5834.04
756.693	5798.34
757.031	5796.3
757.368	5800.82
757.706	5776.87
758.044	5773.93
758.381	5767.38
758.719	5750.2
759.056	5703.88
759.394	5701.16
759.731	5631.33
760.068	5680.15
760.405	5720.82
760.743	5625.23
761.08	5600.38
761.417	5554.5
761.754	5626.82
762.091	5587.04
762.428	5570.77
762.765	5593.14
763.102	5526.7
763.438	5547.95
763.775	5491.23
764.112	5467.72
764.449	5553.6
764.785	5467.95
765.122	5368.07
765.458	5433.6
765.795	5380.49
766.131	5342.08
766.467	5372.81
766.804	5285.36
767.14	5334.85
767.476	5307.05
767.812	5296.65
768.148	5255.98
768.485	5270.44
768.821	5230.89
769.157	5236.54
769.492	5240.61
769.828	5240.84
770.164	5181.86
770.5	5154.74
770.836	5215.3
771.171	5135.3
771.507	5149.31
771.842	5080.61
772.178	5109.54
772.513	5048.07
772.849	5046.27
773.184	5040.39
773.519	5020.5
773.855	5009.66
774.19	4944.57
774.525	5007.17
774.86	4963.56
775.195	4993.61
775.53	4940.05
775.865	4947.06
776.2	4883.56
776.535	4872.48
776.87	4862.99
777.205	4873.84
777.539	4833.16
777.874	4815.54
778.209	4775.09
778.543	4759.95
778.878	4723.79
779.212	4713.84
779.547	4752.26
779.881	4746.39
780.215	4736.9
780.55	4733.73
780.884	4695.77
781.218	4698.93
781.552	4662.32
781.886	4625.03
782.22	4631.59
782.554	4605.6
782.888	4551.82
783.222	4577.58
783.556	4528.31
783.889	4553.17
784.223	4465.72
784.557	4532.38
784.89	4557.01
785.224	4494.19
785.557	4483.12
785.891	4452.16
786.224	4440.41
786.558	4432.04
786.891	4474.3
787.224	4387.98
787.557	4351.82
787.891	4352.27
788.224	4393.4
788.557	4345.04
788.89	4312.5
789.223	4312.27
789.556	4284.93
789.888	4222.33
790.221	4299.84
790.554	4235.89
790.887	4234.31
791.219	4202.67
791.552	4193.41
791.884	4183.24
792.217	4186.18
792.549	4128.1
792.882	4115.89
793.214	4111.37
793.546	4131.71
793.879	4088.78
794.211	4052.62
794.543	4124.93
794.875	4024.82
795.207	4067.53
795.539	4077.48
795.871	4079.74
796.203	4032.73
796.535	3980.53
796.867	4008.33
797.198	3957.48
797.53	3966.52
797.862	3959.29
798.193	3958.38
798.525	3915.22
798.856	3926.97
799.188	3902.11
799.519	3844.49
799.85	3895.11
800.182	3856.92
800.513	3875.22
800.844	3866.86
801.175	3840.2
801.506	3828.44
801.837	3820.31
802.168	3806.98
802.499	3793.64
802.83	3778.73
803.161	3739.63
803.491	3740.31
803.822	3739.18
804.153	3740.31
804.483	3735.57
804.814	3713.19
805.145	3684.04
805.475	3678.84
805.805	3687.66
806.136	3679.97
806.466	3672.29
806.796	3679.52
807.126	3620.77
807.457	3651.27
807.787	3615.57
808.117	3607.66
808.447	3603.82
808.777	3599.98
809.107	3598.85
809.436	3601.78
809.766	3555.91
810.096	3573.08
810.426	3559.53
810.755	3573.54
811.085	3563.37
811.414	3522.69
811.744	3543.93
812.073	3540.77
812.403	3508.23
812.732	3497.38
813.061	3474.33
813.39	3458.28
813.719	3425.52
814.049	3497.15
814.378	3459.19
814.707	3413.77
815.036	3468.91
815.365	3418.06
815.693	3417.16
816.022	3445.4
816.351	3406.08
816.68	3386.2
817.008	3389.36
817.337	3381.45
817.665	3360.43
817.994	3403.6
818.322	3391.17
818.651	3376.25
818.979	3355.01
819.307	3338.51
819.636	3384.61
819.964	3341.68
820.292	3365.63
820.62	3325.63
820.948	3355.69
821.276	3335.12
821.604	3327.67
821.932	3317.72
822.259	3313.43
822.587	3338.51
822.915	3306.65
823.243	3322.24
823.57	3260.55
823.898	3314.79
824.225	3301.45
824.553	3286.31
824.88	3298.74
825.207	3274.11
825.535	3333.32
825.862	3308.68
826.189	3292.64
826.516	3302.58
826.843	3326.99
827.17	3304.84
827.497	3344.84
827.824	3315.24
828.151	3313.66
828.478	3340.1
828.805	3346.88
829.131	3326.76
829.458	3325.41
829.785	3311.4
830.111	3289.93
830.438	3285.86
830.764	3302.58
831.09	3310.04
831.417	3301.9
831.743	3306.42
832.069	3308.01
832.395	3312.07
832.722	3306.42
833.048	3325.41
833.374	3282.47
833.7	3267.1
834.026	3305.75
834.351	3277.05
834.677	3274.11
835.003	3305.97
835.329	3247.44
835.654	3264.17
835.98	3233.21
836.306	3253.54
836.631	3254.22
836.956	3264.17
837.282	3223.04
837.607	3267.78
837.932	3188.69
838.258	3235.24
838.583	3212.64
838.908	3223.04
839.233	3202.25
839.558	3186.43
839.883	3186.2
840.208	3180.55
840.533	3208.12
840.858	3190.72
841.182	3137.62
841.507	3175.81
841.832	3140.33
842.156	3147.11
842.481	3122.25
842.805	3140.1
843.13	3097.16
843.454	3113.66
843.778	3081.8
844.103	3074.79
844.427	3096.94
844.751	3087.22
845.075	3093.1
845.399	3073.21
845.723	3046.54
846.047	3069.59
846.371	3044.74
846.695	3036.15
847.019	3031.4
847.343	2998.64
847.666	2983.72
847.99	2978.75
848.313	3000.9
848.637	2949.15
848.96	2941.01
849.284	2921.35
849.607	2919.77
849.931	2927.45
850.254	2912.08
850.577	2893.78
850.9	2842.71
851.223	2884.97
851.546	2839.54
851.869	2871.18
852.192	2853.78
852.515	2790.96
852.838	2790.28
853.161	2794.35
853.483	2783.5
853.806	2753.22
854.129	2761.58
854.451	2759.55
854.774	2727
855.096	2733.56
855.419	2725.65
855.741	2735.82
856.063	2703.73
856.385	2764.07
856.708	2698.08
857.03	2694.01
857.352	2733.11
857.674	2668.93
857.996	2676.61
858.318	2718.87
858.64	2673.22
858.961	2641.13
859.283	2643.84
859.605	2646.33
859.926	2641.58
860.248	2625.54
860.57	2632.77
860.891	2620.34
861.212	2591.19
861.534	2615.37
861.855	2614.01
862.176	2605.43
862.498	2619.89
862.819	2598.87
863.14	2587.35
863.461	2635.26
863.782	2610.62
864.103	2559.1
864.424	2559.55
864.745	2552.32
865.065	2589.38
865.386	2566.33
865.707	2532.43
866.027	2531.98
866.348	2578.76
866.668	2556.39
866.989	2568.36
867.309	2560.46
867.63	2550.74
867.95	2550.74
868.27	2524.07
868.59	2514.81
868.91	2546.22
869.23	2537.86
869.55	2541.25
869.87	2544.64
870.19	2510.06
870.51	2519.1
870.83	2517.29
871.15	2507.12
871.469	2494.47
871.789	2494.24
872.109	2524.98
872.428	2505.54
872.748	2526.78
873.067	2494.69
873.386	2487.24
873.706	2487.46
874.025	2461.47
874.344	2471.87
874.663	2487.69
874.982	2480.68
875.301	2485.88
875.62	2472.77
875.939	2475.26
876.258	2433.45
876.577	2447.01
876.896	2460.57
877.214	2434.81
877.533	2465.77
877.852	2447.01
878.17	2443.85
878.489	2451.08
878.807	2416.05
879.125	2463.73
879.444	2447.46
879.762	2428.26
880.08	2429.16
880.398	2441.59
880.716	2425.54
881.034	2404.98
881.352	2430.06
881.67	2423.06
881.988	2422.61
882.306	2431.87
882.624	2385.32
882.941	2371.76
883.259	2364.08
883.577	2360.46
883.894	2348.94
884.212	2340.57
884.529	2341.7
884.846	2355.94
885.164	2336.96
885.481	2337.64
885.798	2322.27
886.115	2335.15
886.432	2317.98
886.75	2303.51
887.067	2318.65
887.383	2288.15
887.7	2278.2
888.017	2308.71
888.334	2347.58
888.651	2318.2
888.967	2292.21
889.284	2281.37
889.6	2266.23
889.917	2257.19
890.233	2259.22
890.55	2241.14
890.866	2270.75
891.182	2262.84
891.498	2240.46
891.815	2244.53
892.131	2227.58
892.447	2233.46
892.763	2237.3
893.079	2193.23
893.395	2212.89
893.71	2211.54
894.026	2191.2
894.342	2207.7
894.657	2177.41
894.973	2162.5
895.289	2167.25
895.604	2153.69
895.92	2181.71
896.235	2143.74
896.55	2151.65
896.865	2159.11
897.181	2169.73
897.496	2127.92
897.811	2157.53
898.126	2112.33
898.441	2131.09
898.756	2095.16
899.071	2129.05
899.386	2095.38
899.7	2058.55
900.015	2082.95
900.33	2084.08
900.644	2064.42
900.959	2041.6
901.273	2054.71
901.588	2032.56
901.902	2044.76
902.216	2045.21
902.531	2024.88
902.845	2001.83
903.159	2005.67
903.473	1991.43
903.787	2008.83
904.101	1976.97
904.415	1975.61
904.729	1985.1
905.042	1950.08
905.356	1936.06
905.67	1955.05
905.984	1961.83
906.297	1921.6
906.611	1935.61
906.924	1931.09
907.237	1924.77
907.551	1908.95
907.864	1890.19
908.177	1904.43
908.491	1909.17
908.804	1854.26
909.117	1894.03
909.43	1844.77
909.743	1889.96
910.056	1863.52
910.368	1861.94
910.681	1841.83
910.994	1818.33
911.307	1822.17
911.619	1810.19
911.932	1868.95
912.244	1789.85
912.557	1831.89
912.869	1817.2
913.181	1799.12
913.494	1797.31
913.806	1796.41
914.118	1794.15
914.43	1768.84
914.742	1765.9
915.054	1771.55
915.366	1777.2
915.678	1747.82
915.99	1756.18
916.302	1762.74
916.613	1736.3
916.925	1718.9
917.236	1713.7
917.548	1724.77
917.859	1691.1
918.171	1712.34
918.482	1713.25
918.794	1670.31
919.105	1685.45
919.416	1664.43
919.727	1702.62
920.038	1664.21
920.349	1679.57
920.66	1649.52
920.971	1619.24
921.282	1641.38
921.593	1639.35
921.903	1632.34
922.214	1621.27
922.525	1623.76
922.835	1583.98
923.146	1614.72
923.456	1602.29
923.767	1594.15
924.077	1582.85
924.387	1626.24
924.697	1592.35
925.008	1592.12
925.318	1614.94
925.628	1588.5
925.938	1582.85
926.248	1538.79
926.558	1536.75
926.867	1543.31
927.177	1528.17
927.487	1561.16
927.796	1534.04
928.106	1513.25
928.416	1521.84
928.725	1536.53
929.034	1508.73
929.344	1519.58
929.653	1527.49
929.962	1504.21
930.271	1462.18
930.581	1500.14
930.89	1515.96
931.199	1479.13
931.508	1471.44
931.817	1458.11
932.125	1444.78
932.434	1479.81
932.743	1459.47
933.051	1454.5
933.36	1458.11
933.669	1450.43
933.977	1426.02
934.286	1426.7
934.594	1428.28
934.902	1423.08
935.21	1419.47
935.519	1433.71
935.827	1405.01
936.135	1389.19
936.443	1406.81
936.751	1383.76
937.059	1384.67
937.367	1375.85
937.674	1392.35
937.982	1363.2
938.29	1375.85
938.597	1368.85
938.905	1339.92
939.213	1357.32
939.52	1361.16
939.827	1360.49
940.135	1345.35
940.442	1345.35
940.749	1327.72
941.056	1343.31
941.363	1321.39
941.67	1313.48
941.977	1299.7
942.284	1282.97
942.591	1285.23
942.898	1291.11
943.205	1276.87
943.511	1299.7
943.818	1305.12
944.125	1262.41
944.431	1287.95
944.738	1280.04
945.044	1286.59
945.35	1287.49
945.657	1245.24
945.963	1268.51
946.269	1226.48
946.575	1238.91
946.881	1248.85
947.187	1228.29
947.493	1240.26
947.799	1256.99
948.105	1230.09
948.41	1229.42
948.716	1196.88
949.022	1210.66
949.327	1236.65
949.633	1211.56
949.938	1182.86
950.244	1191.68
950.549	1196.2
950.854	1214.28
951.16	1175.86
951.465	1172.02
951.77	1173.37
952.075	1155.97
952.38	1182.19
952.685	1175.41
952.99	1179.93
953.294	1174.5
953.599	1176.99
953.904	1151.45
954.209	1146.48
954.513	1147.39
954.818	1142.87
955.122	1131.57
955.426	1104.9
955.731	1146.93
956.035	1114.39
956.339	1135.86
956.643	1127.72
956.948	1106.93
957.252	1105.8
957.556	1106.48
957.86	1096.31
958.163	1117.33
958.467	1099.7
958.771	1105.8
959.075	1111.45
959.378	1085.69
959.682	1075.07
959.985	1074.62
960.289	1059.48
960.592	1079.59
960.896	1087.73
961.199	1059.48
961.502	1055.18
961.805	1073.26
962.108	1057.44
962.411	1043.88
962.714	1043.88
963.017	1034.62
963.32	1047.73
963.623	1047.27
963.926	1032.81
964.228	1045.69
964.531	1016.54
964.833	1020.16
965.136	987.39
965.438	1017.67
965.741	997.33
966.043	1012.7
966.345	1005.02
966.648	1040.04
966.95	1012.25
967.252	1013.15
967.554	991.01
967.856	998.69
968.158	1009.54
968.46	1010.44
968.761	979.93
969.063	979.25
969.365	991.01
969.666	990.78
969.968	967.73
970.269	962.31
970.571	961.18
970.872	960.5
971.174	948.97
971.475	975.19
971.776	947.62
972.077	958.69
972.378	958.24
972.679	947.16
972.98	961.18
973.281	965.92
973.582	948.97
973.883	914.17
974.183	931.12
974.484	939.48
974.785	911.46
975.085	931.35
975.386	897.67
975.686	912.81
975.986	902.87
976.287	942.64
976.587	922.98
976.887	885.47
977.187	912.14
977.487	903.78
977.787	910.33
978.087	889.31
978.387	883.21
978.687	892.7
978.987	875.08
979.286	872.14
979.586	867.84
979.885	874.85
980.185	882.08
980.484	881.18
980.784	863.1
981.083	895.19
981.382	864
981.682	858.35
981.981	843.44
982.28	846.83
982.579	849.99
982.878	839.82
983.177	879.6
983.475	847.96
983.774	828.07
984.073	817.68
984.372	831.91
984.67	841.18
984.969	819.48
985.267	844.12
985.566	831.24
985.864	826.72
986.162	838.69
986.461	811.8
986.759	821.97
987.057	819.03
987.355	829.65
987.653	814.29
987.951	798.02
988.249	815.42
988.547	829.88
988.844	794.85
989.142	779.26
989.44	775.87
989.737	772.03
990.035	778.81
990.332	765.93
990.63	773.16
990.927	784.23
991.224	777.23
991.521	792.59
991.819	768.64
992.116	784.91
992.413	729.32
992.71	738.81
993.006	789.88
993.303	761.18
993.6	747.62
993.897	755.3
994.193	763.67
994.49	758.02
994.787	749.43
995.083	751.24
995.379	751.01
995.676	732.48
995.972	746.27
996.268	730.9
996.565	748.3
996.861	727.96
997.157	716.44
997.453	718.92
997.749	730.22
998.044	719.37
998.34	691.13
998.636	728.87
998.932	703.55
999.227	702.2
999.523	696.32
999.818	728.64
1000.114	697
1000.409	715.98
1000.704	687.96
1001	683.22
1001.295	693.61
1001.59	715.08
1001.885	699.26
1002.18	700.62
1002.475	674.63
1002.77	685.25
1003.065	678.24
1003.359	675.76
1003.654	675.53
1003.949	674.18
1004.243	685.48
1004.538	662.65
1004.832	659.94
1005.127	673.73
1005.421	666.49
1005.715	644.57
1006.009	662.43
1006.304	667.17
1006.598	659.04
1006.892	659.04
1007.186	659.71
1007.48	646.83
1007.773	624.23
1008.067	651.58
1008.361	635.53
1008.655	647.74
1008.948	654.52
1009.242	628.53
1009.535	627.85
1009.829	612.48
1010.122	625.14
1010.415	615.87
1010.708	631.92
1011.001	617.91
1011.295	601.64
1011.588	615.87
1011.881	612.94
1012.173	619.04
1012.466	608.19
1012.759	610.68
1013.052	618.59
1013.344	607.51
1013.637	599.83
1013.93	582.43
1014.222	576.55
1014.514	608.64
1014.807	599.15
1015.099	588.3
1015.391	607.51
1015.683	574.07
1015.976	605.48
1016.268	585.14
1016.56	576.33
1016.851	557.8
1017.143	591.92
1017.435	555.31
1017.727	573.61
1018.018	582.2
1018.31	575.2
1018.602	581.75
1018.893	588.3
1019.185	570.23
1019.476	580.62
1019.767	576.78
1020.058	567.97
1020.35	556.67
1020.641	545.59
1020.932	560.51
1021.223	542.66
1021.514	545.37
1021.804	546.04
1022.095	542.88
1022.386	543.56
1022.677	561.86
1022.967	553.5
1023.258	538.36
1023.548	518.7
1023.839	544.24
1024.129	539.04
1024.419	525.71
1024.709	518.25
1025	515.99
1025.29	535.65
1025.58	520.51
1025.87	513.96
1026.16	502.2
1026.449	527.74
1026.739	503.33
1027.029	511.02
1027.319	488.65
1027.608	530
1027.898	497.23
1028.187	508.31
1028.477	481.87
1028.766	518.7
1029.055	492.04
1029.344	507.18
1029.634	491.36
1029.923	479.61
1030.212	492.71
1030.501	504.01
1030.79	490
1031.078	487.74
1031.367	494.75
1031.656	495.65
1031.945	471.24
1032.233	476.89
1032.522	503.33
1032.81	485.26
1033.099	463.79
1033.387	487.74
1033.675	474.18
1033.963	465.82
1034.251	467.4
1034.54	470.57
1034.828	476.44
1035.116	480.96
1035.403	466.27
1035.691	456.78
1035.979	443.45
1036.267	468.31
1036.554	456.33
1036.842	474.41
1037.129	453.62
1037.417	458.59
1037.704	451.13
1037.992	465.14
1038.279	443.45
1038.566	450.68
1038.853	450.68
1039.14	450.68
