Data from foam1_polythene_foam_FLMS001491_00068.txt Node
Date: Wed Feb 08 10:55:14 GMT 2017
User: dcchb
Spectrometer: FLMS00149
Trigger mode: 0
Integration Time (sec): 2.000000E-2
Scans to average: 10
Electric dark correction enabled: true
Nonlinearity correction enabled: false
Boxcar width: 0
XAxis mode: Wavelengths
Number of Pixels in Spectrum: 2048
>>>>>Begin Spectral Data<<<<<
341.393	6.13
341.776	6.13
342.16	6.13
342.543	-79.52
342.927	-75.45
343.31	-75.45
343.693	-71.16
344.077	-71.38
344.46	-57.37
344.843	-69.35
345.226	-49.46
345.61	-24.6
345.993	-32.29
346.376	-8.56
346.759	11.55
347.142	41.61
347.525	61.04
347.908	64.21
348.291	83.87
348.674	98.56
349.057	98.78
349.44	129.06
349.823	145.56
350.206	151.89
350.588	178.78
350.971	206.58
351.354	196.18
351.737	212.9
352.119	211.55
352.502	241.6
352.884	230.76
353.267	262.39
353.65	273.47
354.032	276.63
354.414	270.08
354.797	290.19
355.179	306.23
355.562	302.85
355.944	298.55
356.326	308.72
356.709	325.44
357.091	297.65
357.473	301.04
357.855	324.77
358.238	293.58
358.62	300.13
359.002	299.91
359.384	315.73
359.766	307.59
360.148	327.7
360.53	328.83
360.912	322.28
361.294	305.1
361.676	300.59
362.057	303.3
362.439	314.6
362.821	303.07
363.203	287.7
363.584	285.67
363.966	293.81
364.348	299.68
364.729	298.78
365.111	293.58
365.493	287.7
365.874	298.1
366.256	280.25
366.637	285.44
367.019	288.16
367.4	278.21
367.781	300.36
368.163	269.4
368.544	295.16
368.925	276.41
369.306	294.71
369.688	278.21
370.069	280.25
370.45	281.38
370.831	269.63
371.212	260.81
371.593	281.15
371.974	285.44
372.355	294.26
372.736	288.38
373.117	272.34
373.498	292
373.879	288.38
374.26	282.96
374.641	268.5
375.021	282.73
375.402	284.54
375.783	296.97
376.163	289.06
376.544	314.6
376.925	289.29
377.305	304.43
377.686	300.81
378.066	285.22
378.447	290.19
378.827	304.2
379.208	296.29
379.588	305.78
379.968	315.5
380.349	300.81
380.729	291.77
381.109	299
381.489	313.92
381.87	306.69
382.25	296.74
382.63	315.95
383.01	327.03
383.39	306.91
383.77	310.53
384.15	292.22
384.53	309.85
384.91	280.25
385.29	308.95
385.67	327.48
386.049	330.42
386.429	332
386.809	315.05
387.189	320.47
387.568	324.09
387.948	305.56
388.328	325.67
388.707	314.82
389.087	321.15
389.466	337.65
389.846	322.51
390.225	337.42
390.605	303.98
390.984	323.64
391.363	328.83
391.743	309.62
392.122	317.99
392.501	325.22
392.881	333.58
393.26	334.26
393.639	328.38
394.018	323.41
394.397	317.99
394.776	323.86
395.155	315.5
395.534	340.13
395.913	337.65
396.292	332
396.671	338.55
397.05	333.58
397.429	329.96
397.808	343.97
398.186	333.8
398.565	338.32
398.944	339.91
399.323	340.81
399.701	334.71
400.08	334.48
400.458	339
400.837	339.68
401.215	307.14
401.594	333.8
401.972	340.58
402.351	353.01
402.729	339.23
403.107	339.68
403.486	347.59
403.864	347.82
404.242	345.33
404.62	348.49
404.999	361.15
405.377	350.98
405.755	351.21
406.133	335.16
406.511	348.95
406.889	365.67
407.267	368.15
407.645	345.33
408.023	350.98
408.401	364.54
408.779	366.35
409.156	352.34
409.534	370.64
409.912	372.9
410.29	398.89
410.667	363.86
411.045	367.25
411.422	383.97
411.8	379
412.178	394.82
412.555	384.65
412.933	367.7
413.31	353.92
413.687	384.65
414.065	369.96
414.442	379.68
414.819	357.53
415.197	388.94
415.574	374.48
415.951	412.45
416.328	395.95
416.705	371.77
417.082	370.19
417.46	406.12
417.837	400.92
418.214	382.39
418.591	398.89
418.967	385.33
419.344	398.66
419.721	395.72
420.098	403.63
420.475	388.04
420.852	409.51
421.228	409.73
421.605	414.03
421.982	408.38
422.358	428.72
422.735	400.24
423.111	414.25
423.488	420.13
423.864	414.03
424.241	411.77
424.617	422.62
424.994	418.32
425.37	418.1
425.746	406.35
426.123	428.04
426.499	409.73
426.875	418.32
427.251	445.67
427.627	450.86
428.003	437.3
428.379	459.23
428.756	450.64
429.132	436.17
429.507	458.77
429.883	447.93
430.259	449.73
430.635	462.61
431.011	456.06
431.387	449.06
431.763	469.39
432.138	468.72
432.514	452.45
432.89	458.32
433.265	467.36
433.641	482.05
434.016	487.47
434.392	490.86
434.767	500.81
435.143	489.05
435.518	489.73
435.894	505.55
436.269	491.99
436.644	508.72
437.02	514.82
437.395	512.56
437.77	525.44
438.145	509.17
438.52	515.04
438.895	527.47
439.271	506.91
439.646	522.05
440.021	531.31
440.395	542.16
440.77	545.1
441.145	542.39
441.52	553.91
441.895	546.45
442.27	558.21
442.645	580.58
443.019	563.18
443.394	576.74
443.769	558.66
444.143	546.45
444.518	602.95
444.892	577.41
445.267	591.2
445.641	589.39
446.016	596.85
446.39	614.7
446.764	589.39
447.139	597.98
447.513	612.22
447.887	630.52
448.262	622.38
448.636	644.76
449.01	618.54
449.384	650.41
449.758	651.08
450.132	652.44
450.506	636.17
450.88	657.41
451.254	654.7
451.628	649.73
452.002	647.24
452.376	679.56
452.75	674.13
453.123	647.24
453.497	689.95
453.871	679.11
454.244	671.42
454.618	671.87
454.992	711.65
455.365	663.06
455.739	691.54
456.112	680.46
456.486	691.76
456.859	715.72
457.232	701.48
457.606	673.68
457.979	689.5
458.352	661.93
458.725	720.91
459.099	698.54
459.472	715.72
459.845	712.1
460.218	715.04
460.591	703.51
460.964	696.28
461.337	727.01
461.71	717.98
462.083	748.26
462.456	731.76
462.829	748.26
463.201	719.33
463.574	746.68
463.947	724.53
464.32	726.56
464.692	743.96
465.065	755.26
465.438	772.44
465.81	771.76
466.183	771.31
466.555	774.25
466.928	767.01
467.3	790.74
467.672	800.69
468.045	792.78
468.417	805.88
468.789	821.02
469.161	788.48
469.534	801.82
469.906	803.85
470.278	827.8
470.65	828.93
471.022	832.32
471.394	837.75
471.766	844.98
472.138	845.2
472.51	850.85
472.882	873
473.253	863.96
473.625	866.45
473.997	899.44
474.369	889.5
474.74	885.2
475.112	889.5
475.484	919.55
475.855	948.7
476.227	938.08
476.598	943.28
476.97	938.08
477.341	956.84
477.713	969.27
478.084	968.36
478.455	973.34
478.827	993.67
479.198	1007.69
479.569	1022.15
479.94	1041.36
480.311	1030.51
480.682	1060.57
481.053	1102.6
481.424	1105.08
481.795	1124.97
482.166	1108.7
482.537	1098.76
482.908	1105.54
483.279	1128.36
483.65	1145.76
484.021	1149.83
484.391	1166.1
484.762	1169.26
485.133	1225.31
485.503	1225.76
485.874	1216.72
486.244	1209.71
486.615	1269.15
486.985	1265.76
487.356	1277.51
487.726	1296.04
488.097	1312.99
488.467	1323.84
488.837	1340.78
489.207	1341.91
489.578	1357.05
489.948	1394.34
490.318	1379.88
490.688	1423.95
491.058	1399.99
491.428	1415.58
491.798	1438.41
492.168	1467.33
492.538	1433.66
492.908	1467.79
493.278	1457.84
493.648	1501.23
494.017	1489.48
494.387	1533.1
494.757	1568.57
495.126	1555.69
495.496	1570.38
495.866	1551.17
496.235	1590.49
496.605	1596.82
496.974	1574.9
497.344	1607.9
497.713	1608.57
498.082	1592.3
498.452	1621.91
498.821	1640.44
499.19	1651.96
499.559	1659.42
499.928	1663.94
500.298	1683.83
500.667	1732.19
501.036	1684.28
501.405	1696.03
501.774	1720.21
502.143	1751.17
502.512	1744.62
502.88	1747.55
503.249	1777.16
503.618	1743.71
503.987	1795.69
504.356	1777.38
504.724	1815.12
505.093	1819.64
505.462	1853.99
505.83	1856.93
506.199	1844.5
506.567	1863.26
506.936	1860.32
507.304	1875.46
507.672	1917.94
508.041	1902.13
508.409	1900.54
508.777	1922.46
509.145	1936.02
509.514	1951.39
509.882	1959.3
510.25	1931.05
510.618	1984.61
510.986	2011.27
511.354	1999.98
511.722	1998.85
512.09	2033.42
512.458	2029.35
512.826	2072.06
513.193	2047.21
513.561	2029.81
513.929	2070.93
514.297	2091.05
514.664	2110.26
515.032	2079.97
515.4	2150.03
515.767	2169.24
516.135	2144.15
516.502	2143.25
516.869	2180.54
517.237	2220.31
517.604	2139.63
517.972	2195.68
518.339	2209.46
518.706	2230.03
519.073	2260.08
519.44	2259.86
519.808	2264.38
520.175	2291.72
520.542	2281.78
520.909	2311.61
521.276	2325.39
521.643	2351.38
522.009	2381.89
522.376	2359.06
522.743	2380.3
523.11	2397.93
523.477	2465.95
523.843	2463.24
524.21	2494.65
524.577	2465.73
524.943	2468.89
525.31	2474.54
525.676	2509.11
526.043	2520.64
526.409	2543.01
526.776	2590.02
527.142	2562.22
527.508	2567.19
527.874	2549.34
528.241	2572.84
528.607	2612.84
528.973	2629.11
529.339	2677.47
529.705	2670.47
530.071	2705.49
530.437	2674.76
530.803	2707.98
531.169	2690.13
531.535	2691.03
531.901	2724.02
532.267	2739.17
532.632	2747.07
532.998	2764.7
533.364	2793.18
533.73	2771.71
534.095	2808.99
534.461	2832.5
534.826	2864.81
535.192	2869.78
535.557	2839.73
535.923	2848.09
536.288	2874.53
536.653	2860.29
537.019	2861.42
537.384	2907.07
537.749	2913.4
538.114	2906.84
538.479	2935.32
538.845	2967.41
539.21	2939.39
539.575	2960.63
539.94	2943.23
540.305	2923.79
540.67	2971.02
541.034	3007.63
541.399	2996.11
541.764	2972.61
542.129	3051.02
542.494	3057.8
542.858	3056.9
543.223	3071.13
543.587	3046.05
543.952	3056.45
544.316	3075.65
544.681	3079.27
545.045	3087.86
545.41	3115.2
545.774	3105.48
546.138	3129.89
546.503	3129.89
546.867	3111.36
547.231	3164.01
547.595	3176.67
547.959	3177.8
548.324	3181.87
548.688	3152.26
549.052	3209.44
549.416	3196.55
549.779	3217.57
550.143	3181.19
550.507	3251.47
550.871	3241.52
551.235	3224.8
551.599	3228.19
551.962	3289.21
552.326	3285.59
552.689	3283.11
553.053	3263.67
553.417	3293.95
553.78	3340.73
554.143	3343.9
554.507	3350
554.87	3372.37
555.234	3381.63
555.597	3364.91
555.96	3382.31
556.323	3394.74
556.686	3425.25
557.05	3436.55
557.413	3454.4
557.776	3465.25
558.139	3424.12
558.502	3487.39
558.865	3471.8
559.228	3523.55
559.59	3494.17
559.953	3532.59
560.316	3585.92
560.679	3537.56
561.041	3569.65
561.404	3582.76
561.767	3594.51
562.129	3580.95
562.492	3629.09
562.854	3636.32
563.217	3652.36
563.579	3679.71
563.941	3677.45
564.304	3723.09
564.666	3738.69
565.028	3730.33
565.39	3709.08
565.753	3786.6
566.115	3759.48
566.477	3783.66
566.839	3811
567.201	3798.12
567.563	3797.67
567.925	3876.99
568.287	3889.87
568.648	3854.16
569.01	3876.76
569.372	3911.56
569.734	3884.45
570.095	3891.68
570.457	3890.55
570.819	3929.87
571.18	3909.76
571.542	3940.04
571.903	3955.4
572.265	3975.06
572.626	3986.36
572.987	4006.93
573.349	3962.18
573.71	4049.41
574.071	4025.69
574.432	3994.73
574.794	4082.86
575.155	4042.86
575.516	4059.36
575.877	4078.79
576.238	4100.49
576.599	4066.59
576.96	4091.22
577.32	4113.59
577.681	4116.3
578.042	4141.61
578.403	4123.76
578.763	4141.84
579.124	4126.7
579.485	4139.58
579.845	4143.65
580.206	4139.58
580.566	4161.73
580.927	4154.72
581.287	4176.64
581.648	4149.52
582.008	4154.5
582.368	4169.18
582.728	4148.85
583.089	4157.43
583.449	4162.4
583.809	4155.17
584.169	4165.34
584.529	4156.08
584.889	4185.23
585.249	4175.51
585.609	4195.4
585.969	4157.66
586.329	4192.01
586.688	4154.5
587.048	4176.87
587.408	4176.42
587.768	4189.97
588.127	4214.61
588.487	4168.28
588.846	4145.46
589.206	4205.79
589.565	4138
589.925	4183.87
590.284	4157.66
590.643	4143.2
591.003	4200.14
591.362	4189.07
591.721	4185.45
592.08	4155.85
592.44	4170.54
592.799	4187.04
593.158	4188.84
593.517	4168.73
593.876	4215.28
594.235	4178.45
594.593	4129.19
594.952	4202.4
595.311	4150.88
595.67	4206.92
596.029	4210.99
596.387	4252.8
596.746	4215.06
597.104	4218.22
597.463	4185.91
597.822	4213.48
598.18	4150.88
598.538	4170.31
598.897	4207.6
599.255	4187.04
599.613	4232.23
599.972	4180.94
600.33	4195.85
600.688	4203.76
601.046	4217.54
601.404	4170.09
601.762	4197.88
602.12	4194.95
602.478	4208.28
602.836	4209.18
603.194	4161.05
603.552	4196.3
603.91	4144.78
604.268	4235.4
604.625	4183.2
604.983	4221.16
605.341	4190.43
605.698	4212.8
606.056	4267.26
606.413	4220.48
606.771	4249.63
607.128	4254.61
607.485	4236.98
607.843	4221.61
608.2	4239.46
608.557	4257.32
608.914	4227.94
609.272	4193.14
609.629	4227.49
609.986	4242.85
610.343	4246.7
610.7	4256.41
611.057	4220.26
611.414	4289.63
611.771	4259.35
612.127	4284.21
612.484	4255.06
612.841	4286.7
613.198	4253.48
613.554	4238.11
613.911	4275.85
614.267	4289.18
614.624	4253.02
614.98	4310.65
615.337	4232.23
615.693	4269.52
616.05	4288.73
616.406	4272.68
616.762	4304.77
617.118	4244.44
617.475	4231.1
617.831	4312.91
618.187	4307.26
618.543	4280.82
618.899	4277.2
619.255	4307.03
619.611	4295.51
619.967	4283.76
620.323	4276.07
620.678	4295.96
621.034	4293.02
621.39	4252.57
621.746	4286.24
622.101	4343.64
622.457	4257.77
622.812	4265.9
623.168	4278.56
623.523	4213.25
623.879	4253.93
624.234	4223.19
624.589	4253.25
624.945	4185.91
625.3	4250.09
625.655	4250.09
626.01	4225.68
626.365	4231.1
626.72	4211.67
627.075	4190.65
627.43	4191.56
627.785	4240.37
628.14	4225.91
628.495	4208.05
628.85	4229.52
629.205	4212.12
629.559	4235.4
629.914	4214.38
630.269	4182.07
630.623	4139.81
630.978	4188.62
631.332	4133.7
631.687	4191.1
632.041	4141.39
632.396	4192.01
632.75	4121.95
633.104	4167.6
633.459	4152.46
633.813	4173.7
634.167	4160.6
634.521	4104.1
634.875	4131.45
635.229	4113.37
635.583	4111.56
635.937	4106.81
636.291	4078.11
636.645	4086.02
636.999	4049.64
637.352	4109.75
637.706	4053.71
638.06	4044.67
638.413	4049.64
638.767	3998.79
639.121	4011
639.474	4021.17
639.828	4029.75
640.181	4014.61
640.534	4015.52
640.888	4017.78
641.241	3963.31
641.594	3945.69
641.947	3993.14
642.301	3973.03
642.654	3932.58
643.007	3945.69
643.36	3948.4
643.713	3937.1
644.066	3973.48
644.419	3950.66
644.771	3921.73
645.124	3856.42
645.477	3826.82
645.83	3794.96
646.182	3864.11
646.535	3832.7
646.888	3837.22
647.24	3806.26
647.593	3820.94
647.945	3813.49
648.298	3800.61
648.65	3794.28
649.002	3753.15
649.355	3821.85
649.707	3754.96
650.059	3772.13
650.411	3789.53
650.763	3796.31
651.115	3831.79
651.467	3845.58
651.819	3846.71
652.171	3844.67
652.523	3827.95
652.875	3796.76
653.227	3763.77
653.578	3784.34
653.93	3812.58
654.282	3775.97
654.633	3773.94
654.985	3766.03
655.337	3777.33
655.688	3792.02
656.039	3785.24
656.391	3702.3
656.742	3752.7
657.094	3735.3
657.445	3760.16
657.796	3726.71
658.147	3688.97
658.498	3749.99
658.849	3746.6
659.2	3733.49
659.551	3761.29
659.902	3742.3
660.253	3710.89
660.604	3708.86
660.955	3733.94
661.306	3718.35
661.656	3693.26
662.007	3693.26
662.358	3662.98
662.708	3680.61
663.059	3671.12
663.409	3627.73
663.76	3671.8
664.11	3700.95
664.461	3721.29
664.811	3688.07
665.161	3652.59
665.511	3664.11
665.862	3694.39
666.212	3678.58
666.562	3686.03
666.912	3686.26
667.262	3681.06
667.612	3679.93
667.962	3681.97
668.312	3684.23
668.662	3682.19
669.011	3589.99
669.361	3632.02
669.711	3599.26
670.06	3636.09
670.41	3640.38
670.76	3634.06
671.109	3677.45
671.459	3569.2
671.808	3620.5
672.157	3601.06
672.507	3605.13
672.856	3610.55
673.205	3585.92
673.554	3585.24
673.904	3629.31
674.253	3598.13
674.602	3611.46
674.951	3515.87
675.3	3533.04
675.649	3572.82
675.998	3526.04
676.346	3517.9
676.695	3551.12
677.044	3497.79
677.393	3557.45
677.741	3568.07
678.09	3532.14
678.438	3499.82
678.787	3535.75
679.135	3537.56
679.484	3530.1
679.832	3532.82
680.181	3524.46
680.529	3512.03
680.877	3477.9
681.225	3484.46
681.573	3502.76
681.922	3451.46
682.27	3443.33
682.618	3500.73
682.966	3448.3
683.314	3472.03
683.661	3417.34
684.009	3447.17
684.357	3417.11
684.705	3443.1
685.053	3438.58
685.4	3426.83
685.748	3447.85
686.095	3430.9
686.443	3424.12
686.79	3362.88
687.138	3383.22
687.485	3384.35
687.832	3364.23
688.18	3362.88
688.527	3318.81
688.874	3350.45
689.221	3308.87
689.568	3337.34
689.915	3271.58
690.262	3298.92
690.609	3325.36
690.956	3325.14
691.303	3282.65
691.65	3274.97
691.997	3287.17
692.344	3300.51
692.69	3252.15
693.037	3265.93
693.383	3237.91
693.73	3268.87
694.077	3248.53
694.423	3245.82
694.769	3248.76
695.116	3232.71
695.462	3212.83
695.808	3176.67
696.155	3215.08
696.501	3105.03
696.847	3188.19
697.193	3180.28
697.539	3128.99
697.885	3121.08
698.231	3127.63
698.577	3081.53
698.923	3111.58
699.269	3121.3
699.614	3089.44
699.96	3097.8
700.306	3099.16
700.651	3087.63
700.997	3088.31
701.342	3061.87
701.688	3036.33
702.033	3046.28
702.379	3062.09
702.724	3034.75
703.069	3034.75
703.415	3003.79
703.76	2996.79
704.105	3036.78
704.45	2975.32
704.795	2990.46
705.14	2976.9
705.485	2933.28
705.83	2947.75
706.175	3000.85
706.52	2954.3
706.865	2938.03
707.209	2929.22
707.554	2901.19
707.899	2912.27
708.243	2931.25
708.588	2924.92
708.932	2888.54
709.277	2874.53
709.621	2892.83
709.966	2892.16
710.31	2865.04
710.654	2872.27
710.998	2856.68
711.342	2811.03
711.687	2820.75
712.031	2825.49
712.375	2839.95
712.719	2849.22
713.063	2872.5
713.407	2842.44
713.75	2787.07
714.094	2836.11
714.438	2787.3
714.782	2823
715.125	2818.94
715.469	2821.42
715.812	2803.57
716.156	2746.17
716.499	2772.84
716.843	2769.67
717.186	2749.11
717.53	2769.9
717.873	2759.05
718.216	2757.02
718.559	2719.5
718.902	2713.18
719.246	2722.89
719.589	2717.47
719.932	2673.63
720.275	2722.44
720.617	2696.68
720.96	2715.44
721.303	2687.42
721.646	2723.57
721.989	2708.88
722.331	2683.35
722.674	2683.12
723.016	2683.35
723.359	2674.53
723.701	2677.7
724.044	2631.82
724.386	2664.59
724.729	2631.82
725.071	2631.37
725.413	2661.65
725.755	2597.93
726.097	2628.66
726.439	2615.55
726.782	2598.83
727.124	2604.71
727.465	2604.25
727.807	2608.55
728.149	2625.72
728.491	2591.15
728.833	2590.24
729.175	2596.12
729.516	2601.09
729.858	2583.24
730.199	2574.42
730.541	2565.84
730.882	2563.12
731.224	2549.34
731.565	2548.89
731.906	2576.01
732.248	2578.49
732.589	2565.16
732.93	2541.88
733.271	2543.46
733.612	2547.53
733.953	2548.44
734.294	2542.56
734.635	2527.19
734.976	2564.71
735.317	2506.18
735.658	2508.89
735.999	2552.96
736.339	2520.19
736.68	2527.42
737.021	2525.84
737.361	2503.47
737.702	2510.92
738.042	2518.15
738.383	2506.63
738.723	2515.67
739.063	2479.51
739.404	2479.51
739.744	2510.24
740.084	2464.82
740.424	2497.59
740.764	2472.73
741.104	2461.66
741.444	2481.32
741.784	2429.57
742.124	2429.57
742.464	2470.25
742.804	2460.08
743.143	2447.87
743.483	2432.28
743.823	2422.34
744.162	2433.18
744.502	2446.29
744.841	2420.53
745.181	2454.2
745.52	2399.74
745.86	2420.53
746.199	2400.87
746.538	2401.32
746.877	2431.38
747.216	2406.97
747.556	2410.36
747.895	2412.85
748.234	2383.92
748.573	2409.23
748.911	2360.42
749.25	2390.47
749.589	2383.02
749.928	2384.6
750.267	2370.59
750.605	2349.8
750.944	2336.01
751.283	2343.47
751.621	2338.5
751.96	2346.86
752.298	2349.12
752.636	2329.46
752.975	2337.82
753.313	2328.78
753.651	2329.23
753.989	2306.86
754.327	2318.39
754.666	2324.49
755.004	2310.7
755.342	2317.03
755.679	2319.74
756.017	2317.26
756.355	2271.38
756.693	2298.72
757.031	2297.59
757.368	2273.87
757.706	2260.53
758.044	2258.95
758.381	2258.5
758.719	2265.51
759.056	2277.71
759.394	2260.08
759.731	2193.87
760.068	2247.43
760.405	2207.2
760.743	2226.64
761.08	2199.29
761.417	2208.33
761.754	2201.33
762.091	2195.68
762.428	2196.13
762.765	2186.41
763.102	2191.61
763.438	2217.37
763.775	2165.17
764.112	2175.79
764.449	2169.46
764.785	2166.75
765.122	2165.85
765.458	2150.48
765.795	2134.89
766.131	2129.46
766.467	2139.18
766.804	2117.49
767.14	2096.24
767.476	2102.8
767.812	2102.35
768.148	2095.34
768.485	2077.26
768.821	2106.64
769.157	2072.97
769.492	2061.22
769.828	2079.75
770.164	2045.85
770.5	2050.82
770.836	2043.14
771.171	1998.85
771.507	2030.94
771.842	2010.14
772.178	2006.76
772.513	2006.08
772.849	2040.88
773.184	2011.27
773.519	2033.42
773.855	2016.47
774.19	2028.45
774.525	1993.2
774.86	1990.03
775.195	1969.69
775.53	1958.17
775.865	1943.93
776.2	1964.27
776.535	1927.66
776.87	1919.98
777.205	1925.4
777.539	1912.52
777.874	1934.67
778.209	1939.19
778.543	1925.18
778.878	1891.28
779.212	1922.92
779.547	1887.44
779.881	1904.84
780.215	1889.02
780.55	1889.02
780.884	1873.43
781.218	1858.74
781.552	1893.54
781.886	1876.82
782.22	1849.47
782.554	1852.86
782.888	1841.34
783.222	1845.63
783.556	1820.77
783.889	1802.01
784.223	1802.24
784.557	1810.38
784.89	1811.51
785.224	1823.71
785.557	1774.9
785.891	1774.67
786.224	1766.54
786.558	1772.41
786.891	1792.98
787.224	1767.89
787.557	1751.62
787.891	1765.86
788.224	1726.08
788.557	1744.84
788.89	1729.93
789.223	1722.47
789.556	1720.66
789.888	1710.04
790.221	1712.53
790.554	1718.85
790.887	1710.04
791.219	1724.95
791.552	1698.29
791.884	1686.99
792.217	1684.28
792.549	1689.48
792.882	1663.71
793.214	1688.12
793.546	1683.6
793.879	1673.2
794.211	1676.82
794.543	1634.56
794.875	1651.28
795.207	1659.42
795.539	1620.32
795.871	1634.11
796.203	1614
796.535	1621.91
796.867	1670.49
797.198	1621
797.53	1608.8
797.862	1602.92
798.193	1610.61
798.525	1605.41
798.856	1591.4
799.188	1597.5
799.519	1597.95
799.85	1592.3
800.182	1610.38
800.513	1574.22
800.844	1589.36
801.175	1559.54
801.506	1569.93
801.837	1553.43
802.168	1560.67
802.499	1572.87
802.83	1562.93
803.161	1547.33
803.491	1581.46
803.822	1587.33
804.153	1508.69
804.483	1533.1
804.814	1546.43
805.145	1519.99
805.475	1536.03
805.805	1511.85
806.136	1515.02
806.466	1512.98
806.796	1554.79
807.126	1504.4
807.457	1534.45
807.787	1512.3
808.117	1504.17
808.447	1507.33
808.777	1499.2
809.107	1488.8
809.436	1487.45
809.766	1481.57
810.096	1501.23
810.426	1467.56
810.755	1490.84
811.085	1496.71
811.414	1453.55
811.744	1460.55
812.073	1472.53
812.403	1455.58
812.732	1434.57
813.061	1453.55
813.39	1448.35
813.719	1409.48
814.049	1421.23
814.378	1422.36
814.707	1415.13
815.036	1430.27
815.365	1440.89
815.693	1436.6
816.022	1423.95
816.351	1418.52
816.68	1410.39
817.008	1419.88
817.337	1424.17
817.665	1426.21
817.994	1398.86
818.322	1430.27
818.651	1403.61
818.979	1410.84
819.307	1411.06
819.636	1376.72
819.964	1407.45
820.292	1405.87
820.62	1381.01
820.948	1385.3
821.276	1376.26
821.604	1367.22
821.932	1367.68
822.259	1388.69
822.587	1394.57
822.915	1394.79
823.243	1385.08
823.57	1380.33
823.898	1381.46
824.225	1379.65
824.553	1393.44
824.88	1371.97
825.207	1389.37
825.535	1393.89
825.862	1391.4
826.189	1384.85
826.516	1400.67
826.843	1393.89
827.17	1356.38
827.497	1377.62
827.824	1373.1
828.151	1374.23
828.478	1358.18
828.805	1388.92
829.131	1359.77
829.458	1383.04
829.785	1369.03
830.111	1360.22
830.438	1380.56
830.764	1386.66
831.09	1376.72
831.417	1386.43
831.743	1400.9
832.069	1387.34
832.395	1351.41
832.722	1343.04
833.048	1363.38
833.374	1361.57
833.7	1356.6
834.026	1378.98
834.351	1385.08
834.677	1375.13
835.003	1362.93
835.329	1350.05
835.654	1353.44
835.98	1353.89
836.306	1379.65
836.631	1352.08
836.956	1340.33
837.282	1349.37
837.607	1378.52
837.932	1348.02
838.258	1342.82
838.583	1351.18
838.908	1361.8
839.233	1331.52
839.558	1344.17
839.883	1341.69
840.208	1335.36
840.533	1324.74
840.858	1348.92
841.182	1351.86
841.507	1303.27
841.832	1338.52
842.156	1313.44
842.481	1321.12
842.805	1320.9
843.13	1329.03
843.454	1324.74
843.778	1323.16
844.103	1301.01
844.427	1289.26
844.751	1317.06
845.075	1299.2
845.399	1298.07
845.723	1283.16
846.047	1294.01
846.371	1263.5
846.695	1280.45
847.019	1274.12
847.343	1246.1
847.666	1277.06
847.99	1260.33
848.313	1256.94
848.637	1260.56
848.96	1249.49
849.284	1239.09
849.607	1257.85
849.931	1277.96
850.254	1242.93
850.577	1221.01
850.9	1195.7
851.223	1247.68
851.546	1241.58
851.869	1223.5
852.192	1218.75
852.515	1204.06
852.838	1231.86
853.161	1218.98
853.483	1201.8
853.806	1207.91
854.129	1217.85
854.451	1193.67
854.774	1181.47
855.096	1180.11
855.419	1187.12
855.741	1174.23
856.063	1176.27
856.385	1198.64
856.708	1167.68
857.03	1162.71
857.352	1177.85
857.674	1163.84
857.996	1168.59
858.318	1162.94
858.64	1152.09
858.961	1146.21
859.283	1150.96
859.605	1129.26
859.926	1158.87
860.248	1172.88
860.57	1164.07
860.891	1169.49
861.212	1134.46
861.534	1156.83
861.855	1138.08
862.176	1146.66
862.498	1138.98
862.819	1135.59
863.14	1105.08
863.461	1098.3
863.782	1111.86
864.103	1136.5
864.424	1089.49
864.745	1138.98
865.065	1145.08
865.386	1116.16
865.707	1143.28
866.027	1103.73
866.348	1128.59
866.668	1137.63
866.989	1127
867.309	1100.56
867.63	1131.52
867.95	1128.13
868.27	1110.28
868.59	1089.49
868.91	1121.35
869.23	1086.33
869.55	1109.15
869.87	1078.42
870.19	1100.79
870.51	1105.76
870.83	1094.24
871.15	1096.04
871.469	1114.58
871.789	1102.6
872.109	1102.15
872.428	1043.39
872.748	1121.81
873.067	1069.83
873.386	1075.71
873.706	1066.67
874.025	1049.49
874.344	1085.88
874.663	1094.69
874.982	1087.91
875.301	1055.37
875.62	1075.48
875.939	1073.67
876.258	1102.6
876.577	1063.96
876.896	1081.81
877.214	1075.93
877.533	1067.12
877.852	1065.08
878.17	1056.27
878.489	1074.8
878.807	1052.66
879.125	1051.75
879.444	1040.45
879.762	1074.35
880.08	1034.13
880.398	1067.12
880.716	1056.05
881.034	1072.77
881.352	1068.02
881.67	1078.64
881.988	1036.16
882.306	1055.37
882.624	1068.02
882.941	1034.13
883.259	1049.94
883.577	1054.92
883.894	1060.11
884.212	1040.68
884.529	1024.41
884.846	1060.11
885.164	1020.11
885.481	1019.44
885.798	1022.83
886.115	1025.31
886.432	1018.08
886.75	1003.17
887.067	1007.23
887.383	1018.53
887.7	1002.49
888.017	1022.37
888.334	1009.04
888.651	1007.69
888.967	1006.33
889.284	1009.95
889.6	991.64
889.917	981.7
890.233	1025.31
890.55	1008.14
890.866	979.44
891.182	1003.84
891.498	992.09
891.815	1002.71
892.131	990.74
892.447	989.15
892.763	1000.23
893.079	980.34
893.395	1001.81
893.71	991.19
894.026	981.47
894.342	980.57
894.657	981.7
894.973	974.47
895.289	965.65
895.604	954.13
895.92	975.82
896.235	970.62
896.55	977.63
896.865	950.51
897.181	971.98
897.496	950.96
897.811	929.95
898.126	934.69
898.441	955.48
898.756	973.11
899.071	923.17
899.386	944.64
899.7	924.3
900.015	924.98
900.33	939.44
900.644	943.96
900.959	924.75
901.273	886.11
901.588	927.24
901.902	935.14
902.216	905.09
902.531	909.61
902.845	930.4
903.159	905.99
903.473	891.08
903.787	892.89
904.101	899.67
904.415	914.58
904.729	891.76
905.042	880.46
905.356	900.57
905.67	890.85
905.984	898.99
906.297	886.56
906.611	890.63
906.924	887.01
907.237	885.43
907.551	894.02
907.864	865.54
908.177	876.16
908.491	889.27
908.804	863.51
909.117	881.14
909.43	874.81
909.743	868.71
910.056	865.77
910.368	876.62
910.681	850.85
910.994	876.62
911.307	867.58
911.619	850.63
911.932	856.95
912.244	862.6
912.557	854.92
912.869	858.08
913.181	844.53
913.494	811.31
913.806	831.64
914.118	824.87
914.43	816.73
914.742	824.87
915.054	826.22
915.366	800.46
915.678	824.87
915.99	819.67
916.302	792.1
916.613	797.75
916.925	809.72
917.236	813.79
917.548	816.28
917.859	829.61
918.171	796.17
918.482	809.5
918.794	795.94
919.105	778.99
919.416	800.46
919.727	786.45
920.038	797.07
920.349	775.15
920.66	771.53
920.971	789.16
921.282	785.32
921.593	791.65
921.903	775.83
922.214	771.76
922.525	757.75
922.835	784.64
923.146	772.44
923.456	761.36
923.767	752.32
924.077	798.43
924.387	761.82
924.697	768.14
925.008	754.13
925.318	759.56
925.628	774.25
925.938	749.61
926.248	748.26
926.558	714.81
926.867	725.66
927.177	745.09
927.487	720.24
927.796	741.7
928.106	764.3
928.416	733.12
928.725	736.28
929.034	761.82
929.344	753.68
929.653	710.52
929.962	718.2
930.271	726.11
930.581	725.43
930.89	721.37
931.199	718.88
931.508	707.58
931.817	720.24
932.125	731.08
932.434	715.04
932.743	715.72
933.051	694.47
933.36	690.18
933.669	697.19
933.977	698.99
934.286	663.74
934.594	683.85
934.902	714.59
935.21	705.09
935.519	707.13
935.827	690.63
936.135	689.28
936.443	673.68
936.751	685.66
937.059	688.6
937.367	688.15
937.674	687.24
937.982	678.65
938.29	680.69
938.597	668.03
938.905	653.8
939.213	659.9
939.52	666
939.827	676.39
940.135	683.17
940.442	649.73
940.749	682.72
941.056	652.67
941.363	657.19
941.67	652.67
941.977	649.5
942.284	652.67
942.591	637.53
942.898	654.7
943.205	657.86
943.511	609.5
943.818	661.71
944.125	642.95
944.431	652.67
944.738	647.92
945.044	640.92
945.35	638.2
945.657	650.63
945.963	626.68
946.269	632.33
946.575	649.28
946.881	651.76
947.187	650.63
947.493	633.46
947.799	654.93
948.105	641.37
948.41	616.51
948.716	612.67
949.022	629.84
949.327	615.61
949.633	629.16
949.938	635.04
950.244	633.01
950.549	598.88
950.854	621.71
951.16	621.48
951.465	618.32
951.77	633.23
952.075	614.48
952.38	595.94
952.685	617.87
952.99	612.67
953.294	612.22
953.599	606.57
953.904	612.89
954.209	604.08
954.513	600.01
954.818	569.96
955.122	589.39
955.426	585.32
955.731	588.49
956.035	614.02
956.339	603.4
956.643	604.76
956.948	600.24
957.252	584.65
957.556	580.8
957.86	561.82
958.163	571.99
958.467	588.49
958.771	574.02
959.075	604.31
959.378	592.33
959.682	589.62
959.985	569.28
960.289	582.39
960.592	560.01
960.896	562.95
961.199	573.12
961.502	551.2
961.805	560.01
962.108	570.41
962.411	559.79
962.714	548.71
963.017	566.12
963.32	559.79
963.623	581.71
963.926	561.37
964.228	548.04
964.531	523.63
964.833	551.2
965.136	567.92
965.438	549.84
965.741	557.3
966.043	542.39
966.345	552.33
966.648	567.24
966.95	534.03
967.252	536.06
967.554	560.69
967.856	542.84
968.158	555.04
968.46	534.25
968.761	556.62
969.063	542.16
969.365	534.93
969.666	528.83
969.968	534.03
970.269	536.29
970.571	517.98
970.872	539.9
971.174	538.77
971.475	542.84
971.776	524.53
972.077	527.7
972.378	536.06
972.679	518.88
972.98	550.07
973.281	529.05
973.582	518.43
973.883	534.03
974.183	503.07
974.484	529.28
974.785	520.92
975.085	523.4
975.386	536.06
975.686	509.39
975.986	536.96
976.287	525.21
976.587	515.04
976.887	505.1
977.187	518.66
977.487	527.7
977.787	530.64
978.087	512.33
978.387	525.89
978.687	484.54
978.987	516.4
979.286	498.09
979.586	497.64
979.885	504.87
980.185	523.63
980.484	496.74
980.784	491.31
981.083	511.43
981.382	486.12
981.682	494.7
981.981	516.4
982.28	479.11
982.579	496.96
982.878	489.28
983.177	480.47
983.475	496.74
983.774	489.05
984.073	492.44
984.372	484.99
984.67	485.21
984.969	480.69
985.267	499.22
985.566	506
985.864	470.07
986.162	483.86
986.461	492.67
986.759	487.7
987.057	487.02
987.355	471.65
987.653	471.65
987.951	484.99
988.249	496.29
988.547	465.78
988.844	480.02
989.142	462.16
989.44	473.46
989.737	478.89
990.035	470.52
990.332	480.47
990.63	455.16
990.927	475.72
991.224	477.3
991.521	486.57
991.819	457.87
992.116	474.82
992.413	467.36
992.71	480.24
993.006	443.86
993.303	443.18
993.6	478.43
993.897	470.98
994.193	481.37
994.49	474.14
994.787	456.97
995.083	435.95
995.379	450.86
995.676	458.77
995.972	454.03
996.268	452.9
996.565	448.83
996.861	454.25
997.157	454.71
997.453	462.39
997.749	450.86
998.044	451.54
998.34	456.06
998.636	451.54
998.932	451.09
999.227	470.98
999.523	459.68
999.818	447.93
1000.114	432.79
1000.409	440.02
1000.704	446.12
1001	433.46
1001.295	451.32
1001.59	435.27
1001.885	441.6
1002.18	456.29
1002.475	432.33
1002.77	451.54
1003.065	415.16
1003.359	415.84
1003.654	426.01
1003.949	432.79
1004.243	427.14
1004.538	426.91
1004.832	418.77
1005.127	413.12
1005.421	411.99
1005.715	410.64
1006.009	422.39
1006.304	431.43
1006.598	443.41
1006.892	434.82
1007.186	438.66
1007.48	409.06
1007.773	440.02
1008.067	421.03
1008.361	416.06
1008.655	427.36
1008.948	418.1
1009.242	413.35
1009.535	414.71
1009.829	401.83
1010.122	402.73
1010.415	412.45
1010.708	430.98
1011.001	416.97
1011.295	418.77
1011.588	395.72
1011.881	415.61
1012.173	407.48
1012.466	409.96
1012.759	402.05
1013.052	414.03
1013.344	392.33
1013.637	405.67
1013.93	426.91
1014.222	401.83
1014.514	411.54
1014.807	405.44
1015.099	390.3
1015.391	396.4
1015.683	402.96
1015.976	386.68
1016.268	394.37
1016.56	397.31
1016.851	390.75
1017.143	382.39
1017.435	413.58
1017.727	391.2
1018.018	383.52
1018.31	373.13
1018.602	392.56
1018.893	389.62
1019.185	403.41
1019.476	408.61
1019.767	379.91
1020.058	378.1
1020.35	377.42
1020.641	382.17
1020.932	379.45
1021.223	400.02
1021.514	393.24
1021.804	390.98
1022.095	384.2
1022.386	387.14
1022.677	380.58
1022.967	370.64
1023.258	406.57
1023.548	386.91
1023.839	365.89
1024.129	378.1
1024.419	393.69
1024.709	369.74
1025	374.03
1025.29	377.87
1025.58	376.29
1025.87	385.55
1026.16	377.87
1026.449	379
1026.739	377.65
1027.029	370.87
1027.319	343.3
1027.608	376.29
1027.898	384.65
1028.187	382.39
1028.477	367.25
1028.766	376.52
1029.055	363.18
1029.344	381.26
1029.634	392.11
1029.923	379.45
1030.212	353.01
1030.501	370.41
1030.79	369.96
1031.078	386.01
1031.367	404.31
1031.656	367.7
1031.945	368.83
1032.233	360.7
1032.522	397.98
1032.81	374.93
1033.099	349.4
1033.387	384.2
1033.675	376.29
1033.963	366.35
1034.251	356.18
1034.54	352.11
1034.828	360.47
1035.116	361.37
1035.403	385.1
1035.691	378.55
1035.979	353.92
1036.267	364.09
1036.554	348.95
1036.842	351.88
1037.129	358.21
1037.417	350.53
1037.704	362.73
1037.992	382.17
1038.279	364.09
1038.566	342.62
1038.853	342.62
1039.14	342.62
