Data from foam1_polythene_foam_FLMS001491_00088.txt Node
Date: Wed Feb 08 10:55:31 GMT 2017
User: dcchb
Spectrometer: FLMS00149
Trigger mode: 0
Integration Time (sec): 2.000000E-2
Scans to average: 10
Electric dark correction enabled: true
Nonlinearity correction enabled: false
Boxcar width: 0
XAxis mode: Wavelengths
Number of Pixels in Spectrum: 2048
>>>>>Begin Spectral Data<<<<<
341.393	-26.04
341.776	-26.04
342.16	-26.04
342.543	-66.27
342.927	-45.03
343.31	-72.6
343.693	-66.04
344.077	-64.01
344.46	-83.22
344.843	-35.76
345.226	-29.21
345.61	-30.11
345.993	-30.11
346.376	-16.33
346.759	12.82
347.142	31.36
347.525	55.31
347.908	42.2
348.291	86.95
348.674	86.04
349.057	112.71
349.44	115.42
349.823	109.09
350.206	161.52
350.588	212.14
350.971	181.63
351.354	207.85
351.737	231.8
352.119	225.7
352.502	253.5
352.884	249.65
353.267	268.86
353.65	281.52
354.032	282.2
354.414	302.53
354.797	289.88
355.179	292.82
355.562	295.53
355.944	311.57
356.326	316.77
356.709	306.38
357.091	335.3
357.473	325.81
357.855	316.77
358.238	337.11
358.62	327.17
359.002	317.22
359.384	331.01
359.766	331.46
360.148	300.73
360.53	306.15
360.912	317.68
361.294	328.75
361.676	305.25
362.057	323.1
362.439	305.47
362.821	312.93
363.203	311.12
363.584	294.85
363.966	303.44
364.348	306.83
364.729	283.78
365.111	285.59
365.493	319.26
365.874	317.22
366.256	303.66
366.637	281.07
367.019	310.9
367.4	303.66
367.781	298.01
368.163	301.63
368.544	290.33
368.925	305.47
369.306	305.7
369.688	293.27
370.069	284.23
370.45	295.98
370.831	287.17
371.212	291.91
371.593	301.18
371.974	279.94
372.355	322.65
372.736	292.59
373.117	317.9
373.498	314.29
373.879	274.51
374.26	300.5
374.641	309.09
375.021	298.01
375.402	303.21
375.783	297.79
376.163	307.51
376.544	305.25
376.925	303.89
377.305	303.89
377.686	314.51
378.066	297.56
378.447	318.58
378.827	327.39
379.208	331.91
379.588	311.8
379.968	317.45
380.349	325.81
380.729	324
381.109	327.62
381.489	341.18
381.87	333.27
382.25	324.45
382.63	324.23
383.01	303.44
383.39	335.75
383.77	324.91
384.15	336.21
384.53	354.74
384.91	351.8
385.29	321.97
385.67	338.47
386.049	331.01
386.429	335.3
386.809	333.27
387.189	351.35
387.568	334.85
387.948	354.74
388.328	326.71
388.707	360.84
389.087	339.82
389.466	351.35
389.846	331.69
390.225	355.41
390.605	363.32
390.984	366.26
391.363	369.65
391.743	359.26
392.122	354.96
392.501	387.96
392.881	359.26
393.26	360.84
393.639	342.31
394.018	371.91
394.397	354.28
394.776	378.46
395.155	376.2
395.534	369.2
395.913	366.49
396.292	398.8
396.671	401.97
397.05	380.27
397.429	407.62
397.808	388.86
398.186	378.92
398.565	389.76
398.944	385.7
399.323	415.07
399.701	396.09
400.08	395.87
400.458	392.7
400.837	412.81
401.215	433.38
401.594	404.9
401.972	404
402.351	412.59
402.729	411.01
403.107	399.93
403.486	414.62
403.864	414.4
404.242	411.46
404.62	413.94
404.999	422.76
405.377	407.39
405.755	420.05
406.133	414.85
406.511	432.02
406.889	437.67
407.267	426.6
407.645	421.63
408.023	460.95
408.401	416.88
408.779	425.02
409.156	452.81
409.534	453.26
409.912	466.37
410.29	472.47
410.667	447.39
411.045	466.15
411.422	463.66
411.8	474.28
412.178	481.96
412.555	463.43
412.933	480.16
413.31	488.74
413.687	485.35
414.065	489.2
414.442	480.61
414.819	498.24
415.197	487.16
415.574	510.66
415.951	506.14
416.328	502.3
416.705	528.97
417.082	500.04
417.46	516.99
417.837	521.29
418.214	508.18
418.591	520.83
418.967	519.7
419.344	528.97
419.721	508.18
420.098	545.24
420.475	538.23
420.852	538.01
421.228	540.95
421.605	538.69
421.982	563.32
422.358	543.66
422.735	548.18
423.111	558.35
423.488	594.05
423.864	579.14
424.241	587.27
424.617	571.91
424.994	572.36
425.37	583.21
425.746	591.34
426.123	589.76
426.499	617.33
426.875	587.72
427.251	605.8
427.627	607.39
428.003	592.92
428.379	618.01
428.756	631.57
429.132	649.42
429.507	648.29
429.883	637.21
430.259	670.21
430.635	664.78
431.011	650.32
431.387	674.73
431.763	706.59
432.138	688.51
432.514	680.15
432.89	692.81
433.265	720.38
433.641	716.76
434.016	719.02
434.392	729.19
434.767	722.86
435.143	728.51
435.518	747.27
435.894	732.58
436.269	761.28
436.644	757.89
437.02	788.4
437.395	771.9
437.77	781.84
438.145	778.45
438.52	756.08
438.895	784.33
439.271	802.18
439.646	809.41
440.021	820.49
440.395	793.37
440.77	794.95
441.145	839.47
441.52	839.92
441.895	845.12
442.27	840.15
442.645	858
443.019	855.29
443.394	871.78
443.769	874.95
444.143	865.68
444.518	896.87
444.892	911.78
445.267	900.03
445.641	905.91
446.016	907.04
446.39	896.64
446.764	935.51
447.139	915.85
447.513	927.6
447.887	937.32
448.262	946.81
448.636	951.1
449.01	971.22
449.384	973.03
449.758	967.6
450.132	984.78
450.506	991.78
450.88	982.06
451.254	967.38
451.628	980.71
452.002	1014.83
452.376	1014.15
452.75	1039.69
453.123	1058.22
453.497	1060.25
453.871	1059.8
454.244	1089.41
454.618	1103.87
454.992	1078.11
455.365	1092.12
455.739	1112.91
456.112	1116.75
456.486	1109.74
456.859	1097.32
457.232	1111.33
457.606	1124.89
457.979	1140.93
458.352	1177.77
458.725	1172.57
459.099	1176.41
459.472	1170.31
459.845	1215.5
460.218	1204.66
460.591	1176.18
460.964	1211.89
461.337	1254.6
461.71	1234.26
462.083	1247.14
462.456	1271.77
462.829	1253.92
463.201	1286.92
463.574	1276.75
463.947	1301.6
464.32	1307.71
464.692	1316.07
465.065	1337.08
465.438	1339.57
465.81	1394.94
466.183	1385.44
466.555	1382.05
466.928	1402.62
467.3	1391.32
467.672	1394.94
468.045	1441.71
468.417	1441.94
468.789	1447.14
469.161	1483.29
469.534	1472.22
469.906	1518.77
470.278	1514.93
470.65	1524.88
471.022	1562.61
471.394	1596.74
471.766	1607.58
472.138	1597.42
472.51	1609.39
472.882	1651.88
473.253	1647.13
473.625	1669.28
473.997	1705.44
474.369	1701.59
474.74	1733.68
475.112	1746.79
475.484	1787.02
475.855	1831.99
476.227	1809.39
476.598	1888.71
476.97	1883.06
477.341	1891.42
477.713	1951.98
478.084	1957.18
478.455	1984.52
478.827	2002.83
479.198	2039.66
479.569	2056.84
479.94	2094.8
480.311	2106.1
480.682	2153.56
481.053	2196.5
481.424	2228.59
481.795	2240.56
482.166	2249.15
482.537	2292.99
482.908	2320.56
483.279	2378.41
483.65	2388.58
484.021	2408.69
484.391	2446.66
484.762	2472.19
485.133	2515.58
485.503	2527.56
485.874	2597.39
486.244	2633.09
486.615	2645.3
486.985	2679.87
487.356	2728.69
487.726	2711.28
488.097	2777.05
488.467	2799.87
488.837	2838.74
489.207	2872.64
489.578	2947.66
489.948	2969.13
490.318	3008
490.688	3009.81
491.058	3039.86
491.428	3067.43
491.798	3093.87
492.168	3178.17
492.538	3174.55
492.908	3217.49
493.278	3243.93
493.648	3275.79
494.017	3300.65
494.387	3373.41
494.757	3348.33
495.126	3428.33
495.496	3459.97
495.866	3432.17
496.235	3473.3
496.605	3506.52
496.974	3519.85
497.344	3520.08
497.713	3538.38
498.082	3554.43
498.452	3636.23
498.821	3688.66
499.19	3709.9
499.559	3737.47
499.928	3799.17
500.298	3810.01
500.667	3803.69
501.036	3817.47
501.405	3763.23
501.774	3830.35
502.143	3857.92
502.512	3868.99
502.88	3966.17
503.249	3962.55
503.618	4000.97
503.987	4009.1
504.356	4075.54
504.724	4101.08
505.093	4085.71
505.462	4064.7
505.83	4123.9
506.199	4149.66
506.567	4145.37
506.936	4182.66
507.304	4219.04
507.672	4275.99
508.041	4288.87
508.409	4324.58
508.777	4382.43
509.145	4446.15
509.514	4386.95
509.882	4444.12
510.25	4444.8
510.618	4452.71
510.986	4460.62
511.354	4512.59
511.722	4586.94
512.09	4591.91
512.458	4649.76
512.826	4697.9
513.193	4748.07
513.561	4749.65
513.929	4814.05
514.297	4829.42
514.664	4878.23
515.032	4919.14
515.4	4874.62
515.767	4888.4
516.135	4927.72
516.502	4947.84
516.869	4994.84
517.237	5017.21
517.604	5080.49
517.972	5135.4
518.339	5181.28
518.706	5211.78
519.073	5235.29
519.44	5283.42
519.808	5318.67
520.175	5330.65
520.542	5324.32
520.909	5408.39
521.276	5370.42
521.643	5395.06
522.009	5442.06
522.376	5512.57
522.743	5583.3
523.11	5634.82
523.477	5752.56
523.843	5774.48
524.21	5797.31
524.577	5882.27
524.943	5919.11
525.31	5891.77
525.676	5993.23
526.043	5946.45
526.409	5970.41
526.776	6014.02
527.142	6082.04
527.508	6127.69
527.874	6173.57
528.241	6254.69
528.607	6233.23
528.973	6352.54
529.339	6327.46
529.705	6435.25
530.071	6425.31
530.437	6436.16
530.803	6482.71
531.169	6461.02
531.535	6518.19
531.901	6501.92
532.267	6585.76
532.632	6597.28
532.998	6641.58
533.364	6723.83
533.73	6764.29
534.095	6799.54
534.461	6843.61
534.826	6924.06
535.192	6840.89
535.557	6981
535.923	6993.21
536.288	6946.65
536.653	6945.98
537.019	6973.32
537.384	6998.63
537.749	7012.64
538.114	7044.73
538.479	7123.6
538.845	7205.63
539.21	7189.36
539.575	7213.99
539.94	7252.86
540.305	7371.95
540.67	7271.16
541.034	7351.61
541.399	7380.31
541.764	7323.37
542.129	7371.73
542.494	7354.78
542.858	7374.89
543.223	7440.88
543.587	7527.88
543.952	7474.1
544.316	7526.53
544.681	7592.74
545.045	7633.19
545.41	7668.89
545.774	7595
546.138	7654.88
546.503	7702.57
546.867	7740.3
547.231	7789.12
547.595	7792.28
547.959	7768.55
548.324	7780.08
548.688	7803.81
549.052	7894.65
549.416	7890.13
549.779	7900.07
550.143	7970.13
550.507	8037.92
550.871	8067.98
551.235	8072.95
551.599	8156.11
551.962	8150.01
552.326	8176.23
552.689	8145.04
553.053	8114.98
553.417	8172.38
553.78	8269.1
554.143	8242.89
554.507	8281.53
554.87	8328.54
555.234	8449.89
555.597	8464.13
555.96	8419.84
556.323	8552.49
556.686	8495.77
557.05	8621.19
557.413	8597.91
557.776	8652.82
558.139	8701.64
558.502	8726.04
558.865	8712.26
559.228	8773.27
559.59	8796.77
559.953	8812.59
560.316	8874.51
560.679	9025.92
561.041	8952.7
561.404	9046.26
561.767	9152.02
562.129	9093.94
562.492	9255.97
562.854	9227.05
563.217	9211.45
563.579	9201.06
563.941	9336.65
564.304	9308.63
564.666	9312.24
565.028	9359.47
565.39	9324.22
565.753	9406.02
566.115	9503.42
566.477	9534.83
566.839	9546.59
567.201	9694.83
567.563	9675.4
567.925	9787.71
568.287	9827.48
568.648	9850.98
569.01	9891.21
569.372	9949.96
569.734	9881.27
570.095	9969.17
570.457	9966.24
570.819	9945.9
571.18	9981.15
571.542	10048.72
571.903	10074.93
572.265	10095.05
572.626	10070.19
572.987	10153.57
573.349	10235.83
573.71	10278.32
574.071	10289.62
574.432	10362.61
574.794	10410.52
575.155	10374.59
575.516	10410.97
575.877	10425.66
576.238	10441.48
576.599	10429.27
576.96	10420.91
577.32	10455.71
577.681	10514.47
578.042	10512.44
578.403	10468.82
578.763	10488.26
579.124	10562.6
579.485	10629.95
579.845	10591.98
580.206	10590.4
580.566	10680.11
580.927	10717.4
581.287	10762.37
581.648	10686.89
582.008	10778.87
582.368	10639.89
582.728	10726.67
583.089	10621.59
583.449	10599.44
583.809	10602.38
584.169	10586.78
584.529	10637.18
584.889	10759.21
585.249	10714.92
585.609	10687.35
585.969	10751.53
586.329	10803.73
586.688	10848.92
587.048	10820
587.408	10816.16
587.768	10791.3
588.127	10822.48
588.487	10702.94
588.846	10782.71
589.206	10742.03
589.565	10745.88
589.925	10698.42
590.284	10644.64
590.643	10789.72
591.003	10741.36
591.362	10777.29
591.721	10759.43
592.08	10777.51
592.44	10933.67
592.799	10800.56
593.158	10827
593.517	10826.78
593.876	10872.43
594.235	10846.89
594.593	10930.05
594.952	10840.56
595.311	10809.83
595.67	10788.13
596.029	10861.35
596.387	10829.72
596.746	10848.02
597.104	10801.02
597.463	10815.48
597.822	10865.87
598.18	10792.2
598.538	10907.68
598.897	10934.8
599.255	10851.86
599.613	11078.07
599.972	10937.06
600.33	11027.45
600.688	10958.3
601.046	10930.05
601.404	11063.83
601.762	10973.67
602.12	11047.34
602.478	11052.08
602.836	10978.86
603.194	10916.72
603.552	10928.47
603.91	10930.28
604.268	11041.01
604.625	10916.04
604.983	11034.46
605.341	10976.15
605.698	11011.86
606.056	11107.67
606.413	11088.01
606.771	11159.65
607.128	11173.44
607.485	11093.44
607.843	11114.23
608.2	11156.49
608.557	11133.21
608.914	11072.42
609.272	11090.95
609.629	11130.95
609.986	11165.98
610.343	11140.89
610.7	11215.24
611.057	11158.97
611.414	11127.56
611.771	11272.19
612.127	11225.86
612.484	11284.84
612.841	11306.54
613.198	11229.7
613.554	11243.49
613.911	11398.06
614.267	11311.06
614.624	11375.46
614.98	11335.46
615.337	11448.68
615.693	11333.66
616.05	11249.59
616.406	11331.17
616.762	11287.56
617.118	11264.28
617.475	11285.52
617.831	11350.15
618.187	11347.22
618.543	11334.11
618.899	11418.63
619.255	11433.54
619.611	11428.8
619.967	11464.5
620.323	11546.31
620.678	11484.39
621.034	11397.38
621.39	11492.3
621.746	11471.05
622.101	11559.87
622.457	11457.27
622.812	11438.51
623.168	11452.07
623.523	11395.58
623.879	11427.44
624.234	11399.87
624.589	11433.77
624.945	11445.29
625.3	11391.73
625.655	11424.05
626.01	11434.45
626.365	11399.64
626.72	11408.23
627.075	11447.33
627.43	11381.57
627.785	11430.38
628.14	11468.34
628.495	11392.19
628.85	11518.06
629.205	11464.73
629.559	11426.31
629.914	11446.2
630.269	11377.5
630.623	11313.54
630.978	11241.46
631.332	11361.68
631.687	11287.56
632.041	11267.22
632.396	11255.47
632.75	11208.01
633.104	11238.52
633.459	11179.08
633.813	11215.47
634.167	11247.78
634.521	11247.56
634.875	11279.87
635.229	11341.57
635.583	11206.43
635.937	11188.58
636.291	11174.56
636.645	11189.71
636.999	11197.84
637.352	11171.85
637.706	11113.32
638.06	11138.18
638.413	11109.03
638.767	11003.5
639.121	11130.95
639.474	10933.67
639.828	10908.13
640.181	10939.77
640.534	10877.85
640.888	10874.01
641.241	10895.93
641.594	10971.18
641.947	11052.53
642.301	10910.17
642.654	10954.01
643.007	10892.54
643.36	10955.59
643.713	10890.5
644.066	10935.48
644.419	10893.22
644.771	10780.9
645.124	10777.97
645.477	10647.8
645.83	10541.59
646.182	10476.5
646.535	10448.03
646.888	10412.33
647.24	10438.54
647.593	10438.99
647.945	10398.77
648.298	10346.56
648.65	10317.19
649.002	10328.71
649.355	10316.28
649.707	10301.14
650.059	10395.83
650.411	10584.98
650.763	10565.54
651.115	10694.13
651.467	10660.23
651.819	10621.13
652.171	10580.46
652.523	10582.94
652.875	10564.86
653.227	10527.12
653.578	10605.99
653.93	10553.79
654.282	10456.62
654.633	10438.54
654.985	10400.57
655.337	10420.01
655.688	10340.46
656.039	10414.81
656.391	10368.71
656.742	10405.55
657.094	10357.19
657.445	10477.63
657.796	10481.25
658.147	10326.23
658.498	10435.38
658.849	10448.48
659.2	10455.49
659.551	10439.89
659.902	10456.39
660.253	10474.7
660.604	10458.2
660.955	10368.03
661.306	10386.56
661.656	10331.65
662.007	10228.38
662.358	10353.34
662.708	10305.21
663.059	10276.28
663.409	10180.92
663.76	10282.39
664.11	10206
664.461	10214.82
664.811	10233.12
665.161	10187.7
665.511	10135.04
665.862	10181.6
666.212	10208.71
666.562	10245.32
666.912	10184.08
667.262	10316.96
667.612	10267.92
667.962	10337.07
668.312	10207.36
668.662	10346.11
669.011	10299.33
669.361	10279.9
669.711	10237.41
670.06	10239.9
670.41	10189.73
670.76	10099.56
671.109	10051.88
671.459	10061.37
671.808	10159.9
672.157	10161.94
672.507	10011.43
672.856	10024.76
673.205	9983.18
673.554	10065.22
673.904	10030.64
674.253	10048.04
674.602	10031.54
674.951	9882.85
675.3	9891.66
675.649	10044.65
675.998	10078.55
676.346	10085.55
676.695	10120.58
677.044	10019.34
677.393	10132.78
677.741	10096.63
678.09	10058.66
678.438	10063.41
678.787	10074.25
679.135	10034.03
679.484	9989.96
679.832	9936.18
680.181	9842.17
680.529	9903.86
680.877	9874.26
681.225	9841.04
681.573	9931.43
681.922	9752.23
682.27	9683.53
682.618	9759.69
682.966	9686.47
683.314	9752.91
683.661	9701.38
684.009	9707.26
684.357	9770.99
684.705	9751.1
685.053	9774.83
685.4	9788.16
685.748	9706.35
686.095	9753.59
686.443	9641.5
686.79	9691.21
687.138	9713.36
687.485	9651.44
687.832	9686.24
688.18	9623.42
688.527	9604.66
688.874	9487.83
689.221	9474.5
689.568	9430.2
689.915	9421.84
690.262	9367.83
690.609	9394.27
690.956	9303.88
691.303	9297.33
691.65	9215.97
691.997	9226.37
692.344	9270.21
692.69	9199.48
693.037	9183.88
693.383	9206.03
693.73	9256.2
694.077	9218.01
694.423	9120.83
694.769	9194.28
695.116	9200.15
695.462	9202.41
695.808	9169.42
696.155	9159.7
696.501	9029.31
696.847	9065.69
697.193	9005.36
697.539	8943.44
697.885	8920.39
698.231	8899.37
698.577	8890.56
698.923	8787.96
699.269	8742.09
699.614	8684.69
699.96	8698.47
700.306	8663.9
700.651	8642.43
700.997	8623.9
701.342	8682.43
701.688	8578.48
702.033	8630.9
702.379	8566.95
702.724	8544.58
703.069	8611.92
703.415	8551.58
703.76	8644.46
704.105	8587.29
704.45	8598.81
704.795	8460.51
705.14	8502.77
705.485	8538.7
705.83	8464.58
706.175	8492.38
706.52	8401.98
706.865	8383
707.209	8328.99
707.554	8312.95
707.899	8334.64
708.243	8265.71
708.588	8152.5
708.932	8172.84
709.277	8129.67
709.621	8097.58
709.966	8075.44
710.31	8103.69
710.654	8008.77
710.998	8028.66
711.342	8031.82
711.687	7978.72
712.031	8010.35
712.375	7945.95
712.719	8026.4
713.063	8024.59
713.407	8053.52
713.75	8025.95
714.094	8014.42
714.438	8046.51
714.782	8074.53
715.125	7995.21
715.469	8058.49
715.812	7945.5
716.156	7895.33
716.499	7922.45
716.843	7933.75
717.186	7837.7
717.53	7845.84
717.873	7805.16
718.216	7786.18
718.559	7686.75
718.902	7679.29
719.246	7664.15
719.589	7632.96
719.932	7625.51
720.275	7625.73
720.617	7616.69
720.96	7563.59
721.303	7598.84
721.646	7544.83
721.989	7627.99
722.331	7585.05
722.674	7550.25
723.016	7604.94
723.359	7618.5
723.701	7639.52
724.044	7611.49
724.386	7515.23
724.729	7577.82
725.071	7571.5
725.413	7547.54
725.755	7568.11
726.097	7505.73
726.439	7413.76
726.782	7508.9
727.124	7519.29
727.465	7447.43
727.807	7424.83
728.149	7415.34
728.491	7360.65
728.833	7369.47
729.175	7316.81
729.516	7255.57
729.858	7242.01
730.199	7284.27
730.541	7228.23
730.882	7209.7
731.224	7209.47
731.565	7174.67
731.906	7197.72
732.248	7193.2
732.589	7228.45
732.93	7180.55
733.271	7190.49
733.612	7251.96
733.953	7214.67
734.294	7190.71
734.635	7235.01
734.976	7276.36
735.317	7201.56
735.658	7216.93
735.999	7211.05
736.339	7207.21
736.68	7218.28
737.021	7119.08
737.361	7146.87
737.702	7140.55
738.042	7089.7
738.383	7034.11
738.723	7097.84
739.063	7023.26
739.404	7002.92
739.744	7010.38
740.084	6915.02
740.424	6927.67
740.764	6924.06
741.104	6905.07
741.444	6890.38
741.784	6847.45
742.124	6918.86
742.464	6885.41
742.804	6859.88
743.143	6867.11
743.483	6912.53
743.823	6899.42
744.162	6876.15
744.502	6902.59
744.841	6881.34
745.181	6884.28
745.52	6934
745.86	6918.86
746.199	6875.47
746.538	6835.02
746.877	6908.69
747.216	6873.21
747.556	6851.51
747.895	6805.87
748.234	6794.34
748.573	6774.91
748.911	6710.5
749.25	6734.46
749.589	6699.65
749.928	6682.71
750.267	6668.92
750.605	6628.7
750.944	6619.43
751.283	6592.09
751.621	6529.94
751.96	6522.71
752.298	6499.21
752.636	6473.9
752.975	6535.59
753.313	6486.55
753.651	6517.96
753.989	6477.51
754.327	6499.43
754.666	6536.27
755.004	6508.92
755.342	6566.78
755.679	6503.05
756.017	6462.82
756.355	6544.4
756.693	6578.53
757.031	6493.56
757.368	6443.84
757.706	6473.9
758.044	6458.98
758.381	6378.98
758.719	6406.1
759.056	6403.16
759.394	6361.36
759.731	6347.57
760.068	6299.44
760.405	6282.04
760.743	6225.77
761.08	6252.21
761.417	6163.62
761.754	6169.05
762.091	6116.62
762.428	6081.82
762.765	6068.48
763.102	6078.65
763.438	6010.63
763.775	6076.39
764.112	6023.29
764.449	6042.72
764.785	5993.23
765.122	6009.95
765.458	5985.55
765.795	5983.29
766.131	5983.06
766.467	5928.15
766.804	5937.87
767.14	5893.35
767.476	5956.17
767.812	5946.68
768.148	5943.52
768.485	5914.14
768.821	5875.04
769.157	5840.02
769.492	5880.01
769.828	5861.94
770.164	5781.26
770.5	5765.22
770.836	5756.85
771.171	5675.05
771.507	5656.52
771.842	5583.98
772.178	5610.64
772.513	5621.72
772.849	5611.32
773.184	5581.27
773.519	5485.67
773.855	5515.28
774.19	5508.27
774.525	5463.98
774.86	5448.39
775.195	5445
775.53	5428.95
775.865	5397.77
776.2	5426.47
776.535	5334.49
776.87	5355.96
777.205	5409.97
777.539	5369.29
777.874	5404.55
778.209	5289.07
778.543	5316.87
778.878	5293.59
779.212	5318.45
779.547	5285.45
779.881	5250.43
780.215	5206.81
780.55	5254.04
780.884	5198
781.218	5167.94
781.552	5182.86
781.886	5164.55
782.22	5156.42
782.554	5128.85
782.888	5096.08
783.222	5018.57
783.556	5033.48
783.889	4999.13
784.223	4942.86
784.557	4926.14
784.89	4930.44
785.224	4963.65
785.557	4885.46
785.891	4841.85
786.224	4853.38
786.558	4845.01
786.891	4817.22
787.224	4837.56
787.557	4779.03
787.891	4785.13
788.224	4795.3
788.557	4757.33
788.89	4756.65
789.223	4820.16
789.556	4815.41
789.888	4738.58
790.221	4711.01
790.554	4713.04
790.887	4697.67
791.219	4695.19
791.552	4706.94
791.884	4673.94
792.217	4680.95
792.549	4685.47
792.882	4618.13
793.214	4626.71
793.546	4592.82
793.879	4567.28
794.211	4512.59
794.543	4535.87
794.875	4527.28
795.207	4498.36
795.539	4478.24
795.871	4491.58
796.203	4445.93
796.535	4410.67
796.867	4386.49
797.198	4397.12
797.53	4370.22
797.862	4367.51
798.193	4350.79
798.525	4324.35
798.856	4364.35
799.188	4291.13
799.519	4280.73
799.85	4281.64
800.182	4306.5
800.513	4319.38
800.844	4230.34
801.175	4226.5
801.506	4295.65
801.837	4217.69
802.168	4226.05
802.499	4276.67
802.83	4232.37
803.161	4210.91
803.491	4208.19
803.822	4222.88
804.153	4159.61
804.483	4151.25
804.814	4165.48
805.145	4125.48
805.475	4125.26
805.805	4147.86
806.136	4119.16
806.466	4110.12
806.796	4081.42
807.126	4017.46
807.457	4050.91
807.787	4053.85
808.117	4025.83
808.447	4013.85
808.777	4028.09
809.107	3961.42
809.436	3970.01
809.766	3974.98
810.096	3899.73
810.426	3972.95
810.755	3939.95
811.085	3932.95
811.414	3877.13
811.744	3871.48
812.073	3899.05
812.403	3850.92
812.732	3857.7
813.061	3830.35
813.39	3863.34
813.719	3860.86
814.049	3853.4
814.378	3840.29
814.707	3869.67
815.036	3831.26
815.365	3841.42
815.693	3810.46
816.022	3788.77
816.351	3836.45
816.68	3814.98
817.008	3812.05
817.337	3755.1
817.665	3755.1
817.994	3787.64
818.322	3798.94
818.651	3756.68
818.979	3700.86
819.307	3790.13
819.636	3751.26
819.964	3694.99
820.292	3674.42
820.62	3701.77
820.948	3664.93
821.276	3673.97
821.604	3641.88
821.932	3682.33
822.259	3652.73
822.587	3673.75
822.915	3670.81
823.243	3659.96
823.57	3645.05
823.898	3659.51
824.225	3655.67
824.553	3612.05
824.88	3612.28
825.207	3642.79
825.535	3655.89
825.862	3652.95
826.189	3639.62
826.516	3693.63
826.843	3681.2
827.17	3673.07
827.497	3668.1
827.824	3681.88
828.151	3671.49
828.478	3677.13
828.805	3733.86
829.131	3681.43
829.458	3690.69
829.785	3719.85
830.111	3674.2
830.438	3715.1
830.764	3684.14
831.09	3664.93
831.417	3621.77
831.743	3660.86
832.069	3674.65
832.395	3666.97
832.722	3685.27
833.048	3632.84
833.374	3636.01
833.7	3627.64
834.026	3643.92
834.351	3616.12
834.677	3648.89
835.003	3615.44
835.329	3582.9
835.654	3573.18
835.98	3560.08
836.306	3579.51
836.631	3569.57
836.956	3562.34
837.282	3557.82
837.607	3555.56
837.932	3548.78
838.258	3529.12
838.583	3573.86
838.908	3520.98
839.233	3568.44
839.558	3528.89
839.883	3497.7
840.208	3527.76
840.533	3525.5
840.858	3522.34
841.182	3558.95
841.507	3517.14
841.832	3495.44
842.156	3510.36
842.481	3565.73
842.805	3506.07
843.13	3510.59
843.454	3497.93
843.778	3500.87
844.103	3449.8
844.427	3458.38
844.751	3458.84
845.075	3456.58
845.399	3465.39
845.723	3426.97
846.047	3419.74
846.371	3417.71
846.695	3415.22
847.019	3359.63
847.343	3355.79
847.666	3350.14
847.99	3308.56
848.313	3334.09
848.637	3283.25
848.96	3263.81
849.284	3284.15
849.607	3242.57
849.931	3219.97
850.254	3239.41
850.577	3173.19
850.9	3201.89
851.223	3192.85
851.546	3165.28
851.869	3180.42
852.192	3123.48
852.515	3166.64
852.838	3151.73
853.161	3122.35
853.483	3110.6
853.806	3154.21
854.129	3130.26
854.451	3091.39
854.774	3072.41
855.096	3092.29
855.419	3097.26
855.741	3118.96
856.063	3108.11
856.385	3069.47
856.708	3054.33
857.03	3070.6
857.352	3050.26
857.674	3097.04
857.996	3042.12
858.318	3048
858.64	2993.54
858.961	3041.9
859.283	3002.58
859.605	2972.97
859.926	2994.44
860.248	2987.66
860.57	2955.35
860.891	2971.39
861.212	2946.98
861.534	2919.41
861.855	2890.71
862.176	2872.18
862.498	2901.11
862.819	2889.81
863.14	2879.87
863.461	2880.55
863.782	2886.65
864.103	2863.15
864.424	2836.71
864.745	2859.3
865.065	2850.04
865.386	2859.53
865.707	2849.13
866.027	2865.18
866.348	2817.72
866.668	2844.39
866.989	2818.85
867.309	2829.25
867.63	2864.95
867.95	2848.23
868.27	2821.11
868.59	2802.36
868.91	2757.61
869.23	2779.31
869.55	2827.67
869.87	2848.68
870.19	2811.17
870.51	2810.49
870.83	2837.83
871.15	2801.23
871.469	2795.35
871.789	2791.96
872.109	2792.19
872.428	2795.12
872.748	2817.72
873.067	2778.85
873.386	2810.94
873.706	2801
874.025	2775.69
874.344	2762.13
874.663	2777.95
874.982	2719.42
875.301	2792.19
875.62	2749.02
875.939	2752.64
876.258	2724.17
876.577	2682.36
876.896	2695.24
877.214	2690.27
877.533	2703.6
877.852	2672.42
878.17	2674.22
878.489	2697.5
878.807	2685.3
879.125	2695.47
879.444	2687.56
879.762	2687.78
880.08	2646.43
880.398	2690.49
880.716	2657.95
881.034	2604.17
881.352	2626.32
881.67	2681.45
881.988	2647.33
882.306	2626.54
882.624	2653.43
882.941	2641.91
883.259	2584.51
883.577	2594.9
883.894	2629.48
884.212	2644.39
884.529	2619.99
884.846	2616.15
885.164	2660.89
885.481	2614.79
885.798	2616.15
886.115	2618.63
886.432	2629.03
886.75	2587.22
887.067	2580.89
887.383	2595.36
887.7	2602.81
888.017	2545.19
888.334	2558.97
888.651	2534.57
888.967	2576.37
889.284	2541.12
889.6	2549.93
889.917	2521.01
890.233	2503.38
890.55	2540.67
890.866	2496.38
891.182	2492.76
891.498	2489.6
891.815	2493.21
892.131	2433.1
892.447	2415.02
892.763	2474.45
893.079	2466.09
893.395	2452.08
893.71	2428.35
894.026	2409.6
894.342	2423.61
894.657	2407.34
894.973	2397.62
895.289	2372.54
895.604	2407.56
895.92	2379.09
896.235	2346.32
896.55	2406.66
896.865	2355.36
897.181	2358.53
897.496	2359.43
897.811	2345.42
898.126	2361.24
898.441	2365.08
898.756	2334.35
899.071	2330.73
899.386	2340.67
899.7	2314.68
900.015	2321.24
900.33	2320.33
900.644	2296.83
900.959	2325.76
901.273	2350.16
901.588	2324.63
901.902	2331.41
902.216	2303.61
902.531	2255.93
902.845	2281.47
903.159	2314.01
903.473	2257.96
903.787	2257.29
904.101	2240.79
904.415	2233.33
904.729	2232.2
905.042	2202.37
905.356	2245.99
905.67	2211.64
905.984	2222.48
906.297	2209.15
906.611	2185.42
906.924	2189.26
907.237	2150.85
907.551	2153.33
907.864	2144.97
908.177	2124.63
908.491	2148.36
908.804	2099.1
909.117	2070.85
909.43	2091.19
909.743	2104.52
910.056	2053.22
910.368	2043.96
910.681	2056.61
910.994	2072.21
911.307	2069.27
911.619	2089.61
911.932	2040.57
912.244	2047.35
912.557	2022.26
912.869	1993.79
913.181	1982.49
913.494	2018.87
913.806	2013.22
914.118	1986.78
914.43	1975.94
914.742	1995.37
915.054	1969.16
915.366	1968.71
915.678	1964.41
915.99	1962.38
916.302	1945.43
916.613	1916.73
916.925	1961.02
917.236	1944.07
917.548	1922.6
917.859	1939.33
918.171	1933.9
918.482	1912.66
918.794	1899.55
919.105	1915.15
919.416	1881.02
919.727	1899.33
920.038	1866.79
920.349	1869.5
920.66	1862.95
920.971	1871.76
921.282	1844.87
921.593	1863.17
921.903	1824.08
922.214	1836.73
922.525	1816.62
922.835	1815.94
923.146	1750.63
923.456	1807.13
923.767	1780.69
924.077	1788.37
924.387	1758.09
924.697	1766.68
925.008	1803.51
925.318	1735.94
925.628	1754.93
925.938	1725.32
926.248	1740.01
926.558	1695.04
926.867	1713.8
927.177	1719.9
927.487	1681.93
927.796	1696.17
928.106	1706.79
928.416	1707.7
928.725	1681.03
929.034	1679.9
929.344	1679
929.653	1676.74
929.962	1668.37
930.271	1651.88
930.581	1661.37
930.89	1662.05
931.199	1643.52
931.508	1675.38
931.817	1642.61
932.125	1637.87
932.434	1631.54
932.743	1605.78
933.051	1624.76
933.36	1623.63
933.669	1616.4
933.977	1607.36
934.286	1598.09
934.594	1617.53
934.902	1562.84
935.21	1578.21
935.519	1581.6
935.827	1578.89
936.135	1577.98
936.443	1531.88
936.751	1554.48
937.059	1504.99
937.367	1527.59
937.674	1556.51
937.982	1577.98
938.29	1533.01
938.597	1521.26
938.905	1519.23
939.213	1496.4
939.52	1500.24
939.827	1484.65
940.135	1477.64
940.442	1462.28
940.749	1464.99
941.056	1479
941.363	1479
941.67	1461.37
941.977	1443.52
942.284	1438.78
942.591	1453.69
942.898	1439.68
943.205	1453.46
943.511	1414.14
943.818	1414.82
944.125	1402.17
944.431	1409.85
944.738	1409.4
945.044	1399.68
945.35	1385.67
945.657	1400.58
945.963	1415.5
946.269	1403.07
946.575	1380.92
946.881	1389.96
947.187	1387.03
947.493	1378.66
947.799	1382.96
948.105	1367.59
948.41	1336.86
948.716	1357.87
949.022	1352.68
949.327	1355.39
949.633	1323.07
949.938	1374.6
950.244	1345.22
950.549	1327.82
950.854	1337.08
951.16	1336.18
951.465	1346.35
951.77	1330.76
952.075	1289.63
952.38	1306.35
952.685	1302.96
952.99	1300.93
953.294	1277.42
953.599	1282.85
953.904	1267.48
954.209	1240.59
954.513	1266.58
954.818	1270.42
955.122	1257.09
955.426	1271.55
955.731	1246.01
956.035	1268.61
956.339	1251.89
956.643	1235.39
956.948	1217.76
957.252	1215.05
957.556	1222.51
957.86	1227.48
958.163	1205.34
958.467	1219.8
958.771	1193.58
959.075	1192
959.378	1180.7
959.682	1171.89
959.985	1208.05
960.289	1194.26
960.592	1175.96
960.896	1149.07
961.199	1183.64
961.502	1185.68
961.805	1171.66
962.108	1181.83
962.411	1166.01
962.714	1141.83
963.017	1150.42
963.32	1180.25
963.623	1154.04
963.926	1135.51
964.228	1125.56
964.531	1145.45
964.833	1118.78
965.136	1167.37
965.438	1126.69
965.741	1124.66
966.043	1131.89
966.345	1119.91
966.648	1112.46
966.95	1112.68
967.252	1060.71
967.554	1078.56
967.856	1106.13
968.158	1093.93
968.46	1078.79
968.761	1098.22
969.063	1103.87
969.365	1065.23
969.666	1051.44
969.968	1052.8
970.269	1067.03
970.571	1064.32
970.872	1076.98
971.174	1062.51
971.475	1057.09
971.776	1061.84
972.077	1067.26
972.378	1029.97
972.679	1025.23
972.98	1035.85
973.281	1010.99
973.582	1000.37
973.883	1008.73
974.183	1017.32
974.484	1013.93
974.785	1005.79
975.085	1003.98
975.386	1008.96
975.686	999.69
975.986	997.88
976.287	988.62
976.587	980.71
976.887	992.46
977.187	975.06
977.487	994.49
977.787	976.19
978.087	964.89
978.387	973.7
978.687	989.52
978.987	982.97
979.286	975.29
979.586	949.75
979.885	978.45
980.185	963.53
980.484	960.37
980.784	940.94
981.083	956.75
981.382	945.23
981.682	942.07
981.981	934.61
982.28	938
982.579	946.59
982.878	938.68
983.177	917.89
983.475	923.76
983.774	926.47
984.073	935.29
984.372	904.78
984.67	904.1
984.969	919.69
985.267	918.11
985.566	886.7
985.864	921.73
986.162	926.47
986.461	915.63
986.759	898.45
987.057	895.97
987.355	870.88
987.653	869.98
987.951	856.19
988.249	918.11
988.547	896.19
988.844	867.27
989.142	846.93
989.44	867.27
989.737	863.42
990.035	870.66
990.332	856.87
990.63	853.03
990.927	845.12
991.224	840.83
991.521	839.92
991.819	840.37
992.116	829.07
992.413	826.36
992.71	853.03
993.006	851.45
993.303	821.39
993.6	811.45
993.897	831.11
994.193	833.82
994.49	834.72
994.787	835.4
995.083	797.66
995.379	811
995.676	798.34
995.972	802.63
996.268	806.02
996.565	787.49
996.861	777.32
997.157	780.49
997.453	778
997.749	758.57
998.044	747.95
998.34	782.07
998.636	792.69
998.932	767.38
999.227	779.58
999.523	784.33
999.818	776.42
1000.114	761.96
1000.409	775.52
1000.704	775.74
1001	760.83
1001.295	754.95
1001.59	772.8
1001.885	761.28
1002.18	739.81
1002.475	759.7
1002.77	746.59
1003.065	740.71
1003.359	742.52
1003.654	731.45
1003.949	748.85
1004.243	732.81
1004.538	729.87
1004.832	731.68
1005.127	716.53
1005.421	720.83
1005.715	722.41
1006.009	717.44
1006.304	720.38
1006.598	728.51
1006.892	693.48
1007.186	679.47
1007.48	709.3
1007.773	677.21
1008.067	678.12
1008.361	702.3
1008.655	674.95
1008.948	679.25
1009.242	679.47
1009.535	694.16
1009.829	681.51
1010.122	671.34
1010.415	676.54
1010.708	670.43
1011.001	661.4
1011.295	654.84
1011.588	676.99
1011.881	669.3
1012.173	661.85
1012.466	656.65
1012.759	634.5
1013.052	637.44
1013.344	647.61
1013.637	657.78
1013.93	622.98
1014.222	644.45
1014.514	647.61
1014.807	636.08
1015.099	629.53
1015.391	626.59
1015.683	620.27
1015.976	632.02
1016.268	644.9
1016.56	623.66
1016.851	633.6
1017.143	611.23
1017.435	609.19
1017.727	616.42
1018.018	606.26
1018.31	618.01
1018.602	607.16
1018.893	611.45
1019.185	618.23
1019.476	592.92
1019.767	594.28
1020.058	595.86
1020.35	598.8
1020.641	611.9
1020.932	612.13
1021.223	620.04
1021.514	592.02
1021.804	594.05
1022.095	590.21
1022.386	599.93
1022.677	588.18
1022.967	583.66
1023.258	580.04
1023.548	574.17
1023.839	564
1024.129	583.43
1024.419	558.12
1024.709	579.14
1025	578.69
1025.29	570.1
1025.58	542.53
1025.87	542.98
1026.16	544.56
1026.449	556.54
1026.739	562.19
1027.029	570.78
1027.319	542.75
1027.608	540.95
1027.898	538.23
1028.187	554.05
1028.477	531
1028.766	537.56
1029.055	537.33
1029.344	528.07
1029.634	530.1
1029.923	508.86
1030.212	528.07
1030.501	526.71
1030.79	524.45
1031.078	519.93
1031.367	491.46
1031.656	510.44
1031.945	516.99
1032.233	516.99
1032.522	498.69
1032.81	498.46
1033.099	507.73
1033.387	506.6
1033.675	495.98
1033.963	492.59
1034.251	507.5
1034.54	497.56
1034.828	474.51
1035.116	486.94
1035.403	494.85
1035.691	495.07
1035.979	497.33
1036.267	508.86
1036.554	472.25
1036.842	476.99
1037.129	469.31
1037.417	479.93
1037.704	479.03
1037.992	473.15
1038.279	465.24
1038.566	469.76
1038.853	469.76
1039.14	469.76
