Data from foam1_polythene_foam_FLMS001491_00040.txt Node
Date: Wed Feb 08 10:54:45 GMT 2017
User: dcchb
Spectrometer: FLMS00149
Trigger mode: 0
Integration Time (sec): 2.000000E-2
Scans to average: 10
Electric dark correction enabled: true
Nonlinearity correction enabled: false
Boxcar width: 0
XAxis mode: Wavelengths
Number of Pixels in Spectrum: 2048
>>>>>Begin Spectral Data<<<<<
341.393	-12.41
341.776	-12.41
342.16	-12.41
342.543	-61.45
342.927	-65.52
343.31	-68.68
343.693	-76.37
344.077	-65.97
344.46	-72.98
344.843	-49.25
345.226	-28.91
345.61	-21.91
345.993	-18.52
346.376	-7.67
346.759	18.54
347.142	13.57
347.525	35.04
347.908	64.65
348.291	79.56
348.674	101.71
349.057	97.19
349.44	108.26
349.823	146
350.206	163.85
350.588	208.14
350.971	204.3
351.354	208.6
351.737	211.99
352.119	250.63
352.502	238.88
352.884	265.32
353.267	262.83
353.65	259.67
354.032	277.29
354.414	273.68
354.797	294.92
355.179	291.98
355.562	321.14
355.944	298.31
356.326	306.22
356.709	313.9
357.091	342.15
357.473	331.53
357.855	320.01
358.238	306.67
358.62	312.32
359.002	337.41
359.384	307.58
359.766	332.89
360.148	325.88
360.53	326.79
360.912	311.64
361.294	290.4
361.676	323.4
362.057	323.4
362.439	311.87
362.821	322.04
363.203	327.92
363.584	309.16
363.966	302.61
364.348	308.71
364.729	302.83
365.111	303.96
365.493	323.4
365.874	296.73
366.256	284.3
366.637	303.73
367.019	305.99
367.4	300.57
367.781	292.21
368.163	305.54
368.544	292.44
368.925	320.01
369.306	299.44
369.688	284.75
370.069	307.8
370.45	307.12
370.831	294.24
371.212	291.76
371.593	291.76
371.974	303.51
372.355	294.92
372.736	291.53
373.117	284.98
373.498	277.29
373.879	281.59
374.26	308.25
374.641	291.53
375.021	310.06
375.402	290.63
375.783	290.85
376.163	303.28
376.544	329.72
376.925	300.35
377.305	284.3
377.686	320.01
378.066	304.86
378.447	306.67
378.827	305.77
379.208	289.05
379.588	322.72
379.968	329.72
380.349	299.67
380.729	295.83
381.109	303.73
381.489	304.41
381.87	302.61
382.25	331.08
382.63	325.43
383.01	310.51
383.39	302.15
383.77	319.78
384.15	312.32
384.53	315.71
384.91	328.14
385.29	332.43
385.67	323.4
386.049	323.62
386.429	315.26
386.809	343.96
387.189	341.25
387.568	320.23
387.948	324.98
388.328	339.21
388.707	328.14
389.087	332.66
389.466	346.22
389.846	341.25
390.225	331.08
390.605	327.69
390.984	348.03
391.363	370.63
391.743	334.69
392.122	342.15
392.501	346.45
392.881	359.55
393.26	338.08
393.639	338.99
394.018	335.6
394.397	345.54
394.776	356.84
395.155	339.89
395.534	368.14
395.913	357.74
396.292	363.17
396.671	364.3
397.05	356.61
397.429	370.4
397.808	363.85
398.186	359.55
398.565	337.18
398.944	372.66
399.323	375.37
399.701	360.23
400.08	354.36
400.458	374.02
400.837	369.72
401.215	383.96
401.594	385.77
401.972	382.38
402.351	372.66
402.729	388.7
403.107	384.18
403.486	372.89
403.864	379.44
404.242	390.74
404.62	376.5
404.999	383.28
405.377	401.81
405.755	401.59
406.133	387.12
406.511	389.16
406.889	387.8
407.267	400.91
407.645	407.91
408.023	389.83
408.401	397.74
408.779	407.91
409.156	388.93
409.534	405.43
409.912	395.71
410.29	405.2
410.667	409.72
411.045	421.7
411.422	435.03
411.8	414.01
412.178	408.14
412.555	427.12
412.933	418.31
413.31	418.53
413.687	433.9
414.065	446.1
414.442	415.82
414.819	442.26
415.197	443.39
415.574	451.53
415.951	420.34
416.328	433.9
416.705	458.53
417.082	461.24
417.46	438.19
417.837	449.49
418.214	452.66
418.591	471.19
418.967	441.58
419.344	473.67
419.721	452.66
420.098	455.14
420.475	459.44
420.852	455.6
421.228	443.84
421.605	443.17
421.982	460.79
422.358	472.32
422.735	480.68
423.111	465.99
423.488	503.73
423.864	483.39
424.241	489.49
424.617	481.13
424.994	481.36
425.37	502.15
425.746	498.53
426.123	507.35
426.499	496.05
426.875	482.94
427.251	502.15
427.627	512.54
428.003	488.36
428.379	506.89
428.756	514.8
429.132	519.77
429.507	526.33
429.883	545.31
430.259	522.94
430.635	504.18
431.011	515.48
431.387	539.21
431.763	562.26
432.138	534.01
432.514	553.9
432.89	550.73
433.265	571.3
433.641	574.24
434.016	571.3
434.392	556.84
434.767	572.2
435.143	561.36
435.518	592.54
435.894	589.83
436.269	595.93
436.644	576.27
437.02	628.02
437.395	585.76
437.77	585.99
438.145	613.33
438.52	616.27
438.895	641.58
439.271	612.2
439.646	605.87
440.021	645.42
440.395	658.75
440.77	652.65
441.145	650.39
441.52	649.04
441.895	649.26
442.27	652.2
442.645	682.26
443.019	686.55
443.394	689.94
443.769	682.26
444.143	696.27
444.518	688.36
444.892	688.13
445.267	708.24
445.641	710.05
446.016	681.13
446.39	711.41
446.764	732.65
447.139	735.59
447.513	702.37
447.887	728.81
448.262	728.13
448.636	730.62
449.01	757.06
449.384	755.47
449.758	759.32
450.132	758.86
450.506	742.37
450.88	768.81
451.254	781.46
451.628	779.65
452.002	812.87
452.376	788.24
452.75	786.89
453.123	803.38
453.497	817.62
453.871	810.61
454.244	846.09
454.618	823.27
454.992	825.98
455.365	793.67
455.739	832.31
456.112	838.41
456.486	854.23
456.859	838.86
457.232	828.47
457.606	832.99
457.979	821.24
458.352	864.4
458.725	879.31
459.099	868.47
459.472	858.07
459.845	869.14
460.218	857.84
460.591	885.19
460.964	867.56
461.337	887.9
461.71	891.97
462.083	896.26
462.456	909.37
462.829	917.5
463.201	924.06
463.574	929.93
463.947	939.42
464.32	902.59
464.692	946.2
465.065	950.05
465.438	943.04
465.81	978.75
466.183	923.15
466.555	992.53
466.928	997.05
467.3	977.62
467.672	989.14
468.045	1012.42
468.417	994.34
468.789	1004.51
469.161	1029.59
469.534	1054.9
469.906	1040.66
470.278	1061.23
470.65	1055.35
471.022	1095.58
471.394	1107.33
471.766	1095.58
472.138	1075.24
472.51	1114.56
472.882	1138.29
473.253	1107.33
473.625	1125.41
473.997	1177.16
474.369	1176.03
474.74	1136.71
475.112	1175.12
475.484	1177.84
475.855	1203.15
476.227	1213.77
476.598	1226.87
476.97	1253.09
477.341	1244.95
477.713	1270.72
478.084	1305.97
478.455	1291.05
478.827	1302.8
479.198	1336.02
479.569	1331.73
479.94	1390.94
480.311	1363.37
480.682	1394.55
481.053	1411.05
481.424	1456.92
481.795	1456.02
482.166	1467.32
482.537	1494.89
482.908	1527.88
483.279	1505.96
483.65	1544.15
484.021	1557.71
484.391	1554.32
484.762	1569.69
485.133	1593.64
485.503	1626.86
485.874	1659.41
486.244	1636.36
486.615	1665.73
486.985	1707.31
487.356	1747.31
487.726	1736.24
488.097	1741.66
488.467	1768.56
488.837	1790.02
489.207	1827.76
489.578	1832.51
489.948	1859.17
490.318	1868.89
490.688	1878.61
491.058	1908.89
491.428	1933.52
491.798	1921.55
492.168	1955.89
492.538	1977.59
492.908	1991.37
493.278	2035.21
493.648	2004.93
494.017	2054.2
494.387	1990.02
494.757	2042.22
495.126	2069.79
495.496	2069.11
495.866	2141.65
496.235	2129
496.605	2115.89
496.974	2164.25
497.344	2175.32
497.713	2184.82
498.082	2194.08
498.452	2237.92
498.821	2175.55
499.19	2230.69
499.559	2269.56
499.928	2237.47
500.298	2297.58
500.667	2294.19
501.036	2299.61
501.405	2302.33
501.774	2328.54
502.143	2330.12
502.512	2350.46
502.88	2362.44
503.249	2382.32
503.618	2381.65
503.987	2401.98
504.356	2448.99
504.724	2434.75
505.093	2457.12
505.462	2438.37
505.83	2486.28
506.199	2528.54
506.567	2507.07
506.936	2504.81
507.304	2534.86
507.672	2556.56
508.041	2570.12
508.409	2579.61
508.777	2579.83
509.145	2606.5
509.514	2616.89
509.882	2673.16
510.25	2635.88
510.618	2677.91
510.986	2673.62
511.354	2706.84
511.722	2745.03
512.09	2730.79
512.458	2705.93
512.826	2759.26
513.193	2780.28
513.561	2759.26
513.929	2850.79
514.297	2846.72
514.664	2860.28
515.032	2853.5
515.4	2917.23
515.767	2897.11
516.135	2929.65
516.502	2933.5
516.869	2960.84
517.237	2965.81
517.604	2978.47
517.972	2973.95
518.339	3023.44
518.706	3023.44
519.073	3056.43
519.44	3086.71
519.808	3107.73
520.175	3100.95
520.542	3127.84
520.909	3175.52
521.276	3156.09
521.643	3191.57
522.009	3212.59
522.376	3201.51
522.743	3249.19
523.11	3293.71
523.477	3330.32
523.843	3331
524.21	3367.16
524.577	3337.55
524.943	3415.29
525.31	3417.55
525.676	3440.83
526.043	3430.21
526.409	3455.74
526.776	3512.24
527.142	3491.45
527.508	3537.32
527.874	3562.41
528.241	3577.77
528.607	3578.45
528.973	3644.44
529.339	3638.56
529.705	3626.81
530.071	3657.55
530.437	3688.96
530.803	3699.35
531.169	3708.39
531.535	3700.03
531.901	3780.93
532.267	3796.98
532.632	3794.94
532.998	3818.22
533.364	3861.61
533.73	3844.88
534.095	3856.86
534.461	3886.92
534.826	3897.99
535.192	3918.56
535.557	3948.84
535.923	3921.04
536.288	3933.7
536.653	3955.39
537.019	3961.94
537.384	3956.52
537.749	4010.98
538.114	4039
538.479	4034.71
538.845	4074.48
539.21	4030.19
539.575	4059.12
539.94	4066.35
540.305	4105.44
540.67	4090.98
541.034	4126.46
541.399	4158.77
541.764	4159.45
542.129	4148.15
542.494	4183.18
542.858	4216.4
543.223	4223.18
543.587	4213.01
543.952	4162.39
544.316	4250.3
544.681	4240.81
545.045	4286.91
545.41	4261.6
545.774	4337.75
546.138	4337.08
546.503	4336.4
546.867	4274.25
547.231	4351.99
547.595	4345.89
547.959	4350.86
548.324	4355.61
548.688	4407.58
549.052	4440.35
549.416	4388.83
549.779	4418.88
550.143	4437.64
550.507	4448.03
550.871	4466.11
551.235	4503.62
551.599	4524.41
551.962	4509.27
552.326	4528.48
552.689	4589.27
553.053	4539.56
553.417	4572.32
553.78	4613.23
554.143	4578.65
554.507	4584.3
554.87	4646.67
555.234	4672.66
555.597	4693.45
555.96	4720.79
556.323	4704.3
556.686	4704.52
557.05	4693
557.413	4781.81
557.776	4778.42
558.139	4812.32
558.502	4822.71
558.865	4859.1
559.228	4905.42
559.59	4857.06
559.953	4874.01
560.316	4980.45
560.679	4892.54
561.041	4928.02
561.404	4978.19
561.767	4992.2
562.129	5014.12
562.492	5042.14
562.854	5034.68
563.217	5052.31
563.579	5070.16
563.941	5124.63
564.304	5191.06
564.666	5198.97
565.028	5219.31
565.39	5208.92
565.753	5228.35
566.115	5257.05
566.477	5245.53
566.839	5251.85
567.201	5305.41
567.563	5332.98
567.925	5347.9
568.287	5358.74
568.648	5366.2
569.01	5331.85
569.372	5449.59
569.734	5471.06
570.095	5459.31
570.457	5522.58
570.819	5466.76
571.18	5476.03
571.542	5525.52
571.903	5549.02
572.265	5539.98
572.626	5551.28
572.987	5608
573.349	5606.65
573.71	5640.77
574.071	5628.79
574.432	5673.31
574.794	5650.71
575.155	5703.14
575.516	5674.44
575.877	5702.46
576.238	5754.67
576.599	5771.16
576.96	5773.42
577.32	5710.37
577.681	5800.31
578.042	5774.1
578.403	5796.92
578.763	5762.12
579.124	5796.7
579.485	5816.36
579.845	5805.74
580.206	5786.08
580.566	5875.34
580.927	5827.66
581.287	5819.07
581.648	5808
582.008	5830.6
582.368	5855.68
582.728	5869.01
583.089	5842.57
583.449	5848.9
583.809	5831.73
584.169	5898.84
584.529	5867.66
584.889	5879.41
585.249	5872.18
585.609	5866.53
585.969	5867.88
586.329	5846.64
586.688	5860.65
587.048	5871.27
587.408	5865.85
587.768	5879.63
588.127	5871.5
588.487	5917.6
588.846	5893.64
589.206	5857.26
589.565	5874.44
589.925	5857.04
590.284	5887.99
590.643	5844.61
591.003	5915.34
591.362	5911.5
591.721	5875.57
592.08	5888.22
592.44	5901.33
592.799	5910.37
593.158	5880.76
593.517	5913.53
593.876	5923.93
594.235	5874.21
594.593	5893.87
594.952	5885.06
595.311	5914.43
595.67	5914.21
596.029	5927.09
596.387	5900.88
596.746	6010.93
597.104	5884.61
597.463	5891.84
597.822	5929.12
598.18	5882.12
598.538	5893.42
598.897	5949.01
599.255	5889.8
599.613	5917.15
599.972	5877.6
600.33	5945.62
600.688	5915.11
601.046	5925.28
601.404	5938.62
601.762	5973.87
602.12	5951.95
602.478	6001.21
602.836	5991.5
603.194	5925.96
603.552	5920.08
603.91	5917.37
604.268	5944.94
604.625	5919.63
604.983	5937.71
605.341	5961.21
605.698	5993.3
606.056	5904.04
606.413	5999.4
606.771	5993.75
607.128	6011.83
607.485	5948.33
607.843	5995.11
608.2	5953.76
608.557	5963.7
608.914	5990.82
609.272	5985.39
609.629	6027.65
609.986	5991.95
610.343	5980.87
610.7	6043.47
611.057	5991.72
611.414	6040.08
611.771	6013.64
612.127	6011.83
612.484	6025.84
612.841	6053.41
613.198	6072.4
613.554	5982
613.911	6065.39
614.267	6113.75
614.624	5988.33
614.98	6071.72
615.337	6092.28
615.693	6029.91
616.05	6070.36
616.406	6068.33
616.762	6069.91
617.118	6116.24
617.475	6040.99
617.831	6089.8
618.187	6092.74
618.543	6107.2
618.899	6109.23
619.255	6089.12
619.611	6072.85
619.967	6069.01
620.323	6168.89
620.678	6079.63
621.034	6071.49
621.39	6030.82
621.746	6073.53
622.101	6143.58
622.457	6104.49
622.812	6127.08
623.168	6079.4
623.523	6088.22
623.879	6054.32
624.234	6026.3
624.589	6104.71
624.945	6060.42
625.3	6133.19
625.655	6065.17
626.01	6056.13
626.365	6050.48
626.72	6047.09
627.075	6044.37
627.43	6009.12
627.785	6024.94
628.14	6019.74
628.495	6029.46
628.85	6034.21
629.205	5959.18
629.559	6040.53
629.914	5966.86
630.269	6072.4
630.623	5961.44
630.978	5975.68
631.332	6031.27
631.687	5963.47
632.041	5961.44
632.396	5988.11
632.75	5960.99
633.104	5952.85
633.459	5939.29
633.813	5963.7
634.167	5951.72
634.521	5873.08
634.875	5934.1
635.229	5908.56
635.583	5902.46
635.937	5872.85
636.291	5835.11
636.645	5848.45
636.999	5845.96
637.352	5787.88
637.706	5808.9
638.06	5863.36
638.413	5831.95
638.767	5794.21
639.121	5757.83
639.474	5780.2
639.828	5828.11
640.181	5744.95
640.534	5775.68
640.888	5753.31
641.241	5715.34
641.594	5794.89
641.947	5789.69
642.301	5716.47
642.654	5707.89
643.007	5719.19
643.36	5706.76
643.713	5737.26
644.066	5698.85
644.419	5667.21
644.771	5574.56
645.124	5520.77
645.477	5563.71
645.83	5454.79
646.182	5504.95
646.535	5499.98
646.888	5567.33
647.24	5469.7
647.593	5539.08
647.945	5528
648.298	5496.59
648.65	5468.8
649.002	5431.74
649.355	5485.07
649.707	5428.12
650.059	5436.26
650.411	5487.33
650.763	5506.54
651.115	5577.72
651.467	5496.59
651.819	5522.81
652.171	5538.85
652.523	5498.85
652.875	5556.25
653.227	5426.99
653.578	5553.09
653.93	5439.19
654.282	5481.68
654.633	5436.48
654.985	5423.37
655.337	5506.76
655.688	5486.2
656.039	5485.07
656.391	5452.53
656.742	5441
657.094	5443.94
657.445	5441.9
657.796	5437.39
658.147	5380.44
658.498	5408.69
658.849	5445.52
659.2	5381.12
659.551	5375.01
659.902	5356.48
660.253	5369.59
660.604	5354.22
660.955	5360.78
661.306	5346.09
661.656	5386.31
662.007	5386.31
662.358	5364.17
662.708	5329.82
663.059	5346.77
663.409	5272.87
663.76	5345.86
664.11	5311.74
664.461	5323.94
664.811	5307.22
665.161	5356.26
665.511	5309.93
665.862	5313.32
666.212	5327.78
666.562	5325.75
666.912	5288.91
667.262	5231.06
667.612	5325.3
667.962	5296.15
668.312	5246.2
668.662	5295.69
669.011	5300.44
669.361	5289.14
669.711	5292.08
670.06	5243.49
670.41	5292.76
670.76	5241.91
671.109	5307.22
671.459	5194.91
671.808	5211.63
672.157	5215.47
672.507	5200.78
672.856	5213.89
673.205	5179.76
673.554	5252.76
673.904	5210.95
674.253	5210.95
674.602	5221.8
674.951	5168.92
675.3	5160.78
675.649	5202.36
675.998	5177.73
676.346	5179.99
676.695	5200.78
677.044	5094.34
677.393	5170.27
677.741	5167.11
678.09	5097.51
678.438	5125.08
678.787	5113.33
679.135	5120.78
679.484	5166.66
679.832	5122.82
680.181	5111.52
680.529	5129.14
680.877	5101.57
681.225	5110.61
681.573	5074.68
681.922	5045.98
682.27	5048.02
682.618	5028.81
682.966	5038.3
683.314	5060.45
683.661	5046.21
684.009	5003.27
684.357	5026.77
684.705	4957.17
685.053	5007.34
685.4	4945.42
685.748	4951.97
686.095	4961.01
686.443	4975.48
686.79	4983.84
687.138	4919.88
687.485	4921.24
687.832	4879.43
688.18	4926.66
688.527	4865.2
688.874	4929.83
689.221	4851.86
689.568	4843.5
689.915	4887.12
690.262	4831.53
690.609	4793.79
690.956	4804.41
691.303	4834.69
691.65	4791.75
691.997	4775.48
692.344	4746.33
692.69	4733.22
693.037	4747.23
693.383	4712.21
693.73	4730.74
694.077	4740.68
694.423	4729.38
694.769	4716.95
695.116	4676.28
695.462	4725.99
695.808	4641.47
696.155	4671.3
696.501	4673.34
696.847	4595.6
697.193	4561.48
697.539	4576.16
697.885	4521.7
698.231	4544.75
698.577	4562.38
698.923	4528.03
699.269	4546.79
699.614	4531.65
699.96	4521.03
700.306	4515.6
700.651	4514.7
700.997	4452.33
701.342	4467.24
701.688	4462.72
702.033	4414.14
702.379	4465.43
702.724	4431.54
703.069	4442.38
703.415	4374.81
703.76	4389.28
704.105	4348.37
704.45	4350.63
704.795	4299.34
705.14	4335.04
705.485	4317.64
705.83	4302.05
706.175	4297.3
706.52	4279.45
706.865	4290.52
707.209	4255.95
707.554	4280.58
707.899	4309.73
708.243	4255.27
708.588	4221.6
708.932	4218.89
709.277	4249.17
709.621	4204.2
709.966	4226.57
710.31	4213.91
710.654	4138.21
710.998	4166.23
711.342	4162.16
711.687	4200.36
712.031	4111.09
712.375	4131.66
712.719	4104.31
713.063	4100.47
713.407	4137.98
713.75	4112.9
714.094	4104.76
714.438	4107.48
714.782	4122.39
715.125	4062.73
715.469	4104.76
715.812	4065.44
716.156	3987.25
716.499	4020.47
716.843	4007.59
717.186	4008.5
717.53	4059.79
717.873	4016.41
718.216	4041.72
718.559	3979.57
718.902	3944.77
719.246	3964.2
719.589	3961.72
719.932	3940.7
720.275	3972.79
720.617	3921.27
720.96	3916.07
721.303	3916.07
721.646	3961.04
721.989	3890.99
722.331	3918.78
722.674	3925.11
723.016	3875.84
723.359	3912.91
723.701	3879.91
724.044	3915.39
724.386	3850.08
724.729	3864.09
725.071	3848.27
725.413	3825.45
725.755	3875.62
726.097	3844.43
726.439	3855.73
726.782	3846.69
727.124	3822.29
727.465	3798.11
727.807	3797.65
728.149	3794.72
728.491	3773.93
728.833	3758.56
729.175	3774.15
729.516	3792
729.858	3735.74
730.199	3745
730.541	3794.26
730.882	3731.67
731.224	3806.69
731.565	3767.15
731.906	3734.83
732.248	3738.45
732.589	3780.71
732.93	3747.71
733.271	3712.01
733.612	3744.1
733.953	3715.85
734.294	3739.8
734.635	3685.57
734.976	3700.71
735.317	3717.43
735.658	3652.57
735.999	3688.5
736.339	3670.88
736.68	3655.51
737.021	3649.41
737.361	3641.95
737.702	3670.88
738.042	3660.71
738.383	3580.26
738.723	3639.24
739.063	3634.95
739.404	3630.43
739.744	3599.24
740.084	3564.89
740.424	3585.91
740.764	3618.9
741.104	3604.21
741.444	3607.6
741.784	3599.92
742.124	3581.84
742.464	3569.64
742.804	3576.87
743.143	3526.93
743.483	3569.86
743.823	3543.65
744.162	3494.61
744.502	3547.49
744.841	3513.37
745.181	3494.39
745.52	3531.9
745.86	3540.26
746.199	3494.84
746.538	3506.14
746.877	3519.24
747.216	3521.28
747.556	3481.28
747.895	3509.07
748.234	3473.82
748.573	3479.47
748.911	3437.44
749.25	3483.99
749.589	3445.8
749.928	3455.97
750.267	3446.48
750.605	3437.66
750.944	3394.73
751.283	3464.33
751.621	3445.35
751.96	3424.1
752.298	3417.1
752.636	3416.42
752.975	3357.67
753.313	3359.93
753.651	3382.75
753.989	3386.82
754.327	3366.25
754.666	3319.7
755.004	3375.52
755.342	3334.16
755.679	3336.2
756.017	3319.93
756.355	3353.6
756.693	3315.63
757.031	3344.56
757.368	3292.36
757.706	3296.88
758.044	3288.74
758.381	3298.46
758.719	3272.7
759.056	3271.11
759.394	3262.08
759.731	3267.27
760.068	3244.45
760.405	3272.02
760.743	3212.59
761.08	3227.05
761.417	3233.83
761.754	3191.57
762.091	3173.72
762.428	3178.91
762.765	3145.02
763.102	3162.42
763.438	3157.22
763.775	3129.2
764.112	3113.6
764.449	3115.86
764.785	3147.95
765.122	3102.31
765.458	3078.8
765.795	3072.93
766.131	3091.46
766.467	3069.09
766.804	3074.74
767.14	3042.87
767.476	3066.37
767.812	3007.17
768.148	3015.3
768.485	3027.28
768.821	3034.96
769.157	2973.04
769.492	3019.37
769.828	3002.87
770.164	2999.94
770.5	3004.45
770.836	2956.55
771.171	2997.22
771.507	2891.46
771.842	2922.42
772.178	2924.23
772.513	2881.07
772.849	2935.3
773.184	2892.82
773.519	2876.55
773.855	2879.49
774.19	2893.72
774.525	2858.7
774.86	2847.62
775.195	2852.82
775.53	2841.3
775.865	2773.27
776.2	2779.15
776.535	2782.77
776.87	2771.47
777.205	2768.53
777.539	2801.3
777.874	2738.25
778.209	2747.51
778.543	2721.98
778.878	2753.61
779.212	2713.62
779.547	2712.71
779.881	2698.93
780.215	2709.55
780.55	2704.58
780.884	2700.73
781.218	2644.01
781.552	2683.11
781.886	2683.79
782.22	2655.76
782.554	2666.16
782.888	2618.7
783.222	2639.49
783.556	2629.78
783.889	2591.58
784.223	2592.26
784.557	2596.1
784.89	2605.82
785.224	2564.47
785.557	2565.37
785.891	2518.82
786.224	2540.29
786.558	2543.9
786.891	2545.94
787.224	2540.74
787.557	2545.26
787.891	2499.16
788.224	2477.92
788.557	2490.12
788.89	2496.67
789.223	2490.34
789.556	2483.34
789.888	2473.17
790.221	2472.04
790.554	2449.44
790.887	2456.45
791.219	2426.39
791.552	2457.35
791.884	2401.76
792.217	2442.89
792.549	2412.15
792.882	2409.67
793.214	2397.24
793.546	2379.16
793.879	2392.72
794.211	2402.44
794.543	2360.86
794.875	2362.21
795.207	2363.34
795.539	2379.39
795.871	2357.69
796.203	2368.77
796.535	2330.8
796.867	2342.78
797.198	2301.65
797.53	2324.02
797.862	2294.87
798.193	2302.55
798.525	2308.88
798.856	2288.77
799.188	2274.53
799.519	2275.66
799.85	2313.85
800.182	2229.56
800.513	2257.36
800.844	2237.02
801.175	2241.31
801.506	2237.24
801.837	2239.05
802.168	2224.59
802.499	2218.71
802.83	2207.19
803.161	2212.61
803.491	2184.59
803.822	2205.15
804.153	2192.27
804.483	2167.64
804.814	2174.65
805.145	2182.33
805.475	2169.67
805.805	2147.75
806.136	2186.62
806.466	2121.77
806.796	2156.34
807.126	2125.16
807.457	2091.71
807.787	2130.13
808.117	2114.99
808.447	2111.37
808.777	2115.66
809.107	2116.57
809.436	2101.88
809.766	2069.79
810.096	2099.39
810.426	2068.21
810.755	2080.86
811.085	2099.39
811.414	2054.42
811.744	2073.18
812.073	2031.15
812.403	2099.62
812.732	2046.97
813.061	2084.48
813.39	2057.81
813.719	2038.6
814.049	2058.04
814.378	2013.29
814.707	2040.19
815.036	2024.14
815.365	2032.5
815.693	2006.74
816.022	2024.59
816.351	2011.26
816.68	1990.7
817.008	1969.23
817.337	1987.08
817.665	2012.16
817.994	1987.31
818.322	1981.2
818.651	1953.86
818.979	1966.29
819.307	1970.81
819.636	1958.15
819.964	1935.56
820.292	1938.72
820.62	1977.36
820.948	1956.12
821.276	1978.27
821.604	1980.98
821.932	1939.4
822.259	1940.53
822.587	1981.43
822.915	1955.44
823.243	1982.56
823.57	1956.8
823.898	1944.82
824.225	1944.82
824.553	1950.25
824.88	1944.37
825.207	1926.52
825.535	1944.14
825.862	1942.34
826.189	1947.53
826.516	1932.84
826.843	1927.65
827.17	1939.17
827.497	1930.13
827.824	1954.76
828.151	1956.57
828.478	1941.66
828.805	1940.98
829.131	1943.69
829.458	1906.86
829.785	1907.53
830.111	1928.1
830.438	1946.86
830.764	1942.11
831.09	1944.37
831.417	1915.44
831.743	1957.02
832.069	1939.62
832.395	1914.99
832.722	1926.29
833.048	1933.52
833.374	1928.55
833.7	1915.67
834.026	1921.32
834.351	1945.73
834.677	1926.97
835.003	1895.33
835.329	1935.33
835.654	1928.1
835.98	1889.68
836.306	1918.61
836.631	1862.79
836.956	1910.7
837.282	1933.97
837.607	1913.18
837.932	1871.15
838.258	1893.52
838.583	1876.57
838.908	1866.86
839.233	1905.05
839.558	1903.92
839.883	1888.55
840.208	1890.13
840.533	1884.94
840.858	1869.8
841.182	1882.68
841.507	1865.95
841.832	1897.14
842.156	1852.17
842.481	1882.68
842.805	1880.19
843.13	1844.49
843.454	1869.57
843.778	1838.16
844.103	1828.21
844.427	1849.68
844.751	1849.46
845.075	1832.73
845.399	1814.66
845.723	1844.71
846.047	1824.15
846.371	1822.34
846.695	1809.23
847.019	1793.19
847.343	1794.54
847.666	1750.7
847.99	1769.91
848.313	1773.07
848.637	1757.93
848.96	1761.32
849.284	1771.72
849.607	1753.87
849.931	1749.57
850.254	1742.57
850.577	1717.71
850.9	1738.05
851.223	1738.95
851.546	1749.35
851.869	1672.51
852.192	1716.35
852.515	1687.65
852.838	1688.11
853.161	1689.69
853.483	1698.73
853.806	1676.35
854.129	1660.54
854.451	1666.41
854.774	1669.12
855.096	1652.85
855.419	1657.82
855.741	1677.03
856.063	1658.95
856.385	1646.3
856.708	1640.42
857.03	1643.59
857.352	1663.7
857.674	1624.6
857.996	1621.21
858.318	1620.54
858.64	1602.01
858.961	1606.98
859.283	1586.64
859.605	1604.49
859.926	1591.84
860.248	1605.17
860.57	1601.33
860.891	1582.57
861.212	1598.16
861.534	1566.07
861.855	1579.86
862.176	1605.17
862.498	1579.86
862.819	1577.37
863.14	1562.01
863.461	1570.59
863.782	1561.78
864.103	1602.01
864.424	1565.17
864.745	1545.96
865.065	1568.79
865.386	1537.6
865.707	1564.04
866.027	1550.26
866.348	1564.49
866.668	1565.62
866.989	1529.01
867.309	1537.37
867.63	1507.55
867.95	1545.28
868.27	1531.27
868.59	1509.35
868.91	1555
869.23	1552.97
869.55	1539.86
869.87	1516.36
870.19	1492.86
870.51	1534.89
870.83	1543.93
871.15	1507.32
871.469	1512.97
871.789	1485.85
872.109	1501.44
872.428	1509.35
872.748	1496.7
873.067	1499.41
873.386	1521.78
873.706	1505.51
874.025	1484.04
874.344	1496.25
874.663	1491.05
874.982	1470.03
875.301	1486.98
875.62	1531.95
875.939	1489.69
876.258	1490.82
876.577	1488.34
876.896	1505.51
877.214	1468.22
877.533	1473.2
877.852	1483.59
878.17	1494.44
878.489	1449.47
878.807	1452.18
879.125	1449.69
879.444	1459.64
879.762	1463.25
880.08	1472.07
880.398	1446.3
880.716	1468.9
881.034	1448.79
881.352	1457.15
881.67	1437.04
881.988	1464.61
882.306	1452.63
882.624	1420.54
882.941	1419.64
883.259	1411.95
883.577	1450.82
883.894	1409.92
884.212	1432.07
884.529	1422.8
884.846	1450.37
885.164	1413.08
885.481	1419.64
885.798	1412.86
886.115	1400.43
886.432	1420.09
886.75	1385.74
887.067	1401.11
887.383	1398.85
887.7	1391.16
888.017	1393.88
888.334	1402.24
888.651	1366.76
888.967	1402.69
889.284	1382.8
889.6	1370.37
889.917	1372.18
890.233	1368.34
890.55	1346.65
890.866	1374.44
891.182	1344.16
891.498	1347.55
891.815	1347.32
892.131	1357.94
892.447	1351.62
892.763	1360.66
893.079	1379.64
893.395	1355.23
893.71	1360.2
894.026	1350.49
894.342	1358.4
894.657	1329.92
894.973	1338.51
895.289	1345.97
895.604	1359.75
895.92	1316.14
896.235	1287.44
896.55	1314.1
896.865	1285.4
897.181	1292.41
897.496	1306.19
897.811	1311.39
898.126	1301.22
898.441	1274.33
898.756	1269.81
899.071	1293.09
899.386	1282.92
899.7	1266.87
900.015	1282.01
900.33	1237.72
900.644	1279.75
900.959	1280.43
901.273	1237.72
901.588	1267.55
901.902	1258.74
902.216	1232.52
902.531	1240.43
902.845	1252.86
903.159	1226.65
903.473	1227.78
903.787	1217.84
904.101	1216.03
904.415	1200.43
904.729	1209.93
905.042	1217.61
905.356	1185.52
905.67	1230.49
905.984	1189.36
906.297	1208.34
906.611	1181.45
906.924	1216.71
907.237	1175.8
907.551	1208.12
907.864	1175.12
908.177	1159.53
908.491	1180.77
908.804	1182.58
909.117	1166.54
909.43	1165.86
909.743	1171.28
910.056	1152.75
910.368	1142.81
910.681	1160.21
910.994	1139.87
911.307	1141.68
911.619	1165.63
911.932	1131.74
912.244	1095.8
912.557	1118.18
912.869	1141.68
913.181	1106.43
913.494	1115.01
913.806	1132.64
914.118	1102.58
914.43	1131.51
914.742	1101.23
915.054	1086.31
915.366	1081.12
915.678	1115.47
915.99	1105.97
916.302	1072.3
916.613	1080.89
916.925	1088.8
917.236	1089.48
917.548	1076.6
917.859	1080.66
918.171	1088.8
918.482	1092.19
918.794	1053.32
919.105	1070.27
919.416	1055.13
919.727	1039.76
920.038	1058.97
920.349	1027.11
920.66	1041.12
920.971	1051.74
921.282	1037.73
921.593	1029.59
921.903	1018.97
922.214	1036.82
922.525	1039.53
922.835	1017.39
923.146	1041.34
923.456	1021.91
923.767	1050.16
924.077	1022.13
924.387	999.31
924.697	996.82
925.008	1011.06
925.318	971.29
925.628	1002.02
925.938	985.98
926.248	974.23
926.558	1010.84
926.867	976.03
927.177	1002.25
927.487	965.64
927.796	958.86
928.106	945.07
928.416	945.98
928.725	978.07
929.034	963.38
929.344	964.73
929.653	945.53
929.962	962.47
930.271	952.53
930.581	936.94
930.89	926.09
931.199	937.16
931.508	953.44
931.817	941.01
932.125	924.51
932.434	917.5
932.743	925.19
933.051	909.82
933.36	890.84
933.669	912.31
933.977	911.4
934.286	900.56
934.594	906.88
934.902	894.45
935.21	904.85
935.519	909.37
935.827	875.92
936.135	897.17
936.443	882.93
936.751	904.62
937.059	877.51
937.367	885.64
937.674	900.33
937.982	883.38
938.29	901.69
938.597	882.02
938.905	871.18
939.213	874.57
939.52	871.18
939.827	879.54
940.135	855.36
940.442	842.93
940.749	873.21
941.056	846.55
941.363	832.76
941.67	868.24
941.977	837.96
942.284	868.24
942.591	839.99
942.898	819.2
943.205	843.83
943.511	836.15
943.818	813.1
944.125	822.37
944.431	828.01
944.738	818.3
945.044	823.95
945.35	828.01
945.657	815.13
945.963	809.26
946.269	817.39
946.575	801.8
946.881	799.54
947.187	812.2
947.493	796.15
947.799	794.57
948.105	795.47
948.41	780.78
948.716	836.38
949.022	785.08
949.327	796.83
949.633	785.08
949.938	816.94
950.244	789.15
950.549	776.94
950.854	776.49
951.16	796.6
951.465	768.81
951.77	769.26
952.075	756.83
952.38	751.86
952.685	757.51
952.99	770.16
953.294	763.38
953.599	741.24
953.904	778.3
954.209	762.93
954.513	757.28
954.818	746.89
955.122	757.73
955.426	763.38
955.731	743.27
956.035	765.19
956.339	734.01
956.643	740.79
956.948	714.8
957.252	754.57
957.556	734.01
957.86	739.43
958.163	712.99
958.467	729.71
958.771	720.67
959.075	727.23
959.378	707.11
959.682	709.15
959.985	720
960.289	723.84
960.592	733.33
960.896	718.87
961.199	714.12
961.502	717.74
961.805	703.27
962.108	686.1
962.411	690.84
962.714	687.45
963.017	681.35
963.32	705.08
963.623	694.23
963.926	685.65
964.228	698.98
964.531	691.52
964.833	682.26
965.136	676.61
965.438	661.69
965.741	713.67
966.043	661.47
966.345	675.25
966.648	701.24
966.95	682.71
967.252	664.4
967.554	660.79
967.856	669.83
968.158	659.43
968.46	669.38
968.761	676.38
969.063	652.65
969.365	665.53
969.666	663.05
969.968	661.24
970.269	656.49
970.571	651.3
970.872	649.94
971.174	629.83
971.475	655.36
971.776	632.31
972.077	628.02
972.378	662.14
972.679	663.5
972.98	648.81
973.281	652.65
973.582	627.57
973.883	621.69
974.183	629.15
974.484	642.71
974.785	614.91
975.085	627.57
975.386	643.16
975.686	625.76
975.986	628.7
976.287	616.04
976.587	623.5
976.887	630.28
977.187	623.95
977.487	618.98
977.787	616.27
978.087	618.08
978.387	629.38
978.687	608.59
978.987	599.55
979.286	613.11
979.586	610.85
979.885	627.12
980.185	611.07
980.484	601.81
980.784	614.01
981.083	632.77
981.382	600.45
981.682	583.95
981.981	579.66
982.28	601.35
982.579	601.13
982.878	603.16
983.177	593.22
983.475	596.61
983.774	596.61
984.073	592.77
984.372	571.52
984.67	586.44
984.969	569.26
985.267	591.86
985.566	586.89
985.864	585.54
986.162	566.55
986.461	566.1
986.759	571.3
987.057	577.85
987.355	560.68
987.653	564.29
987.951	557.06
988.249	551.41
988.547	572.65
988.844	584.63
989.142	554.35
989.44	576.95
989.737	547.57
990.035	576.95
990.332	555.48
990.63	549.83
990.927	552.32
991.224	565.42
991.521	558.42
991.819	539.43
992.116	559.32
992.413	541.24
992.71	545.76
993.006	571.07
993.303	553.67
993.6	560.68
993.897	552.54
994.193	552.77
994.49	529.49
994.787	557.29
995.083	539.21
995.379	552.54
995.676	549.15
995.972	541.92
996.268	525.88
996.565	549.38
996.861	537.85
997.157	514.58
997.453	538.31
997.749	554.8
998.044	527.68
998.34	536.95
998.636	524.29
998.932	516.84
999.227	519.55
999.523	520.9
999.818	510.28
1000.114	505.09
1000.409	522.26
1000.704	522.71
1001	503.73
1001.295	495.37
1001.59	512.32
1001.885	504.18
1002.18	497.85
1002.475	503.73
1002.77	499.21
1003.065	510.74
1003.359	494.24
1003.654	509.15
1003.949	491.75
1004.243	494.92
1004.538	490.17
1004.832	522.26
1005.127	505.76
1005.421	477.52
1005.715	494.46
1006.009	492.66
1006.304	497.63
1006.598	496.05
1006.892	485.65
1007.186	485.43
1007.48	507.35
1007.773	497.18
1008.067	498.76
1008.361	479.32
1008.655	478.65
1008.948	498.76
1009.242	479.32
1009.535	471.87
1009.829	488.81
1010.122	472.54
1010.415	463.96
1010.708	469.61
1011.001	467.57
1011.295	483.17
1011.588	460.79
1011.881	480.23
1012.173	464.18
1012.466	462.15
1012.759	466.44
1013.052	478.19
1013.344	476.39
1013.637	467.57
1013.93	488.36
1014.222	465.54
1014.514	444.75
1014.807	458.08
1015.099	430.51
1015.391	453.11
1015.683	461.7
1015.976	471.64
1016.268	457.63
1016.56	453.11
1016.851	467.35
1017.143	442.94
1017.435	444.07
1017.727	465.99
1018.018	442.49
1018.31	420.12
1018.602	466.67
1018.893	443.62
1019.185	437.52
1019.476	435.03
1019.767	456.5
1020.058	432.55
1020.35	445.65
1020.641	449.95
1020.932	459.21
1021.223	432.32
1021.514	443.39
1021.804	423.51
1022.095	447.23
1022.386	438.19
1022.677	427.8
1022.967	427.8
1023.258	441.13
1023.548	433
1023.839	445.43
1024.129	431.42
1024.419	418.31
1024.709	425.09
1025	428.48
1025.29	419.89
1025.58	405.88
1025.87	407.91
1026.16	414.01
1026.449	417.86
1026.739	441.58
1027.029	402.26
1027.319	411.98
1027.608	414.92
1027.898	419.89
1028.187	402.94
1028.477	394.81
1028.766	398.65
1029.055	402.26
1029.344	420.57
1029.634	402.26
1029.923	410.4
1030.212	402.94
1030.501	406.33
1030.79	404.98
1031.078	394.35
1031.367	398.2
1031.656	396.39
1031.945	391.42
1032.233	385.99
1032.522	401.13
1032.81	398.65
1033.099	410.85
1033.387	390.74
1033.675	391.64
1033.963	374.02
1034.251	393.9
1034.54	410.62
1034.828	372.43
1035.116	371.76
1035.403	381.02
1035.691	403.85
1035.979	398.87
1036.267	401.59
1036.554	378.54
1036.842	390.74
1037.129	381.25
1037.417	367.24
1037.704	378.08
1037.992	372.21
1038.279	383.28
1038.566	387.57
1038.853	387.57
1039.14	387.57
