Data from foam_black_FLMS001491_00001.txt Node
Date: Wed Feb 08 10:43:24 GMT 2017
User: dcchb
Spectrometer: FLMS00149
Trigger mode: 0
Integration Time (sec): 2.000000E-2
Scans to average: 10
Electric dark correction enabled: true
Nonlinearity correction enabled: false
Boxcar width: 0
XAxis mode: Wavelengths
Number of Pixels in Spectrum: 2048
>>>>>Begin Spectral Data<<<<<
341.393	18.23
341.776	18.23
342.16	18.23
342.543	-80.07
342.927	-57.47
343.31	-62.44
343.693	-73.97
344.077	-77.58
344.46	-76.9
344.843	-45.72
345.226	-33.52
345.61	-35.1
345.993	-10.69
346.376	0.38
346.759	18.23
347.142	32.92
347.525	53.26
347.908	53.71
348.291	62.53
348.674	81.96
349.057	112.92
349.44	123.32
349.823	140.94
350.206	155.18
350.588	178.68
350.971	205.8
351.354	231.56
351.737	230.21
352.119	238.79
352.502	261.39
352.884	278.79
353.267	279.92
353.65	280.37
354.032	315.18
354.414	312.46
354.797	327.6
355.179	328.06
355.562	316.98
355.944	338
356.326	337.77
356.709	321.5
357.091	335.06
357.473	352.01
357.855	354.5
358.238	315.63
358.62	345.91
359.002	365.8
359.384	319.24
359.766	351.11
360.148	348.39
360.53	347.49
360.912	336.19
361.294	335.06
361.676	333.03
362.057	341.16
362.439	346.81
362.821	340.26
363.203	334.16
363.584	310.66
363.966	321.73
364.348	335.74
364.729	338.23
365.111	313.14
365.493	345.46
365.874	314.27
366.256	333.93
366.637	316.76
367.019	327.38
367.4	342.97
367.781	320.37
368.163	320.15
368.544	326.02
368.925	314.27
369.306	319.02
369.688	342.75
370.069	319.02
370.45	326.25
370.831	333.93
371.212	335.74
371.593	331.9
371.974	341.62
372.355	337.55
372.736	350.43
373.117	312.24
373.498	319.02
373.879	318.79
374.26	330.77
374.641	329.86
375.021	342.29
375.402	338.9
375.783	346.13
376.163	364.21
376.544	351.11
376.925	354.5
377.305	363.08
377.686	350.43
378.066	322.18
378.447	351.78
378.827	342.07
379.208	338.23
379.588	370.54
379.968	357.66
380.349	361.05
380.729	375.06
381.109	362.86
381.489	384.55
381.87	368.28
382.25	357.43
382.63	382.74
383.01	383.2
383.39	400.37
383.77	391.33
384.15	397.66
384.53	422.29
384.91	407.6
385.29	408.28
385.67	419.58
386.049	397.89
386.429	388.85
386.809	413.93
387.189	406.02
387.568	406.47
387.948	401.05
388.328	408.28
388.707	410.99
389.087	406.25
389.466	425.91
389.846	419.35
390.225	425.23
390.605	422.07
390.984	438.34
391.363	415.74
391.743	420.26
392.122	441.95
392.501	453.7
392.881	441.73
393.26	443.76
393.639	470.2
394.018	430.65
394.397	461.61
394.776	460.03
395.155	464.78
395.534	442.4
395.913	474.04
396.292	471.1
396.671	495.74
397.05	460.48
397.429	474.72
397.808	478.56
398.186	505
398.565	487.6
398.944	486.92
399.323	469.52
399.701	497.09
400.08	494.38
400.458	483.53
400.837	502.52
401.215	500.93
401.594	521.5
401.972	533.02
402.351	527.6
402.729	533.47
403.107	533.47
403.486	527.15
403.864	551.1
404.242	567.15
404.62	526.92
404.999	538.67
405.377	540.48
405.755	567.15
406.133	547.71
406.511	553.81
406.889	565.56
407.267	595.85
407.645	575.06
408.023	596.98
408.401	603.98
408.779	617.77
409.156	609.18
409.534	618.9
409.912	614.15
410.29	627.94
410.667	632.68
411.045	616.64
411.422	624.09
411.8	629.97
412.178	653.02
412.555	669.52
412.933	674.49
413.31	646.01
413.687	645.34
414.065	701.38
414.442	667.93
414.819	686.24
415.197	683.53
415.574	733.24
415.951	718.55
416.328	706.13
416.705	738.89
417.082	716.07
417.46	730.31
417.837	738.89
418.214	755.62
418.591	736.86
418.967	752.23
419.344	736.86
419.721	763.07
420.098	753.81
420.475	779.8
420.852	775.28
421.228	775.28
421.605	751.32
421.982	785.22
422.358	802.39
422.735	841.26
423.111	814.15
423.488	812.79
423.864	811.43
424.241	831.32
424.617	822.05
424.994	824.54
425.37	874.71
425.746	850.3
426.123	873.58
426.499	850.75
426.875	866.57
427.251	906.35
427.627	916.74
428.003	943.63
428.379	934.82
428.756	954.03
429.132	953.12
429.507	952.45
429.883	982.95
430.259	999.68
430.635	971.66
431.011	987.47
431.387	1003.74
431.763	1010.98
432.138	1039.45
432.514	1026.34
432.89	1010.75
433.265	1036.29
433.641	1070.18
434.016	1069.51
434.392	1079
434.767	1100.92
435.143	1098.66
435.518	1079.9
435.894	1131.65
436.269	1134.59
436.644	1142.5
437.02	1158.09
437.395	1166.9
437.77	1184.98
438.145	1180.01
438.52	1201.25
438.895	1188.37
439.271	1189.95
439.646	1233.8
440.021	1255.04
440.395	1232.44
440.77	1236.51
441.145	1278.31
441.52	1268.6
441.895	1227.92
442.27	1272.21
442.645	1270.18
443.019	1296.62
443.394	1309.95
443.769	1321.48
444.143	1321.02
444.518	1314.92
444.892	1332.55
445.267	1318.54
445.641	1362.83
446.016	1354.47
446.39	1360.57
446.764	1370.74
447.139	1353.79
447.513	1381.59
447.887	1366.67
448.262	1408.48
448.636	1420.46
449.01	1422.72
449.384	1447.8
449.758	1421.81
450.132	1417.75
450.506	1455.03
450.88	1481.7
451.254	1469.27
451.628	1475.82
452.002	1513.79
452.376	1504.07
452.75	1538.42
453.123	1561.24
453.497	1536.39
453.871	1581.36
454.244	1601.92
454.618	1613.9
454.992	1630.39
455.365	1625.88
455.739	1686.89
456.112	1687.57
456.486	1684.4
456.859	1713.78
457.232	1751.3
457.606	1715.14
457.979	1765.31
458.352	1814.57
458.725	1817.28
459.099	1831.97
459.472	1836.27
459.845	1835.36
460.218	1870.16
460.591	1875.59
460.964	1917.85
461.337	1957.84
461.71	1972.53
462.083	2000.33
462.456	2009.37
462.829	2002.81
463.201	2037.16
463.574	2015.24
463.947	2041.68
464.32	2095.47
464.692	2117.16
465.065	2132.08
465.438	2159.42
465.81	2181.11
466.183	2201.45
466.555	2270.6
466.928	2247.1
467.3	2255.46
467.672	2299.08
468.045	2346.53
468.417	2377.95
468.789	2323.03
469.161	2393.76
469.534	2426.98
469.906	2470.15
470.278	2495.46
470.65	2531.39
471.022	2576.58
471.394	2636.02
471.766	2648.45
472.138	2650.26
472.51	2683.7
472.882	2778.84
473.253	2765.51
473.625	2825.39
473.997	2878.72
474.369	2880.08
474.74	2908.78
475.112	2981.09
475.484	3017.93
475.855	3094.99
476.227	3110.36
476.598	3142.45
476.97	3190.81
477.341	3223.12
477.713	3288.2
478.084	3307.19
478.455	3415.43
478.827	3431.25
479.198	3535.88
479.569	3532.94
479.94	3613.39
480.311	3635.09
480.682	3729.32
481.053	3792.6
481.424	3861.97
481.795	3875.76
482.166	3915.31
482.537	3990.11
482.908	4065.13
483.279	4079.14
483.65	4156.2
484.021	4227.16
484.391	4349.19
484.762	4347.16
485.133	4392.58
485.503	4423.99
485.874	4494.05
486.244	4553.26
486.615	4649.07
486.985	4653.14
487.356	4756.41
487.726	4754.61
488.097	4914.15
488.467	4970.87
488.837	5031.89
489.207	5097.42
489.578	5112.11
489.948	5167.7
490.318	5200.92
490.688	5261.94
491.058	5355.27
491.428	5364.99
491.798	5441.82
492.168	5555.72
492.538	5539.9
492.908	5581.48
493.278	5706.45
493.648	5642.49
494.017	5768.82
494.387	5818.31
494.757	5847.46
495.126	5943.28
495.496	5914.12
495.866	6016.27
496.235	6009.49
496.605	6091.75
496.974	6145.98
497.344	6127.45
497.713	6238.18
498.082	6216.04
498.452	6346.88
498.821	6346.66
499.19	6374.45
499.559	6447.67
499.928	6474.79
500.298	6492.64
500.667	6631.62
501.036	6590.49
501.405	6712.3
501.774	6721.56
502.143	6726.31
502.512	6835.23
502.88	6819.86
503.249	6851.27
503.618	6922.69
503.987	6944.61
504.356	7019.18
504.724	7020.31
505.093	7075
505.462	7148.22
505.83	7136.46
506.199	7206.52
506.567	7270.47
506.936	7330.81
507.304	7380.75
507.672	7451.03
508.041	7496
508.409	7506.4
508.777	7580.3
509.145	7605.15
509.514	7622.78
509.882	7737.13
510.25	7768.99
510.618	7820.29
510.986	7788.43
511.354	7889.67
511.722	7984.13
512.09	7999.72
512.458	8020.28
512.826	8112.71
513.193	8104.8
513.561	8186.15
513.929	8240.62
514.297	8312.03
514.664	8437
515.032	8429.99
515.4	8527.39
515.767	8527.39
516.135	8585.24
516.502	8540.27
516.869	8743.2
517.237	8704.56
517.604	8678.8
517.972	8836.76
518.339	8908.85
518.706	8996.3
519.073	9014.16
519.44	9117.43
519.808	9242.85
520.175	9139.35
520.542	9267.48
520.909	9313.36
521.276	9422.28
521.643	9463.64
522.009	9560.36
522.376	9589.51
522.743	9691.43
523.11	9752.44
523.477	9857.98
523.843	9906.11
524.21	10018.87
524.577	10127.8
524.943	10065.88
525.31	10220.68
525.676	10281.01
526.043	10329.15
526.409	10431.75
526.776	10572.53
527.142	10555.81
527.508	10643.94
527.874	10727.1
528.241	10822.24
528.607	10775.69
528.973	10945.63
529.339	10886.87
529.705	11093.42
530.071	11142.91
530.437	11186.98
530.803	11219.97
531.169	11270.59
531.535	11274.21
531.901	11366.41
532.267	11429.91
532.632	11558.04
532.998	11527.08
533.364	11673.07
533.73	11780.86
534.095	11800.07
534.461	11774.54
534.826	11771.82
535.192	11937.92
535.557	11934.76
535.923	12022.21
536.288	12105.15
536.653	12025.15
537.019	12064.92
537.384	12158.25
537.749	12273.96
538.114	12265.14
538.479	12278.02
538.845	12353.5
539.21	12540.84
539.575	12483.67
539.94	12529.32
540.305	12560.28
540.67	12604.34
541.034	12617.68
541.399	12667.17
541.764	12701.97
542.129	12766.6
542.494	12804.79
542.858	12950.1
543.223	12951.91
543.587	12978.35
543.952	13001.17
544.316	13096.99
544.681	13050.89
545.045	13083.65
545.41	13173.59
545.774	13291.11
546.138	13248.85
546.503	13402.97
546.867	13338.34
547.231	13412.01
547.595	13565.22
547.959	13543.53
548.324	13603.19
548.688	13557.09
549.052	13612.45
549.416	13680.25
549.779	13701.72
550.143	13804.54
550.507	13849.28
550.871	13962.5
551.235	13954.36
551.599	14020.8
551.962	14061.03
552.326	14141.93
552.689	14203.62
553.053	14190.97
553.417	14269.61
553.78	14449.04
554.143	14328.82
554.507	14472.09
554.87	14571.52
555.234	14677.51
555.597	14623.27
555.96	14676.61
556.323	14708.7
556.686	14776.49
557.05	14867.56
557.413	14993.21
557.776	14926.99
558.139	15112.75
558.502	15091.96
558.865	15144.39
559.228	15324.95
559.59	15328.57
559.953	15479.75
560.316	15526.75
560.679	15578.05
561.041	15695.56
561.404	15793.64
561.767	15881.09
562.129	15835.9
562.492	16018.49
562.854	15958.38
563.217	15964.48
563.579	16081.09
563.941	16144.36
564.304	16211.93
564.666	16390.91
565.028	16312.49
565.39	16425.49
565.753	16584.8
566.115	16604.92
566.477	16666.84
566.839	16765.59
567.201	16882.42
567.563	16849.88
567.925	16941.86
568.287	17086.71
568.648	17104.56
569.01	17149.99
569.372	17339.36
569.734	17216.88
570.095	17317.21
570.457	17413.48
570.819	17370.77
571.18	17451.9
571.542	17578.45
571.903	17604.66
572.265	17725.34
572.626	17769.18
572.987	17692.12
573.349	17800.37
573.71	17897.76
574.071	17898.67
574.432	17961.04
574.794	18102.5
575.155	17974.6
575.516	18029.29
575.877	18134.59
576.238	18138.66
576.599	18263.63
576.96	18194.93
577.32	18247.13
577.681	18357.19
578.042	18425.66
578.403	18331.2
578.763	18358.09
579.124	18472.21
579.485	18454.59
579.845	18599.89
580.206	18530.52
580.566	18537.3
580.927	18506.34
581.287	18690.96
581.648	18461.59
582.008	18571.64
582.368	18594.92
582.728	18623.17
583.089	18589.27
583.449	18697.74
583.809	18733.9
584.169	18658.87
584.529	18669.04
584.889	18782.49
585.249	18674.69
585.609	18656.16
585.969	18897.29
586.329	18693.22
586.688	18765.99
587.048	18780.45
587.408	18709.04
587.768	18733.9
588.127	18720.79
588.487	18666.56
588.846	18888.92
589.206	18869.04
589.565	18826.78
589.925	18912.65
590.284	18851.19
590.643	18857.96
591.003	18903.39
591.362	19028.81
591.721	18961.24
592.08	18971.63
592.44	19054.12
592.799	19026.55
593.158	19027.68
593.517	19040.56
593.876	19060.67
594.235	19093.21
594.593	19030.84
594.952	19095.25
595.311	19091.4
595.67	19149.71
596.029	19158.3
596.387	19214.34
596.746	19314.68
597.104	19167.34
597.463	19215.92
597.822	19282.81
598.18	19230.84
598.538	19221.12
598.897	19461.79
599.255	19232.87
599.613	19529.13
599.972	19383.83
600.33	19429.02
600.688	19350.61
601.046	19428.57
601.404	19530.72
601.762	19490.26
602.12	19609.36
602.478	19450.94
602.836	19564.39
603.194	19365.75
603.552	19502.69
603.91	19507.89
604.268	19586.31
604.625	19464.28
604.983	19647.32
605.341	19548.12
605.698	19533.2
606.056	19573.88
606.413	19560.32
606.771	19711.05
607.128	19676.02
607.485	19607.32
607.843	19532.75
608.2	19714.67
608.557	19834.89
608.914	19758.05
609.272	19893.19
609.629	19900.88
609.986	19852.06
610.343	19749.24
610.7	19945.62
611.057	19881.89
611.414	19819.3
611.771	19888.22
612.127	20105.62
612.484	19931.16
612.841	19988.33
613.198	19919.18
613.554	19896.13
613.911	19986.07
614.267	19907.65
614.624	20082.79
614.98	19942
615.337	20097.93
615.693	20120.3
616.05	20022.23
616.406	20144.26
616.762	20041.21
617.118	19998.95
617.475	20067.65
617.831	20172.05
618.187	20139.29
618.543	20119.17
618.899	20218.61
619.255	20237.59
619.611	20211.38
619.967	20336.57
620.323	20226.97
620.678	20294.31
621.034	20101.32
621.39	20090.47
621.746	20043.7
622.101	20379.28
622.457	20229
622.812	20269
623.168	20235.78
623.523	20235.78
623.879	20244.14
624.234	20093.64
624.589	20231.26
624.945	20180.42
625.3	20178.61
625.655	20102.68
626.01	20218.83
626.365	20233.97
626.72	20127.31
627.075	20182.22
627.43	20065.39
627.785	20028.33
628.14	20177.7
628.495	20132.06
628.85	20152.39
629.205	20078.05
629.559	20159.63
629.914	20087.08
630.269	20130.25
630.623	20093.64
630.978	20024.49
631.332	20081.21
631.687	20133.64
632.041	20057.93
632.396	20050.93
632.75	19951.04
633.104	20048.22
633.459	19855.45
633.813	19894.1
634.167	19938.61
634.521	19856.81
634.875	19797.83
635.229	19872.4
635.583	19749.47
635.937	19784.27
636.291	19640.77
636.645	19738.39
636.999	19742.46
637.352	19749.01
637.706	19511.96
638.06	19648
638.413	19570.94
638.767	19632.18
639.121	19626.76
639.474	19472.64
639.828	19491.85
640.181	19542.47
640.534	19539.75
640.888	19522.81
641.241	19513.31
641.594	19386.09
641.947	19549.02
642.301	19477.38
642.654	19448.46
643.007	19473.09
643.36	19458.17
643.713	19410.94
644.066	19508.79
644.419	19361
644.771	19357.84
645.124	19075.81
645.477	19024.97
645.83	18881.24
646.182	18906.55
646.535	18959.88
646.888	18843.28
647.24	18911.3
647.593	18959.2
647.945	18980.45
648.298	18833.11
648.65	18758.98
649.002	18804.18
649.355	18796.27
649.707	18802.6
650.059	18858.42
650.411	19057.51
650.763	19034.91
651.115	19200.55
651.467	19235.13
651.819	19151.06
652.171	19169.59
652.523	19022.03
652.875	19106.32
653.227	18997.17
653.578	19187
653.93	19120.56
654.282	19012.31
654.633	18987.45
654.985	19040.56
655.337	18981.35
655.688	18979.54
656.039	19156.04
656.391	18966.66
656.742	18878.08
657.094	18947.45
657.445	18938.41
657.796	18942.71
658.147	18916.49
658.498	18951.75
658.849	18908.36
659.2	18880.34
659.551	18835.59
659.902	18889.6
660.253	18870.62
660.604	18855.48
660.955	18791.98
661.306	18724.41
661.656	18716.95
662.007	18765.76
662.358	18695.71
662.708	18737.97
663.059	18780.23
663.409	18550.18
663.76	18704.75
664.11	18685.31
664.461	18695.26
664.811	18686.67
665.161	18634.24
665.511	18599.21
665.862	18561.48
666.212	18591.3
666.562	18694.58
666.912	18526.45
667.262	18575.71
667.612	18549.27
667.962	18564.64
668.312	18576.62
668.662	18535.49
669.011	18556.05
669.361	18525.77
669.711	18429.28
670.06	18384.76
670.41	18346.34
670.76	18220.02
671.109	18370.07
671.459	18300.24
671.808	18405.77
672.157	18351.99
672.507	18234.93
672.856	18310.86
673.205	18231.09
673.554	18189.73
673.904	18096.18
674.253	18254.36
674.602	18141.6
674.951	17956.75
675.3	17753.81
675.649	18113.13
675.998	18032
676.346	18059.79
676.695	18094.82
677.044	18047.14
677.393	17961.49
677.741	18022.96
678.09	17968.27
678.438	17919.01
678.787	17923.3
679.135	17826.81
679.484	17756.3
679.832	17840.82
680.181	17692.35
680.529	17810.53
680.877	17653.48
681.225	17708.84
681.573	17855.28
681.922	17679.24
682.27	17613.7
682.618	17551.33
682.966	17615.06
683.314	17640.6
683.661	17555.85
684.009	17380.72
684.357	17353.82
684.705	17345.24
685.053	17347.95
685.4	17358.12
685.748	17317.21
686.095	17297.1
686.443	17184.34
686.79	17218.46
687.138	17172.81
687.485	17189.31
687.832	17155.86
688.18	17221.17
688.527	17164.45
688.874	17142.76
689.221	17074.73
689.568	17092.36
689.915	16983.21
690.262	16942.53
690.609	17047.62
690.956	16983.66
691.303	16940.05
691.65	16727.4
691.997	16754.97
692.344	16683.33
692.69	16754.07
693.037	16777.57
693.383	16639.94
693.73	16618.48
694.077	16512.72
694.423	16483.34
694.769	16467.74
695.116	16527.4
695.462	16459.84
695.808	16354.3
696.155	16421.64
696.501	16294.64
696.847	16301.42
697.193	16131.71
697.539	16253.51
697.885	16089.22
698.231	16153.18
698.577	16096.68
698.923	15994.31
699.269	16035.89
699.614	16005.38
699.96	16017.14
700.306	15966.97
700.651	15806.97
700.997	15798.84
701.342	15715.67
701.688	15793.86
702.033	15818.04
702.379	15685.17
702.724	15674.77
703.069	15678.16
703.415	15555.23
703.76	15512.29
704.105	15499.86
704.45	15550.25
704.795	15452.86
705.14	15352.75
705.485	15420.31
705.83	15281.56
706.175	15325.18
706.52	15219.42
706.865	15262.58
707.209	15181.9
707.554	15187.55
707.899	15126.54
708.243	15049.93
708.588	15074.34
708.932	14896.71
709.277	14992.98
709.621	14996.37
709.966	14852.19
710.31	14956.6
710.654	14735.59
710.998	14863.49
711.342	14821.01
711.687	14790.73
712.031	14693.78
712.375	14671.41
712.719	14752.76
713.063	14690.39
713.407	14550.51
713.75	14566.33
714.094	14556.61
714.438	14543.73
714.782	14620.56
715.125	14476.16
715.469	14423.96
715.812	14420.79
716.156	14212.66
716.499	14356.84
716.843	14323.62
717.186	14297.63
717.53	14294.02
717.873	14322.04
718.216	14277.97
718.559	14196.17
718.902	14094.93
719.246	14049.28
719.589	14063.97
719.932	14016.28
720.275	14034.36
720.617	14013.35
720.96	13979.45
721.303	13954.59
721.646	13884.76
721.989	13917.3
722.331	13950.3
722.674	13840.02
723.016	13825.55
723.359	13823.75
723.701	13826.01
724.044	13680.25
724.386	13644.77
724.729	13670.53
725.071	13586.92
725.413	13661.27
725.755	13573.58
726.097	13509.4
726.439	13583.98
726.782	13464.43
727.124	13575.39
727.465	13481.61
727.807	13425.11
728.149	13403.87
728.491	13368.84
728.833	13329.97
729.175	13318.68
729.516	13463.76
729.858	13308.73
730.199	13320.26
730.541	13266.47
730.882	13195.97
731.224	13343.31
731.565	13189.87
731.906	13185.57
732.248	13187.83
732.589	13129.75
732.93	13130.21
733.271	13149.19
733.612	13175.85
733.953	13122.3
734.294	12974.73
734.635	13030.55
734.976	13061.05
735.317	13024.22
735.658	12976.99
735.999	12903.77
736.339	12880.72
736.68	12867.16
737.021	12870.55
737.361	12856.54
737.702	12853.6
738.042	12761.85
738.383	12682.31
738.723	12739.48
739.063	12644.79
739.404	12811.34
739.744	12681.18
740.084	12585.81
740.424	12641.63
740.764	12623.1
741.104	12671.69
741.444	12574.74
741.784	12499.94
742.124	12468.53
742.464	12482.54
742.804	12450.9
743.143	12445.03
743.483	12411.35
743.823	12408.87
744.162	12304.24
744.502	12388.98
744.841	12347.4
745.181	12361.64
745.52	12252.94
745.86	12301.3
746.199	12184.24
746.538	12200.29
746.877	12313.5
747.216	12247.74
747.556	12172.94
747.895	12136.33
748.234	12065.83
748.573	12200.74
748.911	12106.28
749.25	12032.83
749.589	12053.17
749.928	11991.48
750.267	11977.69
750.605	12030.8
750.944	11944.7
751.283	11909.22
751.621	11977.69
751.96	11904.48
752.298	11794.87
752.636	11798.49
752.975	11765.5
753.313	11748.32
753.651	11824.03
753.989	11733.63
754.327	11727.08
754.666	11569.12
755.004	11653.63
755.342	11685.95
755.679	11603.01
756.017	11551.94
756.355	11599.85
756.693	11508.78
757.031	11576.8
757.368	11435.11
757.706	11467.2
758.044	11390.14
758.381	11423.58
758.719	11371.61
759.056	11376.58
759.394	11289.58
759.731	11233.98
760.068	11155.57
760.405	11197.15
760.743	11158.51
761.08	11162.8
761.417	11113.54
761.754	11095.23
762.091	11022.01
762.428	10974.56
762.765	11007.55
763.102	10976.36
763.438	10905.86
763.775	10881.23
764.112	10869.02
764.449	10904.05
764.785	10895.24
765.122	10800.55
765.458	10821.34
765.795	10721.23
766.131	10647.11
766.467	10670.38
766.804	10677.39
767.14	10596.49
767.476	10628.8
767.812	10549.03
768.148	10551.52
768.485	10506.77
768.821	10432.2
769.157	10432.2
769.492	10476.26
769.828	10378.19
770.164	10303.39
770.5	10256.83
770.836	10326.89
771.171	10292.77
771.507	10246.67
771.842	10180
772.178	10237.4
772.513	10136.84
772.849	10064.3
773.184	10018.2
773.519	10114.24
773.855	9982.49
774.19	9964.87
774.525	9941.36
774.86	9964.87
775.195	9891.65
775.53	9863.4
775.865	9808.49
776.2	9747.24
776.535	9764.19
776.87	9757.19
777.205	9727.36
777.539	9653.01
777.874	9734.59
778.209	9632.9
778.543	9575.95
778.878	9584.54
779.212	9466.35
779.547	9473.35
779.881	9540.47
780.215	9509.74
780.55	9458.21
780.884	9345.22
781.218	9409.4
781.552	9340.25
781.886	9314.71
782.22	9287.82
782.554	9255.28
782.888	9209.86
783.222	9206.92
783.556	9178.67
783.889	9120.37
784.223	9034.49
784.557	9034.27
784.89	9049.18
785.224	8956.08
785.557	8951.11
785.891	8943.65
786.224	8929.41
786.558	8987.94
786.891	8869.3
787.224	8823.88
787.557	8817.32
787.891	8775.07
788.224	8785.69
788.557	8805.57
788.89	8707.95
789.223	8720.83
789.556	8656.88
789.888	8636.54
790.221	8592.7
790.554	8586.37
790.887	8585.69
791.219	8542.08
791.552	8461.4
791.884	8451.01
792.217	8390.44
792.549	8420.27
792.882	8292.14
793.214	8350.67
793.546	8300.73
793.879	8278.81
794.211	8250.79
794.543	8269.32
794.875	8197.91
795.207	8234.06
795.539	8138.25
795.871	8159.71
796.203	8054.63
796.535	8067.74
796.867	8018.25
797.198	7974.86
797.53	8013.05
797.862	7865.94
798.193	7957.01
798.525	7852.83
798.856	7889.67
799.188	7828.42
799.519	7825.03
799.85	7709.11
800.182	7662.78
800.513	7696
800.844	7670.01
801.175	7737.81
801.506	7712.72
801.837	7632.05
802.168	7661.2
802.499	7531.93
802.83	7559.05
803.161	7498.26
803.491	7526.96
803.822	7522.9
804.153	7515.66
804.483	7389.79
804.814	7331.26
805.145	7400.86
805.475	7366.74
805.805	7317.48
806.136	7339.62
806.466	7358.15
806.796	7248.78
807.126	7230.7
807.457	7239.74
807.787	7199.51
808.117	7102.79
808.447	7126.52
808.777	7107.09
809.107	7061.44
809.436	7078.84
809.766	7075
810.096	7005.62
810.426	6970.37
810.755	6995.45
811.085	6954.32
811.414	6979.86
811.744	6920.2
812.073	6838.17
812.403	6869.81
812.732	6826.87
813.061	6826.64
813.39	6760.2
813.719	6711.62
814.049	6787.55
814.378	6818.28
814.707	6790.26
815.036	6727.44
815.365	6731.05
815.693	6668.91
816.022	6619.64
816.351	6592.52
816.68	6561.79
817.008	6607.21
817.337	6605.18
817.665	6556.59
817.994	6553.88
818.322	6526.99
818.651	6471.62
818.979	6429.36
819.307	6475.24
819.636	6491.74
819.964	6401.34
820.292	6447.9
820.62	6438.86
820.948	6445.86
821.276	6405.41
821.604	6395.92
821.932	6388.46
822.259	6384.39
822.587	6415.58
822.915	6351.63
823.243	6397.28
823.57	6385.52
823.898	6405.64
824.225	6324.51
824.553	6308.92
824.88	6357.95
825.207	6379.87
825.535	6349.59
825.862	6360.44
826.189	6357.95
826.516	6363.38
826.843	6384.17
827.17	6341.46
827.497	6350.27
827.824	6386.2
828.151	6341.68
828.478	6335.13
828.805	6316.15
829.131	6344.62
829.458	6328.58
829.785	6326.32
830.111	6334.9
830.438	6359.76
830.764	6338.52
831.09	6355.24
831.417	6279.99
831.743	6395.02
832.069	6318.63
832.395	6278.41
832.722	6325.19
833.048	6269.37
833.374	6299.2
833.7	6311.85
834.026	6297.84
834.351	6350.72
834.677	6315.24
835.003	6332.19
835.329	6355.24
835.654	6259.88
835.98	6270.95
836.306	6287.45
836.631	6280.22
836.956	6285.19
837.282	6305.98
837.607	6260.56
837.932	6292.65
838.258	6230.73
838.583	6218.3
838.908	6192.76
839.233	6190.5
839.558	6141.91
839.883	6235.02
840.208	6171.97
840.533	6147.56
840.858	6209.71
841.182	6175.13
841.507	6161.58
841.832	6140.11
842.156	6081.13
842.481	6083.84
842.805	6108.92
843.13	6091.75
843.454	6081.13
843.778	6056.27
844.103	5995.48
844.427	6030.51
844.751	6087.23
845.075	6022.6
845.399	6029.83
845.723	6019.43
846.047	5983.5
846.371	5947.34
846.695	5977.17
847.019	5947.12
847.343	5953.22
847.666	5853.56
847.99	5814.92
848.313	5854.24
848.637	5810.4
848.96	5805.43
849.284	5847.01
849.607	5775.14
849.931	5738.99
850.254	5717.97
850.577	5666.67
850.9	5662.38
851.223	5606.56
851.546	5631.87
851.869	5589.61
852.192	5615.15
852.515	5551.65
852.838	5564.53
853.161	5529.05
853.483	5604.98
853.806	5534.93
854.129	5506.45
854.451	5442.5
854.774	5514.59
855.096	5434.59
855.419	5415.83
855.741	5454.02
856.063	5353.46
856.385	5382.84
856.708	5357.08
857.03	5315.5
857.352	5341.03
857.674	5335.83
857.996	5348.26
858.318	5339.22
858.64	5309.17
858.961	5328.15
859.283	5336.29
859.605	5284.08
859.926	5319.34
860.248	5261.94
860.57	5227.81
860.891	5268.27
861.212	5233.69
861.534	5287.25
861.855	5227.81
862.176	5221.04
862.498	5179
862.819	5161.38
863.14	5190.08
863.461	5168.61
863.782	5152.56
864.103	5204.76
864.424	5118.21
864.745	5146.01
865.065	5127.7
865.386	5070.08
865.707	5069.17
866.027	5124.09
866.348	5106.46
866.668	5110.98
866.989	5061.72
867.309	5076.18
867.63	5121.38
867.95	5037.54
868.27	4975.39
868.59	5046.35
868.91	5044.09
869.23	5038.89
869.55	5031.44
869.87	5028.05
870.19	5008.39
870.51	5017.2
870.83	5011.55
871.15	4956.86
871.469	4953.7
871.789	4964.54
872.109	5000.7
872.428	4930.65
872.748	4937.65
873.067	4951.21
873.386	4974.94
873.706	4949.18
874.025	4901.95
874.344	4902.85
874.663	4854.94
874.982	4902.17
875.301	4916.41
875.62	4906.47
875.939	4931.55
876.258	4856.07
876.577	4826.47
876.896	4819.46
877.214	4812.68
877.533	4805
877.852	4835.28
878.17	4833.25
878.489	4835.73
878.807	4814.72
879.125	4733.82
879.444	4779.92
879.762	4781.5
880.08	4779.69
880.398	4746.92
880.716	4711.9
881.034	4748.73
881.352	4764.32
881.67	4756.64
881.988	4717.32
882.306	4669.19
882.624	4686.81
882.941	4665.12
883.259	4648.17
883.577	4662.86
883.894	4646.13
884.212	4667.83
884.529	4645
884.846	4624.44
885.164	4605.23
885.481	4566.59
885.798	4574.95
886.115	4574.27
886.432	4547.38
886.75	4532.01
887.067	4522.52
887.383	4506.93
887.7	4518.23
888.017	4500.38
888.334	4483.65
888.651	4507.38
888.967	4425.35
889.284	4428.06
889.6	4390.1
889.917	4421.28
890.233	4410.43
890.55	4402.98
890.866	4376.31
891.182	4407.27
891.498	4339.93
891.815	4345.13
892.131	4314.62
892.447	4286.14
892.763	4259.48
893.079	4280.72
893.395	4277.56
893.71	4252.92
894.026	4229.65
894.342	4220.16
894.657	4200.27
894.973	4197.79
895.289	4157.79
895.604	4160.72
895.92	4165.7
896.235	4130.89
896.55	4118.92
896.865	4057.22
897.181	4087.05
897.496	4086.83
897.811	4059.26
898.126	4022.87
898.441	4035.76
898.756	4030.11
899.071	3991.69
899.386	3999.82
899.7	3989.2
900.015	3960.5
900.33	3931.13
900.644	3931.8
900.959	3900.39
901.273	3863.33
901.588	3855.87
901.902	3844.57
902.216	3861.07
902.531	3885.25
902.845	3795.08
903.159	3792.6
903.473	3802.54
903.787	3763.45
904.101	3739.04
904.415	3724.13
904.729	3718.93
905.042	3709.66
905.356	3714.63
905.67	3652.04
905.984	3711.02
906.297	3678.7
906.611	3655.65
906.924	3637.8
907.237	3637.35
907.551	3592.6
907.864	3579.95
908.177	3598.48
908.491	3498.59
908.804	3537.24
909.117	3524.36
909.43	3489.56
909.743	3476.67
910.056	3542.21
910.368	3556.45
910.681	3448.88
910.994	3472.61
911.307	3402.55
911.619	3375.89
911.932	3396.9
912.244	3398.26
912.557	3391.48
912.869	3395.55
913.181	3323.91
913.494	3359.39
913.806	3339.5
914.118	3270.58
914.43	3313.06
914.742	3311.93
915.054	3279.84
915.366	3243.69
915.678	3263.35
915.99	3217.02
916.302	3243.69
916.613	3182.67
916.925	3194.65
917.236	3213.86
917.548	3188.77
917.859	3155.55
918.171	3130.02
918.482	3153.07
918.794	3154.87
919.105	3097.48
919.416	3092.5
919.727	3070.58
920.038	3083.92
920.349	3067.42
920.66	3053.86
920.971	3047.08
921.282	3029.68
921.593	3017.25
921.903	2977.25
922.214	2969.12
922.525	2992.62
922.835	3014.09
923.146	2934.54
923.456	2954.65
923.767	2982.68
924.077	2947.65
924.387	2923.92
924.697	2862.45
925.008	2916.69
925.318	2897.93
925.628	2865.62
925.938	2866.75
926.248	2845.5
926.558	2834.43
926.867	2805.28
927.177	2814.09
927.487	2832.85
927.796	2762.12
928.106	2746.3
928.416	2753.3
928.725	2737.26
929.034	2782.23
929.344	2730.03
929.653	2730.03
929.962	2682.12
930.271	2725.28
930.581	2697.49
930.89	2695.45
931.199	2645.28
931.508	2709.91
931.817	2675.34
932.125	2675.34
932.434	2643.93
932.743	2576.36
933.051	2597.83
933.36	2616.81
933.669	2597.83
933.977	2569.58
934.286	2577.71
934.594	2567.32
934.902	2549.47
935.21	2558.51
935.519	2548.11
935.827	2528
936.135	2474.67
936.443	2523.25
936.751	2500.43
937.059	2502.69
937.367	2492.52
937.674	2498.62
937.982	2461.79
938.29	2461.11
938.597	2437.61
938.905	2445.74
939.213	2407.1
939.52	2415.69
939.827	2445.74
940.135	2392.18
940.442	2363.03
940.749	2368.45
941.056	2360.32
941.363	2352.18
941.67	2360.32
941.977	2341.79
942.284	2356.7
942.591	2310.15
942.898	2312.41
943.205	2312.18
943.511	2293.2
943.818	2316.7
944.125	2260.66
944.431	2306.31
944.738	2307.89
945.044	2273.99
945.35	2273.32
945.657	2267.67
945.963	2250.04
946.269	2249.59
946.575	2238.06
946.881	2244.39
947.187	2181.79
947.493	2199.19
947.799	2177.27
948.105	2188.35
948.41	2152.19
948.716	2178.4
949.022	2148.57
949.327	2161.23
949.633	2141.34
949.938	2097.28
950.244	2155.13
950.549	2136.6
950.854	2093.89
951.16	2141.34
951.465	2104.51
951.77	2102.7
952.075	2083.49
952.38	2071.29
952.685	2078.97
952.99	2051.63
953.294	2029.93
953.599	2063.83
953.904	2053.21
954.209	2006.66
954.513	1998.75
954.818	2017.73
955.122	2030.61
955.426	1982.02
955.731	1970.05
956.035	1983.15
956.339	1981.8
956.643	1974.34
956.948	1969.82
957.252	1959.43
957.556	1925.53
957.86	1936.38
958.163	1942.03
958.467	1940.44
958.771	1935.7
959.075	1924.17
959.378	1943.16
959.682	1916.04
959.985	1902.03
960.289	1905.64
960.592	1874.91
960.896	1871.29
961.199	1869.71
961.502	1874.91
961.805	1856.6
962.108	1839.88
962.411	1865.42
962.714	1822.25
963.017	1837.85
963.32	1818.86
963.623	1819.32
963.926	1833.78
964.228	1781.58
964.531	1771.63
964.833	1810.28
965.136	1788.81
965.438	1748.36
965.741	1773.22
966.043	1756.72
966.345	1754.69
966.648	1731.41
966.95	1774.8
967.252	1759.88
967.554	1708.81
967.856	1720.79
968.158	1694.35
968.46	1695.03
968.761	1715.14
969.063	1696.16
969.365	1685.76
969.666	1699.09
969.968	1689.38
970.269	1696.83
970.571	1648.25
970.872	1652.54
971.174	1683.73
971.475	1664.52
971.776	1627.91
972.077	1648.47
972.378	1629.27
972.679	1635.59
972.98	1629.72
973.281	1629.04
973.582	1631.07
973.883	1595.14
974.183	1607.57
974.484	1585.65
974.785	1612.54
975.085	1604.18
975.386	1594.69
975.686	1548.36
975.986	1561.7
976.287	1559.89
976.587	1544.3
976.887	1547.69
977.187	1553.11
977.487	1563.5
977.787	1550.17
978.087	1534.35
978.387	1518.31
978.687	1496.84
978.987	1501.36
979.286	1475.6
979.586	1507.01
979.885	1497.97
980.185	1485.99
980.484	1503.39
980.784	1457.74
981.083	1481.25
981.382	1508.82
981.682	1500.23
981.981	1444.86
982.28	1468.82
982.579	1429.04
982.878	1447.12
983.177	1411.42
983.475	1452.09
983.774	1414.58
984.073	1395.37
984.372	1396.28
984.67	1377.29
984.969	1400.12
985.267	1392.44
985.566	1387.92
985.864	1372.77
986.162	1375.03
986.461	1352.89
986.759	1380.23
987.057	1365.77
987.355	1381.59
987.653	1350.63
987.951	1326.45
988.249	1341.36
988.547	1319.89
988.844	1327.58
989.142	1322.15
989.44	1311.99
989.737	1327.8
990.035	1320.57
990.332	1288.94
990.63	1286.45
990.927	1276.96
991.224	1288.26
991.521	1280.57
991.819	1295.04
992.116	1285.55
992.413	1278.31
992.71	1258.88
993.006	1280.12
993.303	1257.07
993.6	1239.9
993.897	1229.5
994.193	1208.26
994.49	1238.31
994.787	1227.02
995.083	1220.24
995.379	1221.37
995.676	1177.53
995.972	1180.69
996.268	1170.29
996.565	1182.05
996.861	1167.36
997.157	1207.81
997.453	1149.5
997.749	1157.64
998.044	1140.69
998.34	1174.14
998.636	1132.55
998.932	1150.63
999.227	1148.83
999.523	1143.85
999.818	1107.7
1000.114	1109.5
1000.409	1096.85
1000.704	1095.04
1001	1089.39
1001.295	1088.49
1001.59	1089.84
1001.885	1075.83
1002.18	1053.69
1002.475	1080.35
1002.77	1054.36
1003.065	1065.21
1003.359	1049.62
1003.654	1075.16
1003.949	1050.3
1004.243	1039.22
1004.538	1049.17
1004.832	1043.74
1005.127	1026.12
1005.421	1033.57
1005.715	1028.6
1006.009	1039.9
1006.304	992.45
1006.598	1002.39
1006.892	1021.37
1007.186	1011.88
1007.48	998.55
1007.773	971.88
1008.067	983.18
1008.361	950.86
1008.655	974.37
1008.948	1000.58
1009.242	961.49
1009.535	956.97
1009.829	945.44
1010.122	950.86
1010.415	945.44
1010.708	966.68
1011.001	926.68
1011.295	904.99
1011.588	933.69
1011.881	902.28
1012.173	923.07
1012.466	900.02
1012.759	926.91
1013.052	900.24
1013.344	882.17
1013.637	888.04
1013.93	882.84
1014.222	909.06
1014.514	903.18
1014.807	894.14
1015.099	876.97
1015.391	869.74
1015.683	860.25
1015.976	839.91
1016.268	833.81
1016.56	837.65
1016.851	860.25
1017.143	837.87
1017.435	836.74
1017.727	833.58
1018.018	835.61
1018.31	822.05
1018.602	828.83
1018.893	814.6
1019.185	807.82
1019.476	812.79
1019.767	828.16
1020.058	798.55
1020.35	802.85
1020.641	798.78
1020.932	798.33
1021.223	756.52
1021.514	781.38
1021.804	745.22
1022.095	772.34
1022.386	767.37
1022.677	752.68
1022.967	771.43
1023.258	759.23
1023.548	732.11
1023.839	749.74
1024.129	740.25
1024.419	742.96
1024.709	720.14
1025	742.73
1025.29	697.54
1025.58	707.48
1025.87	704.32
1026.16	723.07
1026.449	713.36
1026.739	719.91
1027.029	686.92
1027.319	686.69
1027.608	687.59
1027.898	681.27
1028.187	690.31
1028.477	664.77
1028.766	664.32
1029.055	689.4
1029.344	648.5
1029.634	657.54
1029.923	663.19
1030.212	658.44
1030.501	673.81
1030.79	671.1
1031.078	644.66
1031.367	668.61
1031.656	664.09
1031.945	649.4
1032.233	645.79
1032.522	623.42
1032.81	632.23
1033.099	622.06
1033.387	635.39
1033.675	612.34
1033.963	641.49
1034.251	636.52
1034.54	614.6
1034.828	606.24
1035.116	604.89
1035.403	597.43
1035.691	585.22
1035.979	608.27
1036.267	601.95
1036.554	581.61
1036.842	602.4
1037.129	586.35
1037.417	593.59
1037.704	556.07
1037.992	597.2
1038.279	585.45
1038.566	570.54
1038.853	570.54
1039.14	570.54
