Data from foam1_polythene_foam_FLMS001491_00059.txt Node
Date: Wed Feb 08 10:55:04 GMT 2017
User: dcchb
Spectrometer: FLMS00149
Trigger mode: 0
Integration Time (sec): 2.000000E-2
Scans to average: 10
Electric dark correction enabled: true
Nonlinearity correction enabled: false
Boxcar width: 0
XAxis mode: Wavelengths
Number of Pixels in Spectrum: 2048
>>>>>Begin Spectral Data<<<<<
341.393	-5.69
341.776	-5.69
342.16	-5.69
342.543	-67.61
342.927	-69.42
343.31	-54.96
343.693	-89.53
344.077	-81.4
344.46	-50.21
344.843	-64
345.226	-37.33
345.61	-42.98
345.993	-9.53
346.376	2.44
346.759	17.58
347.142	30.69
347.525	56.45
347.908	58.04
348.291	57.36
348.674	85.61
349.057	121.76
349.44	133.97
349.823	139.84
350.206	148.65
350.588	179.84
350.971	168.31
351.354	202.21
351.737	210.35
352.119	226.39
352.502	237.69
352.884	252.61
353.267	271.14
353.65	307.75
354.032	280.85
354.414	309.55
354.797	271.81
355.179	302.1
355.562	321.08
355.944	292.83
356.326	314.53
356.709	293.06
357.091	313.17
357.473	315.66
357.855	300.06
358.238	319.72
358.62	323.11
359.002	334.41
359.384	298.93
359.766	319.95
360.148	312.72
360.53	322.21
360.912	328.99
361.294	309.1
361.676	308.88
362.057	320.63
362.439	319.95
362.821	317.01
363.203	298.71
363.584	307.07
363.966	268.88
364.348	287.41
364.729	300.51
365.111	313.85
365.493	306.62
365.874	291.48
366.256	300.51
366.637	298.25
367.019	311.36
367.4	298.03
367.781	302.55
368.163	296.22
368.544	307.07
368.925	294.19
369.306	308.42
369.688	299.38
370.069	302.77
370.45	300.06
370.831	296.22
371.212	310.68
371.593	296.45
371.974	317.24
372.355	289.22
372.736	299.38
373.117	293.74
373.498	286.05
373.879	312.72
374.26	315.66
374.641	319.05
375.021	326.28
375.402	322.44
375.783	320.4
376.163	330.34
376.544	311.36
376.925	301.19
377.305	299.61
377.686	310.68
378.066	318.37
378.447	287.63
378.827	308.65
379.208	319.27
379.588	310.46
379.968	301.64
380.349	319.95
380.729	332.6
381.109	306.39
381.489	332.38
381.87	325.6
382.25	314.07
382.63	325.37
383.01	325.6
383.39	315.2
383.77	334.64
384.15	308.42
384.53	332.38
384.91	338.03
385.29	337.12
385.67	337.8
386.049	332.6
386.429	336.45
386.809	336.67
387.189	338.93
387.568	363.56
387.948	346.62
388.328	357.01
388.707	357.91
389.087	345.03
389.466	357.91
389.846	350.23
390.225	371.02
390.605	363.56
390.984	341.19
391.363	371.7
391.743	359.72
392.122	350.68
392.501	376.67
392.881	360.4
393.26	374.64
393.639	369.21
394.018	364.02
394.397	363.56
394.776	371.47
395.155	363.34
395.534	370.34
395.913	378.03
396.292	381.64
396.671	388.87
397.05	378.25
397.429	375.54
397.808	368.99
398.186	393.39
398.565	381.87
398.944	399.95
399.323	395.2
399.701	381.87
400.08	362.89
400.458	423.68
400.837	396.56
401.215	422.09
401.594	392.04
401.972	442.88
402.351	402.43
402.729	402.66
403.107	399.72
403.486	408.53
403.864	410.12
404.242	422.55
404.62	416.67
404.999	412.83
405.377	415.77
405.755	420.29
406.133	416.9
406.511	438.82
406.889	442.66
407.267	451.02
407.645	415.54
408.023	467.52
408.401	440.4
408.779	432.26
409.156	455.54
409.534	455.31
409.912	461.19
410.29	470.91
410.667	443.79
411.045	468.65
411.422	448.76
411.8	460.06
412.178	469.1
412.555	476.78
412.933	487.85
413.31	491.92
413.687	486.05
414.065	510
414.442	492.37
414.819	495.54
415.197	512.94
415.574	493.5
415.951	517.91
416.328	510.45
416.705	508.42
417.082	529.89
417.46	529.21
417.837	529.44
418.214	517.68
418.591	524.01
418.967	530.11
419.344	520.62
419.721	543.9
420.098	532.6
420.475	565.59
420.852	572.37
421.228	540.51
421.605	550
421.982	538.25
422.358	559.72
422.735	572.37
423.111	581.41
423.488	578.02
423.864	577.12
424.241	581.64
424.617	590.68
424.994	600.85
425.37	572.6
425.746	587.51
426.123	606.04
426.499	604.01
426.875	613.27
427.251	624.12
427.627	624.12
428.003	637.91
428.379	634.07
428.756	634.52
429.132	663.22
429.507	670.67
429.883	636.78
430.259	660.28
430.635	687.85
431.011	673.84
431.387	690.11
431.763	688.75
432.138	711.8
432.514	698.7
432.89	699.37
433.265	708.64
433.641	746.83
434.016	735.98
434.392	741.63
434.767	744.34
435.143	780.73
435.518	766.27
435.894	772.82
436.269	782.31
436.644	796.55
437.02	806.49
437.395	800.16
437.77	805.13
438.145	809.2
438.52	825.7
438.895	849.43
439.271	818.24
439.646	852.59
440.021	830.9
440.395	820.95
440.77	842.65
441.145	873.16
441.52	882.42
441.895	869.54
442.27	863.89
442.645	882.42
443.019	889.88
443.394	890.56
443.769	924.23
444.143	918.58
444.518	930.1
444.892	933.04
445.267	946.83
445.641	982.98
446.016	944.79
446.39	948.41
446.764	961.29
447.139	976.43
447.513	977.79
447.887	1001.51
448.262	1001.29
448.636	1008.52
449.01	1022.53
449.384	1013.26
449.758	1054.17
450.132	1050.33
450.506	1049.42
450.88	1026.6
451.254	1062.3
451.628	1075.41
452.002	1065.69
452.376	1083.32
452.75	1076.54
453.123	1107.27
453.497	1127.16
453.871	1114.28
454.244	1139.14
454.618	1130.32
454.992	1152.7
455.365	1151.79
455.739	1171.68
456.112	1167.16
456.486	1201.06
456.859	1197.44
457.232	1211.23
457.606	1186.82
457.979	1202.86
458.352	1245.57
458.725	1233.6
459.099	1276.53
459.472	1270.88
459.845	1289.42
460.218	1298
460.591	1312.47
460.964	1295.29
461.337	1332.13
461.71	1327.15
462.083	1363.09
462.456	1377.55
462.829	1374.16
463.201	1355.18
463.574	1398.11
463.947	1392.92
464.32	1421.62
464.692	1400.37
465.065	1425.23
465.438	1458.45
465.81	1467.49
466.183	1483.53
466.555	1515.17
466.928	1517.66
467.3	1522.4
467.672	1564.44
468.045	1545.68
468.417	1589.07
468.789	1559.92
469.161	1595.17
469.534	1658.22
469.906	1674.49
470.278	1667.48
470.65	1701.61
471.022	1725.34
471.394	1727.37
471.766	1736.86
472.138	1769.85
472.51	1773.7
472.882	1795.39
473.253	1831.77
473.625	1832.68
473.997	1869.29
474.369	1930.08
474.74	1902.28
475.112	1929.17
475.484	1960.36
475.855	1970.75
476.227	1998.32
476.598	2071.32
476.97	2058.43
477.341	2116.96
477.713	2156.51
478.084	2149.51
478.455	2206.68
478.827	2224.76
479.198	2281.93
479.569	2336.62
479.94	2325.55
480.311	2387.69
480.682	2402.61
481.053	2493
481.424	2512.66
481.795	2509.72
482.166	2548.14
482.537	2570.29
482.908	2620.23
483.279	2672.88
483.65	2718.3
484.021	2748.36
484.391	2770.73
484.762	2804.86
485.133	2830.39
485.503	2861.8
485.874	2935.47
486.244	2937.28
486.615	3005.53
486.985	3062.25
487.356	3116.49
487.726	3092.76
488.097	3191.06
488.467	3208.23
488.837	3256.14
489.207	3271.74
489.578	3335.01
489.948	3331.17
490.318	3422.92
490.688	3417.27
491.058	3469.7
491.428	3496.59
491.798	3565.06
492.168	3601.67
492.538	3625.63
492.908	3655
493.278	3733.19
493.648	3731.84
494.017	3835.56
494.387	3805.06
494.757	3831.5
495.126	3894.54
495.496	3906.75
495.866	3934.09
496.235	3984.71
496.605	3997.37
496.974	3999.85
497.344	4073.97
497.713	4097.48
498.082	4158.27
498.452	4175.22
498.821	4204.37
499.19	4228.55
499.559	4230.13
499.928	4303.35
500.298	4320.52
500.667	4350.13
501.036	4400.52
501.405	4411.37
501.774	4417.24
502.143	4468.09
502.512	4485.04
502.88	4579.72
503.249	4541.76
503.618	4532.49
503.987	4579.95
504.356	4656.56
504.724	4643.45
505.093	4752.83
505.462	4752.38
505.83	4732.49
506.199	4817.01
506.567	4885.03
506.936	4845.93
507.304	4897.91
507.672	4926.38
508.041	4960.05
508.409	5045.25
508.777	5010.9
509.145	5091.12
509.514	5114.17
509.882	5147.84
510.25	5139.26
510.618	5214.51
510.986	5217
511.354	5271.46
511.722	5299.93
512.09	5360.27
512.458	5430.55
512.826	5416.31
513.193	5456.54
513.561	5512.36
513.929	5525.91
514.297	5532.69
514.664	5628.28
515.032	5629.87
515.4	5680.94
515.767	5763.42
516.135	5776.08
516.502	5752.8
516.869	5880.25
517.237	5896.98
517.604	5861.05
517.972	5936.3
518.339	5961.38
518.706	6032.57
519.073	6096.29
519.44	6152.56
519.808	6184.43
520.175	6196.63
520.542	6240.47
520.909	6310.75
521.276	6314.59
521.643	6358.89
522.009	6410.18
522.376	6456.74
522.743	6488.83
523.11	6607.47
523.477	6602.5
523.843	6611.54
524.21	6711.19
524.577	6832.09
524.943	6828.25
525.31	6891.98
525.676	6929.94
526.043	6925.2
526.409	6995.03
526.776	7084.07
527.142	7123.16
527.508	7099.21
527.874	7245.19
528.241	7220.78
528.607	7288.35
528.973	7362.48
529.339	7355.92
529.705	7408.8
530.071	7453.09
530.437	7503.49
530.803	7524.28
531.169	7624.62
531.535	7625.52
531.901	7667.1
532.267	7690.6
532.632	7751.39
532.998	7794.1
533.364	7788
533.73	7849.24
534.095	7949.58
534.461	7966.08
534.826	7989.58
535.192	8108.9
535.557	8129.46
535.923	8116.81
536.288	8079.52
536.653	8178.73
537.019	8104.15
537.384	8188.89
537.749	8239.74
538.114	8298.95
538.479	8312.51
538.845	8351.38
539.21	8417.36
539.575	8393.64
539.94	8382.34
540.305	8470.47
540.67	8481.54
541.034	8484.03
541.399	8538.49
541.764	8645.15
542.129	8658.94
542.494	8615.55
542.858	8726.06
543.223	8702.1
543.587	8707.07
543.952	8773.51
544.316	8734.87
544.681	8801.31
545.045	8814.87
545.41	8927.86
545.774	8940.97
546.138	8911.14
546.503	8984.58
546.867	9010.57
547.231	9003.79
547.595	9023.45
547.959	9108.42
548.324	9089.44
548.688	9096.67
549.052	9200.85
549.416	9170.79
549.779	9175.99
550.143	9260.05
550.507	9277
550.871	9365.81
551.235	9341.18
551.599	9454.17
551.962	9467.51
552.326	9471.35
552.689	9517
553.053	9480.39
553.417	9489.65
553.78	9671.34
554.143	9626.15
554.507	9706.82
554.87	9711.11
555.234	9812.35
555.597	9729.19
555.96	9736.65
556.323	9855.97
556.686	9923.54
557.05	9947.27
557.413	9992.24
557.776	10062.07
558.139	10127.83
558.502	10133.7
558.865	10074.49
559.228	10232.91
559.59	10177.54
559.953	10243.98
560.316	10327.14
560.679	10319.46
561.041	10409.63
561.404	10473.81
561.767	10547.93
562.129	10587.25
562.492	10557.42
562.854	10633.58
563.217	10704.99
563.579	10669.51
563.941	10782.05
564.304	10812.78
564.666	10850.52
565.028	10919.67
565.39	10951.53
565.753	10977.75
566.115	11038.76
566.477	11048.03
566.839	11163.51
567.201	11192.88
567.563	11239.21
567.925	11255.48
568.287	11351.52
568.648	11241.02
569.01	11410.28
569.372	11428.36
569.734	11427.91
570.095	11523.95
570.457	11526.21
570.819	11677.39
571.18	11640.78
571.542	11667.67
571.903	11776.82
572.265	11713.1
572.626	11728.46
572.987	11762.81
573.349	11782.02
573.71	11879.87
574.071	11810.72
574.432	11915.12
574.794	12069.92
575.155	12004.84
575.516	11906.31
575.877	12035.8
576.238	12130.03
576.599	12233.53
576.96	12155.57
577.32	12135.46
577.681	12181.33
578.042	12263.59
578.403	12161.9
578.763	12215.91
579.124	12197.15
579.485	12305.85
579.845	12285.06
580.206	12356.02
580.566	12361.21
580.927	12322.57
581.287	12389.24
581.648	12409.8
582.008	12475.79
582.368	12415
582.728	12440.31
583.089	12452.51
583.449	12306.53
583.809	12419.07
584.169	12397.6
584.529	12367.32
584.889	12520.98
585.249	12440.99
585.609	12463.81
585.969	12527.31
586.329	12478.27
586.688	12603.47
587.048	12469.01
587.408	12460.19
587.768	12424.26
588.127	12410.93
588.487	12423.59
588.846	12447.77
589.206	12366.64
589.565	12406.86
589.925	12516.92
590.284	12570.25
590.643	12519.4
591.003	12548.78
591.362	12656.57
591.721	12593.3
592.08	12594.43
592.44	12597.14
592.799	12541.55
593.158	12527.31
593.517	12546.97
593.876	12517.37
594.235	12514.88
594.593	12567.08
594.952	12645.27
595.311	12563.92
595.67	12625.16
596.029	12631.04
596.387	12710.81
596.746	12797.14
597.104	12626.74
597.463	12694.99
597.822	12668.78
598.18	12629.68
598.538	12622.68
598.897	12730.92
599.255	12593.3
599.613	12765.72
599.972	12662.9
600.33	12681.21
600.688	12668.55
601.046	12832.61
601.404	12772.73
601.762	12822.67
602.12	12834.42
602.478	12884.59
602.836	12900.64
603.194	12787.87
603.552	12797.36
603.91	12739.06
604.268	12751.49
604.625	12756.23
604.983	12845.72
605.341	12746.97
605.698	12954.87
606.056	12900.86
606.413	12962.55
606.771	13012.04
607.128	13036
607.485	12911.26
607.843	12965.94
608.2	13004.81
608.557	13065.15
608.914	12918.94
609.272	12977.7
609.629	12963.91
609.986	13035.77
610.343	12977.7
610.7	13105.15
611.057	13125.71
611.414	13115.32
611.771	13069.9
612.127	13142.66
612.484	13143.34
612.841	13197.58
613.198	13150.57
613.554	13175.2
613.911	13279.38
614.267	13199.38
614.624	13203.23
614.98	13194.86
615.337	13253.85
615.693	13283.9
616.05	13240.97
616.406	13309.89
616.762	13247.29
617.118	13305.14
617.475	13282.55
617.831	13319.38
618.187	13389.21
618.543	13357.35
618.899	13409.1
619.255	13356.44
619.611	13254.98
619.967	13313.51
620.323	13393.73
620.678	13280.51
621.034	13326.16
621.39	13331.13
621.746	13424.46
622.101	13504.91
622.457	13383.79
622.812	13480.96
623.168	13378.59
623.523	13400.74
623.879	13451.58
624.234	13325.48
624.589	13311.92
624.945	13459.72
625.3	13461.75
625.655	13422.88
626.01	13404.12
626.365	13319.38
626.72	13365.48
627.075	13477.57
627.43	13345.14
627.785	13436.44
628.14	13352.37
628.495	13323
628.85	13367.06
629.205	13309.89
629.559	13369.55
629.914	13299.95
630.269	13306.27
630.623	13347.63
630.978	13319.83
631.332	13272.83
631.687	13315.99
632.041	13247.97
632.396	13275.09
632.75	13178.14
633.104	13270.57
633.459	13160.74
633.813	13182.21
634.167	13149.22
634.521	13220.63
634.875	13211.81
635.229	13179.95
635.583	13162.78
635.937	13170.01
636.291	13226.05
636.645	13060.86
636.999	13080.97
637.352	13099.05
637.706	12958.71
638.06	13024.93
638.413	13023.34
638.767	13019.05
639.121	13005.04
639.474	12921.88
639.828	12980.18
640.181	12982.44
640.534	12898.83
640.888	12901.09
641.241	12888.43
641.594	12959.84
641.947	12913.97
642.301	12852.05
642.654	12847.98
643.007	12816.57
643.36	12845.95
643.713	12754.88
644.066	12842.78
644.419	12685.73
644.771	12670.13
645.124	12639.85
645.477	12591.49
645.83	12473.08
646.182	12438.5
646.535	12316.02
646.888	12382.68
647.24	12300.65
647.593	12307.2
647.945	12286.41
648.298	12198.73
648.65	12259.75
649.002	12187.43
649.355	12298.17
649.707	12269.01
650.059	12275.79
650.411	12430.37
650.763	12444.83
651.115	12508.56
651.467	12526.41
651.819	12437.82
652.171	12424.49
652.523	12446.64
652.875	12402.57
653.227	12379.75
653.578	12469.91
653.93	12433.53
654.282	12316.92
654.633	12278.73
654.985	12347.43
655.337	12345.85
655.688	12350.59
656.039	12398.28
656.391	12281.44
656.742	12278.73
657.094	12378.62
657.445	12327.32
657.796	12279.41
658.147	12315.57
658.498	12232.63
658.849	12318.5
659.2	12259.97
659.551	12194.44
659.902	12272.4
660.253	12250.48
660.604	12241.22
660.955	12224.95
661.306	12275.79
661.656	12186.76
662.007	12215
662.358	12254.78
662.708	12146.53
663.059	12217.26
663.409	12031.51
663.76	12253.65
664.11	12153.76
664.461	12192.86
664.811	12212.07
665.161	12114.89
665.511	12112.63
665.862	12084.16
666.212	12184.95
666.562	12212.97
666.912	12130.49
667.262	12148.79
667.612	12116.48
667.962	12103.82
668.312	12078.28
668.662	12167.1
669.011	12066.76
669.361	12122.12
669.711	12015.69
670.06	12044.39
670.41	12045.52
670.76	12051.39
671.109	11998.96
671.459	12038.74
671.808	11952.64
672.157	12003.94
672.507	11946.99
672.856	11931.17
673.205	12029.92
673.554	12089.81
673.904	11992.64
674.253	12041.45
674.602	12002.35
674.951	11816.82
675.3	11739.76
675.649	11967.78
675.998	11991.73
676.346	11978.17
676.695	11950.6
677.044	11879.65
677.393	11867.89
677.741	11949.47
678.09	11923.71
678.438	11745.86
678.787	11758.74
679.135	11800.1
679.484	11781.79
679.832	11831.74
680.181	11754.45
680.529	11828.35
680.877	11746.09
681.225	11768.91
681.573	11872.41
681.922	11787.67
682.27	11665.19
682.618	11734.11
682.966	11663.83
683.314	11640.78
683.661	11608.01
684.009	11588.35
684.357	11503.16
684.705	11552.42
685.053	11512.65
685.4	11578.86
685.748	11449.15
686.095	11444.4
686.443	11431.3
686.79	11371.41
687.138	11361.92
687.485	11459.09
687.832	11375.7
688.18	11449.37
688.527	11330.73
688.874	11296.61
689.221	11307.23
689.568	11301.13
689.915	11234.46
690.262	11260
690.609	11204.41
690.956	11193.56
691.303	11112.66
691.65	11016.84
691.997	11007.13
692.344	10928.26
692.69	10955.6
693.037	11076.28
693.383	10921.7
693.73	10938.65
694.077	10859.33
694.423	10878.99
694.769	10886.9
695.116	10837.19
695.462	10843.06
695.808	10808.26
696.155	10801.26
696.501	10709.05
696.847	10698.89
697.193	10706.57
697.539	10634.71
697.885	10579.11
698.231	10522.39
698.577	10526.69
698.923	10527.82
699.269	10476.74
699.614	10429.06
699.96	10355.17
700.306	10438.1
700.651	10358.33
700.997	10327.82
701.342	10350.87
701.688	10346.58
702.033	10366.69
702.379	10225.23
702.724	10253.93
703.069	10309.29
703.415	10170.76
703.76	10181.84
704.105	10185.45
704.45	10069.07
704.795	10091.44
705.14	9980.71
705.485	10046.02
705.83	9967.61
706.175	10015.29
706.52	9953.59
706.865	9933.03
707.209	9961.05
707.554	9857.1
707.899	9997.43
708.243	9882.18
708.588	9908.4
708.932	9836.31
709.277	9834.95
709.621	9809.19
709.966	9727.39
710.31	9746.82
710.654	9589.99
710.998	9705.01
711.342	9691.45
711.687	9578.69
712.031	9549.76
712.375	9524.45
712.719	9568.75
713.063	9523.1
713.407	9566.94
713.75	9500.27
714.094	9488.52
714.438	9494.85
714.782	9507.73
715.125	9389.54
715.469	9479.93
715.812	9409.43
716.156	9350.22
716.499	9353.84
716.843	9357.45
717.186	9347.51
717.53	9359.94
717.873	9389.32
718.216	9346.83
718.559	9227.29
718.902	9192.94
719.246	9280.39
719.589	9210.11
719.932	9189.32
720.275	9141.19
720.617	9184.57
720.96	9124.01
721.303	9137.34
721.646	9134.18
721.989	9098.93
722.331	9087.18
722.674	9016.44
723.016	9082.88
723.359	9086.27
723.701	9051.25
724.044	9061.19
724.386	8978.48
724.729	9032.71
725.071	9020.29
725.413	9041.53
725.755	8941.19
726.097	8901.42
726.439	8867.07
726.782	8880.85
727.124	8862.78
727.465	8861.87
727.807	8848.76
728.149	8813.29
728.491	8779.84
728.833	8802.44
729.175	8755.89
729.516	8741.42
729.858	8759.73
730.199	8765.38
730.541	8739.16
730.882	8679.28
731.224	8777.35
731.565	8724.02
731.906	8720.63
732.248	8769.22
732.589	8708.43
732.93	8666.85
733.271	8699.39
733.612	8757.47
733.953	8722.67
734.294	8616.68
734.635	8546.17
734.976	8632.5
735.317	8559.51
735.658	8558.83
735.999	8516.34
736.339	8477.02
736.68	8483.12
737.021	8479.06
737.361	8493.75
737.702	8486.74
738.042	8473.18
738.383	8420.75
738.723	8478.38
739.063	8416.46
739.404	8440.41
739.744	8459.62
740.084	8426.85
740.424	8466.4
740.764	8370.36
741.104	8416.01
741.444	8367.2
741.784	8361.55
742.124	8339.63
742.464	8305.28
742.804	8250.14
743.143	8271.15
743.483	8236.8
743.823	8232.06
744.162	8242.45
744.502	8196.35
744.841	8205.17
745.181	8191.15
745.52	8182.12
745.86	8179.18
746.199	8201.32
746.538	8194.09
746.877	8212.17
747.216	8188.67
747.556	8189.8
747.895	8119.52
748.234	8123.13
748.573	8154.55
748.911	8120.42
749.25	8130.37
749.589	8104.38
749.928	8093.53
750.267	8036.36
750.605	8047.66
750.944	8011.5
751.283	8005.4
751.621	8011.5
751.96	7965.4
752.298	7946.42
752.636	7884.5
752.975	7820.32
753.313	7840.66
753.651	7861.9
753.989	7890.37
754.327	7866.19
754.666	7783.03
755.004	7778.74
755.342	7802.01
755.679	7813.76
756.017	7759.08
756.355	7738.29
756.693	7755.01
757.031	7760.88
757.368	7741.22
757.706	7701.68
758.044	7683.37
758.381	7693.77
758.719	7696.48
759.056	7685.86
759.394	7661.45
759.731	7558.18
760.068	7522.25
760.405	7512.75
760.743	7491.96
761.08	7482.92
761.417	7419.65
761.754	7357.5
762.091	7400.89
762.428	7436.82
762.765	7371.29
763.102	7381.23
763.438	7352.98
763.775	7278.18
764.112	7301.69
764.449	7254.68
764.785	7265.3
765.122	7231.18
765.458	7180.33
765.795	7159.77
766.131	7199.77
766.467	7128.36
766.804	7137.85
767.14	7103.27
767.476	7129.94
767.812	7114.57
768.148	7092.2
768.485	7010.17
768.821	7018.76
769.157	6924.52
769.492	6895.14
769.828	6970.85
770.164	6870.29
770.5	6807.46
770.836	6901.02
771.171	6780.57
771.507	6790.97
771.842	6771.76
772.178	6774.47
772.513	6752.55
772.849	6670.97
773.184	6720.23
773.519	6691.76
773.855	6661.25
774.19	6675.04
774.525	6667.35
774.86	6594.13
775.195	6579.22
775.53	6589.16
775.865	6550.97
776.2	6472.78
776.535	6461.93
776.87	6512.78
777.205	6420.35
777.539	6458.77
777.874	6417.64
778.209	6322.05
778.543	6313.46
778.878	6200.02
779.212	6326.8
779.547	6283.63
779.881	6259
780.215	6215.61
780.55	6248.61
780.884	6166.58
781.218	6169.29
781.552	6166.35
781.886	6143.75
782.22	6139.01
782.554	6112.57
782.888	6049.29
783.222	6017.43
783.556	5998.9
783.889	6013.36
784.223	5918.9
784.557	5963.87
784.89	5967.94
785.224	5971.33
785.557	5897.2
785.891	5901.72
786.224	5872.35
786.558	5866.92
786.891	5793.93
787.224	5834.83
787.557	5773.59
787.891	5780.14
788.224	5786.47
788.557	5772.01
788.89	5736.08
789.223	5717.77
789.556	5677.32
789.888	5624.44
790.221	5676.42
790.554	5620.37
790.887	5553.26
791.219	5606.14
791.552	5530.89
791.884	5519.36
792.217	5544.67
792.549	5534.05
792.882	5428.52
793.214	5478.23
793.546	5417.89
793.879	5438.68
794.211	5452.02
794.543	5440.49
794.875	5444.79
795.207	5404.11
795.539	5369.53
795.871	5367.05
796.203	5355.3
796.535	5321.63
796.867	5288.41
797.198	5265.58
797.53	5248.63
797.862	5268.29
798.193	5294.73
798.525	5212.02
798.856	5241.18
799.188	5165.25
799.519	5190.56
799.85	5108.75
800.182	5150.33
800.513	5118.24
800.844	5017
801.175	5088.19
801.506	5020.62
801.837	5085.7
802.168	5099.03
802.499	5035.53
802.83	5011.58
803.161	5039.6
803.491	4968.64
803.822	5020.16
804.153	4993.05
804.483	4966.61
804.814	4916.89
805.145	4960.28
805.475	4943.1
805.805	4956.44
806.136	4911.69
806.466	4975.65
806.796	4868.53
807.126	4882.32
807.457	4810.9
807.787	4848.42
808.117	4825.37
808.447	4805.71
808.777	4783.79
809.107	4746.73
809.436	4799.61
809.766	4745.82
810.096	4705.6
810.426	4733.39
810.755	4695.2
811.085	4678.03
811.414	4688.87
811.744	4684.58
812.073	4668.76
812.403	4673.73
812.732	4642.77
813.061	4618.14
813.39	4596.45
813.719	4614.3
814.049	4666.95
814.378	4651.81
814.707	4595.09
815.036	4607.29
815.365	4593.51
815.693	4535.43
816.022	4548.76
816.351	4536.56
816.68	4482.1
817.008	4547.86
817.337	4457.02
817.665	4476.22
817.994	4444.81
818.322	4452.04
818.651	4449.11
818.979	4395.77
819.307	4443.68
819.636	4421.54
819.964	4337.92
820.292	4433.06
820.62	4358.94
820.948	4344.02
821.276	4392.84
821.604	4398.03
821.932	4392.16
822.259	4409.56
822.587	4400.07
822.915	4357.58
823.243	4419.73
823.57	4389.22
823.898	4413.17
824.225	4366.62
824.553	4347.64
824.88	4367.07
825.207	4374.31
825.535	4385.61
825.862	4440.74
826.189	4365.04
826.516	4425.6
826.843	4375.66
827.17	4403.23
827.497	4408.43
827.824	4383.12
828.151	4327.98
828.478	4372.05
828.805	4369.11
829.131	4389.45
829.458	4346.28
829.785	4354.65
830.111	4340.63
830.438	4320.75
830.764	4358.94
831.09	4360.75
831.417	4336.11
831.743	4337.24
832.069	4369.79
832.395	4326.85
832.722	4308.77
833.048	4353.06
833.374	4348.77
833.7	4353.29
834.026	4372.05
834.351	4345.61
834.677	4395.1
835.003	4370.46
835.329	4312.61
835.654	4337.02
835.98	4322.33
836.306	4310.13
836.631	4269
836.956	4280.3
837.282	4306.06
837.607	4288.21
837.932	4286.4
838.258	4265.61
838.583	4240.98
838.908	4220.19
839.233	4217.47
839.558	4220.86
839.883	4202.11
840.208	4153.75
840.533	4175.67
840.858	4180.19
841.182	4179.51
841.507	4207.53
841.832	4162.11
842.156	4173.41
842.481	4174.09
842.805	4194.2
843.13	4123.69
843.454	4154.42
843.778	4144.03
844.103	4155.1
844.427	4161.43
844.751	4179.73
845.075	4095.22
845.399	4133.18
845.723	4100.19
846.047	4049.12
846.371	4042.34
846.695	4074.43
847.019	4075.1
847.343	4004.6
847.666	3984.26
847.99	3939.29
848.313	3997.82
848.637	3925.28
848.96	3915.11
849.284	3908.1
849.607	3884.38
849.931	3872.17
850.254	3854.09
850.577	3848.9
850.9	3822.91
851.223	3818.61
851.546	3842.12
851.869	3792.63
852.192	3781.1
852.515	3747.66
852.838	3793.53
853.161	3770.93
853.483	3757.37
853.806	3746.07
854.129	3739.97
854.451	3725.96
854.774	3682.12
855.096	3711.5
855.419	3688.67
855.741	3671.27
856.063	3656.81
856.385	3704.27
856.708	3660.88
857.03	3643.93
857.352	3564.16
857.674	3551.95
857.996	3556.25
858.318	3565.51
858.64	3567.1
858.961	3528.23
859.283	3524.61
859.605	3480.32
859.926	3481.67
860.248	3541.56
860.57	3532.97
860.891	3455.46
861.212	3496.36
861.534	3489.58
861.855	3459.3
862.176	3495.23
862.498	3463.37
862.819	3471.28
863.14	3451.84
863.461	3503.14
863.782	3435.57
864.103	3474.67
864.424	3443.71
864.745	3485.74
865.065	3459.08
865.386	3471.28
865.707	3443.93
866.027	3489.81
866.348	3427.66
866.668	3461.79
866.989	3419.3
867.309	3376.14
867.63	3406.42
867.95	3412.52
868.27	3372.75
868.59	3343.37
868.91	3361.23
869.23	3343.15
869.55	3309.02
869.87	3357.16
870.19	3313.54
870.51	3295.92
870.83	3275.58
871.15	3283.49
871.469	3301.57
871.789	3285.07
872.109	3296.59
872.428	3268.8
872.748	3277.61
873.067	3312.19
873.386	3286.2
873.706	3300.66
874.025	3293.2
874.344	3294.11
874.663	3278.06
874.982	3294.11
875.301	3336.82
875.62	3277.16
875.939	3275.8
876.258	3312.41
876.577	3294.11
876.896	3309.93
877.214	3265.41
877.533	3257.95
877.852	3244.62
878.17	3218.4
878.489	3255.47
878.807	3254.34
879.125	3236.26
879.444	3218.4
879.762	3191.29
880.08	3197.16
880.398	3156.03
880.716	3167.11
881.034	3167.56
881.352	3133.89
881.67	3128.69
881.988	3125.53
882.306	3138.41
882.624	3197.84
882.941	3115.81
883.259	3110.16
883.577	3145.64
883.894	3086.43
884.212	3140.44
884.529	3133.21
884.846	3127.56
885.164	3146.32
885.481	3121.68
885.798	3128.91
886.115	3141.57
886.432	3105.64
886.75	3112.64
887.067	3045.3
887.383	3102.47
887.7	3104.96
888.017	3116.26
888.334	3083.04
888.651	3085.75
888.967	3057.28
889.284	3032.42
889.6	3025.64
889.917	3022.25
890.233	2968.92
890.55	2997.39
890.866	3011.18
891.182	2976.83
891.498	2965.3
891.815	2954.23
892.131	2896.83
892.447	2942.71
892.763	2945.64
893.079	2900.22
893.395	2894.34
893.71	2881.46
894.026	2876.04
894.342	2882.37
894.657	2898.19
894.973	2879.2
895.289	2874.23
895.604	2846.89
895.92	2836.04
896.235	2846.66
896.55	2798.75
896.865	2835.14
897.181	2840.11
897.496	2831.07
897.811	2842.82
898.126	2839.66
898.441	2793.78
898.756	2812.31
899.071	2791.52
899.386	2781.58
899.7	2773.9
900.015	2764.18
900.33	2770.73
900.644	2746.33
900.959	2728.02
901.273	2719.43
901.588	2743.61
901.902	2703.39
902.216	2688.93
902.531	2668.81
902.845	2702.71
903.159	2631.53
903.473	2651.64
903.787	2647.8
904.101	2645.76
904.415	2634.01
904.729	2578.19
905.042	2615.26
905.356	2591.08
905.67	2591.53
905.984	2565.77
906.297	2561.92
906.611	2561.47
906.924	2522.83
907.237	2572.32
907.551	2579.55
907.864	2551.08
908.177	2533.22
908.491	2513.56
908.804	2516.5
909.117	2500.68
909.43	2516.5
909.743	2514.69
910.056	2490.97
910.368	2491.42
910.681	2478.08
910.994	2491.64
911.307	2471.08
911.619	2464.75
911.932	2477.18
912.244	2453.9
912.557	2423.85
912.869	2446.45
913.181	2430.18
913.494	2394.02
913.806	2368.48
914.118	2337.3
914.43	2350.4
914.742	2310.86
915.054	2326.22
915.366	2324.64
915.678	2308.15
915.99	2307.02
916.302	2294.13
916.613	2290.29
916.925	2273.34
917.236	2296.39
917.548	2270.41
917.859	2300.01
918.171	2263.17
918.482	2252.55
918.794	2241.03
919.105	2253.68
919.416	2209.17
919.727	2206.23
920.038	2214.59
920.349	2205.78
920.66	2209.62
920.971	2211.88
921.282	2193.35
921.593	2174.36
921.903	2160.35
922.214	2136.17
922.525	2144.31
922.835	2139.11
923.146	2125.55
923.456	2134.14
923.767	2142.73
924.077	2127.13
924.387	2106.34
924.697	2083.29
925.008	2139.11
925.318	2070.41
925.628	2039.23
925.938	2069.28
926.248	2062.5
926.558	2062.95
926.867	2043.29
927.177	2034.71
927.487	2046.91
927.796	2005.55
928.106	2031.99
928.416	2008.72
928.725	2008.72
929.034	1953.8
929.344	1969.62
929.653	1964.88
929.962	1989.51
930.271	1962.84
930.581	1959
930.89	1957.87
931.199	1952.45
931.508	1928.95
931.817	1917.65
932.125	1908.16
932.434	1942.05
932.743	1894.15
933.051	1911.77
933.36	1860.25
933.669	1881.94
933.977	1878.33
934.286	1864.77
934.594	1870.64
934.902	1867.71
935.21	1847.59
935.519	1849.17
935.827	1847.37
936.135	1839.01
936.443	1813.02
936.751	1819.34
937.059	1822.06
937.367	1793.13
937.674	1822.51
937.982	1807.14
938.29	1815.96
938.597	1783.64
938.905	1797.2
939.213	1777.31
939.52	1735.73
939.827	1782.74
940.135	1735.73
940.442	1747.03
940.749	1753.81
941.056	1738.89
941.363	1721.72
941.67	1697.99
941.977	1700.03
942.284	1709.29
942.591	1698.22
942.898	1669.74
943.205	1668.39
943.511	1666.58
943.818	1683.08
944.125	1653.02
944.431	1654.38
944.738	1671.1
945.044	1637.88
945.35	1620.03
945.657	1661.16
945.963	1604.89
946.269	1596.98
946.575	1611.44
946.881	1640.82
947.187	1622.74
947.493	1592.01
947.799	1599.24
948.105	1587.94
948.41	1563.31
948.716	1581.61
949.022	1563.31
949.327	1572.8
949.633	1545.91
949.938	1568.73
950.244	1568.05
950.549	1535.28
950.854	1533.25
951.16	1535.96
951.465	1520.82
951.77	1516.3
952.075	1534.15
952.38	1553.59
952.685	1495.29
952.99	1493.48
953.294	1515.17
953.599	1509.52
953.904	1502.07
954.209	1479.92
954.513	1512.01
954.818	1474.95
955.122	1466.13
955.426	1465.91
955.731	1446.7
956.035	1455.51
956.339	1441.5
956.643	1450.54
956.948	1434.04
957.252	1456.64
957.556	1427.26
957.86	1403.99
958.163	1432.91
958.467	1390.2
958.771	1420.26
959.075	1390.66
959.378	1396.08
959.682	1401.73
959.985	1397.66
960.289	1389.75
960.592	1417.55
960.896	1385.91
961.199	1361.28
961.502	1375.97
961.805	1359.92
962.108	1348.85
962.411	1349.98
962.714	1342.75
963.017	1356.98
963.32	1364.44
963.623	1313.37
963.926	1335.52
964.228	1336.42
964.531	1329.64
964.833	1322.86
965.136	1322.63
965.438	1305.91
965.741	1308.4
966.043	1290.09
966.345	1284.67
966.648	1282.18
966.95	1280.6
967.252	1280.6
967.554	1258
967.856	1286.03
968.158	1238.57
968.46	1249.19
968.761	1229.3
969.063	1259.59
969.365	1227.27
969.666	1253.03
969.968	1198.8
970.269	1233.15
970.571	1230.66
970.872	1239.93
971.174	1206.93
971.475	1236.31
971.776	1215.29
972.077	1206.25
972.378	1204.67
972.679	1216.87
972.98	1192.02
973.281	1201.51
973.582	1188.4
973.883	1192.92
974.183	1137.1
974.484	1175.75
974.785	1155.41
975.085	1163.77
975.386	1156.99
975.686	1136.65
975.986	1168.29
976.287	1159.25
976.587	1156.99
976.887	1163.09
977.187	1138.01
977.487	1149.53
977.787	1134.17
978.087	1116.76
978.387	1134.39
978.687	1098.69
978.987	1140.04
979.286	1138.01
979.586	1104.56
979.885	1119.25
980.185	1086.71
980.484	1113.37
980.784	1106.82
981.083	1066.82
981.382	1100.27
981.682	1087.16
981.981	1092.81
982.28	1077.44
982.579	1061.85
982.878	1084.45
983.177	1079.48
983.475	1085.13
983.774	1069.99
984.073	1059.36
984.372	1041.06
984.67	1079.48
984.969	1051.68
985.267	1072.92
985.566	1056.2
985.864	1057.78
986.162	1033.83
986.461	1039.7
986.759	1015.98
987.057	994.28
987.355	1006.48
987.653	989.54
987.951	990.44
988.249	1000.16
988.547	1008.74
988.844	992.47
989.142	979.59
989.44	974.4
989.737	1006.94
990.035	989.31
990.332	967.84
990.63	967.62
990.927	963.1
991.224	978.69
991.521	943.89
991.819	968.97
992.116	963.55
992.413	953.6
992.71	953.6
993.006	944.11
993.303	933.72
993.6	944.57
993.897	934.62
994.193	928.75
994.49	918.8
994.787	946.15
995.083	919.26
995.379	912.48
995.676	933.27
995.972	911.8
996.268	909.09
996.565	911.57
996.861	910.67
997.157	905.47
997.453	890.56
997.749	904.11
998.044	928.29
998.34	912.25
998.636	884
998.932	892.59
999.227	871.57
999.523	846.72
999.818	902.31
1000.114	862.53
1000.409	891.01
1000.704	876.54
1001	848.07
1001.295	868.64
1001.59	821.86
1001.885	837.68
1002.18	857.34
1002.475	839.71
1002.77	835.64
1003.065	829.54
1003.359	831.57
1003.654	829.54
1003.949	824.79
1004.243	829.31
1004.538	833.83
1004.832	818.24
1005.127	812.59
1005.421	797
1005.715	818.69
1006.009	825.25
1006.304	794.06
1006.598	793.84
1006.892	767.62
1007.186	781.63
1007.48	795.19
1007.773	782.76
1008.067	772.14
1008.361	772.59
1008.655	784.34
1008.948	769.2
1009.242	763.33
1009.535	764.68
1009.829	763.55
1010.122	757.45
1010.415	731.69
1010.708	741.41
1011.001	755.19
1011.295	757
1011.588	740.05
1011.881	735.76
1012.173	746.38
1012.466	726.94
1012.759	770.56
1013.052	732.82
1013.344	728.53
1013.637	718.58
1013.93	753.16
1014.222	711.8
1014.514	699.37
1014.807	700.28
1015.099	705.02
1015.391	692.82
1015.683	714.52
1015.976	717.68
1016.268	721.75
1016.56	710.22
1016.851	703.89
1017.143	684.91
1017.435	679.49
1017.727	698.02
1018.018	665.48
1018.31	670
1018.602	705.02
1018.893	694.4
1019.185	679.49
1019.476	671.8
1019.767	674.74
1020.058	660.05
1020.35	670.45
1020.641	658.7
1020.932	658.47
1021.223	667.28
1021.514	660.51
1021.804	658.92
1022.095	641.75
1022.386	640.62
1022.677	635.2
1022.967	604.69
1023.258	627.29
1023.548	645.36
1023.839	637.91
1024.129	622.09
1024.419	625.7
1024.709	632.94
1025	637.23
1025.29	598.59
1025.58	588.64
1025.87	616.89
1026.16	581.19
1026.449	600.85
1026.739	613.5
1027.029	619.15
1027.319	582.99
1027.608	573.28
1027.898	607.17
1028.187	591.35
1028.477	581.64
1028.766	577.34
1029.055	587.96
1029.344	587.74
1029.634	588.87
1029.923	569.89
1030.212	579.38
1030.501	587.06
1030.79	570.79
1031.078	556.1
1031.367	559.04
1031.656	552.03
1031.945	557.91
1032.233	545.71
1032.522	559.94
1032.81	565.59
1033.099	547.74
1033.387	548.87
1033.675	547.74
1033.963	559.26
1034.251	521.98
1034.54	524.69
1034.828	551.81
1035.116	527.63
1035.403	542.77
1035.691	536.89
1035.979	526.5
1036.267	513.62
1036.554	519.27
1036.842	532.15
1037.129	524.92
1037.417	508.87
1037.704	545.71
1037.992	527.4
1038.279	508.64
1038.566	520.62
1038.853	520.62
1039.14	520.62
