Data from foam1_polythene_foam_FLMS001491_00035.txt Node
Date: Wed Feb 08 10:54:44 GMT 2017
User: dcchb
Spectrometer: FLMS00149
Trigger mode: 0
Integration Time (sec): 2.000000E-2
Scans to average: 10
Electric dark correction enabled: true
Nonlinearity correction enabled: false
Boxcar width: 0
XAxis mode: Wavelengths
Number of Pixels in Spectrum: 2048
>>>>>Begin Spectral Data<<<<<
341.393	-43.52
341.776	-43.52
342.16	-43.52
342.543	-61.59
342.927	-72.44
343.31	-74.48
343.693	-72.89
344.077	-72.67
344.46	-45.55
344.843	-50.97
345.226	-55.04
345.61	-43.06
345.993	-35.61
346.376	-16.4
346.759	19.31
347.142	32.41
347.525	29.25
347.908	80.77
348.291	79.42
348.674	100.89
349.057	124.62
349.44	100.66
349.823	126.2
350.206	151.28
350.588	180.89
350.971	180.43
351.354	192.41
351.737	215.23
352.119	226.08
352.502	247.55
352.884	264.05
353.267	274.22
353.65	264.05
354.032	295.46
354.414	287.1
354.797	286.42
355.179	293.42
355.562	307.21
355.944	302.92
356.326	310.15
356.709	321.45
357.091	311.28
357.473	309.24
357.855	331.39
358.238	316.93
358.62	321.9
359.002	319.86
359.384	341.33
359.766	319.19
360.148	321.9
360.53	315.12
360.912	325.06
361.294	295.23
361.676	314.44
362.057	313.54
362.439	298.17
362.821	304.5
363.203	299.07
363.584	295.46
363.966	295.01
364.348	304.05
364.729	306.08
365.111	302.24
365.493	306.76
365.874	290.26
366.256	321.45
366.637	300.43
367.019	307.89
367.4	300.43
367.781	283.48
368.163	276.25
368.544	288.23
368.925	292.07
369.306	298.85
369.688	280.77
370.069	308.57
370.45	295.46
370.831	294.55
371.212	297.04
371.593	293.88
371.974	297.04
372.355	290.71
372.736	286.65
373.117	296.36
373.498	278.96
373.879	317.83
374.26	309.24
374.641	290.94
375.021	274.89
375.402	267.66
375.783	302.24
376.163	314.89
376.544	285.29
376.925	320.09
377.305	292.97
377.686	290.26
378.066	311.73
378.447	309.47
378.827	313.08
379.208	303.14
379.588	303.59
379.968	321.22
380.349	328
380.729	309.7
381.109	306.53
381.489	300.88
381.87	318.28
382.25	303.82
382.63	308.11
383.01	317.6
383.39	303.37
383.77	315.57
384.15	309.7
384.53	302.69
384.91	291.62
385.29	332.07
385.67	309.92
386.049	324.61
386.429	330.71
386.809	303.59
387.189	300.88
387.568	320.09
387.948	338.62
388.328	319.64
388.707	335.46
389.087	318.51
389.466	332.52
389.846	346.3
390.225	330.94
390.605	318.73
390.984	321.45
391.363	343.37
391.743	343.14
392.122	344.27
392.501	320.77
392.881	340.65
393.26	342.69
393.639	320.32
394.018	336.36
394.397	345.85
394.776	362.58
395.155	335.46
395.534	356.93
395.913	344.72
396.292	373.65
396.671	338.85
397.05	344.95
397.429	336.59
397.808	360.54
398.186	334.55
398.565	380.43
398.944	338.85
399.323	369.35
399.701	356.93
400.08	339.52
400.458	382.24
400.837	353.08
401.215	367.32
401.594	347.89
401.972	354.89
402.351	337.04
402.729	352.18
403.107	382.69
403.486	388.34
403.864	379.98
404.242	369.58
404.62	385.85
404.999	363.93
405.377	363.71
405.755	370.26
406.133	380.65
406.511	385.63
406.889	381.56
407.267	390.6
407.645	398.73
408.023	392.86
408.401	394.44
408.779	382.24
409.156	406.19
409.534	396.7
409.912	391.5
410.29	406.42
410.667	401.9
411.045	417.94
411.422	385.85
411.8	407.55
412.178	421.1
412.555	389.69
412.933	389.92
413.31	408.45
413.687	439.41
414.065	403.48
414.442	427.66
414.819	426.08
415.197	419.07
415.574	421.78
415.951	454.32
416.328	429.92
416.705	436.47
417.082	427.88
417.46	459.52
417.837	428.56
418.214	431.5
418.591	420.2
418.967	449.58
419.344	464.04
419.721	444.15
420.098	458.62
420.475	468.34
420.852	465.85
421.228	473.31
421.605	458.39
421.982	456.58
422.358	469.69
422.735	443.7
423.111	464.04
423.488	473.98
423.864	473.76
424.241	478.5
424.617	480.54
424.994	480.31
425.37	483.48
425.746	488.45
426.123	485.74
426.499	474.21
426.875	485.06
427.251	511.5
427.627	496.36
428.003	495.91
428.379	537.94
428.756	504.27
429.132	494.55
429.507	518.73
429.883	541.1
430.259	531.38
430.635	546.07
431.011	514.66
431.387	525.51
431.763	544.94
432.138	504.72
432.514	553.76
432.89	531.84
433.265	557.15
433.641	570.93
434.016	570.25
434.392	570.03
434.767	583.36
435.143	580.2
435.518	569.12
435.894	597.15
436.269	567.32
436.644	600.08
437.02	601.44
437.395	590.82
437.77	605.05
438.145	606.86
438.52	613.64
438.895	624.49
439.271	636.24
439.646	634.66
440.021	637.6
440.395	653.64
440.77	631.72
441.145	632.4
441.52	652.29
441.895	646.86
442.27	666.75
442.645	644.83
443.019	687.76
443.394	664.04
443.769	663.13
444.143	683.7
444.518	672.4
444.892	690.02
445.267	677.82
445.641	708.78
446.016	705.62
446.39	707.88
446.764	721.21
447.139	723.24
447.513	720.08
447.887	709.46
448.262	748.1
448.636	731.61
449.01	753.3
449.384	751.49
449.758	734.54
450.132	771.38
450.506	768.44
450.88	766.86
451.254	751.04
451.628	750.81
452.002	755.56
452.376	757.59
452.75	747.88
453.123	754.66
453.497	796.46
453.871	809.34
454.244	810.25
454.618	799.4
454.992	826.52
455.365	800.08
455.739	820.87
456.112	862.9
456.486	807.76
456.859	840.08
457.232	832.17
457.606	834.65
457.979	829.68
458.352	858.38
458.725	868.55
459.099	861.77
459.472	873.3
459.845	883.69
460.218	876.91
460.591	877.59
460.964	875.78
461.337	895.44
461.71	894.99
462.083	887.76
462.456	894.54
462.829	883.47
463.201	912.17
463.574	890.7
463.947	913.3
464.32	937.7
464.692	942
465.065	949.9
465.438	937.48
465.81	983.35
466.183	937.93
466.555	966.85
466.928	958.72
467.3	970.47
467.672	955.55
468.045	990.13
468.417	985.61
468.789	1002.33
469.161	1010.02
469.534	997.13
469.906	1020.86
470.278	1034.87
470.65	1035.55
471.022	1039.85
471.394	1066.29
471.766	1087.3
472.138	1107.41
472.51	1124.36
472.882	1123.46
473.253	1129.56
473.625	1137.47
473.997	1164.14
474.369	1156.45
474.74	1152.61
475.112	1159.16
475.484	1166.17
475.855	1205.94
476.227	1191.71
476.598	1243.68
476.97	1209.78
477.341	1297.69
477.713	1276.22
478.084	1268.77
478.455	1273.29
478.827	1330.69
479.198	1352.83
479.569	1364.81
479.94	1337.69
480.311	1368.42
480.682	1360.29
481.053	1420.17
481.424	1435.54
481.795	1417.46
482.166	1453.62
482.537	1485.48
482.908	1507.63
483.279	1498.82
483.65	1558.7
484.021	1554.86
484.391	1586.95
484.762	1559.15
485.133	1612.03
485.503	1587.18
485.874	1635.31
486.244	1668.53
486.615	1663.33
486.985	1697.91
487.356	1708.98
487.726	1718.25
488.097	1746.27
488.467	1765.7
488.837	1768.19
489.207	1800.05
489.578	1821.29
489.948	1824.46
490.318	1857.68
490.688	1860.61
491.058	1846.6
491.428	1945.81
491.798	1940.39
492.168	1914.85
492.538	1968.86
492.908	2018.12
493.278	1997.11
493.648	1986.71
494.017	2018.35
494.387	2037.11
494.757	2045.02
495.126	2086.15
495.496	2087.05
495.866	2093.83
496.235	2142.42
496.605	2115.52
496.974	2133.15
497.344	2188.52
497.713	2202.53
498.082	2186.48
498.452	2221.28
498.821	2209.76
499.19	2250.44
499.559	2252.24
499.928	2245.24
500.298	2276.2
500.667	2295.63
501.036	2284.33
501.405	2326.37
501.774	2298.57
502.143	2329.76
502.512	2335.18
502.88	2357.1
503.249	2359.81
503.618	2371.34
503.987	2409.53
504.356	2400.26
504.724	2461.5
505.093	2448.4
505.462	2458.79
505.83	2454.95
506.199	2515.29
506.567	2516.42
506.936	2499.02
507.304	2579.69
507.672	2590.54
508.041	2604.55
508.409	2570.88
508.777	2612.46
509.145	2647.03
509.514	2658.56
509.882	2670.09
510.25	2658.79
510.618	2663.31
510.986	2699.46
511.354	2727.03
511.722	2722.74
512.09	2693.81
512.458	2718.9
512.826	2744.21
513.193	2792.34
513.561	2806.58
513.929	2822.4
514.297	2849.29
514.664	2831.44
515.032	2829.18
515.4	2918.67
515.767	2922.06
516.135	2913.24
516.502	2894.71
516.869	2930.87
517.237	2983.52
517.604	2959.57
517.972	3015.39
518.339	3043.18
518.706	3014.03
519.073	3085.67
519.44	3059.45
519.808	3082.73
520.175	3086.8
520.542	3142.62
520.909	3148.26
521.276	3182.39
521.643	3196.85
522.009	3168.83
522.376	3217.64
522.743	3265.1
523.11	3304.42
523.477	3306.9
523.843	3317.75
524.21	3339.67
524.577	3390.29
524.943	3394.59
525.31	3428.48
525.676	3459.22
526.043	3439.1
526.409	3454.47
526.776	3485.43
527.142	3467.35
527.508	3538.08
527.874	3550.74
528.241	3599.33
528.607	3611.76
528.973	3645.2
529.339	3652.66
529.705	3676.39
530.071	3672.09
530.437	3707.57
530.803	3737.85
531.169	3729.72
531.535	3756.61
531.901	3759.32
532.267	3709.83
532.632	3760.23
532.998	3804.29
533.364	3873.22
533.73	3810.85
534.095	3850.62
534.461	3853.78
534.826	3916.38
535.192	3862.37
535.557	3929.49
535.923	3893.1
536.288	3971.52
536.653	3931.75
537.019	3953.44
537.384	3975.59
537.749	4020.78
538.114	3982.14
538.479	4031.86
538.845	4023.5
539.21	4030.5
539.575	4051.74
539.94	4110.5
540.305	4103.49
540.67	4096.26
541.034	4108.69
541.399	4145.3
541.764	4117.05
542.129	4185.53
542.494	4184.85
542.858	4187.79
543.223	4196.6
543.587	4226.65
543.952	4229.82
544.316	4191.85
544.681	4239.54
545.045	4256.03
545.41	4233.21
545.774	4273.43
546.138	4287.67
546.503	4274.56
546.867	4289.25
547.231	4348.46
547.595	4355.69
547.959	4374.9
548.324	4376.25
548.688	4353.2
549.052	4398.18
549.416	4448.12
549.779	4399.08
550.143	4434.78
550.507	4444.95
550.871	4479.3
551.235	4444.05
551.599	4514.1
551.962	4498.51
552.326	4528.12
552.689	4569.24
553.053	4550.94
553.417	4520.88
553.78	4637.27
554.143	4612.86
554.507	4643.82
554.87	4634.55
555.234	4706.19
555.597	4642.01
555.96	4648.79
556.323	4722.91
556.686	4712.97
557.05	4739.64
557.413	4766.98
557.776	4817.37
558.139	4788.22
558.502	4813.53
558.865	4878.84
559.228	4881.55
559.59	4883.13
559.953	4846.75
560.316	4921.1
560.679	4945.51
561.041	5011.49
561.404	4995.22
561.767	5020.76
562.129	4989.35
562.492	5076.58
562.854	5071.6
563.217	5035.22
563.579	5117.7
563.941	5132.39
564.304	5182.34
564.666	5181.88
565.028	5213.52
565.39	5189.34
565.753	5202.67
566.115	5224.14
566.477	5260.07
566.839	5262.79
567.201	5276.12
567.563	5282.67
567.925	5384.82
568.287	5387.75
568.648	5378.04
569.01	5407.64
569.372	5464.36
569.734	5456.45
570.095	5486.06
570.457	5486.96
570.819	5510.24
571.18	5525.6
571.542	5495.1
571.903	5517.92
572.265	5537.35
572.626	5558.37
572.987	5608.31
573.349	5645.83
573.71	5613.51
574.071	5595.21
574.432	5639.05
574.794	5701.64
575.155	5660.52
575.516	5669.1
575.877	5704.81
576.238	5698.93
576.599	5723.34
576.96	5774.18
577.32	5763.79
577.681	5751.13
578.042	5804.01
578.403	5749.1
578.763	5754.98
579.124	5770.12
579.485	5897.8
579.845	5824.58
580.206	5755.43
580.566	5787.97
580.927	5773.05
581.287	5879.27
581.648	5821.87
582.008	5842.66
582.368	5825.93
582.728	5859.38
583.089	5878.14
583.449	5854.18
583.809	5892.83
584.169	5844.92
584.529	5844.92
584.889	5842.43
585.249	5822.09
585.609	5790.91
585.969	5864.35
586.329	5879.94
586.688	5848.31
587.048	5895.54
587.408	5895.09
587.768	5867.97
588.127	5885.37
588.487	5872.49
588.846	5928.53
589.206	5799.27
589.565	5825.48
589.925	5895.09
590.284	5841.3
590.643	5898.7
591.003	5840.62
591.362	5893.5
591.721	5885.14
592.08	5937.34
592.44	5874.07
592.799	5910.23
593.158	5883.11
593.517	5845.59
593.876	5885.37
594.235	5890.11
594.593	5934.86
594.952	5878.81
595.311	5844.69
595.67	5868.65
596.029	5910.23
596.387	5924.01
596.746	5939.38
597.104	5885.82
597.463	5901.41
597.822	5920.85
598.18	5882.88
598.538	5883.79
598.897	5922.43
599.255	5844.24
599.613	5904.12
599.972	5881.98
600.33	5940.28
600.688	5930.56
601.046	5892.83
601.404	5966.5
601.762	5944.8
602.12	5969.43
602.478	5947.29
602.836	5932.37
603.194	5918.36
603.552	6004.23
603.91	5924.69
604.268	5943.22
604.625	5907.06
604.983	5972.37
605.341	5946.16
605.698	5979.15
606.056	5969.43
606.413	5998.59
606.771	5955.42
607.128	6009.21
607.485	5958.36
607.843	5945.48
608.2	5995.65
608.557	5986.16
608.914	5948.87
609.272	5994.97
609.629	6057.11
609.986	6000.17
610.343	6003.33
610.7	6100.5
611.057	6071.8
611.414	6009.43
611.771	6040.62
612.127	6046.04
612.484	6060.5
612.841	6022.31
613.198	5987.06
613.554	6025.48
613.911	6102.76
614.267	6045.59
614.624	6047.17
614.98	6049.66
615.337	6094.4
615.693	6042.88
616.05	6089.43
616.406	6101.86
616.762	6094.18
617.118	6039.49
617.475	6082.65
617.831	6067.51
618.187	6064.8
618.543	6123.33
618.899	6085.14
619.255	6106.38
619.611	6142.99
619.967	6124.23
620.323	6152.25
620.678	6101.41
621.034	6081.97
621.39	6085.14
621.746	6042.43
622.101	6113.61
622.457	6059.15
622.812	6073.39
623.168	6111.12
623.523	6081.97
623.879	6151.35
624.234	6063.89
624.589	6058.92
624.945	6063.44
625.3	6043.1
625.655	6077.68
626.01	6088.53
626.365	6009.88
626.72	6048.3
627.075	6121.07
627.43	6054.85
627.785	6026.38
628.14	6052.6
628.495	6054.18
628.85	6011.92
629.205	6003.78
629.559	6033.16
629.914	6033.39
630.269	6030.45
630.623	6003.33
630.978	5962.2
631.332	5975.31
631.687	6000.62
632.041	6016.89
632.396	5956.55
632.75	5956.33
633.104	5974.18
633.459	5941.86
633.813	5940.06
634.167	5939.15
634.521	5927.17
634.875	5941.64
635.229	5910.68
635.583	5839.72
635.937	5836.56
636.291	5879.49
636.645	5901.41
636.999	5835.88
637.352	5854.63
637.706	5805.82
638.06	5843.56
638.413	5812.38
638.767	5782.77
639.121	5771.25
639.474	5817.8
639.828	5757.69
640.181	5747.52
640.534	5772.6
640.888	5770.12
641.241	5687.86
641.594	5796.56
641.947	5780.06
642.301	5725.82
642.654	5677.46
643.007	5737.8
643.36	5677.92
643.713	5709.1
644.066	5723.79
644.419	5610.12
644.771	5587.97
645.124	5555.66
645.477	5543.23
645.83	5485.15
646.182	5472.27
646.535	5493.29
646.888	5517.69
647.24	5472.95
647.593	5525.6
647.945	5492.61
648.298	5520.41
648.65	5481.76
649.002	5450.8
649.355	5512.27
649.707	5414.19
650.059	5421.88
650.411	5485.38
650.763	5516.56
651.115	5515.43
651.467	5489.67
651.819	5498.26
652.171	5547.52
652.523	5504.13
652.875	5504.59
653.227	5469.33
653.578	5502.1
653.93	5467.3
654.282	5410.35
654.633	5447.19
654.985	5450.13
655.337	5402.22
655.688	5419.39
656.039	5469.79
656.391	5364.48
656.742	5412.16
657.094	5413.74
657.445	5448.32
657.796	5428.66
658.147	5436.57
658.498	5406.28
658.849	5351.37
659.2	5418.49
659.551	5352.5
659.902	5407.87
660.253	5357.7
660.604	5368.55
660.955	5341.88
661.306	5331.26
661.656	5342.56
662.007	5341.65
662.358	5381.88
662.708	5324.25
663.059	5376.23
663.409	5308.66
663.76	5343.91
664.11	5343.91
664.461	5346.4
664.811	5305.72
665.161	5346.17
665.511	5331.71
665.862	5264.82
666.212	5344.59
666.562	5298.04
666.912	5321.54
667.262	5314.31
667.612	5258.72
667.962	5276.12
668.312	5222.33
668.662	5246.06
669.011	5316.34
669.361	5281.54
669.711	5282.45
670.06	5278.6
670.41	5200.19
670.76	5238.61
671.109	5281.32
671.459	5265.72
671.808	5231.83
672.157	5251.26
672.507	5203.35
672.856	5207.19
673.205	5193.41
673.554	5228.66
673.904	5224.14
674.253	5238.15
674.602	5187.08
674.951	5147.08
675.3	5132.17
675.649	5133.75
675.998	5195.22
676.346	5160.19
676.695	5176.46
677.044	5114.54
677.393	5148.66
677.741	5150.47
678.09	5124.48
678.438	5153.86
678.787	5136.69
679.135	5140.75
679.484	5132.17
679.832	5096.69
680.181	5081.55
680.529	5112.51
680.877	5061.66
681.225	5120.87
681.573	5090.81
681.922	5070.25
682.27	5050.36
682.618	5042.45
682.966	5053.3
683.314	5034.99
683.661	5023.02
684.009	4953.64
684.357	4995.45
684.705	4942.12
685.053	4982.34
685.4	4933.08
685.748	4931.04
686.095	4960.19
686.443	4924.04
686.79	4903.47
687.138	4951.38
687.485	4895.11
687.832	4876.81
688.18	4881.1
688.527	4912.74
688.874	4879.97
689.221	4902.57
689.568	4840.65
689.915	4871.84
690.262	4852.85
690.609	4821.89
690.956	4791.39
691.303	4843.81
691.65	4791.61
691.997	4789.35
692.344	4729.47
692.69	4730.14
693.037	4791.39
693.383	4709.35
693.73	4714.55
694.077	4714.1
694.423	4667.55
694.769	4700.31
695.116	4715.46
695.462	4696.02
695.808	4664.61
696.155	4657.15
696.501	4620.99
696.847	4614.89
697.193	4561.11
697.539	4582.13
697.885	4554.1
698.231	4555.23
698.577	4531.96
698.923	4580.32
699.269	4538.74
699.614	4502.81
699.96	4486.31
700.306	4495.35
700.651	4481.11
700.997	4486.08
701.342	4436.82
701.688	4492.18
702.033	4489.7
702.379	4419.64
702.724	4395.01
703.069	4402.69
703.415	4340.32
703.76	4334
704.105	4388.23
704.45	4385.97
704.795	4357.72
705.14	4304.17
705.485	4328.8
705.83	4281.57
706.175	4326.76
706.52	4297.39
706.865	4255.58
707.209	4235.24
707.554	4294.68
707.899	4292.87
708.243	4259.42
708.588	4250.16
708.932	4219.87
709.277	4224.85
709.621	4236.82
709.966	4171.29
710.31	4211.51
710.654	4093.78
710.998	4168.8
711.342	4176.26
711.687	4164.51
712.031	4118.41
712.375	4125.87
712.719	4143.72
713.063	4138.97
713.407	4175.58
713.75	4103.04
714.094	4100.1
714.438	4071.63
714.782	4092.87
715.125	4051.07
715.469	4067.11
715.812	4028.24
716.156	4031.86
716.499	4047.22
716.843	4015.59
717.186	4038.18
717.53	4035.92
717.873	3992.08
718.216	3996.6
718.559	4008.36
718.902	3966.55
719.246	3967.23
719.589	3960.45
719.932	3941.92
720.275	3921.8
720.617	3948.7
720.96	3967.9
721.303	3942.59
721.646	3962.93
721.989	3932.65
722.331	3903.05
722.674	3894.46
723.016	3908.24
723.359	3918.64
723.701	3896.72
724.044	3883.84
724.386	3852.2
724.729	3890.62
725.071	3845.42
725.413	3859.88
725.755	3856.27
726.097	3846.78
726.439	3791.41
726.782	3818.3
727.124	3818.3
727.465	3791.86
727.807	3831.18
728.149	3792.99
728.491	3770.62
728.833	3770.85
729.175	3770.62
729.516	3783.5
729.858	3766.55
730.199	3753.45
730.541	3757.29
730.882	3765.65
731.224	3768.59
731.565	3737.4
731.906	3701.7
732.248	3713.22
732.589	3688.14
732.93	3750.06
733.271	3682.26
733.612	3735.14
733.953	3699.66
734.294	3669.61
734.635	3646.56
734.976	3648.82
735.317	3686.56
735.658	3724.29
735.999	3696.72
736.339	3702.37
736.68	3631.87
737.021	3692.88
737.361	3629.16
737.702	3663.28
738.042	3593.22
738.383	3635.26
738.723	3650.85
739.063	3656.05
739.404	3588.93
739.744	3614.24
740.084	3569.27
740.424	3615.82
740.764	3576.28
741.104	3620.79
741.444	3570.4
741.784	3568.37
742.124	3555.71
742.464	3572.66
742.804	3567.24
743.143	3540.8
743.483	3507.35
743.823	3574.24
744.162	3575.82
744.502	3582.6
744.841	3503.28
745.181	3576.28
745.52	3512.1
745.86	3510.74
746.199	3518.42
746.538	3540.34
746.877	3505.77
747.216	3496.05
747.556	3481.59
747.895	3503.06
748.234	3445.88
748.573	3448.6
748.911	3456.05
749.25	3437.97
749.589	3424.19
749.928	3490.63
750.267	3414.47
750.605	3437.3
750.944	3452.89
751.283	3417.18
751.621	3440.69
751.96	3378.77
752.298	3398.43
752.636	3429.16
752.975	3411.53
753.313	3376.96
753.651	3375.38
753.989	3362.95
754.327	3357.75
754.666	3348.03
755.004	3311.65
755.342	3329.73
755.679	3331.54
756.017	3299.45
756.355	3357.3
756.693	3328.6
757.031	3319.33
757.368	3271.65
757.706	3310.29
758.044	3272.78
758.381	3294.7
758.719	3265.1
759.056	3261.71
759.394	3228.04
759.731	3264.42
760.068	3221.03
760.405	3218.77
760.743	3236.85
761.08	3209.05
761.417	3164.99
761.754	3193.46
762.091	3166.34
762.428	3146.91
762.765	3137.19
763.102	3181.71
763.438	3157.53
763.775	3117.76
764.112	3096.74
764.449	3161.15
764.785	3122.5
765.122	3107.59
765.458	3071.66
765.795	3116.85
766.131	3074.82
766.467	3086.35
766.804	3044.76
767.14	3053.35
767.476	3068.94
767.812	3028.49
768.148	3035.95
768.485	2970.64
768.821	3016.52
769.157	2992.56
769.492	3002.28
769.828	2979.91
770.164	2978.78
770.5	2924.32
770.836	2943.52
771.171	2939.23
771.507	2889.06
771.842	2942.39
772.178	2925.45
772.513	2920.7
772.849	2945.11
773.184	2902.4
773.519	2869.85
773.855	2877.99
774.19	2862.17
774.525	2860.81
774.86	2845
775.195	2880.02
775.53	2849.97
775.865	2839.57
776.2	2816.97
776.535	2811.32
776.87	2779.69
777.205	2799.57
777.539	2756.41
777.874	2761.38
778.209	2728.39
778.543	2751.89
778.878	2734.94
779.212	2735.62
779.547	2723.87
779.881	2718.22
780.215	2671.67
780.55	2701.95
780.884	2700.37
781.218	2680.93
781.552	2743.08
781.886	2663.08
782.22	2620.14
782.554	2664.66
782.888	2652.68
783.222	2619.24
783.556	2611.33
783.889	2596.87
784.223	2601.84
784.557	2595.96
784.89	2609.07
785.224	2544.89
785.557	2575.17
785.891	2572.23
786.224	2548.51
786.558	2568.17
786.891	2537.43
787.224	2516.19
787.557	2513.71
787.891	2516.42
788.224	2510.09
788.557	2516.42
788.89	2502.18
789.223	2489.3
789.556	2455.85
789.888	2482.07
790.221	2450.66
790.554	2430.77
790.887	2442.52
791.219	2431.9
791.552	2456.76
791.884	2419.47
792.217	2425.8
792.549	2384.67
792.882	2372.92
793.214	2388.96
793.546	2402.75
793.879	2388.51
794.211	2373.82
794.543	2387.15
794.875	2388.96
795.207	2337.89
795.539	2346.48
795.871	2347.61
796.203	2342.41
796.535	2298.34
796.867	2335.4
797.198	2331.11
797.53	2308.96
797.862	2284.56
798.193	2332.01
798.525	2285.01
798.856	2298.12
799.188	2257.21
799.519	2274.16
799.85	2281.85
800.182	2251.79
800.513	2248.85
800.844	2273.03
801.175	2267.84
801.506	2243.43
801.837	2208.18
802.168	2206.14
802.499	2230.32
802.83	2198.01
803.161	2220.38
803.491	2169.53
803.822	2184.67
804.153	2170.89
804.483	2163.21
804.814	2157.1
805.145	2169.31
805.475	2162.3
805.805	2177.67
806.136	2129.76
806.466	2141.29
806.796	2112.13
807.126	2104.45
807.457	2165.92
807.787	2100.83
808.117	2109.65
808.447	2137.22
808.777	2105.35
809.107	2085.69
809.436	2120.5
809.766	2113.04
810.096	2077.11
810.426	2078.01
810.755	2074.85
811.085	2088.86
811.414	2120.04
811.744	2101.74
812.073	2080.04
812.403	2044.11
812.732	2028.97
813.061	2041.4
813.39	2049.99
813.719	2036.43
814.049	2092.7
814.378	2065.13
814.707	1991.68
815.036	2016.32
815.365	2039.14
815.693	2006.6
816.022	2005.02
816.351	2020.84
816.68	1988.75
817.008	2019.48
817.337	2002.31
817.665	1984.68
817.994	2005.7
818.322	1979.26
818.651	1957.11
818.979	1951.46
819.307	1972.7
819.636	1967.96
819.964	1948.07
820.292	1971.35
820.62	1945.81
820.948	1958.24
821.276	1984.45
821.604	1925.25
821.932	1974.28
822.259	1947.17
822.587	1985.36
822.915	1962.53
823.243	1949.43
823.57	1928.86
823.898	1946.49
824.225	1939.03
824.553	1930.44
824.88	1948.07
825.207	1946.04
825.535	1974.74
825.862	1925.47
826.189	1932.7
826.516	1937.45
826.843	1928.64
827.17	1962.76
827.497	1947.17
827.824	1893.38
828.151	1942.87
828.478	1929.09
828.805	1933.38
829.131	1915.75
829.458	1884.12
829.785	1947.62
830.111	1926.38
830.438	1956.66
830.764	1953.49
831.09	1938.8
831.417	1929.99
831.743	1924.79
832.069	1914.4
832.395	1941.97
832.722	1928.18
833.048	1904.23
833.374	1900.39
833.7	1914.4
834.026	1939.48
834.351	1916.21
834.677	1908.98
835.003	1930.9
835.329	1905.13
835.654	1921.86
835.98	1902.2
836.306	1907.39
836.631	1932.93
836.956	1901.29
837.282	1878.24
837.607	1868.75
837.932	1887.05
838.258	1887.28
838.583	1881.63
838.908	1864.23
839.233	1876.66
839.558	1879.6
839.883	1900.84
840.208	1838.02
840.533	1894.29
840.858	1859.71
841.182	1849.09
841.507	1856.77
841.832	1875.76
842.156	1856.77
842.481	1848.41
842.805	1885.92
843.13	1867.39
843.454	1851.8
843.778	1830.33
844.103	1846.83
844.427	1815.42
844.751	1850.45
845.075	1842.99
845.399	1840.05
845.723	1814.06
846.047	1821.29
846.371	1819.94
846.695	1789.2
847.019	1776.32
847.343	1778.36
847.666	1788.3
847.99	1759.15
848.313	1769.77
848.637	1753.73
848.96	1772.03
849.284	1770.9
849.607	1738.58
849.931	1743.56
850.254	1738.58
850.577	1710.11
850.9	1720.73
851.223	1727.74
851.546	1694.29
851.869	1695.2
852.192	1716.44
852.515	1715.99
852.838	1690.68
853.161	1695.42
853.483	1694.74
853.806	1692.26
854.129	1681.64
854.451	1703.56
854.774	1645.71
855.096	1691.81
855.419	1683.22
855.741	1666.72
856.063	1665.37
856.385	1624.69
856.708	1650.45
857.03	1610.45
857.352	1628.3
857.674	1640.73
857.996	1609.77
858.318	1591.02
858.64	1624.01
858.961	1607.51
859.283	1629.89
859.605	1623.11
859.926	1595.99
860.248	1592.6
860.57	1586.5
860.891	1560.06
861.212	1582.2
861.534	1581.75
861.855	1579.72
862.176	1567.74
862.498	1591.02
862.819	1565.48
863.14	1565.03
863.461	1602.09
863.782	1560.74
864.103	1558.25
864.424	1586.05
864.745	1584.92
865.065	1597.12
865.386	1538.36
865.707	1567.97
866.027	1566.61
866.348	1528.19
866.668	1568.42
866.989	1555.99
867.309	1538.82
867.63	1519.15
867.95	1518.48
868.27	1515.54
868.59	1517.12
868.91	1537.46
869.23	1521.87
869.55	1518.03
869.87	1539.72
870.19	1529.1
870.51	1538.36
870.83	1513.05
871.15	1536.33
871.469	1505.82
871.789	1515.77
872.109	1501.08
872.428	1492.71
872.748	1499.49
873.067	1505.37
873.386	1519.83
873.706	1503.79
874.025	1494.07
874.344	1471.92
874.663	1528.65
874.982	1490.23
875.301	1487.74
875.62	1486.39
875.939	1480.29
876.258	1461.3
876.577	1473.51
876.896	1460.85
877.214	1473.96
877.533	1477.12
877.852	1468.99
878.17	1472.15
878.489	1463.11
878.807	1473.05
879.125	1461.76
879.444	1437.35
879.762	1460.85
880.08	1443.45
880.398	1454.98
880.716	1468.76
881.034	1444.13
881.352	1447.74
881.67	1450.46
881.988	1451.13
882.306	1444.58
882.624	1443.45
882.941	1441.42
883.259	1429.89
883.577	1422.66
883.894	1428.76
884.212	1470.79
884.529	1421.98
884.846	1437.8
885.164	1400.74
885.481	1412.49
885.798	1407.07
886.115	1396.22
886.432	1419.72
886.75	1381.31
887.067	1398.25
887.383	1389.44
887.7	1386.5
888.017	1391.02
888.334	1379.5
888.651	1395.99
888.967	1409.1
889.284	1391.25
889.6	1380.18
889.917	1376.11
890.233	1364.81
890.55	1376.79
890.866	1354.19
891.182	1345.37
891.498	1340.4
891.815	1352.83
892.131	1374.53
892.447	1351.02
892.763	1347.86
893.079	1384.92
893.395	1335.21
893.71	1354.64
894.026	1340.85
894.342	1336.56
894.657	1329.56
894.973	1310.8
895.289	1310.35
895.604	1324.81
895.92	1304.02
896.235	1292.72
896.55	1303.57
896.865	1313.96
897.181	1277.13
897.496	1294.3
897.811	1329.56
898.126	1311.25
898.441	1292.49
898.756	1273.74
899.071	1290.23
899.386	1292.04
899.7	1278.71
900.015	1253.85
900.33	1282.33
900.644	1285.94
900.959	1253.17
901.273	1259.73
901.588	1240.52
901.902	1274.87
902.216	1242.55
902.531	1231.03
902.845	1215.43
903.159	1240.74
903.473	1243.46
903.787	1237.13
904.101	1191.71
904.415	1258.14
904.729	1229.67
905.042	1193.51
905.356	1189.67
905.67	1213.4
905.984	1199.84
906.297	1204.14
906.611	1189.22
906.924	1208.88
907.237	1170.46
907.551	1167.53
907.864	1172.27
908.177	1172.05
908.491	1180.86
908.804	1150.8
909.117	1163.01
909.43	1172.95
909.743	1146.51
910.056	1149.45
910.368	1147.87
910.681	1148.54
910.994	1145.61
911.307	1128.43
911.619	1149.67
911.932	1130.92
912.244	1117.58
912.557	1134.53
912.869	1121.43
913.181	1122.33
913.494	1132.5
913.806	1104.7
914.118	1080.07
914.43	1117.36
914.742	1100.18
915.054	1087.75
915.366	1093.18
915.678	1099.96
915.99	1075.78
916.302	1097.25
916.613	1093.63
916.925	1083.46
917.236	1066.96
917.548	1052.95
917.859	1077.81
918.171	1067.64
918.482	1099.5
918.794	1043.91
919.105	1063.12
919.416	1033.07
919.727	1059.05
920.038	1053.86
920.349	1058.38
920.66	1003.46
920.971	1061.99
921.282	1055.21
921.593	1011.6
921.903	1025.16
922.214	1024.03
922.525	1037.13
922.835	1014.08
923.146	1029.68
923.456	994.42
923.767	1021.09
924.077	993.52
924.387	998.04
924.697	984.25
925.008	999.17
925.318	999.39
925.628	980.86
925.938	992.62
926.248	987.64
926.558	984.71
926.867	978.83
927.177	965.5
927.487	959.17
927.796	958.27
928.106	979.96
928.416	981.77
928.725	984.71
929.034	960.98
929.344	965.27
929.653	958.94
929.962	910.13
930.271	940.87
930.581	941.32
930.89	955.55
931.199	931.15
931.508	921.43
931.817	918.27
932.125	909.45
932.434	934.09
932.743	914.2
933.051	916.68
933.36	892.96
933.669	906.97
933.977	917.59
934.286	911.94
934.594	904.26
934.902	893.18
935.21	893.18
935.519	912.39
935.827	899.06
936.135	868.1
936.443	864.26
936.751	878.49
937.059	866.52
937.367	896.8
937.674	864.93
937.982	870.36
938.29	851.6
938.597	872.62
938.905	841.66
939.213	857.48
939.52	862.9
939.827	864.26
940.135	849.34
940.442	844.82
940.749	861.09
941.056	847.08
941.363	847.08
941.67	822.22
941.977	851.83
942.284	857.93
942.591	839.4
942.898	847.76
943.205	836.01
943.511	829.23
943.818	822.9
944.125	813.64
944.431	823.13
944.738	816.12
945.044	814.54
945.35	806.86
945.657	817.48
945.963	814.54
946.269	821.55
946.575	825.39
946.881	819.51
947.187	816.35
947.493	802.34
947.799	796.01
948.105	794.2
948.41	780.19
948.716	765.05
949.022	786.07
949.327	780.64
949.633	809.12
949.938	794.88
950.244	776.8
950.549	784.26
950.854	781.77
951.16	780.87
951.465	788.33
951.77	737.25
952.075	764.37
952.38	789.23
952.685	744.49
952.99	762.79
953.294	756.92
953.599	767.08
953.904	768.67
954.209	748.1
954.513	739.51
954.818	750.36
955.122	749.91
955.426	744.26
955.731	762.11
956.035	734.99
956.339	746.97
956.643	729.35
956.948	729.8
957.252	737.25
957.556	729.12
957.86	723.7
958.163	728.67
958.467	728.89
958.771	729.8
959.075	712.85
959.378	733.19
959.682	711.27
959.985	724.83
960.289	707.42
960.592	726.86
960.896	723.47
961.199	681.21
961.502	709.01
961.805	719.63
962.108	700.87
962.411	681.21
962.714	692.06
963.017	705.62
963.32	706.75
963.623	680.53
963.926	683.24
964.228	685.96
964.531	674.66
964.833	669.01
965.136	690.02
965.438	674.66
965.741	698.84
966.043	677.82
966.345	660.87
966.648	654.32
966.95	669.46
967.252	672.4
967.554	682.57
967.856	662.68
968.158	671.04
968.46	661.1
968.761	671.95
969.063	658.84
969.365	660.87
969.666	649.8
969.968	656.13
970.269	662.45
970.571	664.26
970.872	647.77
971.174	640.08
971.475	636.24
971.776	645.96
972.077	645.51
972.378	637.37
972.679	643.25
972.98	643.47
973.281	658.39
973.582	635.34
973.883	624.49
974.183	647.99
974.484	646.41
974.785	631.04
975.085	636.69
975.386	638.05
975.686	620.65
975.986	619.97
976.287	638.73
976.587	616.13
976.887	620.87
977.187	603.92
977.487	612.74
977.787	592.85
978.087	595.79
978.387	598.95
978.687	598.5
978.987	588.78
979.286	585.85
979.586	612.74
979.885	611.38
980.185	608.67
980.484	609.8
980.784	611.16
981.083	587.43
981.382	605.96
981.682	593.53
981.981	569.35
982.28	592.17
982.579	587.2
982.878	590.59
983.177	592.63
983.475	573.19
983.774	575.45
984.073	581.1
984.372	584.94
984.67	566.41
984.969	589.69
985.267	562.12
985.566	577.94
985.864	584.04
986.162	571.16
986.461	549.24
986.759	566.64
987.057	567.54
987.355	552.63
987.653	562.34
987.951	556.24
988.249	566.86
988.547	557.82
988.844	562.57
989.142	574.55
989.44	547.88
989.737	569.58
990.035	545.17
990.332	530.03
990.63	565.73
990.927	558.73
991.224	563.7
991.521	562.34
991.819	550.82
992.116	564.38
992.413	542.68
992.71	564.6
993.006	560.76
993.303	551.72
993.6	553.76
993.897	538.16
994.193	532.74
994.49	532.51
994.787	518.28
995.083	527.54
995.379	521.22
995.676	532.97
995.972	522.12
996.268	506.98
996.565	536.58
996.861	517.83
997.157	514.66
997.453	532.51
997.749	517.37
998.044	535.9
998.34	514.66
998.636	557.15
998.932	521.44
999.227	503.36
999.523	502.68
999.818	490.48
1000.114	521.22
1000.409	509.92
1000.704	504.04
1001	528.45
1001.295	499.97
1001.59	499.29
1001.885	506.3
1002.18	503.36
1002.475	510.82
1002.77	487.09
1003.065	496.36
1003.359	508.79
1003.654	487.77
1003.949	491.84
1004.243	495.45
1004.538	487.77
1004.832	480.76
1005.127	495.45
1005.421	508.56
1005.715	488.22
1006.009	481.22
1006.304	495.68
1006.598	477.6
1006.892	481.89
1007.186	482.35
1007.48	476.47
1007.773	473.31
1008.067	510.14
1008.361	465.17
1008.655	481.67
1008.948	478.5
1009.242	489.35
1009.535	462.23
1009.829	504.72
1010.122	473.53
1010.415	482.8
1010.708	468.11
1011.001	463.82
1011.295	476.24
1011.588	457.49
1011.881	462.91
1012.173	457.26
1012.466	474.89
1012.759	475.34
1013.052	442.35
1013.344	464.49
1013.637	483.48
1013.93	444.61
1014.222	457.04
1014.514	450.03
1014.807	443.93
1015.099	437.83
1015.391	463.36
1015.683	448.67
1015.976	460.2
1016.268	434.44
1016.56	431.73
1016.851	442.35
1017.143	456.13
1017.435	449.58
1017.727	434.66
1018.018	434.21
1018.31	438.51
1018.602	422.69
1018.893	445.06
1019.185	440.09
1019.476	441.22
1019.767	424.04
1020.058	448.9
1020.35	430.37
1020.641	442.35
1020.932	429.47
1021.223	438.28
1021.514	425.62
1021.804	444.15
1022.095	433.31
1022.386	390.37
1022.677	430.82
1022.967	412.97
1023.258	408
1023.548	431.73
1023.839	417.49
1024.129	438.51
1024.419	401.22
1024.709	427.43
1025	417.94
1025.29	428.56
1025.58	426.53
1025.87	413.2
1026.16	406.64
1026.449	425.17
1026.739	422.69
1027.029	403.48
1027.319	425.85
1027.608	418.39
1027.898	414.55
1028.187	403.48
1028.477	429.47
1028.766	406.42
1029.055	407.55
1029.344	421.33
1029.634	399.64
1029.923	400.09
1030.212	398.28
1030.501	421.1
1030.79	409.81
1031.078	396.02
1031.367	408
1031.656	397.6
1031.945	400.54
1032.233	388.56
1032.522	404.38
1032.81	396.02
1033.099	411.84
1033.387	405.06
1033.675	388.11
1033.963	390.82
1034.251	387.66
1034.54	395.79
1034.828	376.36
1035.116	385.63
1035.403	395.12
1035.691	381.11
1035.979	397.38
1036.267	385.85
1036.554	369.35
1036.842	406.64
1037.129	379.98
1037.417	377.49
1037.704	390.15
1037.992	377.94
1038.279	371.61
1038.566	366.19
1038.853	366.19
1039.14	366.19
