Data from foam1_polythene_foam_FLMS001491_00021.txt Node
Date: Wed Feb 08 10:54:35 GMT 2017
User: dcchb
Spectrometer: FLMS00149
Trigger mode: 0
Integration Time (sec): 2.000000E-2
Scans to average: 10
Electric dark correction enabled: true
Nonlinearity correction enabled: false
Boxcar width: 0
XAxis mode: Wavelengths
Number of Pixels in Spectrum: 2048
>>>>>Begin Spectral Data<<<<<
341.393	-5.58
341.776	-5.58
342.16	-5.58
342.543	-66.59
342.927	-73.15
343.31	-72.92
343.693	-72.7
344.077	-69.76
344.46	-50.1
344.843	-46.71
345.226	-46.93
345.61	-29.99
345.993	-29.31
346.376	10.47
346.759	10.69
347.142	16.12
347.525	68.32
347.908	62.67
348.291	66.96
348.674	80.52
349.057	102.67
349.44	131.82
349.823	138.15
350.206	171.59
350.588	167.98
350.971	204.81
351.354	187.64
351.737	225.15
352.119	227.64
352.502	233.51
352.884	252.49
353.267	278.71
353.65	298.14
354.032	292.72
354.414	276.45
354.797	302.89
355.179	307.41
355.562	313.96
355.944	318.71
356.326	306.05
356.709	332.04
357.091	320.06
357.473	331.59
357.855	311.25
358.238	327.52
358.62	322.55
359.002	307.41
359.384	327.07
359.766	317.58
360.148	327.07
360.53	319.84
360.912	324.81
361.294	305.83
361.676	304.7
362.057	305.15
362.439	285.26
362.821	286.62
363.203	287.75
363.584	311.25
363.966	308.76
364.348	288.42
364.729	293.85
365.111	313.73
365.493	288.88
365.874	313.06
366.256	296.56
366.637	286.84
367.019	302.89
367.4	309.44
367.781	298.37
368.163	308.76
368.544	301.76
368.925	273.96
369.306	300.18
369.688	289.33
370.069	301.31
370.45	287.75
370.831	299.95
371.212	276.67
371.593	313.96
371.974	291.36
372.355	299.72
372.736	311.25
373.117	293.62
373.498	273.96
373.879	297.46
374.26	307.18
374.641	287.07
375.021	316.67
375.402	284.58
375.783	296.79
376.163	312.15
376.544	309.22
376.925	315.09
377.305	307.86
377.686	323.68
378.066	318.93
378.447	312.6
378.827	326.16
379.208	322.55
379.588	298.59
379.968	317.8
380.349	326.39
380.729	306.5
381.109	317.8
381.489	324.58
381.87	320.06
382.25	336.11
382.63	332.27
383.01	343.56
383.39	352.83
383.77	320.97
384.15	331.59
384.53	326.84
384.91	349.67
385.29	312.15
385.67	344.24
386.049	344.02
386.429	339.27
386.809	356.9
387.189	327.07
387.568	346.73
387.948	333.62
388.328	347.41
388.707	340.17
389.087	351.47
389.466	351.7
389.846	337.24
390.225	333.62
390.605	361.87
390.984	339.95
391.363	331.81
391.743	350.34
392.122	357.58
392.501	342.43
392.881	344.69
393.26	353.28
393.639	351.7
394.018	351.47
394.397	378.59
394.776	368.42
395.155	372.04
395.534	355.09
395.913	372.72
396.292	371.81
396.671	382.89
397.05	376.33
397.429	374.07
397.808	374.98
398.186	364.58
398.565	344.69
398.944	375.88
399.323	352.15
399.701	366.16
400.08	405.26
400.458	391.92
400.837	380.85
401.215	390.79
401.594	403.9
401.972	378.14
402.351	386.95
402.729	373.85
403.107	386.95
403.486	410.68
403.864	389.21
404.242	400.29
404.62	378.59
404.999	403.45
405.377	412.26
405.755	374.3
406.133	426.05
406.511	417.23
406.889	412.26
407.267	408.65
407.645	419.27
408.023	437.35
408.401	431.7
408.779	435.31
409.156	439.61
409.534	430.79
409.912	447.74
410.29	438.93
410.667	438.25
411.045	440.96
411.422	438.7
411.8	426.5
412.178	428.53
412.555	442.77
412.933	455.2
413.31	464.01
413.687	465.82
414.065	471.24
414.442	476.89
414.819	480.06
415.197	479.15
415.574	480.28
415.951	483
416.328	474.41
416.705	476.44
417.082	474.41
417.46	496.33
417.837	493.62
418.214	491.58
418.591	484.8
418.967	494.75
419.344	494.07
419.721	519.6
420.098	527.06
420.475	508.31
420.852	519.83
421.228	525.03
421.605	499.27
421.982	534.75
422.358	538.14
422.735	532.26
423.111	526.38
423.488	544.92
423.864	544.92
424.241	536.33
424.617	548.53
424.994	553.5
425.37	558.7
425.746	552.15
426.123	564.58
426.499	561.86
426.875	586.5
427.251	586.04
427.627	564.35
428.003	558.7
428.379	595.08
428.756	592.82
429.132	592.82
429.507	617.23
429.883	611.13
430.259	595.76
430.635	600.73
431.011	625.14
431.387	636.21
431.763	611.13
432.138	646.38
432.514	657.68
432.89	659.04
433.265	679.83
433.641	674.63
434.016	672.14
434.392	658.81
434.767	707.4
435.143	680.28
435.518	692.71
435.894	686.83
436.269	727.96
436.644	731.35
437.02	731.35
437.395	715.31
437.77	714.18
438.145	760.05
438.52	753.72
438.895	749.2
439.271	773.84
439.646	789.43
440.021	768.86
440.395	779.71
440.77	775.87
441.145	790.11
441.52	792.82
441.895	773.61
442.27	795.53
442.645	794.4
443.019	814.29
443.394	780.62
443.769	807.28
444.143	847.73
444.518	849.99
444.892	845.92
445.267	847.28
445.641	843.44
446.016	845.7
446.39	861.29
446.764	881.86
447.139	871.23
447.513	899.26
447.887	886.83
448.262	926.37
448.636	919.82
449.01	898.13
449.384	901.74
449.758	919.37
450.132	925.7
450.506	928.86
450.88	969.31
451.254	946.03
451.628	966.37
452.002	976.99
452.376	972.25
452.75	995.07
453.123	981.97
453.497	994.85
453.871	1033.94
454.244	1028.97
454.618	999.37
454.992	1018.8
455.365	1013.6
455.739	1034.17
456.112	1050.44
456.486	1068.97
456.859	1079.59
457.232	1087.05
457.606	1056.54
457.979	1094.73
458.352	1082.08
458.725	1084.34
459.099	1091.79
459.472	1129.08
459.845	1153.49
460.218	1153.94
460.591	1166.14
460.964	1152.36
461.337	1171.57
461.71	1162.07
462.083	1207.27
462.456	1176.08
462.829	1187.84
463.201	1199.81
463.574	1231.22
463.947	1213.6
464.32	1247.04
464.692	1256.76
465.065	1274.84
465.438	1273.26
465.81	1256.31
466.183	1270.32
466.555	1307.61
466.928	1321.39
467.3	1301.96
467.672	1339.7
468.045	1361.39
468.417	1381.5
468.789	1363.65
469.161	1400.03
469.534	1416.98
469.906	1415.63
470.278	1425.8
470.65	1447.26
471.022	1485.68
471.394	1501.73
471.766	1487.49
472.138	1492.91
472.51	1565
472.882	1560.93
473.253	1583.98
473.625	1597.77
473.997	1621.72
474.369	1615.4
474.74	1642.97
475.112	1652
475.484	1677.77
475.855	1720.7
476.227	1727.71
476.598	1746.47
476.97	1775.84
477.341	1804.99
477.713	1828.5
478.084	1861.26
478.455	1878.44
478.827	1899.23
479.198	1929.96
479.569	1949.4
479.94	2012.22
480.311	1989.17
480.682	2037.08
481.053	2067.13
481.424	2114.59
481.795	2115.95
482.166	2140.81
482.537	2189.62
482.908	2232.33
483.279	2238.2
483.65	2304.64
484.021	2273.01
484.391	2321.59
484.762	2353
485.133	2382.83
485.503	2400.46
485.874	2474.36
486.244	2468.25
486.615	2472.1
486.985	2520
487.356	2574.01
487.726	2619.21
488.097	2650.4
488.467	2663.5
488.837	2728.59
489.207	2717.97
489.578	2777.62
489.948	2784.4
490.318	2806.32
490.688	2837.06
491.058	2882.48
491.428	2914.12
491.798	2934
492.168	2946.43
492.538	3014.91
492.908	3049.93
493.278	3098.75
493.648	3088.58
494.017	3112.08
494.387	3188.24
494.757	3190.72
495.126	3203.6
495.496	3244.73
495.866	3250.38
496.235	3307.33
496.605	3314.79
496.974	3332.86
497.344	3361.56
497.713	3416.25
498.082	3405.86
498.452	3446.99
498.821	3459.19
499.19	3462.58
499.559	3536.02
499.928	3585.74
500.298	3585.29
500.667	3616.7
501.036	3658.05
501.405	3636.13
501.774	3651.5
502.143	3702.35
502.512	3701.67
502.88	3747.77
503.249	3782.8
503.618	3748.67
503.987	3815.11
504.356	3774.66
504.724	3842.68
505.093	3892.17
505.462	3864.38
505.83	3898.05
506.199	3933.75
506.567	3974.2
506.936	4033.41
507.304	4067.08
507.672	4105.73
508.041	4085.39
508.409	4109.12
508.777	4185.5
509.145	4178.94
509.514	4162.45
509.882	4243.12
510.25	4269.79
510.618	4250.81
510.986	4235.89
511.354	4367.41
511.722	4361.09
512.09	4369.67
512.458	4385.04
512.826	4433.85
513.193	4476.56
513.561	4475.21
513.929	4519.05
514.297	4557.69
514.664	4554.98
515.032	4574.19
515.4	4658.03
515.767	4703.68
516.135	4687.86
516.502	4677.01
516.869	4774.86
517.237	4825.71
517.604	4776.44
517.972	4843.56
518.339	4903.9
518.706	4930.79
519.073	4888.53
519.44	4963.1
519.808	5005.14
520.175	5028.19
520.542	5133.04
520.909	5158.81
521.276	5165.36
521.643	5251.23
522.009	5267.05
522.376	5278.8
522.743	5315.86
523.11	5340.5
523.477	5419.59
523.843	5467.05
524.21	5495.29
524.577	5550.66
524.943	5587.04
525.31	5553.37
525.676	5630.66
526.043	5710.2
526.409	5732.35
526.776	5785.91
527.142	5761.5
527.508	5832.23
527.874	5842.4
528.241	5894.6
528.607	5916.3
528.973	5917.66
529.339	5981.61
529.705	6022.29
530.071	6084.66
530.437	6132.79
530.803	6158.1
531.169	6165.11
531.535	6169.63
531.901	6177.76
532.267	6227.48
532.632	6290.07
532.998	6335.5
533.364	6329.17
533.73	6347.47
534.095	6351.77
534.461	6399.9
534.826	6471.99
535.192	6521.26
535.557	6552.21
535.923	6559.45
536.288	6570.07
536.653	6611.42
537.019	6567.36
537.384	6593.12
537.749	6661.36
538.114	6676.28
538.479	6691.65
538.845	6721.02
539.21	6732.1
539.575	6830.85
539.94	6767.58
540.305	6829.27
540.67	6852.55
541.034	6915.14
541.399	6915.59
541.764	6912.43
542.129	6958.53
542.494	6968.7
542.858	6942.03
543.223	6996.04
543.587	7106.32
543.952	7073.1
544.316	7133.89
544.681	7104.97
545.045	7065.42
545.41	7136.15
545.774	7161.24
546.138	7177.28
546.503	7218.41
546.867	7234.68
547.231	7318.07
547.595	7307.45
547.959	7330.95
548.324	7311.06
548.688	7310.61
549.052	7337.5
549.416	7384.28
549.779	7364.62
550.143	7442.13
550.507	7453.21
550.871	7502.47
551.235	7465.19
551.599	7539.53
551.962	7593.09
552.326	7594.9
552.689	7654.11
553.053	7647.78
553.417	7730.94
553.78	7799.41
554.143	7744.27
554.507	7818.62
554.87	7802.13
555.234	7904.27
555.597	7862.91
555.96	7902.24
556.323	7922.8
556.686	7995.34
557.05	7994.21
557.413	8014.32
557.776	8083.7
558.139	8033.98
558.502	8102.68
558.865	8078.05
559.228	8141.33
559.59	8231.27
559.953	8228.78
560.316	8326.63
560.679	8292.51
561.041	8361.88
561.404	8355.56
561.767	8439.4
562.129	8443.92
562.492	8458.61
562.854	8430.13
563.217	8495.21
563.579	8514.65
563.941	8588.55
564.304	8657.02
564.666	8693.18
565.028	8631.03
565.39	8743.12
565.753	8824.02
566.115	8789.44
566.477	8902.66
566.839	8905.37
567.201	8905.37
567.563	8947.86
567.925	8967.74
568.287	9040.28
568.648	9036.44
569.01	9120.06
569.372	9169.1
569.734	9181.75
570.095	9200.96
570.457	9249.54
570.819	9288.19
571.18	9261.07
571.542	9300.62
571.903	9352.37
572.265	9338.13
572.626	9364.34
572.987	9419.94
573.349	9409.31
573.71	9530.89
574.071	9496.54
574.432	9598.01
574.794	9641.85
575.155	9581.06
575.516	9572.25
575.877	9584.45
576.238	9632.13
576.599	9633.26
576.96	9620.16
577.32	9706.03
577.681	9685.47
578.042	9745.35
578.403	9741.74
578.763	9722.98
579.124	9759.81
579.485	9767.95
579.845	9829.42
580.206	9864.44
580.566	9786.93
580.927	9814.28
581.287	9840.04
581.648	9871.22
582.008	9890.66
582.368	9852.24
582.728	9846.37
583.089	9845.69
583.449	9823.54
583.809	9875.07
584.169	9772.47
584.529	9817.67
584.889	9857.44
585.249	9824.67
585.609	9801.17
585.969	9893.14
586.329	9802.75
586.688	9895.4
587.048	9856.53
587.408	9854.73
587.768	9849.98
588.127	9872.13
588.487	9842.07
588.846	9972.46
589.206	9843.88
589.565	9935.85
589.925	9895.86
590.284	9966.81
590.643	9934.72
591.003	9945.8
591.362	9990.54
591.721	9911.45
592.08	9932.01
592.44	9963.65
592.799	9962.75
593.158	9927.72
593.517	9873.94
593.876	9860.15
594.235	9944.44
594.593	9948.96
594.952	9946.93
595.311	9903.09
595.67	9908.74
596.029	10006.36
596.387	9959.13
596.746	9996.64
597.104	9942.63
597.463	9998.68
597.822	9997.77
598.18	9965.01
598.538	9957.55
598.897	9955.74
599.255	9961.62
599.613	10037.09
599.972	10000.49
600.33	10053.37
600.688	10001.84
601.046	10109.41
601.404	10100.37
601.762	10070.77
602.12	10135.85
602.478	10115.06
602.836	10034.16
603.194	10089.52
603.552	10074.38
603.91	10007.72
604.268	10066.25
604.625	10093.14
604.983	10165.68
605.341	10081.84
605.698	10122.06
606.056	10163.19
606.413	10106.47
606.771	10189.63
607.128	10213.36
607.485	10129.97
607.843	10249.29
608.2	10191.89
608.557	10250.2
608.914	10200.03
609.272	10256.52
609.629	10224.66
609.986	10221.95
610.343	10226.47
610.7	10313.47
611.057	10285.68
611.414	10302.17
611.771	10329.97
612.127	10338.1
612.484	10395.05
612.841	10388.72
613.198	10419.91
613.554	10337.43
613.911	10407.71
614.267	10381.94
614.624	10369.74
614.98	10396.63
615.337	10381.72
615.693	10388.95
616.05	10375.17
616.406	10405.67
616.762	10391.21
617.118	10377.2
617.475	10446.12
617.831	10479.12
618.187	10472.79
618.543	10456.97
618.899	10458.55
619.255	10430.76
619.611	10482.28
619.967	10515.95
620.323	10508.95
620.678	10495.61
621.034	10443.19
621.39	10470.08
621.746	10396.18
622.101	10546.69
622.457	10356.63
622.812	10516.63
623.168	10489.06
623.523	10443.86
623.879	10524.31
624.234	10449.06
624.589	10454.48
624.945	10484.09
625.3	10458.33
625.655	10477.76
626.01	10451.1
626.365	10511.43
626.72	10527.03
627.075	10553.92
627.43	10453.58
627.785	10435.05
628.14	10474.37
628.495	10390.08
628.85	10402.96
629.205	10331.55
629.559	10387.14
629.914	10365.45
630.269	10420.59
630.623	10357.54
630.978	10370.65
631.332	10411.55
631.687	10403.86
632.041	10372.91
632.396	10367.93
632.75	10332.91
633.104	10367.93
633.459	10328.16
633.813	10308.95
634.167	10263.08
634.521	10264.66
634.875	10242.29
635.229	10325.22
635.583	10091.78
635.937	10244.32
636.291	10221.04
636.645	10218.11
636.999	10110.99
637.352	10199.8
637.706	10190.54
638.06	10183.76
638.413	10167.71
638.767	10188.05
639.121	10146.24
639.474	10038.45
639.828	10009.3
640.181	10041.61
640.534	9977.66
640.888	9951.45
641.241	9966.36
641.594	9983.08
641.947	9982.63
642.301	9911.45
642.654	9997.32
643.007	9983.31
643.36	9943.99
643.713	9942.63
644.066	10044.33
644.419	9859.02
644.771	9848.4
645.124	9824.9
645.477	9731.79
645.83	9708.29
646.182	9594.39
646.535	9565.24
646.888	9558.24
647.24	9527.05
647.593	9591.46
647.945	9485.7
648.298	9466.71
648.65	9413.61
649.002	9431.01
649.355	9473.72
649.707	9491.8
650.059	9518.69
650.411	9622.19
650.763	9642.98
651.115	9721.85
651.467	9648.63
651.819	9697.89
652.171	9667.61
652.523	9655.18
652.875	9609.99
653.227	9572.93
653.578	9657.22
653.93	9567.28
654.282	9607.28
654.633	9528.41
654.985	9591.23
655.337	9594.39
655.688	9553.04
656.039	9678.23
656.391	9560.27
656.742	9531.57
657.094	9506.04
657.445	9608.41
657.796	9599.82
658.147	9506.94
658.498	9475.75
658.849	9449.99
659.2	9455.87
659.551	9426.49
659.902	9535.19
660.253	9430.11
660.604	9418.35
660.955	9441.4
661.306	9522.31
661.656	9453.16
662.007	9444.79
662.358	9467.39
662.708	9420.39
663.059	9374.97
663.409	9248.42
663.76	9411.12
664.11	9405.7
664.461	9391.24
664.811	9414.06
665.161	9360.95
665.511	9266.72
665.862	9358.92
666.212	9408.86
666.562	9288.64
666.912	9332.71
667.262	9296.1
667.612	9330.67
667.962	9301.52
668.312	9275.31
668.662	9331.58
669.011	9224.69
669.361	9319.15
669.711	9301.29
670.06	9200.96
670.41	9257
670.76	9276.44
671.109	9226.27
671.459	9163.9
671.808	9224.69
672.157	9203.9
672.507	9160.73
672.856	9174.52
673.205	9139.04
673.554	9135.65
673.904	9114.41
674.253	9157.57
674.602	9131.13
674.951	8951.93
675.3	8960.74
675.649	9094.97
675.998	9140.62
676.346	9095.42
676.695	9103.11
677.044	9118.93
677.393	9107.63
677.741	9053.62
678.09	9091.13
678.438	9033.05
678.787	9064.24
679.135	9017.69
679.484	8989.89
679.832	9043.67
680.181	9041.19
680.529	8957.58
680.877	9010.68
681.225	8920.74
681.573	9055.2
681.922	8975.2
682.27	8952.6
682.618	8927.97
682.966	8849.78
683.314	8953.96
683.661	8910.8
684.009	8867.63
684.357	8832.83
684.705	8795.32
685.053	8834.64
685.4	8857.01
685.748	8828.99
686.095	8763.23
686.443	8781.99
686.79	8735.43
687.138	8785.6
687.485	8810.46
687.832	8672.84
688.18	8732.72
688.527	8620.41
688.874	8718.26
689.221	8593.74
689.568	8627.41
689.915	8625.61
690.262	8517.59
690.609	8508.1
690.956	8448.21
691.303	8508.77
691.65	8443.01
691.997	8434.65
692.344	8381.09
692.69	8391.26
693.037	8363.47
693.383	8332.28
693.73	8351.94
694.077	8328.89
694.423	8279.63
694.769	8226.97
695.116	8182.91
695.462	8233.3
695.808	8155.79
696.155	8231.04
696.501	8133.87
696.847	8089.58
697.193	8071.04
697.539	8075.34
697.885	8045.28
698.231	8040.99
698.577	7984.27
698.923	7994.21
699.269	7899.52
699.614	7946.08
699.96	7917.83
700.306	7900.2
700.651	7910.15
700.997	7792.86
701.342	7818.17
701.688	7785.85
702.033	7777.27
702.379	7789.92
702.724	7826.76
703.069	7810.71
703.415	7711.73
703.76	7684.16
704.105	7718.29
704.45	7657.04
704.795	7626.54
705.14	7620.44
705.485	7546.09
705.83	7595.13
706.175	7612.3
706.52	7590.38
706.865	7621.57
707.209	7546.31
707.554	7469.25
707.899	7509.7
708.243	7419.76
708.588	7446.43
708.932	7404.85
709.277	7404.17
709.621	7416.6
709.966	7340.67
710.31	7371.4
710.654	7335.92
710.998	7302.48
711.342	7291.86
711.687	7326.66
712.031	7284.85
712.375	7203.72
712.719	7253.89
713.063	7211.41
713.407	7252.08
713.75	7259.99
714.094	7259.54
714.438	7156.72
714.782	7195.36
715.125	7159.66
715.469	7190.62
715.812	7137.96
716.156	7082.6
716.499	7077.85
716.843	7078.53
717.186	7051.64
717.53	7083.27
717.873	7075.36
718.216	7070.39
718.559	7001.69
718.902	7007.8
719.246	6981.81
719.589	6943.62
719.932	6978.87
720.275	6980.68
720.617	6979.1
720.96	6927.35
721.303	6923.5
721.646	6942.49
721.989	6899.78
722.331	6919.66
722.674	6940.45
723.016	6873.11
723.359	6865.43
723.701	6910.4
724.044	6861.59
724.386	6804.19
724.729	6833.11
725.071	6802.6
725.413	6788.59
725.755	6814.13
726.097	6779.33
726.439	6693.45
726.782	6672.89
727.124	6728.71
727.465	6710.85
727.807	6750.85
728.149	6675.38
728.491	6674.25
728.833	6728.71
729.175	6635.38
729.516	6624.53
729.858	6638.31
730.199	6627.92
730.541	6668.82
730.882	6619.56
731.224	6527.58
731.565	6500.01
731.906	6545.66
732.248	6545.89
732.589	6563.74
732.93	6461.14
733.271	6465.89
733.612	6484.19
733.953	6517.19
734.294	6435.83
734.635	6423.86
734.976	6450.75
735.317	6451.65
735.658	6412.56
735.999	6461.37
736.339	6412.11
736.68	6433.57
737.021	6414.37
737.361	6377.76
737.702	6358.55
738.042	6401.71
738.383	6367.13
738.723	6416.63
739.063	6372.56
739.404	6413.69
739.744	6351.77
740.084	6309.96
740.424	6348.38
740.764	6316.74
741.104	6291.43
741.444	6235.39
741.784	6265.44
742.124	6305.22
742.464	6274.71
742.804	6231.77
743.143	6251.21
743.483	6223.41
743.823	6170.53
744.162	6187.25
744.502	6239.91
744.841	6163.52
745.181	6252.56
745.52	6168.5
745.86	6205.78
746.199	6191.32
746.538	6168.27
746.877	6211.88
747.216	6194.94
747.556	6127.14
747.895	6138.44
748.234	6101.38
748.573	6116.97
748.911	6098.44
749.25	6052.57
749.589	6027.71
749.928	6022.96
750.267	6048.5
750.605	6057.99
750.944	6059.35
751.283	6020.93
751.621	5988.39
751.96	5986.13
752.298	5970.31
752.636	5924.66
752.975	5937.99
753.313	5922.4
753.651	5926.47
753.989	5902.06
754.327	5917.43
754.666	5884.66
755.004	5925.34
755.342	5870.42
755.679	5862.06
756.017	5819.8
756.355	5824.32
756.693	5819.13
757.031	5823.42
757.368	5789.75
757.706	5806.02
758.044	5773.93
758.381	5774.16
758.719	5755.4
759.056	5702.52
759.394	5762.63
759.731	5662.75
760.068	5650.09
760.405	5633.14
760.743	5602.64
761.08	5678.11
761.417	5565.35
761.754	5662.75
762.091	5581.62
762.428	5561.73
762.765	5546.59
763.102	5612.13
763.438	5525.12
763.775	5474.28
764.112	5520.83
764.449	5529.42
764.785	5471.79
765.122	5408.74
765.458	5411.68
765.795	5424.33
766.131	5364
766.467	5399.7
766.804	5378.23
767.14	5355.86
767.476	5364.45
767.812	5265.24
768.148	5353.15
768.485	5277.67
768.821	5273.15
769.157	5233.83
769.492	5228.63
769.828	5232.48
770.164	5167.39
770.5	5195.19
770.836	5150.22
771.171	5157
771.507	5124.46
771.842	5046.49
772.178	5047.85
772.513	5059.82
772.849	5033.38
773.184	5010.56
773.519	4981.18
773.855	4974.18
774.19	4973.05
774.525	4984.8
774.86	4973.5
775.195	4967.17
775.53	4978.47
775.865	4879.04
776.2	4906.83
776.535	4868.19
776.87	4929.88
777.205	4812.15
777.539	4799.49
777.874	4866.84
778.209	4781.87
778.543	4773.73
778.878	4724.24
779.212	4719.27
779.547	4721.53
779.881	4755.2
780.215	4693.73
780.55	4696.67
780.884	4746.16
781.218	4713.62
781.552	4618.71
781.886	4618.71
782.22	4624.81
782.554	4628.2
782.888	4552.72
783.222	4517.47
783.556	4540.74
783.889	4540.06
784.223	4488.77
784.557	4532.61
784.89	4533.28
785.224	4490.57
785.557	4461.87
785.891	4439.28
786.224	4474.3
786.558	4434.98
786.891	4368.09
787.224	4371.71
787.557	4348.66
787.891	4360.63
788.224	4364.7
788.557	4327.19
788.89	4329.22
789.223	4349.33
789.556	4248.32
789.888	4277.47
790.221	4300.52
790.554	4251.94
790.887	4281.77
791.219	4223.24
791.552	4241.09
791.884	4154.09
792.217	4158.61
792.549	4159.96
792.882	4139.85
793.214	4108.44
793.546	4147.31
793.879	4072.51
794.211	4096.01
794.543	4048.78
794.875	4079.51
795.207	4105.95
795.539	4049.91
795.871	4096.01
796.203	4016.01
796.535	3985.05
796.867	3993.41
797.198	3985.73
797.53	3981.89
797.862	3984.15
798.193	3983.02
798.525	3883.36
798.856	3952.06
799.188	3888.56
799.519	3882
799.85	3856.92
800.182	3897.6
800.513	3858.95
800.844	3819.63
801.175	3843.13
801.506	3848.33
801.837	3825.96
802.168	3748.45
802.499	3783.47
802.83	3791.38
803.161	3749.8
803.491	3771.72
803.822	3757.49
804.153	3736.02
804.483	3716.13
804.814	3730.59
805.145	3732.18
805.475	3712.97
805.805	3687.66
806.136	3696.24
806.466	3649.69
806.796	3640.65
807.126	3669.35
807.457	3636.13
807.787	3623.03
808.117	3637.72
808.447	3616.92
808.777	3624.16
809.107	3578.28
809.436	3595.23
809.766	3558.62
810.096	3583.03
810.426	3557.04
810.755	3564.72
811.085	3538.96
811.414	3555.01
811.744	3470.26
812.073	3530.15
812.403	3495.8
812.732	3493.76
813.061	3489.24
813.39	3498.96
813.719	3493.31
814.049	3445.4
814.378	3456.02
814.707	3458.51
815.036	3458.96
815.365	3442.24
815.693	3406.76
816.022	3381.45
816.351	3418.51
816.68	3353.65
817.008	3396.14
817.337	3353.43
817.665	3373.77
817.994	3376.03
818.322	3397.27
818.651	3339.87
818.979	3337.38
819.307	3350.27
819.636	3351.85
819.964	3346.88
820.292	3371.51
820.62	3348.23
820.948	3324.73
821.276	3302.13
821.604	3311.17
821.932	3308.46
822.259	3355.01
822.587	3319.98
822.915	3332.64
823.243	3389.13
823.57	3341.68
823.898	3286.09
824.225	3293.32
824.553	3302.58
824.88	3330.83
825.207	3342.58
825.535	3301.68
825.862	3321.57
826.189	3311.4
826.516	3326.08
826.843	3292.41
827.17	3314.79
827.497	3313.88
827.824	3291.74
828.151	3300.32
828.478	3315.92
828.805	3300.32
829.131	3320.21
829.458	3337.38
829.785	3305.52
830.111	3283.37
830.438	3310.49
830.764	3298.51
831.09	3294.45
831.417	3261.91
831.743	3279.76
832.069	3305.29
832.395	3337.84
832.722	3350.49
833.048	3261.68
833.374	3315.24
833.7	3258.29
834.026	3296.93
834.351	3288.35
834.677	3286.31
835.003	3267.56
835.329	3275.46
835.654	3264.84
835.98	3241.12
836.306	3261
836.631	3236.82
836.956	3234.56
837.282	3270.27
837.607	3233.21
837.932	3224.17
838.258	3215.13
838.583	3225.07
838.908	3187.11
839.233	3193.21
839.558	3229.82
839.883	3196.14
840.208	3188.91
840.533	3142.13
840.858	3210.38
841.182	3186.88
841.507	3225.07
841.832	3144.85
842.156	3156.6
842.481	3127.45
842.805	3141.46
843.13	3113.89
843.454	3123.15
843.778	3116.82
844.103	3126.54
844.427	3097.62
844.751	3117.73
845.075	3050.84
845.399	3070.72
845.723	3044.96
846.047	3002.48
846.371	3044.74
846.695	3050.16
847.019	2992.53
847.343	3001.35
847.666	3005.64
847.99	3014.91
848.313	2980.56
848.637	2986.43
848.96	2927.9
849.284	2954.12
849.607	2944.63
849.931	2929.03
850.254	2896.94
850.577	2867.11
850.9	2877.51
851.223	2889.03
851.546	2868.47
851.869	2838.41
852.192	2804.29
852.515	2812.88
852.838	2809.04
853.161	2828.02
853.483	2783.95
853.806	2809.26
854.129	2782.37
854.451	2786.89
854.774	2779.88
855.096	2720.68
855.419	2742.15
855.741	2728.36
856.063	2716.16
856.385	2694.01
856.708	2723.84
857.03	2717.51
857.352	2676.84
857.674	2699.43
857.996	2701.02
858.318	2694.01
858.64	2669.38
858.961	2697.17
859.283	2661.47
859.605	2650.4
859.926	2696.04
860.248	2641.13
860.57	2617.85
860.891	2623.5
861.212	2633.22
861.534	2642.49
861.855	2643.62
862.176	2608.59
862.498	2598.42
862.819	2610.17
863.14	2590.28
863.461	2600.45
863.782	2594.8
864.103	2598.87
864.424	2590.74
864.745	2603.84
865.065	2569.27
865.386	2554.13
865.707	2554.81
866.027	2592.32
866.348	2587.12
866.668	2547.8
866.989	2551.64
867.309	2522.49
867.63	2511.64
867.95	2559.78
868.27	2537.63
868.59	2513.22
868.91	2537.18
869.23	2504.64
869.55	2513.22
869.87	2514.81
870.19	2538.08
870.51	2533.11
870.83	2495.82
871.15	2461.02
871.469	2496.05
871.789	2500.8
872.109	2524.98
872.428	2500.8
872.748	2518.65
873.067	2511.19
873.386	2510.29
873.706	2496.05
874.025	2482.27
874.344	2492.66
874.663	2482.27
874.982	2513.9
875.301	2487.91
875.62	2460.8
875.939	2469.61
876.258	2448.37
876.577	2435.26
876.896	2441.81
877.214	2459.67
877.533	2450.18
877.852	2439.78
878.17	2438.65
878.489	2443.4
878.807	2445.66
879.125	2459.89
879.444	2449.5
879.762	2415.15
880.08	2431.42
880.398	2406.34
880.716	2434.36
881.034	2452.89
881.352	2423.06
881.67	2388.48
881.988	2407.69
882.306	2406.56
882.624	2414.24
882.941	2366.56
883.259	2391.65
883.577	2368.6
883.894	2384.87
884.212	2362.04
884.529	2381.02
884.846	2348.26
885.164	2358.65
885.481	2346.22
885.798	2365.21
886.115	2311.42
886.432	2339.22
886.75	2289.05
887.067	2302.83
887.383	2306.68
887.7	2307.58
888.017	2313
888.334	2343.51
888.651	2313.91
888.967	2303.29
889.284	2289.05
889.6	2281.14
889.917	2265.32
890.233	2269.39
890.55	2253.57
890.866	2259.22
891.182	2263.29
891.498	2227.58
891.815	2238.2
892.131	2217.19
892.447	2235.49
892.763	2225.32
893.079	2215.38
893.395	2200.01
893.71	2197.3
894.026	2215.15
894.342	2204.31
894.657	2186.68
894.973	2187.36
895.289	2190.97
895.604	2155.49
895.92	2162.05
896.235	2122.27
896.55	2134.93
896.865	2149.62
897.181	2110.52
897.496	2110.75
897.811	2127.7
898.126	2110.07
898.441	2099.68
898.756	2101.94
899.071	2085.89
899.386	2129.51
899.7	2112.78
900.015	2078.21
900.33	2053.58
900.644	2061.49
900.959	2045.44
901.273	2062.16
901.588	2030.98
901.902	2054.93
902.216	2046.34
902.531	2003.63
902.845	2021.26
903.159	1992.33
903.473	2021.03
903.787	1960.02
904.101	1974.26
904.415	1991.2
904.729	1963.18
905.042	1984.65
905.356	1956.86
905.67	1953.92
905.984	1970.87
906.297	1969.28
906.611	1938.55
906.924	1950.75
907.237	1898.78
907.551	1944.2
907.864	1910.3
908.177	1883.41
908.491	1870.53
908.804	1865.33
909.117	1868.95
909.43	1857.87
909.743	1849.74
910.056	1850.64
910.368	1849.74
910.681	1833.47
910.994	1844.09
911.307	1841.38
911.619	1840.47
911.932	1842.73
912.244	1811.55
912.557	1799.57
912.869	1815.39
913.181	1823.07
913.494	1801.15
913.806	1785.56
914.118	1775.39
914.43	1787.82
914.742	1764.77
915.054	1744.21
915.366	1765
915.678	1758.44
915.99	1743.3
916.302	1748.27
916.613	1726.8
916.925	1734.04
917.236	1734.71
917.548	1737.43
917.859	1714.15
918.171	1722.74
918.482	1715.51
918.794	1687.26
919.105	1695.85
919.416	1690.2
919.727	1683.87
920.038	1634.15
920.349	1660.82
920.66	1628.5
920.971	1654.49
921.282	1670.31
921.593	1665.56
921.903	1627.6
922.214	1620.14
922.525	1634.38
922.835	1587.37
923.146	1613.14
923.456	1609.97
923.767	1597.99
924.077	1600.03
924.387	1595.73
924.697	1585.57
925.008	1586.24
925.318	1578.56
925.628	1546.02
925.938	1549.63
926.248	1555.28
926.558	1569.07
926.867	1568.62
927.177	1559.8
927.487	1539.24
927.796	1553.02
928.106	1539.92
928.416	1539.47
928.725	1516.64
929.034	1525.45
929.344	1523.65
929.653	1530.88
929.962	1488.17
930.271	1515.51
930.581	1508.51
930.89	1514.61
931.199	1477.32
931.508	1478.68
931.817	1470.54
932.125	1478.9
932.434	1438
932.743	1413.82
933.051	1446.59
933.36	1430.99
933.669	1424.67
933.977	1426.93
934.286	1419.24
934.594	1426.7
934.902	1419.24
935.21	1372.46
935.519	1422.18
935.827	1410.65
936.135	1401.62
936.443	1369.3
936.751	1399.13
937.059	1376.76
937.367	1370.2
937.674	1379.24
937.982	1378.34
938.29	1397.1
938.597	1358
938.905	1377.89
939.213	1346.48
939.52	1364.33
939.827	1350.32
940.135	1336.76
940.442	1338.34
940.749	1315.52
941.056	1326.59
941.363	1306.93
941.67	1309.41
941.977	1351.67
942.284	1314.39
942.591	1293.14
942.898	1311
943.205	1289.08
943.511	1315.06
943.818	1288.62
944.125	1290.88
944.431	1280.04
944.738	1273.94
945.044	1282.52
945.35	1285.91
945.657	1289.98
945.963	1252.92
946.269	1264.22
946.575	1246.14
946.881	1246.82
947.187	1220.15
947.493	1238.91
947.799	1256.31
948.105	1209.3
948.41	1225.58
948.716	1231.45
949.022	1223.32
949.327	1233.48
949.633	1201.39
949.938	1201.39
950.244	1200.72
950.549	1189.87
950.854	1209.08
951.16	1194.39
951.465	1180.38
951.77	1199.36
952.075	1182.41
952.38	1186.25
952.685	1175.86
952.99	1142.64
953.294	1181.51
953.599	1155.97
953.904	1186.25
954.209	1150.32
954.513	1149.87
954.818	1129.08
955.122	1157.33
955.426	1140.83
955.731	1144.45
956.035	1136.54
956.339	1135.18
956.643	1124.79
956.948	1124.33
957.252	1141.96
957.556	1101.51
957.86	1127.27
958.163	1103.77
958.467	1090.44
958.771	1105.8
959.075	1090.66
959.378	1099.25
959.682	1066.26
959.985	1076.88
960.289	1088.4
960.592	1065.13
960.896	1067.16
961.199	1068.74
961.502	1076.43
961.805	1058.8
962.108	1075.75
962.411	1052.7
962.714	1035.07
963.017	1047.05
963.32	1055.18
963.623	1071.68
963.926	1040.04
964.228	1013.6
964.531	1025.81
964.833	1045.69
965.136	1035.3
965.438	1039.82
965.741	1013.83
966.043	1012.7
966.345	1000.04
966.648	1004.11
966.95	1042.76
967.252	971.57
967.554	996.43
967.856	1003.66
968.158	989.88
968.46	988.29
968.761	963.44
969.063	979.71
969.365	958.46
969.666	995.52
969.968	968.41
970.269	967.73
970.571	972.02
970.872	990.33
971.174	967.5
971.475	962.08
971.776	964.57
972.077	934.74
972.378	945.36
972.679	967.73
972.98	932.93
973.281	944.9
973.582	942.64
973.883	963.21
974.183	936.09
974.484	942.64
974.785	923.66
975.085	932.48
975.386	940.61
975.686	921.4
975.986	922.53
976.287	915.75
976.587	900.84
976.887	915.98
977.187	893.15
977.487	880.73
977.787	895.64
978.087	906.26
978.387	890.89
978.687	885.7
978.987	868.75
979.286	860.16
979.586	860.61
979.885	877.79
980.185	865.81
980.484	875.98
980.784	859.48
981.083	857.9
981.382	846.38
981.682	876.43
981.981	869.43
982.28	871.01
982.579	867.84
982.878	858.81
983.177	835.53
983.475	832.82
983.774	854.29
984.073	847.28
984.372	838.47
984.67	839.82
984.969	814.74
985.267	823.55
985.566	828.52
985.864	819.48
986.162	816.09
986.461	826.26
986.759	839.14
987.057	808.64
987.355	788.07
987.653	806.6
987.951	820.61
988.249	798.47
988.547	798.02
988.844	798.92
989.142	809.09
989.44	797.11
989.737	777.23
990.035	781.74
990.332	782.42
990.63	786.94
990.927	788.98
991.224	770.22
991.521	784.68
991.819	763.44
992.116	771.12
992.413	756.43
992.71	773.16
993.006	785.59
993.303	769.09
993.6	754.18
993.897	751.01
994.193	744.01
994.49	747.4
994.787	754.4
995.083	754.85
995.379	729.54
995.676	738.36
995.972	706.94
996.268	723.22
996.565	736.1
996.861	737.9
997.157	742.42
997.453	719.15
997.749	712.37
998.044	715.98
998.34	717.11
998.636	701.97
998.932	708.53
999.227	719.83
999.523	715.08
999.818	699.71
1000.114	710.56
1000.409	713.95
1000.704	705.36
1001	695.65
1001.295	683.22
1001.59	681.63
1001.885	677.34
1002.18	697.23
1002.475	679.83
1002.77	678.47
1003.065	674.86
1003.359	675.08
1003.654	678.24
1003.949	671.47
1004.243	656.1
1004.538	666.95
1004.832	642.09
1005.127	665.36
1005.421	670.56
1005.715	653.61
1006.009	640.51
1006.304	656.55
1006.598	676.44
1006.892	658.81
1007.186	648.42
1007.48	652.71
1007.773	637.34
1008.067	657.91
1008.361	642.99
1008.655	644.12
1008.948	644.57
1009.242	631.24
1009.535	647.06
1009.829	624.46
1010.122	647.51
1010.415	621.75
1010.708	619.26
1011.001	612.94
1011.295	614.29
1011.588	614.52
1011.881	615.2
1012.173	611.35
1012.466	597.12
1012.759	616.55
1013.052	617.23
1013.344	606.38
1013.637	601.18
1013.93	614.97
1014.222	610.45
1014.514	589.43
1014.807	587.4
1015.099	592.15
1015.391	591.92
1015.683	564.12
1015.976	580.62
1016.268	572.03
1016.56	586.72
1016.851	567.29
1017.143	565.25
1017.435	572.03
1017.727	564.8
1018.018	567.97
1018.31	583.56
1018.602	562.99
1018.893	545.37
1019.185	565.93
1019.476	557.34
1019.767	581.52
1020.058	568.64
1020.35	541.07
1020.641	574.97
1020.932	541.98
1021.223	554.63
1021.514	558.47
1021.804	534.52
1022.095	551.69
1022.386	553.95
1022.677	531.58
1022.967	540.17
1023.258	532.26
1023.548	542.43
1023.839	539.04
1024.129	563.9
1024.419	537.91
1024.709	544.01
1025	518.93
1025.29	538.36
1025.58	509.89
1025.87	537.68
1026.16	526.61
1026.449	527.97
1026.739	542.88
1027.029	510.57
1027.319	504.92
1027.608	515.31
1027.898	534.97
1028.187	504.69
1028.477	488.42
1028.766	507.18
1029.055	492.94
1029.344	482.54
1029.634	511.24
1029.923	477.35
1030.212	483.45
1030.501	491.81
1030.79	522.54
1031.078	495.42
1031.367	481.19
1031.656	478.25
1031.945	492.04
1032.233	492.04
1032.522	473.73
1032.81	474.18
1033.099	498.36
1033.387	489.78
1033.675	469.21
1033.963	476.44
1034.251	480.96
1034.54	481.19
1034.828	458.59
1035.116	471.7
1035.403	480.96
1035.691	473.73
1035.979	486.39
1036.267	462.21
1036.554	463.79
1036.842	444.8
1037.129	465.6
1037.417	462.66
1037.704	449.1
1037.992	460.62
1038.279	444.13
1038.566	450.68
1038.853	450.68
1039.14	450.68
