Data from foam1_polythene_foam_FLMS001491_00038.txt Node
Date: Wed Feb 08 10:54:45 GMT 2017
User: dcchb
Spectrometer: FLMS00149
Trigger mode: 0
Integration Time (sec): 2.000000E-2
Scans to average: 10
Electric dark correction enabled: true
Nonlinearity correction enabled: false
Boxcar width: 0
XAxis mode: Wavelengths
Number of Pixels in Spectrum: 2048
>>>>>Begin Spectral Data<<<<<
341.393	-19.97
341.776	-19.97
342.16	-19.97
342.543	-64.49
342.927	-52.74
343.31	-68.33
343.693	-61.55
344.077	-64.72
344.46	-64.26
344.843	-74.89
345.226	-39.41
345.61	-31.5
345.993	-22.46
346.376	1.27
346.759	19.58
347.142	23.64
347.525	48.73
347.908	64.32
348.291	57.77
348.674	81.04
349.057	130.76
349.44	103.87
349.823	136.86
350.206	154.04
350.588	170.98
350.971	188.61
351.354	206.92
351.737	225.45
352.119	242.85
352.502	263.19
352.884	244.43
353.267	270.87
353.65	281.49
354.032	264.54
354.414	295.95
354.797	297.31
355.179	320.81
355.562	309.06
355.944	318.1
356.326	316.29
356.709	307.48
357.091	311.55
357.473	337.53
357.855	321.26
358.238	343.18
358.62	339.12
359.002	328.27
359.384	308.83
359.766	304.54
360.148	337.76
360.53	314.03
360.912	344.54
361.294	323.97
361.676	324.88
362.057	330.98
362.439	308.38
362.821	316.97
363.203	320.81
363.584	326.91
363.966	303.64
364.348	300.47
364.729	311.77
365.111	326.91
365.493	303.86
365.874	300.02
366.256	293.01
366.637	333.47
367.019	308.83
367.4	310.64
367.781	308.61
368.163	303.86
368.544	313.58
368.925	309.74
369.306	298.44
369.688	282.17
370.069	281.04
370.45	315.84
370.831	274.48
371.212	295.73
371.593	294.82
371.974	297.76
372.355	295.73
372.736	291.88
373.117	295.73
373.498	322.39
373.879	324.2
374.26	301.83
374.641	299.12
375.021	307.93
375.402	277.65
375.783	305.44
376.163	317.65
376.544	312.22
376.925	322.84
377.305	302.51
377.686	319.91
378.066	304.31
378.447	284.43
378.827	337.31
379.208	338.89
379.588	317.42
379.968	316.07
380.349	316.52
380.729	300.02
381.109	316.07
381.489	316.97
381.87	333.01
382.25	317.87
382.63	338.66
383.01	334.6
383.39	325.78
383.77	320.13
384.15	328.95
384.53	329.62
384.91	326.01
385.29	334.6
385.67	313.81
386.049	342.05
386.429	338.44
386.809	340.25
387.189	347.25
387.568	339.57
387.948	345.67
388.328	342.51
388.707	316.52
389.087	312.9
389.466	341.15
389.846	350.19
390.225	339.79
390.605	336.18
390.984	366.91
391.363	350.41
391.743	347.7
392.122	351.09
392.501	356.74
392.881	345.89
393.26	360.58
393.639	349.06
394.018	334.82
394.397	358.55
394.776	341.38
395.155	343.18
395.534	334.6
395.913	382.05
396.292	381.37
396.671	371.66
397.05	355.16
397.429	359.45
397.808	356.06
398.186	372.11
398.565	360.81
398.944	374.14
399.323	341.15
399.701	368.04
400.08	371.66
400.458	344.76
400.837	373.69
401.215	394.03
401.594	394.93
401.972	386.8
402.351	377.08
402.729	381.6
403.107	387.7
403.486	375.72
403.864	398.1
404.242	382.73
404.62	376.18
404.999	400.36
405.377	405.1
405.755	399.23
406.133	407.81
406.511	396.51
406.889	371.43
407.267	409.4
407.645	379.34
408.023	421.6
408.401	396.51
408.779	408.04
409.156	416.4
409.534	383.41
409.912	392.22
410.29	417.98
410.667	400.13
411.045	391.54
411.422	417.08
411.8	403.07
412.178	424.99
412.555	422.95
412.933	414.37
413.31	416.18
413.687	443.52
414.065	448.27
414.442	437.19
414.819	445.55
415.197	421.37
415.574	449.39
415.951	450.52
416.328	450.52
416.705	465.21
417.082	456.63
417.46	447.14
417.837	447.36
418.214	435.61
418.591	429.51
418.967	458.66
419.344	451.2
419.721	476.74
420.098	454.82
420.475	465.89
420.852	448.72
421.228	461.82
421.605	439
421.982	469.28
422.358	488.49
422.735	488.72
423.111	479.68
423.488	473.35
423.864	483.97
424.241	474.48
424.617	453.91
424.994	515.16
425.37	491.43
425.746	490.98
426.123	492.78
426.499	518.09
426.875	503.86
427.251	485.78
427.627	509.05
428.003	526.23
428.379	513.57
428.756	528.49
429.132	540.01
429.507	525.78
429.883	529.39
430.259	539.79
430.635	540.47
431.011	539.56
431.387	544.53
431.763	538.88
432.138	546.57
432.514	557.87
432.89	575.72
433.265	571.2
433.641	572.78
434.016	569.84
434.392	565.1
434.767	583.4
435.143	561.03
435.518	605.32
435.894	571.2
436.269	590.86
436.644	577.3
437.02	603.74
437.395	612.1
437.77	615.04
438.145	610.52
438.52	635.6
438.895	626.11
439.271	615.27
439.646	638.32
440.021	624.76
440.395	653.68
440.77	635.6
441.145	655.04
441.52	641.48
441.895	644.87
442.27	663.4
442.645	657.3
443.019	669.5
443.394	683.51
443.769	681.03
444.143	687.35
444.518	681.03
444.892	667.92
445.267	704.53
445.641	716.73
446.016	690.74
446.39	712.66
446.764	718.54
447.139	736.39
447.513	707.92
447.887	757.86
448.262	740.23
448.636	727.58
449.01	730.29
449.384	744.75
449.758	751.99
450.132	761.7
450.506	755.83
450.88	760.57
451.254	781.59
451.628	791.53
452.002	759.44
452.376	773.91
452.75	809.16
453.123	797.18
453.497	794.92
453.871	809.39
454.244	828.59
454.618	824.3
454.992	836.05
455.365	827.92
455.739	826.79
456.112	843.73
456.486	854.81
456.859	850.74
457.232	848.25
457.606	826.11
457.979	854.58
458.352	865.2
458.725	843.51
459.099	865.88
459.472	889.38
459.845	871.3
460.218	872.43
460.591	895.26
460.964	872.66
461.337	872.89
461.71	905.43
462.083	929.83
462.456	900.91
462.829	917.86
463.201	913.34
463.574	921.7
463.947	913.56
464.32	943.62
464.692	949.27
465.065	967.12
465.438	949.49
465.81	954.69
466.183	970.06
466.555	1011.19
466.928	993.56
467.3	959.44
467.672	989.49
468.045	1019.32
468.417	1020.68
468.789	1015.93
469.161	1010.96
469.534	1056.16
469.906	1041.02
470.278	1068.59
470.65	1076.05
471.022	1072.66
471.394	1074.46
471.766	1071.98
472.138	1097.97
472.51	1114.01
472.882	1116.27
473.253	1144.52
473.625	1151.98
473.997	1189.49
474.369	1181.13
474.74	1163.95
475.112	1173.22
475.484	1205.08
475.855	1210.73
476.227	1211.18
476.598	1255.7
476.97	1216.83
477.341	1282.82
477.713	1289.15
478.084	1289.15
478.455	1325.3
478.827	1288.47
479.198	1330.05
479.569	1325.08
479.94	1378.86
480.311	1398.75
480.682	1380.44
481.053	1429.03
481.424	1455.24
481.795	1449.37
482.166	1478.75
482.537	1488.24
482.908	1486.66
483.279	1516.26
483.65	1556.03
484.021	1583.83
484.391	1577.73
484.762	1584.96
485.133	1613.21
485.503	1623.15
485.874	1655.92
486.244	1674.45
486.615	1672.19
486.985	1683.71
487.356	1728.46
487.726	1711.73
488.097	1736.82
488.467	1761.68
488.837	1801.68
489.207	1805.07
489.578	1825.86
489.948	1868.57
490.318	1879.19
490.688	1857.04
491.058	1883.03
491.428	1927.55
491.798	1917.6
492.168	1963.25
492.538	1956.02
492.908	1982.24
493.278	2006.19
493.648	2011.39
494.017	2045.96
494.387	2083.25
494.757	2062.91
495.126	2079.18
495.496	2080.99
495.866	2075.11
496.235	2111.27
496.605	2146.98
496.974	2145.85
497.344	2161.21
497.713	2195.56
498.082	2203.25
498.452	2211.83
498.821	2206.41
499.19	2236.24
499.559	2282.34
499.928	2280.99
500.298	2300.19
500.667	2274.21
501.036	2286.41
501.405	2330.25
501.774	2342.68
502.143	2333.87
502.512	2359.4
502.88	2375.45
503.249	2380.64
503.618	2408.89
503.987	2423.35
504.356	2417.48
504.724	2473.52
505.093	2494.09
505.462	2484.6
505.83	2466.52
506.199	2488.44
506.567	2494.76
506.936	2490.25
507.304	2543.58
507.672	2568.44
508.041	2563.46
508.409	2560.98
508.777	2619.51
509.145	2660.18
509.514	2640.98
509.882	2653.63
510.25	2667.87
510.618	2681.65
510.986	2690.69
511.354	2711.48
511.722	2719.62
512.09	2752.84
512.458	2753.52
512.826	2761.88
513.193	2805.49
513.561	2797.36
513.929	2817.24
514.297	2824.93
514.664	2863.79
515.032	2868.31
515.4	2892.95
515.767	2906.96
516.135	2949.44
516.502	2953.74
516.869	2958.93
517.237	2985.6
517.604	2972.04
517.972	3007.52
518.339	3023.56
518.706	3012.72
519.073	3057.46
519.44	3075.31
519.808	3151.92
520.175	3105.14
520.542	3167.74
520.909	3191.47
521.276	3209.55
521.643	3206.16
522.009	3242.54
522.376	3268.08
522.743	3266.27
523.11	3289.77
523.477	3308.08
523.843	3331.58
524.21	3399.37
524.577	3362.31
524.943	3414.51
525.31	3431.69
525.676	3509.2
526.043	3453.61
526.409	3446.6
526.776	3494.06
527.142	3499.71
527.508	3540.84
527.874	3589.88
528.241	3574.74
528.607	3558.92
528.973	3592.36
529.339	3628.29
529.705	3693.38
530.071	3696.54
530.437	3716.65
530.803	3750.78
531.169	3713.49
531.535	3717.11
531.901	3769.53
532.267	3807.5
532.632	3803.66
532.998	3811.57
533.364	3835.52
533.73	3866.93
534.095	3873.94
534.461	3842.53
534.826	3887.5
535.192	3941.05
535.557	3976.53
535.923	3950.55
536.288	3945.57
536.653	4005.23
537.019	3955.74
537.384	3995.52
537.749	4026.7
538.114	4040.71
538.479	3993.26
538.845	4025.12
539.21	4029.41
539.575	4081.62
539.94	4088.62
540.305	4087.94
540.67	4113.93
541.034	4138.56
541.399	4146.7
541.764	4168.39
542.129	4113.25
542.494	4228.73
542.858	4197.09
543.223	4190.77
543.587	4167.72
543.952	4222.86
544.316	4195.51
544.681	4234.15
545.045	4276.64
545.41	4271.22
545.774	4246.36
546.138	4270.99
546.503	4335.17
546.867	4330.87
547.231	4360.48
547.595	4346.24
547.959	4349.86
548.324	4401.38
548.688	4391.89
549.052	4396.41
549.416	4441.83
549.779	4431.66
550.143	4408.84
550.507	4474.15
550.871	4503.07
551.235	4475.5
551.599	4515.05
551.962	4533.58
552.326	4505.33
552.689	4582.39
553.053	4521.38
553.417	4546.01
553.78	4627.14
554.143	4615.61
554.507	4575.39
554.87	4656.52
555.234	4728.38
555.597	4681.6
555.96	4689.06
556.323	4715.95
556.686	4750.52
557.05	4774.03
557.413	4783.74
557.776	4825.1
558.139	4809.96
558.502	4813.12
558.865	4802.5
559.228	4855.61
559.59	4866
559.953	4897.19
560.316	4995.94
560.679	4946.68
561.041	4976.96
561.404	5031.2
561.767	5073.23
562.129	4957.3
562.492	5098.99
562.854	5054.25
563.217	5105.09
563.579	5119.33
563.941	5095.83
564.304	5146.67
564.666	5193.68
565.028	5212.43
565.39	5210.63
565.753	5225.09
566.115	5229.83
566.477	5305.54
566.839	5255.37
567.201	5320.91
567.563	5359.77
567.925	5358.64
568.287	5389.38
568.648	5371.3
569.01	5438.64
569.372	5463.27
569.734	5435.25
570.095	5473.44
570.457	5504.86
570.819	5506.21
571.18	5505.76
571.542	5521.58
571.903	5584.85
572.265	5570.39
572.626	5601.35
572.987	5559.09
573.349	5646.09
573.71	5645.19
574.071	5647.9
574.432	5671.18
574.794	5749.82
575.155	5698.97
575.516	5633.21
575.877	5685.87
576.238	5720.22
576.599	5740.56
576.96	5731.29
577.32	5789.82
577.681	5817.39
578.042	5794.11
578.403	5734.91
578.763	5791.85
579.124	5788.46
579.485	5812.64
579.845	5810.84
580.206	5782.36
580.566	5840.44
580.927	5875.92
581.287	5865.3
581.648	5817.16
582.008	5851.29
582.368	5810.61
582.728	5815.13
583.089	5805.41
583.449	5856.94
583.809	5861.23
584.169	5904.39
584.529	5912.3
584.889	5882.02
585.249	5879.99
585.609	5828.91
585.969	5873.21
586.329	5871.17
586.688	5911.85
587.048	5896.94
587.408	5882.7
587.768	5861
588.127	5852.19
588.487	5834.11
588.846	5850.61
589.206	5846.77
589.565	5884.73
589.925	5897.84
590.284	5922.47
590.643	5852.19
591.003	5873.89
591.362	5907.78
591.721	5894.9
592.08	5882.25
592.44	5891.06
592.799	5884.96
593.158	5902.13
593.517	5915.01
593.876	5919.08
594.235	5925.41
594.593	5874.34
594.952	5940.32
595.311	5890.61
595.67	5927.67
596.029	5889.48
596.387	5921.79
596.746	5944.62
597.104	5918.4
597.463	5911.17
597.822	5952.53
598.18	5918.63
598.538	5929.25
598.897	5927.44
599.255	5864.85
599.613	5957.5
599.972	5911.4
600.33	5933.32
600.688	5877.27
601.046	5923.83
601.404	5939.19
601.762	5939.42
602.12	5944.39
602.478	5929.7
602.836	5927.89
603.194	5911.17
603.552	5956.82
603.91	5930.83
604.268	5986.2
604.625	5935.35
604.983	5959.98
605.341	5936.71
605.698	5946.2
606.056	6030.72
606.413	5943.71
606.771	5966.99
607.128	5976.26
607.485	5997.72
607.843	5971.06
608.2	6013.54
608.557	6009.47
608.914	5991.85
609.272	5965.41
609.629	6024.39
609.986	6041.11
610.343	6022.36
610.7	6080.89
611.057	5999.08
611.414	6031.85
611.771	6040.21
612.127	6055.8
612.484	6044.28
612.841	6004.05
613.198	6087.21
613.554	6007.89
613.911	6063.71
614.267	6072.75
614.624	6058.96
614.98	6094.44
615.337	6116.59
615.693	6038.63
616.05	6047.44
616.406	6124.95
616.762	6050.83
617.118	6111.62
617.475	6147.1
617.831	6084.28
618.187	6105.07
618.543	6091.05
618.899	6119.98
619.255	6031.85
619.611	6083.82
619.967	6131.05
620.323	6093.09
620.678	6090.6
621.034	6115.69
621.39	6101.22
621.746	6097.83
622.101	6098.29
622.457	6083.37
622.812	6068.46
623.168	6105.07
623.523	6157.49
623.879	6136.7
624.234	6104.39
624.589	6068.46
624.945	6016.93
625.3	6079.76
625.655	6089.7
626.01	6106.2
626.365	6037.27
626.72	6082.92
627.075	6106.87
627.43	6084.28
627.785	6003.6
628.14	6047.89
628.495	6058.96
628.85	6045.41
629.205	6032.3
629.559	6018.74
629.914	6014.45
630.269	6030.27
630.623	5949.59
630.978	5982.58
631.332	5982.58
631.687	5945.52
632.041	5960.21
632.396	5963.15
632.75	5932.87
633.104	5944.39
633.459	5953.66
633.813	5899.2
634.167	5858.29
634.521	5947.33
634.875	5915.01
635.229	5883.15
635.583	5911.85
635.937	5899.2
636.291	5864.62
636.645	5866.65
636.999	5800.67
637.352	5842.02
637.706	5807.45
638.06	5839.54
638.413	5805.41
638.767	5853.09
639.121	5779.88
639.474	5786.88
639.828	5815.58
640.181	5758.86
640.534	5753.44
640.888	5785.98
641.241	5734.91
641.594	5751.85
641.947	5718.86
642.301	5767.45
642.654	5691.52
643.007	5709.14
643.36	5746.43
643.713	5663.5
644.066	5735.81
644.419	5678.86
644.771	5605.64
645.124	5537.85
645.477	5527.91
645.83	5525.19
646.182	5543.27
646.535	5496.27
646.888	5559.09
647.24	5499.43
647.593	5533.78
647.945	5482.93
648.298	5485.87
648.65	5438.64
649.002	5446.55
649.355	5459.88
649.707	5409.26
650.059	5426.67
650.411	5480.68
650.763	5486.55
651.115	5571.52
651.467	5560
651.819	5509.37
652.171	5507.79
652.523	5470.51
652.875	5492.65
653.227	5499.43
653.578	5506.21
653.93	5472.77
654.282	5482.26
654.633	5477.29
654.985	5458.3
655.337	5457.85
655.688	5449.94
656.039	5506.21
656.391	5430.05
656.742	5415.59
657.094	5407
657.445	5468.7
657.796	5411.75
658.147	5464.63
658.498	5433.9
658.849	5384.41
659.2	5390.73
659.551	5364.97
659.902	5401.81
660.253	5399.1
660.604	5404.07
660.955	5313.45
661.306	5336.72
661.656	5338.08
662.007	5380.56
662.358	5344.41
662.708	5336.27
663.059	5284.75
663.409	5313
663.76	5347.12
664.11	5317.52
664.461	5336.27
664.811	5336.5
665.161	5365.42
665.511	5322.04
665.862	5312.54
666.212	5316.84
666.562	5326.55
666.912	5276.84
667.262	5289.49
667.612	5326.1
667.962	5344.63
668.312	5314.35
668.662	5324.75
669.011	5297.4
669.361	5312.32
669.711	5286.33
670.06	5258.99
670.41	5249.04
670.76	5196.61
671.109	5298.08
671.459	5226.44
671.808	5289.95
672.157	5257.4
672.507	5186.45
672.856	5169.04
673.205	5220.34
673.554	5272.09
673.904	5238.42
674.253	5221.92
674.602	5194.35
674.951	5147.58
675.3	5143.73
675.649	5165.43
675.998	5144.64
676.346	5158.65
676.695	5211.76
677.044	5141.25
677.393	5147.8
677.741	5174.92
678.09	5160.46
678.438	5129.95
678.787	5138.54
679.135	5116.62
679.484	5120.01
679.832	5122.49
680.181	5101.48
680.529	5088.37
680.877	5090.85
681.225	5062.61
681.573	5113.23
681.922	5099.67
682.27	5114.81
682.618	5100.35
682.966	5011.31
683.314	5058.31
683.661	5025.55
684.009	5000.91
684.357	4989.84
684.705	4980.35
685.053	4989.61
685.4	4948.26
685.748	4960.46
686.095	4958.65
686.443	4966.34
686.79	4917.3
687.138	4914.59
687.485	4936.96
687.832	4879.56
688.18	4886.11
688.527	4865.32
688.874	4880.69
689.221	4868.04
689.568	4814.03
689.915	4855.15
690.262	4836.17
690.609	4794.14
690.956	4819.68
691.303	4852.44
691.65	4759.56
691.997	4787.81
692.344	4809.73
692.69	4712.56
693.037	4753.24
693.383	4715.27
693.73	4762.95
694.077	4751.43
694.423	4683.86
694.769	4700.58
695.116	4746.46
695.462	4645.89
695.808	4656.06
696.155	4659.45
696.501	4564.54
696.847	4656.06
697.193	4620.13
697.539	4603.86
697.885	4580.36
698.231	4566.12
698.577	4533.81
698.923	4516.86
699.269	4515.28
699.614	4535.16
699.96	4470.53
700.306	4508.72
700.651	4490.87
700.997	4458.1
701.342	4470.53
701.688	4477.99
702.033	4425.34
702.379	4437.31
702.724	4469.85
703.069	4446.8
703.415	4393.7
703.76	4357.99
704.105	4402.51
704.45	4357.31
704.795	4339.24
705.14	4311.21
705.485	4322.74
705.83	4288.39
706.175	4277.77
706.52	4335.85
706.865	4294.72
707.209	4276.86
707.554	4247.71
707.899	4250.88
708.243	4261.05
708.588	4230.99
708.932	4222.4
709.277	4234.61
709.621	4224.21
709.966	4232.8
710.31	4190.99
710.654	4146.92
710.998	4178.11
711.342	4159.13
711.687	4179.24
712.031	4127.94
712.375	4111.22
712.719	4100.6
713.063	4137.43
713.407	4174.95
713.75	4082.52
714.094	4136.3
714.438	4068.96
714.782	4094.72
715.125	4084.78
715.469	4087.04
715.812	4078
716.156	4029.19
716.499	4029.19
716.843	4044.33
717.186	4058.11
717.53	4021.96
717.873	4022.63
718.216	4023.76
718.559	4013.82
718.902	3982.41
719.246	3978.34
719.589	3985.8
719.932	3932.92
720.275	3975.4
720.617	3940.6
720.96	3903.54
721.303	3973.6
721.646	3930.43
721.989	3917.78
722.331	3908.51
722.674	3924.33
723.016	3944.22
723.359	3888.63
723.701	3900.38
724.044	3881.85
724.386	3877.55
724.729	3852.92
725.071	3859.25
725.413	3856.09
725.755	3873.71
726.097	3833.49
726.439	3777.44
726.782	3784
727.124	3835.29
727.465	3834.62
727.807	3786.26
728.149	3803.21
728.491	3805.92
728.833	3810.44
729.175	3791.68
729.516	3772.7
729.858	3747.61
730.199	3789.87
730.541	3785.35
730.882	3790.55
731.224	3765.69
731.565	3765.69
731.906	3755.07
732.248	3737.67
732.589	3719.14
732.93	3709.87
733.271	3709.65
733.612	3698.8
733.953	3710.55
734.294	3717.11
734.635	3682.53
734.976	3717.56
735.317	3644.57
735.658	3718.24
735.999	3685.02
736.339	3645.7
736.68	3694.51
737.021	3661.51
737.361	3604.79
737.702	3663.1
738.042	3673.04
738.383	3580.39
738.723	3632.59
739.063	3654.73
739.404	3624.45
739.744	3623.32
740.084	3592.59
740.424	3598.46
740.764	3554.17
741.104	3593.04
741.444	3595.53
741.784	3608.18
742.124	3623.77
742.464	3559.37
742.804	3551.69
743.143	3599.82
743.483	3544.23
743.823	3559.82
744.162	3511.01
744.502	3515.3
744.841	3523.66
745.181	3522.31
745.52	3525.92
745.86	3553.27
746.199	3517.79
746.538	3506.04
746.877	3522.31
747.216	3521.4
747.556	3515.53
747.895	3470.78
748.234	3459.26
748.573	3478.69
748.911	3474.4
749.25	3501.52
749.589	3449.32
749.928	3480.05
750.267	3469.2
750.605	3444.34
750.944	3430.11
751.283	3402.76
751.621	3413.84
751.96	3379.26
752.298	3435.31
752.636	3413.61
752.975	3396.21
753.313	3374.06
753.651	3392.37
753.989	3367.96
754.327	3376.78
754.666	3372.03
755.004	3340.84
755.342	3335.42
755.679	3335.65
756.017	3305.37
756.355	3344.91
756.693	3300.39
757.031	3347.62
757.368	3277.8
757.706	3302.65
758.044	3262.65
758.381	3287.29
758.719	3299.72
759.056	3294.07
759.394	3273.73
759.731	3250.45
760.068	3217.23
760.405	3222.66
760.743	3239.38
761.08	3223.79
761.417	3264.24
761.754	3239.6
762.091	3193.5
762.428	3181.3
762.765	3159.83
763.102	3155.31
763.438	3143.11
763.775	3150.57
764.112	3135.2
764.449	3124.58
764.785	3127.74
765.122	3125.26
765.458	3086.84
765.795	3098.59
766.131	3130.91
766.467	3071.25
766.804	3098.59
767.14	3044.35
767.476	3062.89
767.812	3066.95
768.148	3013.4
768.485	3002.1
768.821	2987.41
769.157	3006.62
769.492	3000.51
769.828	2999.84
770.164	2959.61
770.5	2941.53
770.836	2989.89
771.171	2947.86
771.507	2961.87
771.842	2929.1
772.178	2903.57
772.513	2912.38
772.849	2890.01
773.184	2890.46
773.519	2878.71
773.855	2863.79
774.19	2834.64
774.525	2855.21
774.86	2858.82
775.195	2837.81
775.53	2824.02
775.865	2828.09
776.2	2812.5
776.535	2804.81
776.87	2813.17
777.205	2791.48
777.539	2722.56
777.874	2756.68
778.209	2765.94
778.543	2713.06
778.878	2730.24
779.212	2732.27
779.547	2711.26
779.881	2752.16
780.215	2700.18
780.55	2695.89
780.884	2696.57
781.218	2699.51
781.552	2681.65
781.886	2666.51
782.22	2685.95
782.554	2652.95
782.888	2657.02
783.222	2609.11
783.556	2585.61
783.889	2638.72
784.223	2559.4
784.557	2611.6
784.89	2585.61
785.224	2606.4
785.557	2572.73
785.891	2551.71
786.224	2535.22
786.558	2578.15
786.891	2539.06
787.224	2552.39
787.557	2525.95
787.891	2520.53
788.224	2543.13
788.557	2521.2
788.89	2508.55
789.223	2509
789.556	2469
789.888	2499.96
790.221	2452.28
790.554	2468.55
790.887	2417.93
791.219	2437.14
791.552	2421.55
791.884	2429.46
792.217	2397.82
792.549	2393.98
792.882	2405.28
793.214	2362.34
793.546	2410.47
793.879	2389.91
794.211	2367.31
794.543	2392.62
794.875	2380.19
795.207	2361.44
795.539	2340.87
795.871	2346.29
796.203	2328.22
796.535	2333.19
796.867	2316.01
797.198	2290.02
797.53	2323.24
797.862	2301.78
798.193	2351.27
798.525	2262.23
798.856	2236.69
799.188	2273.53
799.519	2286.86
799.85	2279.63
800.182	2275.79
800.513	2279.86
800.844	2240.53
801.175	2231.27
801.506	2204.15
801.837	2257.71
802.168	2207.09
802.499	2201.44
802.83	2188.11
803.161	2200.99
803.491	2186.3
803.822	2229.46
804.153	2228.56
804.483	2197.15
804.814	2151.72
805.145	2158.28
805.475	2211.61
805.805	2155.79
806.136	2166.64
806.466	2168.9
806.796	2146.07
807.126	2134.1
807.457	2130.48
807.787	2136.13
808.117	2154.21
808.447	2097.71
808.777	2107.2
809.107	2093.87
809.436	2130.71
809.766	2112.4
810.096	2093.42
810.426	2087.77
810.755	2103.14
811.085	2118.05
811.414	2093.42
811.744	2066.75
812.073	2051.39
812.403	2071.5
812.732	2074.44
813.061	2051.84
813.39	2047.09
813.719	2053.87
814.049	2081.89
814.378	2068.56
814.707	2059.07
815.036	2019.3
815.365	2027.66
815.693	1998.28
816.022	2017.94
816.351	2028.11
816.68	1978.62
817.008	2006.87
817.337	1998.05
817.665	1975.46
817.994	1992.41
818.322	1990.6
818.651	1955.34
818.979	1986.08
819.307	1972.97
819.636	1981.56
819.964	1946.08
820.292	1963.71
820.62	1958.28
820.948	1941.33
821.276	1977.49
821.604	1951.28
821.932	1958.51
822.259	1953.08
822.587	1961.22
822.915	1958.51
823.243	1984.04
823.57	1948.79
823.898	1954.44
824.225	1916.02
824.553	1953.54
824.88	1919.86
825.207	1950.6
825.535	1940.88
825.862	1952.18
826.189	1921.22
826.516	1916.7
826.843	1931.62
827.17	1912.41
827.497	1925.06
827.824	1947.66
828.151	1951.28
828.478	1930.03
828.805	1923.25
829.131	1933.88
829.458	1922.58
829.785	1933.88
830.111	1968.23
830.438	1958.06
830.764	1956.25
831.09	1959.64
831.417	1935.91
831.743	1935.46
832.069	1953.54
832.395	1954.44
832.722	1927.55
833.048	1890.71
833.374	1928
833.7	1963.93
834.026	1940.88
834.351	1925.97
834.677	1939.98
835.003	1902.92
835.329	1894.55
835.654	1904.5
835.98	1902.69
836.306	1917.83
836.631	1889.36
836.956	1916.93
837.282	1909.92
837.607	1877.15
837.932	1931.39
838.258	1922.58
838.583	1906.31
838.908	1938.4
839.233	1879.87
839.558	1884.61
839.883	1867.66
840.208	1853.88
840.533	1850.94
840.858	1898.4
841.182	1899.53
841.507	1867.21
841.832	1857.49
842.156	1874.22
842.481	1863.14
842.805	1860.88
843.13	1862.69
843.454	1850.94
843.778	1862.24
844.103	1859.98
844.427	1836.48
844.751	1857.49
845.075	1852.07
845.399	1829.92
845.723	1816.14
846.047	1834.22
846.371	1826.53
846.695	1803.26
847.019	1812.07
847.343	1767.33
847.666	1779.53
847.99	1745.41
848.313	1768.91
848.637	1741.79
848.96	1761.45
849.284	1749.47
849.607	1725.07
849.931	1726.2
850.254	1756.03
850.577	1735.46
850.9	1716.93
851.223	1703.83
851.546	1712.86
851.869	1703.6
852.192	1697.27
852.515	1704.96
852.838	1693.66
853.161	1696.37
853.483	1699.53
853.806	1704.05
854.129	1674.9
854.451	1686.2
854.774	1669.7
855.096	1689.59
855.419	1658.85
855.741	1658.4
856.063	1669.7
856.385	1646.88
856.708	1672.64
857.03	1646.88
857.352	1670.61
857.674	1670.38
857.996	1646.2
858.318	1616.82
858.64	1628.35
858.961	1595.13
859.283	1600.55
859.605	1617.73
859.926	1624.73
860.248	1618.86
860.57	1600.33
860.891	1587.67
861.212	1578.86
861.534	1591.51
861.855	1595.35
862.176	1592.42
862.498	1571.63
862.819	1595.81
863.14	1588.12
863.461	1592.87
863.782	1560.78
864.103	1586.54
864.424	1564.39
864.745	1582.25
865.065	1582.02
865.386	1569.59
865.707	1544.28
866.027	1573.21
866.348	1547.9
866.668	1554.45
866.989	1596.94
867.309	1563.49
867.63	1551.74
867.95	1600.33
868.27	1557.16
868.59	1564.39
868.91	1519.42
869.23	1559.2
869.55	1535.69
869.87	1537.05
870.19	1521.91
870.51	1529.37
870.83	1520.1
871.15	1490.72
871.469	1523.94
871.789	1519.2
872.109	1518.97
872.428	1520.1
872.748	1525.3
873.067	1499.31
873.386	1523.04
873.706	1502.47
874.025	1524.17
874.344	1498.86
874.663	1510.84
874.982	1509.71
875.301	1514.45
875.62	1491.85
875.939	1514.45
876.258	1504.28
876.577	1467.67
876.896	1503.15
877.214	1461.8
877.533	1468.35
877.852	1478.52
878.17	1473.77
878.489	1446.66
878.807	1459.76
879.125	1469.48
879.444	1456.37
879.762	1462.7
880.08	1471.74
880.398	1453.21
880.716	1478.97
881.034	1455.7
881.352	1464.06
881.67	1449.14
881.988	1475.13
882.306	1458.18
882.624	1417.28
882.941	1437.84
883.259	1443.27
883.577	1411.63
883.894	1423.61
884.212	1451.18
884.529	1430.61
884.846	1444.17
885.164	1433.32
885.481	1419.54
885.798	1415.25
886.115	1408.01
886.432	1409.82
886.75	1427
887.067	1405.08
887.383	1419.09
887.7	1413.21
888.017	1385.42
888.334	1391.07
888.651	1404.62
888.967	1384.29
889.284	1389.26
889.6	1393.1
889.917	1361.01
890.233	1378.41
890.55	1391.29
890.866	1368.24
891.182	1352.87
891.498	1372.08
891.815	1354.23
892.131	1375.47
892.447	1357.85
892.763	1347.68
893.079	1347.68
893.395	1361.91
893.71	1366.21
894.026	1355.13
894.342	1346.09
894.657	1337.96
894.973	1356.94
895.289	1346.77
895.604	1357.62
895.92	1315.36
896.235	1324.17
896.55	1327.56
896.865	1299.99
897.181	1320.56
897.496	1291.63
897.811	1278.53
898.126	1303.61
898.441	1297.73
898.756	1297.96
899.071	1277.62
899.386	1318.98
899.7	1289.6
900.015	1281.46
900.33	1287.11
900.644	1249.6
900.959	1274.23
901.273	1257.28
901.588	1240.79
901.902	1244.18
902.216	1246.21
902.531	1228.58
902.845	1238.75
903.159	1229.26
903.473	1212.76
903.787	1220.22
904.101	1227.91
904.415	1244.4
904.729	1221.35
905.042	1183.39
905.356	1210.05
905.67	1205.76
905.984	1224.52
906.297	1189.49
906.611	1208.7
906.924	1228.13
907.237	1185.65
907.551	1177.06
907.864	1192.2
908.177	1187.23
908.491	1212.76
908.804	1177.51
909.117	1180.22
909.43	1145.2
909.743	1172.77
910.056	1145.42
910.368	1160.11
910.681	1144.74
910.994	1148.36
911.307	1146.1
911.619	1137.29
911.932	1148.13
912.244	1115.37
912.557	1107.46
912.869	1143.84
913.181	1120.56
913.494	1150.39
913.806	1126.21
914.118	1111.07
914.43	1112.2
914.742	1083.05
915.054	1117.4
915.366	1132.99
915.678	1097.06
915.99	1109.72
916.302	1076.27
916.613	1091.64
916.925	1067.46
917.236	1095.48
917.548	1083.73
917.859	1086.67
918.171	1062.94
918.482	1071.75
918.794	1062.26
919.105	1082.37
919.416	1070.62
919.727	1065.88
920.038	1055.48
920.349	1056.16
920.66	1050.74
920.971	1067.46
921.282	1016.61
921.593	1031.98
921.903	1044.41
922.214	1041.24
922.525	1035.82
922.835	1033.56
923.146	1012.54
923.456	1005.99
923.767	1012.09
924.077	1010.28
924.387	1016.61
924.697	1005.76
925.008	980.68
925.318	1011.64
925.628	985.2
925.938	1013.22
926.248	981.36
926.558	1005.09
926.867	962.38
927.177	979.32
927.487	968.25
927.796	985.43
928.106	954.69
928.416	980
928.725	963.96
929.034	983.62
929.344	939.78
929.653	967.12
929.962	942.49
930.271	951.3
930.581	950.62
930.89	942.26
931.199	936.16
931.508	922.38
931.817	953.79
932.125	928.7
932.434	928.03
932.743	934.13
933.051	913.34
933.36	906.11
933.669	909.5
933.977	905.43
934.286	890.97
934.594	886.67
934.902	928.93
935.21	886.67
935.519	914.02
935.827	900.23
936.135	905.2
936.443	897.52
936.751	874.92
937.059	900.46
937.367	876.95
937.674	882.83
937.982	877.86
938.29	896.84
938.597	881.47
938.905	875.6
939.213	876.5
939.52	864.75
939.827	852.77
940.135	876.05
940.442	857.97
940.749	873.34
941.056	843.06
941.363	860.68
941.67	883.96
941.977	851.19
942.284	861.59
942.591	858.88
942.898	841.48
943.205	824.07
943.511	828.37
943.818	838.99
944.125	818.65
944.431	859.33
944.738	815.26
945.044	842.38
945.35	838.31
945.657	820.23
945.963	812.55
946.269	808.03
946.575	823.62
946.881	840.57
947.187	801.25
947.493	800.12
947.799	818.42
948.105	803.51
948.41	800.12
948.716	793.11
949.022	805.77
949.327	803.28
949.633	824.07
949.938	797.63
950.244	776.17
950.549	791.98
950.854	786.79
951.16	763.96
951.465	790.18
951.77	786.11
952.075	792.89
952.38	773.23
952.685	779.1
952.99	753.79
953.294	772.55
953.599	789.05
953.904	756.51
954.209	755.6
954.513	779.1
954.818	754.7
955.122	744.3
955.426	746.56
955.731	772.78
956.035	737.97
956.339	755.83
956.643	729.39
956.948	735.72
957.252	726.22
957.556	729.84
957.86	733.91
958.163	722.61
958.467	741.82
958.771	726.68
959.075	730.97
959.378	719.22
959.682	721.48
959.985	711.99
960.289	701.82
960.592	697.75
960.896	724.64
961.199	724.42
961.502	710.86
961.805	709.05
962.108	726.68
962.411	703.63
962.714	717.18
963.017	697.52
963.32	716.73
963.623	687.35
963.926	704.3
964.228	683.29
964.531	705.89
964.833	704.98
965.136	686.68
965.438	675.15
965.741	688.94
966.043	670.18
966.345	689.84
966.648	668.82
966.95	674.93
967.252	682.16
967.554	671.08
967.856	684.19
968.158	666.56
968.46	681.71
968.761	655.72
969.063	673.34
969.365	682.38
969.666	654.14
969.968	680.58
970.269	651.2
970.571	637.64
970.872	639.45
971.174	669.28
971.475	650.97
971.776	650.97
972.077	646.23
972.378	646.9
972.679	629.28
972.98	641.48
973.281	657.3
973.582	651.42
973.883	658.43
974.183	632.67
974.484	617.53
974.785	646.45
975.085	618.88
975.386	617.3
975.686	623.63
975.986	622.05
976.287	640.12
976.587	617.3
976.887	638.09
977.187	625.66
977.487	620.92
977.787	629.96
978.087	628.83
978.387	607.13
978.687	615.94
978.987	609.16
979.286	624.98
979.586	601.26
979.885	605.1
980.185	597.87
980.484	622.05
980.784	615.72
981.083	596.06
981.382	598.54
981.682	575.49
981.981	580.46
982.28	589.05
982.579	580.24
982.878	576.4
983.177	587.92
983.475	602.61
983.774	583.85
984.073	601.93
984.372	587.02
984.67	606.45
984.969	591.31
985.267	588.37
985.566	601.71
985.864	585.89
986.162	583.63
986.461	572.1
986.759	578.43
987.057	579.79
987.355	572.33
987.653	576.17
987.951	582.5
988.249	556.74
988.547	584.53
988.844	565.78
989.142	574.59
989.44	555.38
989.737	585.89
990.035	570.52
990.332	574.59
990.63	572.56
990.927	556.51
991.224	570.75
991.521	561.93
991.819	582.05
992.116	542.05
992.413	544.08
992.71	551.99
993.006	545.66
993.303	545.66
993.6	553.8
993.897	545.66
994.193	539.56
994.49	540.92
994.787	560.13
995.083	535.72
995.379	533.23
995.676	550.18
995.972	549.73
996.268	537.08
996.565	542.73
996.861	534.36
997.157	543.4
997.453	525.1
997.749	539.34
998.044	510.86
998.34	518.55
998.636	524.87
998.932	518.09
999.227	532.1
999.523	538.21
999.818	542.95
1000.114	509.28
1000.409	503.4
1000.704	506.34
1001	524.87
1001.295	516.96
1001.59	523.52
1001.885	530.52
1002.18	508.83
1002.475	490.75
1002.77	483.29
1003.065	495.5
1003.359	503.4
1003.654	512.9
1003.949	480.81
1004.243	485.33
1004.538	507.47
1004.832	506.79
1005.127	493.91
1005.421	487.13
1005.715	486.23
1006.009	470.19
1006.304	500.69
1006.598	494.14
1006.892	471.32
1007.186	476.74
1007.48	483.29
1007.773	483.97
1008.067	475.38
1008.361	477.87
1008.655	482.16
1008.948	481.48
1009.242	495.5
1009.535	458.89
1009.829	470.41
1010.122	455.27
1010.415	465.21
1010.708	482.61
1011.001	450.98
1011.295	471.99
1011.588	496.17
1011.881	452.33
1012.173	499.56
1012.466	475.16
1012.759	485.33
1013.052	457.98
1013.344	464.31
1013.637	459.11
1013.93	472.22
1014.222	464.08
1014.514	467.25
1014.807	459.11
1015.099	463.63
1015.391	451.2
1015.683	462.28
1015.976	469.28
1016.268	454.82
1016.56	442.39
1016.851	455.95
1017.143	465.89
1017.435	462.05
1017.727	442.39
1018.018	427.02
1018.31	449.17
1018.602	458.66
1018.893	425.89
1019.185	467.25
1019.476	436.97
1019.767	432.45
1020.058	452.33
1020.35	458.89
1020.641	451.65
1020.932	448.27
1021.223	442.84
1021.514	436.51
1021.804	404.2
1022.095	418.44
1022.386	429.96
1022.677	425.21
1022.967	425.67
1023.258	418.66
1023.548	429.51
1023.839	425.44
1024.129	411.2
1024.419	441.03
1024.709	415.95
1025	438.32
1025.29	409.17
1025.58	438.77
1025.87	407.59
1026.16	432.22
1026.449	430.19
1026.739	418.66
1027.029	411.43
1027.319	427.47
1027.608	415.95
1027.898	399.68
1028.187	419.11
1028.477	431.54
1028.766	420.47
1029.055	425.89
1029.344	380.47
1029.634	415.72
1029.923	403.75
1030.212	397.42
1030.501	395.16
1030.79	405.1
1031.078	409.4
1031.367	403.97
1031.656	396.97
1031.945	376.18
1032.233	411.66
1032.522	403.07
1032.81	409.4
1033.099	392.9
1033.387	390.41
1033.675	397.64
1033.963	379.57
1034.251	414.82
1034.54	424.54
1034.828	393.8
1035.116	405.78
1035.403	407.59
1035.691	400.36
1035.979	400.58
1036.267	393.58
1036.554	370.3
1036.842	393.35
1037.129	393.13
1037.417	400.58
1037.704	398.32
1037.992	381.83
1038.279	372.56
1038.566	375.05
1038.853	375.05
1039.14	375.05
