Data from foam1_polythene_foam_FLMS001491_00096.txt Node
Date: Wed Feb 08 10:55:40 GMT 2017
User: dcchb
Spectrometer: FLMS00149
Trigger mode: 0
Integration Time (sec): 2.000000E-2
Scans to average: 10
Electric dark correction enabled: true
Nonlinearity correction enabled: false
Boxcar width: 0
XAxis mode: Wavelengths
Number of Pixels in Spectrum: 2048
>>>>>Begin Spectral Data<<<<<
341.393	-12.51
341.776	-12.51
342.16	-12.51
342.543	-65.85
342.927	-56.58
343.31	-95
343.693	-52.74
344.077	-63.59
344.46	-66.98
344.843	-49.35
345.226	-30.59
345.61	-27.2
345.993	-29.46
346.376	-18.84
346.759	10.76
347.142	25
347.525	62.74
347.908	53.25
348.291	81.95
348.674	97.54
349.057	102.51
349.44	131.66
349.823	152
350.206	167.59
350.588	182.96
350.971	182.96
351.354	214.6
351.737	220.93
352.119	231.77
352.502	242.85
352.884	241.26
353.267	269.96
353.65	262.96
354.032	259.34
354.414	286.91
354.797	299.57
355.179	293.69
355.562	299.34
355.944	303.86
356.326	323.07
356.709	323.97
357.091	323.97
357.473	340.25
357.855	312.22
358.238	310.64
358.62	331.21
359.002	327.82
359.384	335.5
359.766	321.71
360.148	315.84
360.53	322.62
360.912	299.79
361.294	323.97
361.676	328.72
362.057	291.66
362.439	333.01
362.821	299.34
363.203	303.18
363.584	311.32
363.966	309.74
364.348	311.09
364.729	298.21
365.111	302.96
365.493	317.87
365.874	316.74
366.256	310.87
366.637	297.99
367.019	295.95
367.4	313.35
367.781	301.38
368.163	300.02
368.544	287.14
368.925	302.96
369.306	321.04
369.688	303.18
370.069	296.18
370.45	296.4
370.831	296.4
371.212	285.56
371.593	301.15
371.974	301.38
372.355	290.98
372.736	288.5
373.117	295.5
373.498	304.09
373.879	294.14
374.26	303.18
374.641	312.9
375.021	283.3
375.402	307.25
375.783	296.63
376.163	319.23
376.544	327.14
376.925	313.58
377.305	313.35
377.686	294.37
378.066	315.61
378.447	338.89
378.827	332.79
379.208	321.71
379.588	322.39
379.968	330.53
380.349	330.3
380.729	316.74
381.109	318.1
381.489	319.45
381.87	326.23
382.25	303.86
382.63	333.47
383.01	320.13
383.39	314.48
383.77	330.3
384.15	315.39
384.53	323.3
384.91	327.59
385.29	325.56
385.67	323.97
386.049	341.38
386.429	325.56
386.809	356.74
387.189	355.61
387.568	355.39
387.948	299.79
388.328	343.86
388.707	345.67
389.087	346.8
389.466	347.25
389.846	347.48
390.225	365.1
390.605	359
390.984	355.16
391.363	350.41
391.743	372.56
392.122	376.85
392.501	352.22
392.881	372.11
393.26	368.27
393.639	348.61
394.018	356.74
394.397	373.92
394.776	353.35
395.155	374.82
395.534	363.97
395.913	378.66
396.292	388.15
396.671	371.88
397.05	357.65
397.429	374.14
397.808	371.2
398.186	358.78
398.565	391.09
398.944	373.24
399.323	384.99
399.701	402.39
400.08	391.32
400.458	379.57
400.837	391.32
401.215	382.73
401.594	398.55
401.972	417.98
402.351	390.87
402.729	398.32
403.107	413.24
403.486	406.68
403.864	404.88
404.242	401.71
404.62	417.31
404.999	406.46
405.377	404.2
405.755	420.7
406.133	418.21
406.511	438.55
406.889	429.96
407.267	434.93
407.645	440.58
408.023	444.65
408.401	414.82
408.779	434.71
409.156	432.22
409.534	441.49
409.912	448.72
410.29	425.67
410.667	451.88
411.045	441.26
411.422	460.69
411.8	456.4
412.178	455.72
412.555	466.57
412.933	470.64
413.31	464.76
413.687	471.09
414.065	486
414.442	490.3
414.819	489.85
415.197	490.52
415.574	483.07
415.951	505.44
416.328	507.7
416.705	475.61
417.082	481.71
417.46	488.72
417.837	497.08
418.214	491.2
418.591	486.91
418.967	508.38
419.344	515.83
419.721	523.97
420.098	525.55
420.475	529.17
420.852	527.81
421.228	531.2
421.605	521.94
421.982	532.33
422.358	553.12
422.735	547.92
423.111	556.96
423.488	555.83
423.864	566.68
424.241	565.55
424.617	566.68
424.994	561.93
425.37	561.48
425.746	581.59
426.123	584.08
426.499	595.15
426.875	596.96
427.251	614.59
427.627	584.53
428.003	588.37
428.379	619.56
428.756	625.66
429.132	607.13
429.507	612.55
429.883	601.48
430.259	626.79
430.635	631.99
431.011	630.18
431.387	645.1
431.763	648.49
432.138	674.02
432.514	660.69
432.89	665.21
433.265	680.35
433.641	684.19
434.016	683.29
434.392	708.6
434.767	711.99
435.143	714.92
435.518	693.91
435.894	748.6
436.269	741.14
436.644	742.49
437.02	744.3
437.395	736.85
437.77	748.6
438.145	757.64
438.52	751.31
438.895	773.68
439.271	764.41
439.646	783.4
440.021	799.67
440.395	779.56
440.77	812.78
441.145	799.44
441.52	808.93
441.895	823.85
442.27	818.88
442.645	810.52
443.019	826.33
443.394	821.59
443.769	832.21
444.143	860.01
444.518	867.24
444.892	886.45
445.267	891.42
445.641	894.13
446.016	870.63
446.39	933.45
446.764	914.69
447.139	879.21
447.513	905.2
447.887	923.28
448.262	941.13
448.636	943.39
449.01	933.22
449.384	945.65
449.758	977.97
450.132	977.29
450.506	954.47
450.88	972.32
451.254	969.61
451.628	991.98
452.002	1006.44
452.376	1017.52
452.75	1016.39
453.123	1048.48
453.497	1058.19
453.871	1033.79
454.244	1064.75
454.618	1043.96
454.992	1071.3
455.365	1068.36
455.739	1088.93
456.112	1095.93
456.486	1093.67
456.859	1110.17
457.232	1109.94
457.606	1106.78
457.979	1118.76
458.352	1144.07
458.725	1171.64
459.099	1162.14
459.472	1173.22
459.845	1168.7
460.218	1196.04
460.591	1204.86
460.964	1170.96
461.337	1207.57
461.71	1220.67
462.083	1240.79
462.456	1242.37
462.829	1245.31
463.201	1244.18
463.574	1256.83
463.947	1254.8
464.32	1295.47
464.692	1306.1
465.065	1302.93
465.438	1318.3
465.81	1344.06
466.183	1358.07
466.555	1348.35
466.928	1383.61
467.3	1373.89
467.672	1389.48
468.045	1430.16
468.417	1426.77
468.789	1395.58
469.161	1448.01
469.534	1470.84
469.906	1504.51
470.278	1502.47
470.65	1478.75
471.022	1507.45
471.394	1521.91
471.766	1574.56
472.138	1576.37
472.51	1579.76
472.882	1644.17
473.253	1671.96
473.625	1671.96
473.997	1692.07
474.369	1703.83
474.74	1715.8
475.112	1739.76
475.484	1745.41
475.855	1800.55
476.227	1800.55
476.598	1855.23
476.97	1865.85
477.341	1872.18
477.713	1911.5
478.084	1926.19
478.455	1991.05
478.827	1996.47
479.198	2038.05
479.569	2051.39
479.94	2091.16
480.311	2091.84
480.682	2128.67
481.053	2157.15
481.424	2189.46
481.795	2247.54
482.166	2262
482.537	2286.18
482.908	2308.1
483.279	2342.68
483.65	2423.35
484.021	2452.51
484.391	2425.39
484.762	2465.39
485.133	2466.52
485.503	2518.49
485.874	2593.52
486.244	2584.93
486.615	2647.08
486.985	2663.35
487.356	2688.43
487.726	2734.53
488.097	2820.86
488.467	2809.78
488.837	2849.56
489.207	2903.79
489.578	2934.08
489.948	2924.13
490.318	2945.37
490.688	2966.62
491.058	3054.3
491.428	3106.05
491.798	3111.02
492.168	3175.2
492.538	3132.04
492.908	3182.66
493.278	3238.25
493.648	3229.66
494.017	3303.56
494.387	3361.18
494.757	3345.59
495.126	3404.8
495.496	3378.81
495.866	3441.41
496.235	3488.86
496.605	3490.67
496.974	3512.82
497.344	3552.59
497.713	3551.91
498.082	3556.43
498.452	3631.46
498.821	3641.4
499.19	3653.6
499.559	3715.3
499.928	3708.07
500.298	3707.61
500.667	3808.4
501.036	3769.99
501.405	3795.75
501.774	3843.88
502.143	3884.33
502.512	3883.65
502.88	3932.69
503.249	3956.42
503.618	3969.98
503.987	3954.61
504.356	3988.96
504.724	4048.4
505.093	4020.15
505.462	4118.68
505.83	4140.15
506.199	4142.86
506.567	4182.63
506.936	4201.39
507.304	4242.97
507.672	4231.44
508.041	4272.57
508.409	4373.36
508.777	4366.81
509.145	4420.59
509.514	4367.26
509.882	4428.95
510.25	4445.45
510.618	4514.37
510.986	4504.43
511.354	4527.48
511.722	4576.52
512.09	4642.28
512.458	4603.64
512.826	4710.07
513.193	4704.42
513.561	4740.58
513.929	4762.28
514.297	4840.24
514.664	4835.72
515.032	4870.97
515.4	4873.23
515.767	4971.99
516.135	5035.04
516.502	4951.42
516.869	5036.84
517.237	5035.49
517.604	5038.2
517.972	5112.78
518.339	5131.98
518.706	5168.37
519.073	5155.03
519.44	5270.06
519.808	5282.71
520.175	5343.05
520.542	5367.68
520.909	5395.71
521.276	5459.43
521.643	5461.47
522.009	5528.13
522.376	5590.95
522.743	5589.6
523.11	5673.66
523.477	5703.72
523.843	5737.84
524.21	5761.57
524.577	5827.56
524.943	5886.54
525.31	5884.96
525.676	5935.58
526.043	6019.64
526.409	6010.38
526.776	6096.93
527.142	6140.54
527.508	6178.96
527.874	6240.2
528.241	6204.5
528.607	6224.84
528.973	6316.13
529.339	6313.2
529.705	6374.66
530.071	6433.64
530.437	6455.79
530.803	6461.89
531.169	6502.34
531.535	6504.83
531.901	6548.9
532.267	6590.7
532.632	6609.46
532.998	6647.88
533.364	6716.57
533.73	6791.6
534.095	6795.89
534.461	6832.5
534.826	6766.29
535.192	6923.8
535.557	6949.79
535.923	6911.37
536.288	6988.88
536.653	6994.76
537.019	7033.85
537.384	7025.49
537.749	7075.66
538.114	7083.57
538.479	7106.85
538.845	7214.64
539.21	7192.95
539.575	7226.17
539.94	7181.87
540.305	7228.88
540.67	7188.65
541.034	7248.54
541.399	7338.71
541.764	7312.72
542.129	7410.12
542.494	7349.55
542.858	7453.28
543.223	7416.22
543.587	7467.06
543.952	7470
544.316	7493.5
544.681	7559.26
545.045	7576.21
545.41	7646.27
545.774	7630.45
546.138	7655.31
546.503	7710.45
546.867	7682.2
547.231	7732.14
547.595	7861.4
547.959	7848.07
548.324	7828.64
548.688	7835.64
549.052	7937.56
549.416	7888.52
549.779	7892.82
550.143	7853.49
550.507	8012.36
550.871	8070.21
551.235	8055.07
551.599	8118.57
551.962	8119.48
552.326	8094.62
552.689	8175.07
553.053	8185.01
553.417	8223.88
553.78	8318.11
554.143	8330.09
554.507	8387.04
554.87	8349.3
555.234	8466.13
555.597	8317.89
555.96	8410.54
556.323	8458.22
556.686	8475.62
557.05	8585.45
557.413	8632.68
557.776	8641.27
558.139	8676.75
558.502	8725.11
558.865	8738.44
559.228	8764.43
559.59	8805.56
559.953	8798.78
560.316	8962.62
560.679	8971.43
561.041	8973.24
561.404	9066.8
561.767	9012.33
562.129	8970.98
562.492	9092.11
562.854	9106.57
563.217	9167.58
563.579	9208.26
563.941	9326.45
564.304	9264.08
564.666	9327.58
565.028	9334.36
565.39	9367.8
565.753	9407.35
566.115	9421.59
566.477	9519.89
566.839	9621.36
567.201	9680.56
567.563	9639.89
567.925	9661.36
568.287	9746.33
568.648	9693.67
569.01	9708.13
569.372	9849.83
569.734	9827.23
570.095	9966.21
570.457	9910.62
570.819	9953.33
571.18	9922.82
571.542	10019.09
571.903	9963.27
572.265	10066.32
572.626	10062.48
572.987	10121.01
573.349	10158.52
573.71	10173.89
574.071	10208.46
574.432	10255.24
574.794	10296.37
575.155	10261.34
575.516	10241.23
575.877	10341.56
576.238	10337.95
576.599	10466.08
576.96	10447.78
577.32	10359.87
577.681	10469.02
578.042	10517.15
578.403	10487.1
578.763	10496.36
579.124	10470.15
579.485	10524.84
579.845	10565.06
580.206	10509.7
580.566	10521.22
580.927	10597.6
581.287	10637.38
581.648	10565.29
582.008	10612.29
582.368	10575
582.728	10633.76
583.089	10758.5
583.449	10602.57
583.809	10640.99
584.169	10750.14
584.529	10736.13
584.889	10760.76
585.249	10619.07
585.609	10551.28
585.969	10645.74
586.329	10691.84
586.688	10735.23
587.048	10681.67
587.408	10692.29
587.768	10668.56
588.127	10690.48
588.487	10644.61
588.846	10693.42
589.206	10606.42
589.565	10599.18
589.925	10663.36
590.284	10719.63
590.643	10776.81
591.003	10826.52
591.362	10788.78
591.721	10696.13
592.08	10678.28
592.44	10697.71
592.799	10792.85
593.158	10736.81
593.517	10739.97
593.876	10726.19
594.235	10802.8
594.593	10722.8
594.952	10825.17
595.311	10662.69
595.67	10803.02
596.029	10855
596.387	10820.2
596.746	10857.03
597.104	10768.45
597.463	10772.74
597.822	10864.04
598.18	10791.72
598.538	10693.42
598.897	10860.65
599.255	10790.59
599.613	10904.26
599.972	10764.83
600.33	10902.45
600.688	10776.13
601.046	10879.4
601.404	10957.59
601.762	10950.36
602.12	10927.09
602.478	11001.21
602.836	10926.63
603.194	10843.92
603.552	10957.59
603.91	10848.9
604.268	10920.53
604.625	10893.87
604.983	10964.37
605.341	10942.45
605.698	10991.49
606.056	11034.43
606.413	10978.84
606.771	11048.89
607.128	10930.93
607.485	10885.73
607.843	11003.02
608.2	11048.89
608.557	11137.02
608.914	11077.36
609.272	11096.57
609.629	11112.62
609.986	11152.84
610.343	11134.31
610.7	11153.75
611.057	11055.44
611.414	11169.57
611.771	11188.77
612.127	11198.04
612.484	11178.38
612.841	11226.96
613.198	11132.05
613.554	11182.45
613.911	11291.82
614.267	11335.44
614.624	11257.47
614.98	11245.72
615.337	11278.71
615.693	11196.68
616.05	11267.87
616.406	11305.38
616.762	11307.87
617.118	11285.27
617.475	11225.38
617.831	11378.15
618.187	11390.12
618.543	11374.53
618.899	11343.57
619.255	11348.77
619.611	11385.6
619.967	11354.87
620.323	11407.75
620.678	11378.37
621.034	11396.23
621.39	11416.56
621.746	11400.07
622.101	11494.3
622.457	11255.66
622.812	11356
623.168	11383.34
623.523	11358.49
623.879	11368.66
624.234	11346.06
624.589	11370.01
624.945	11426.73
625.3	11374.08
625.655	11358.49
626.01	11356.9
626.365	11422.44
626.72	11314.65
627.075	11336.79
627.43	11357.13
627.785	11308.09
628.14	11362.55
628.495	11386.73
628.85	11372.95
629.205	11280.75
629.559	11398.03
629.914	11290.92
630.269	11330.69
630.623	11284.82
630.978	11198.49
631.332	11230.58
631.687	11238.49
632.041	11246.4
632.396	11282.56
632.75	11157.81
633.104	11229.9
633.459	11148.32
633.813	11145.61
634.167	11146.74
634.521	11077.14
634.875	11213.86
635.229	11150.13
635.583	11036.69
635.937	11100.64
636.291	11075.1
636.645	11066.97
636.999	11070.36
637.352	11122.33
637.706	10961.21
638.06	11026.29
638.413	10977.03
638.767	10934.99
639.121	11071.04
639.474	10952.62
639.828	10868.78
640.181	10943.36
640.534	10901.1
640.888	10943.58
641.241	10854.32
641.594	10904.94
641.947	10890.93
642.301	10871.72
642.654	10851.61
643.007	10814.77
643.36	10829.24
643.713	10756.47
644.066	10875.56
644.419	10781.55
644.771	10736.81
645.124	10668.79
645.477	10682.57
645.83	10614.1
646.182	10529.13
646.535	10385.63
646.888	10422.24
647.24	10362.58
647.593	10489.81
647.945	10302.24
648.298	10371.17
648.65	10298.63
649.002	10291.17
649.355	10409.81
649.707	10331.62
650.059	10375.46
650.411	10515.34
650.763	10489.81
651.115	10569.58
651.467	10532.29
651.819	10541.33
652.171	10463.59
652.523	10523.71
652.875	10430.15
653.227	10389.7
653.578	10522.8
653.93	10471.5
654.282	10450.26
654.633	10355.58
654.985	10376.37
655.337	10389.47
655.688	10326.2
656.039	10381.11
656.391	10314.67
656.742	10324.84
657.094	10317.16
657.445	10369.36
657.796	10390.83
658.147	10352.41
658.498	10280.32
658.849	10333.43
659.2	10304.05
659.551	10273.09
659.902	10292.75
660.253	10291.62
660.604	10332.3
660.955	10187.9
661.306	10231.96
661.656	10283.71
662.007	10287.1
662.358	10264.5
662.708	10251.17
663.059	10215.01
663.409	10239.65
663.76	10262.92
664.11	10228.57
664.461	10181.79
664.811	10236.71
665.161	10171.85
665.511	10101.34
665.862	10158.74
666.212	10188.57
666.562	10190.83
666.912	10132.53
667.262	10127.11
667.612	10203.94
667.962	10163.04
668.312	10131.63
668.662	10139.31
669.011	10149.7
669.361	10080.33
669.711	10091.63
670.06	10055.24
670.41	10067.45
670.76	10064.96
671.109	10054.34
671.459	10116.26
671.808	10058.86
672.157	10078.75
672.507	10093.66
672.856	10082.59
673.205	10028.13
673.554	10019.31
673.904	10007.79
674.253	10070.16
674.602	9979.77
674.951	9935.02
675.3	9752.88
675.649	9932.54
675.998	9944.06
676.346	9983.38
676.695	9978.18
677.044	9918.52
677.393	9979.09
677.741	9939.54
678.09	9934.34
678.438	9949.94
678.787	9905.64
679.135	9893.44
679.484	9868.81
679.832	9869.94
680.181	9818.87
680.529	9792.88
680.877	9833.78
681.225	9857.96
681.573	9903.16
681.922	9811.18
682.27	9771.64
682.618	9786.78
682.966	9780.9
683.314	9753.11
683.661	9682.82
684.009	9697.29
684.357	9617.29
684.705	9675.37
685.053	9670.4
685.4	9688.47
685.748	9581.13
686.095	9603.05
686.443	9572.09
686.79	9636.95
687.138	9617.97
687.485	9605.54
687.832	9524.64
688.18	9490.29
688.527	9457.75
688.874	9457.52
689.221	9384.53
689.568	9394.92
689.915	9380.01
690.262	9347.24
690.609	9340.23
690.956	9310.4
691.303	9265.66
691.65	9266.11
691.997	9323.29
692.344	9185.89
692.69	9230.63
693.037	9216.17
693.383	9174.14
693.73	9168.49
694.077	9112.22
694.423	9056.17
694.769	9034.25
695.116	8973.69
695.462	9055.72
695.808	9026.8
696.155	9001.26
696.501	8966.69
696.847	8974.59
697.193	8907.25
697.539	8944.09
697.885	8859.57
698.231	8839.46
698.577	8785.67
698.923	8800.36
699.269	8691.66
699.614	8704.55
699.96	8633.59
700.306	8686.47
700.651	8682.17
700.997	8702.51
701.342	8632.23
701.688	8677.2
702.033	8548.39
702.379	8611.67
702.724	8590.65
703.069	8560.59
703.415	8326.7
703.76	8443.54
704.105	8430.88
704.45	8436.08
704.795	8420.48
705.14	8359.47
705.485	8371.45
705.83	8366.7
706.175	8411.67
706.52	8318.79
706.865	8360.83
707.209	8317.66
707.554	8241.05
707.899	8298.23
708.243	8229.08
708.588	8227.27
708.932	8152.47
709.277	8126.71
709.621	8088.29
709.966	8103.88
710.31	8066.82
710.654	8035.86
710.998	8058.23
711.342	8111.57
711.687	8076.54
712.031	7975.3
712.375	7963.55
712.719	7998.35
713.063	8005.58
713.407	8002.42
713.75	7971.01
714.094	7868.41
714.438	7842.42
714.782	7907.05
715.125	7846.94
715.469	7826.83
715.812	7812.14
716.156	7795.64
716.499	7865.25
716.843	7810.56
717.186	7803.78
717.53	7826.38
717.873	7787.96
718.216	7785.93
718.559	7786.38
718.902	7717.23
719.246	7725.36
719.589	7675.87
719.932	7637
720.275	7585.7
720.617	7630.9
720.96	7594.29
721.303	7626.16
721.646	7604.91
721.989	7599.72
722.331	7597.23
722.674	7574.63
723.016	7549.32
723.359	7593.84
723.701	7518.14
724.044	7477.68
724.386	7488.31
724.729	7451.92
725.071	7518.36
725.413	7495.31
725.755	7446.27
726.097	7411.02
726.439	7411.02
726.782	7437.01
727.124	7384.35
727.465	7348.65
727.807	7372.38
728.149	7360.85
728.491	7302.1
728.833	7303.45
729.175	7275.88
729.516	7340.74
729.858	7278.82
730.199	7285.15
730.541	7306.62
730.882	7246.96
731.224	7206.05
731.565	7247.41
731.906	7246.96
732.248	7219.39
732.589	7197.47
732.93	7157.02
733.271	7155.66
733.612	7161.08
733.953	7201.76
734.294	7186.84
734.635	7129.22
734.976	7116.11
735.317	7113.85
735.658	7051.93
735.999	7071.82
736.339	7085.6
736.68	7075.44
737.021	7055.32
737.361	6998.38
737.702	7152.5
738.042	7034.98
738.383	6981.65
738.723	7007.64
739.063	6956.12
739.404	6978.71
739.744	7031.37
740.084	7028.21
740.424	7052.39
740.764	6937.59
741.104	6976.68
741.444	6926.29
741.784	6881.54
742.124	6945.04
742.464	6893.97
742.804	6817.14
743.143	6864.37
743.483	6894.65
743.823	6801.32
744.162	6818.72
744.502	6842.45
744.841	6757.25
745.181	6808.55
745.52	6772.62
745.86	6857.59
746.199	6781.43
746.538	6752.05
746.877	6766.97
747.216	6739.4
747.556	6731.26
747.895	6690.81
748.234	6683.36
748.573	6730.59
748.911	6676.8
749.25	6650.14
749.589	6653.3
749.928	6705.95
750.267	6583.92
750.605	6598.84
750.944	6672.51
751.283	6569.23
751.621	6606.75
751.96	6557.71
752.298	6547.77
752.636	6583.02
752.975	6547.77
753.313	6527.2
753.651	6539.4
753.989	6501.67
754.327	6445.17
754.666	6446.75
755.004	6437.26
755.342	6459.63
755.679	6421.44
756.017	6367.88
756.355	6454.89
756.693	6380.54
757.031	6370.37
757.368	6355.23
757.706	6413.53
758.044	6332.18
758.381	6334.21
758.719	6311.84
759.056	6344.38
759.394	6288.56
759.731	6167.66
760.068	6247.66
760.405	6227.55
760.743	6169.92
761.08	6174.44
761.417	6082.02
761.754	6068.23
762.091	6139.87
762.428	6085.4
762.765	6088.34
763.102	6136.25
763.438	6075.46
763.775	6040.66
764.112	6100.77
764.449	6056.93
764.785	5990.49
765.122	6031.4
765.458	5943.49
765.795	5962.02
766.131	5929.7
766.467	5887.67
766.804	5877.73
767.14	5862.36
767.476	5814.45
767.812	5815.81
768.148	5835.69
768.485	5802.7
768.821	5785.53
769.157	5776.94
769.492	5755.92
769.828	5737.39
770.164	5698.97
770.5	5692.87
770.836	5717.73
771.171	5635.25
771.507	5664.63
771.842	5574.01
772.178	5578.07
772.513	5597.73
772.849	5571.75
773.184	5533.33
773.519	5474.57
773.855	5444.07
774.19	5451.75
774.525	5453.78
774.86	5414.46
775.195	5420.34
775.53	5418.08
775.865	5385.54
776.2	5344.41
776.535	5336.27
776.87	5357.74
777.205	5362.71
777.539	5333.33
777.874	5328.36
778.209	5253.79
778.543	5270.29
778.878	5182.83
779.212	5204.75
779.547	5200.91
779.881	5136.05
780.215	5115.26
780.55	5160.91
780.884	5105.09
781.218	5131.31
781.552	5148.03
781.886	5070.52
782.22	5088.37
782.554	5080.69
782.888	5042.49
783.222	5034.36
783.556	4992.33
783.889	5015.83
784.223	4933.34
784.557	4904.42
784.89	4928.83
785.224	4910.07
785.557	4862.61
785.891	4898.09
786.224	4831.43
786.558	4811.31
786.891	4760.24
787.224	4793.69
787.557	4764.08
787.891	4761.15
788.224	4802.27
788.557	4753.01
788.89	4793.24
789.223	4751.2
789.556	4784.42
789.888	4719.79
790.221	4710.3
790.554	4724.08
790.887	4666.23
791.219	4656.97
791.552	4645.44
791.884	4595.73
792.217	4588.5
792.549	4561.83
792.882	4451.1
793.214	4539
793.546	4470.31
793.879	4495.84
794.211	4459.91
794.543	4457.43
794.875	4439.8
795.207	4503.3
795.539	4474.37
795.871	4459.68
796.203	4448.61
796.535	4445.9
796.867	4414.04
797.198	4400.03
797.53	4402.29
797.862	4358.44
798.193	4388.73
798.525	4269.18
798.856	4337.43
799.188	4289.97
799.519	4235.96
799.85	4182.4
800.182	4215.4
800.513	4209.3
800.844	4170.88
801.175	4198.67
801.506	4222.18
801.837	4233.25
802.168	4201.39
802.499	4228.5
802.83	4173.59
803.161	4190.99
803.491	4193.25
803.822	4168.85
804.153	4142.18
804.483	4070.09
804.814	4091.79
805.145	4097.43
805.475	4044.55
805.805	4056.98
806.136	4062.86
806.466	4017.66
806.796	4013.6
807.126	3918.46
807.457	3954.61
807.787	3994.39
808.117	3981.96
808.447	3996.65
808.777	4025.35
809.107	3986.25
809.436	3961.39
809.766	3970.43
810.096	4015.63
810.426	3932.02
810.755	3943.77
811.085	3955.74
811.414	3936.53
811.744	3852.7
812.073	3855.86
812.403	3803.66
812.732	3833.26
813.061	3823.54
813.39	3773.15
813.719	3796.2
814.049	3786.48
814.378	3781.74
814.707	3762.3
815.036	3786.71
815.365	3801.62
815.693	3791
816.022	3766.82
816.351	3779.02
816.68	3742.64
817.008	3761.4
817.337	3757.1
817.665	3683.43
817.994	3707.84
818.322	3700.38
818.651	3656.77
818.979	3668.75
819.307	3693.38
819.636	3668.52
819.964	3631.46
820.292	3651.12
820.62	3625.36
820.948	3656.32
821.276	3654.96
821.604	3592.14
821.932	3650.89
822.259	3663.32
822.587	3631.91
822.915	3643.89
823.243	3663.55
823.57	3679.82
823.898	3632.81
824.225	3627.84
824.553	3668.75
824.88	3676.2
825.207	3640.27
825.535	3675.52
825.862	3692.93
826.189	3607.73
826.516	3624.9
826.843	3611.12
827.17	3609.54
827.497	3611.35
827.824	3600.5
828.151	3609.76
828.478	3586.94
828.805	3635.3
829.131	3626.94
829.458	3637.56
829.785	3594.85
830.111	3627.16
830.438	3647.05
830.764	3635.07
831.09	3637.11
831.417	3584.91
831.743	3638.01
832.069	3618.8
832.395	3555.3
832.722	3610.67
833.048	3587.17
833.374	3578.58
833.7	3568.63
834.026	3567.73
834.351	3533.38
834.677	3569.54
835.003	3586.04
835.329	3561.63
835.654	3557.34
835.98	3564.12
836.306	3544.23
836.631	3562.76
836.956	3573.83
837.282	3578.35
837.607	3543.78
837.932	3525.25
838.258	3578.58
838.583	3528.64
838.908	3548.97
839.233	3529.99
839.558	3530.9
839.883	3567.96
840.208	3449.77
840.533	3456.77
840.858	3435.76
841.182	3475.98
841.507	3424.91
841.832	3468.3
842.156	3425.59
842.481	3398.92
842.805	3403.67
843.13	3421.07
843.454	3420.62
843.778	3405.93
844.103	3454.06
844.427	3418.36
844.751	3468.75
845.075	3455.87
845.399	3415.64
845.723	3417
846.047	3431.46
846.371	3405.7
846.695	3389.66
847.019	3337.23
847.343	3321.18
847.666	3302.88
847.99	3290.45
848.313	3291.58
848.637	3279.6
848.96	3278.93
849.284	3227.63
849.607	3229.43
849.931	3250.45
850.254	3203.9
850.577	3155.99
850.9	3160.06
851.223	3182.2
851.546	3177.68
851.869	3201.64
852.192	3211.13
852.515	3142.43
852.838	3155.31
853.161	3147.4
853.483	3111.7
853.806	3121.42
854.129	3096.11
854.451	3080.51
854.774	3031.25
855.096	3052.26
855.419	3030.12
855.741	3034.19
856.063	3019.72
856.385	2987.18
856.708	3040.29
857.03	3015.88
857.352	2993.51
857.674	2951.93
857.996	2978.82
858.318	2946.73
858.64	2955.77
858.961	2970.23
859.283	2933.62
859.605	2949.44
859.926	2936.11
860.248	2967.07
860.57	2968.42
860.891	2949.89
861.212	2945.15
861.534	2924.13
861.855	2895.88
862.176	2916.45
862.498	2878.71
862.819	2933.4
863.14	2862.66
863.461	2858.6
863.782	2857.02
864.103	2839.39
864.424	2822.89
864.745	2874.64
865.065	2845.49
865.386	2839.39
865.707	2813.17
866.027	2807.07
866.348	2810.24
866.668	2793.51
866.989	2808.2
867.309	2784.93
867.63	2851.82
867.95	2824.02
868.27	2781.09
868.59	2817.47
868.91	2796.45
869.23	2790.12
869.55	2777.47
869.87	2801.65
870.19	2795.32
870.51	2776.57
870.83	2793.06
871.15	2723.69
871.469	2716.23
871.789	2780.86
872.109	2745.83
872.428	2752.61
872.748	2728.88
873.067	2698.15
873.386	2691.14
873.706	2768.43
874.025	2726.85
874.344	2713.97
874.663	2733.4
874.982	2703.12
875.301	2736.34
875.62	2718.94
875.939	2696.79
876.258	2712.16
876.577	2680.3
876.896	2720.97
877.214	2670.81
877.533	2688.66
877.852	2704.48
878.17	2697.02
878.489	2702.9
878.807	2676
879.125	2704.93
879.444	2701.54
879.762	2674.65
880.08	2632.39
880.398	2638.04
880.716	2591.71
881.034	2623.8
881.352	2624.7
881.67	2637.36
881.988	2652.27
882.306	2619.28
882.624	2581.54
882.941	2601.88
883.259	2584.48
883.577	2603.46
883.894	2594.42
884.212	2582.22
884.529	2602.11
884.846	2620.19
885.164	2581.09
885.481	2584.93
885.798	2578.83
886.115	2560.53
886.432	2573.86
886.75	2578.83
887.067	2558.72
887.383	2555.1
887.7	2504.93
888.017	2530.02
888.334	2527.98
888.651	2544.93
888.967	2487.08
889.284	2497.48
889.6	2506.74
889.917	2506.74
890.233	2432.39
890.55	2470.58
890.866	2502.22
891.182	2481.66
891.498	2495.67
891.815	2474.88
892.131	2457.93
892.447	2468.55
892.763	2475.56
893.079	2451.6
893.395	2439.4
893.71	2439.63
894.026	2403.02
894.342	2427.65
894.657	2394.2
894.973	2414.09
895.289	2382.68
895.604	2381.55
895.92	2374.54
896.235	2345.39
896.55	2357.14
896.865	2341.32
897.181	2339.74
897.496	2336.58
897.811	2333.87
898.126	2328.44
898.441	2305.62
898.756	2321.89
899.071	2313.3
899.386	2306.3
899.7	2343.58
900.015	2282.79
900.33	2306.97
900.644	2289.8
900.959	2269.91
901.273	2287.76
901.588	2278.95
901.902	2278.95
902.216	2261.32
902.531	2239.4
902.845	2253.19
903.159	2244.6
903.473	2209.57
903.787	2187.2
904.101	2184.49
904.415	2156.02
904.729	2198.05
905.042	2161.21
905.356	2156.92
905.67	2152.4
905.984	2178.16
906.297	2143.36
906.611	2116.92
906.924	2112.18
907.237	2140.65
907.551	2100.65
907.864	2103.14
908.177	2118.96
908.491	2095.23
908.804	2122.8
909.117	2102.68
909.43	2102.68
909.743	2086.19
910.056	2081.22
910.368	2051.84
910.681	2027.43
910.994	2065.4
911.307	2073.31
911.619	2026.08
911.932	2054.78
912.244	2022.01
912.557	2041.44
912.869	2028.11
913.181	2014.78
913.494	1969.35
913.806	1965.06
914.118	1979.98
914.43	1920.32
914.742	1946.08
915.054	1940.2
915.366	1914.44
915.678	1920.09
915.99	1883.71
916.302	1918.73
916.613	1913.54
916.925	1911.05
917.236	1930.49
917.548	1908.57
917.859	1923.03
918.171	1893.42
918.482	1920.77
918.794	1885.74
919.105	1880.77
919.416	1873.31
919.727	1855.69
920.038	1867.44
920.349	1859.98
920.66	1817.04
920.971	1852.07
921.282	1849.13
921.593	1817.27
921.903	1800.55
922.214	1808.23
922.525	1780.43
922.835	1796.03
923.146	1769.13
923.456	1779.98
923.767	1781.34
924.077	1769.81
924.387	1716.03
924.697	1751.96
925.008	1720.55
925.318	1733.2
925.628	1715.8
925.938	1728.68
926.248	1730.49
926.558	1727.1
926.867	1679.19
927.177	1718.51
927.487	1674.67
927.796	1669.02
928.106	1699.31
928.416	1704.96
928.725	1695.24
929.034	1666.09
929.344	1672.87
929.653	1678.06
929.962	1663.37
930.271	1649.14
930.581	1659.76
930.89	1640.32
931.199	1635.8
931.508	1647.33
931.817	1616.6
932.125	1607.1
932.434	1624.73
932.743	1596.26
933.051	1589.03
933.36	1588.12
933.669	1593.77
933.977	1571.63
934.286	1566.43
934.594	1552.64
934.902	1583.83
935.21	1553.32
935.519	1574.56
935.827	1577.5
936.135	1540.67
936.443	1542.93
936.751	1555.13
937.059	1552.19
937.367	1541.8
937.674	1541.57
937.982	1534.56
938.29	1469.93
938.597	1488.01
938.905	1491.18
939.213	1470.16
939.52	1493.21
939.827	1481.91
940.135	1438.97
940.442	1439.65
940.749	1479.42
941.056	1453.44
941.363	1416.83
941.67	1432.19
941.977	1447.11
942.284	1434.68
942.591	1441.23
942.898	1435.81
943.205	1427.22
943.511	1418.86
943.818	1399.88
944.125	1398.52
944.431	1406.88
944.738	1403.27
945.044	1395.13
945.35	1388.58
945.657	1391.07
945.963	1378.64
946.269	1366.43
946.575	1385.42
946.881	1353.55
947.187	1354.68
947.493	1372.76
947.799	1353.1
948.105	1305.87
948.41	1330.28
948.716	1325.08
949.022	1304.97
949.327	1332.76
949.633	1302.48
949.938	1333.44
950.244	1299.54
950.549	1289.6
950.854	1299.99
951.16	1299.54
951.465	1310.84
951.77	1288.24
952.075	1297.73
952.38	1287.57
952.685	1262.48
952.99	1274.91
953.294	1291.41
953.599	1277.4
953.904	1284.85
954.209	1277.17
954.513	1285.76
954.818	1242.82
955.122	1230.17
955.426	1239.2
955.731	1272.2
956.035	1243.95
956.339	1245.53
956.643	1236.49
956.948	1239.88
957.252	1225.87
957.556	1224.74
957.86	1200.79
958.163	1199.43
958.467	1205.31
958.771	1181.81
959.075	1182.93
959.378	1180.45
959.682	1183.39
959.985	1172.99
960.289	1166.89
960.592	1135.25
960.896	1145.87
961.199	1172.54
961.502	1159.66
961.805	1147.46
962.108	1165.53
962.411	1162.82
962.714	1151.3
963.017	1147.91
963.32	1142.94
963.623	1145.65
963.926	1171.18
964.228	1143.39
964.531	1127.8
964.833	1142.71
965.136	1143.84
965.438	1116.72
965.741	1128.7
966.043	1116.72
966.345	1111.07
966.648	1100.9
966.95	1100.45
967.252	1087.12
967.554	1082.37
967.856	1081.69
968.158	1063.84
968.46	1061.36
968.761	1065.42
969.063	1070.62
969.365	1064.97
969.666	1031.3
969.968	1061.13
970.269	1052.77
970.571	1050.51
970.872	1056.16
971.174	1050.06
971.475	1067.46
971.776	1051.64
972.077	1021.58
972.378	1028.14
972.679	1019.55
972.98	1034.24
973.281	1002.6
973.582	1050.28
973.883	1013.67
974.183	1033.56
974.484	1034.69
974.785	1016.61
975.085	998.53
975.386	1020
975.686	968.48
975.986	988.36
976.287	987.69
976.587	967.12
976.887	965.77
977.187	1001.24
977.487	975.26
977.787	1009.61
978.087	962.83
978.387	968.93
978.687	972.09
978.987	949.04
979.286	957.63
979.586	968.03
979.885	936.61
980.185	937.74
980.484	932.55
980.784	931.19
981.083	929.83
981.382	917.63
981.682	913.56
981.981	934.81
982.28	944.75
982.579	927.12
982.878	937.07
983.177	929.16
983.475	908.37
983.774	920.57
984.073	904.75
984.372	909.72
984.67	910.17
984.969	908.37
985.267	917.86
985.566	895.94
985.864	907.01
986.162	907.46
986.461	882.83
986.759	894.36
987.057	908.14
987.355	875.37
987.653	864.3
987.951	870.85
988.249	864.53
988.547	855.03
988.844	855.03
989.142	870.85
989.44	859.1
989.737	857.07
990.035	839.44
990.332	837.18
990.63	842.38
990.927	832.89
991.224	836.05
991.521	813.45
991.819	834.24
992.116	818.65
992.413	823.85
992.71	814.36
993.006	813.45
993.303	833.34
993.6	814.13
993.897	849.38
994.193	822.72
994.49	817.29
994.787	817.52
995.083	825.43
995.379	833.79
995.676	804.87
995.972	817.52
996.268	783.4
996.565	828.14
996.861	803.74
997.157	779.33
997.453	800.57
997.749	781.14
998.044	777.75
998.34	766
998.636	772.1
998.932	757.41
999.227	775.49
999.523	772.55
999.818	761.03
1000.114	733.68
1000.409	752.21
1000.704	744.08
1001	744.3
1001.295	755.83
1001.59	751.53
1001.885	754.02
1002.18	721.25
1002.475	751.76
1002.77	751.31
1003.065	739.1
1003.359	763.06
1003.654	728.48
1003.949	738.88
1004.243	738.43
1004.538	722.38
1004.832	730.97
1005.127	728.94
1005.421	709.5
1005.715	733.46
1006.009	722.61
1006.304	705.89
1006.598	703.4
1006.892	695.94
1007.186	721.48
1007.48	714.7
1007.773	709.05
1008.067	669.95
1008.361	678.09
1008.655	675.38
1008.948	687.58
1009.242	688.26
1009.535	696.17
1009.829	691.87
1010.122	678.09
1010.415	674.93
1010.708	684.42
1011.001	663.63
1011.295	660.46
1011.588	655.72
1011.881	679.45
1012.173	673.12
1012.466	656.62
1012.759	640.35
1013.052	654.59
1013.344	668.37
1013.637	646
1013.93	641.71
1014.222	651.65
1014.514	643.51
1014.807	650.29
1015.099	631.54
1015.391	638.54
1015.683	606.23
1015.976	644.87
1016.268	615.72
1016.56	615.27
1016.851	604.65
1017.143	629.73
1017.435	636.73
1017.727	606
1018.018	628.83
1018.31	601.93
1018.602	606.9
1018.893	605.55
1019.185	598.54
1019.476	609.16
1019.767	592.44
1020.058	579.11
1020.35	586.34
1020.641	588.37
1020.932	598.54
1021.223	581.59
1021.514	570.52
1021.804	611.42
1022.095	572.78
1022.386	562.84
1022.677	571.43
1022.967	567.58
1023.258	564.42
1023.548	577.08
1023.839	566.45
1024.129	563.06
1024.419	561.26
1024.709	558.09
1025	539.56
1025.29	552.9
1025.58	570.97
1025.87	554.48
1026.16	557.19
1026.449	563.97
1026.739	548.38
1027.029	537.3
1027.319	561.26
1027.608	541.6
1027.898	529.39
1028.187	532.56
1028.477	509.05
1028.766	534.14
1029.055	519
1029.344	528.49
1029.634	519.45
1029.923	506.79
1030.212	507.7
1030.501	532.33
1030.79	520.58
1031.078	529.84
1031.367	528.71
1031.656	519.45
1031.945	524.42
1032.233	528.26
1032.522	513.57
1032.81	488.26
1033.099	499.11
1033.387	491.2
1033.675	493.01
1033.963	532.33
1034.251	501.37
1034.54	490.52
1034.828	503.4
1035.116	488.72
1035.403	469.51
1035.691	479
1035.979	481.94
1036.267	489.85
1036.554	494.82
1036.842	473.8
1037.129	476.51
1037.417	497.53
1037.704	476.29
1037.992	461.6
1038.279	458.66
1038.566	494.82
1038.853	494.82
1039.14	494.82
