Data from foam_black_FLMS001491_00013.txt Node
Date: Wed Feb 08 10:43:35 GMT 2017
User: dcchb
Spectrometer: FLMS00149
Trigger mode: 0
Integration Time (sec): 2.000000E-2
Scans to average: 10
Electric dark correction enabled: true
Nonlinearity correction enabled: false
Boxcar width: 0
XAxis mode: Wavelengths
Number of Pixels in Spectrum: 2048
>>>>>Begin Spectral Data<<<<<
341.393	-33.7
341.776	-33.7
342.16	-33.7
342.543	-49.07
342.927	-72.79
343.31	-77.54
343.693	-72.57
344.077	-63.98
344.46	-56.75
344.843	-41.16
345.226	-58.33
345.61	-39.35
345.993	0.2
346.376	-20.14
346.759	6.07
347.142	39.52
347.525	62.12
347.908	39.97
348.291	84.94
348.674	87.65
349.057	109.35
349.44	114.09
349.823	156.8
350.206	151.15
350.588	181.89
350.971	185.96
351.354	196.58
351.737	222.56
352.119	236.12
352.502	250.81
352.884	248.78
353.267	277.48
353.65	272.96
354.032	260.3
354.414	289.23
354.797	296.01
355.179	288.33
355.562	303.92
355.944	309.34
356.326	294.43
356.709	332.17
357.091	308.66
357.473	314.99
357.855	320.42
358.238	313.86
358.62	333.52
359.002	335.1
359.384	327.65
359.766	314.54
360.148	318.83
360.53	317.93
360.912	329.23
361.294	318.38
361.676	324.48
362.057	308.89
362.439	308.21
362.821	317.48
363.203	332.84
363.584	315.67
363.966	314.09
364.348	320.42
364.729	308.21
365.111	307.31
365.493	299.17
365.874	302.34
366.256	313.86
366.637	285.16
367.019	287.2
367.4	308.21
367.781	310.92
368.163	308.44
368.544	294.88
368.925	284.26
369.306	314.09
369.688	312.05
370.069	313.64
370.45	310.25
370.831	287.87
371.212	293.3
371.593	317.93
371.974	307.76
372.355	294.2
372.736	306.86
373.117	297.82
373.498	311.15
373.879	310.7
374.26	299.4
374.641	296.01
375.021	299.85
375.402	296.91
375.783	305.95
376.163	302.56
376.544	299.4
376.925	319.06
377.305	301.21
377.686	321.32
378.066	316.12
378.447	325.16
378.827	312.28
379.208	326.74
379.588	303.92
379.968	340.98
380.349	288.55
380.729	332.39
381.109	334.43
381.489	327.42
381.87	323.58
382.25	331.26
382.63	308.66
383.01	315.9
383.39	337.36
383.77	334.88
384.15	341.43
384.53	318.38
384.91	341.66
385.29	339.17
385.67	341.43
386.049	332.62
386.429	341.21
386.809	352.73
387.189	329.23
387.568	330.81
387.948	371.26
388.328	349.34
388.707	345.27
389.087	341.43
389.466	336.23
389.846	322.9
390.225	363.8
390.605	359.96
390.984	332.17
391.363	346.86
391.743	360.19
392.122	345.95
392.501	343.47
392.881	365.84
393.26	369
393.639	374.43
394.018	350.92
394.397	352.73
394.776	369.68
395.155	373.52
395.534	393.63
395.913	374.43
396.292	395.67
396.671	363.8
397.05	373.52
397.429	383.92
397.808	364.03
398.186	379.17
398.565	375.56
398.944	385.05
399.323	378.27
399.701	388.21
400.08	404.03
400.458	393.18
400.837	370.58
401.215	384.59
401.594	403.8
401.972	389.57
402.351	392.96
402.729	401.09
403.107	420.3
403.486	391.6
403.864	391.37
404.242	408.1
404.62	421.43
404.999	421.43
405.377	429.11
405.755	420.53
406.133	428.44
406.511	406.74
406.889	420.3
407.267	420.75
407.645	439.06
408.023	413.75
408.401	420.53
408.779	419.62
409.156	437.25
409.534	446.29
409.912	455.55
410.29	454.42
410.667	441.54
411.045	428.66
411.422	453.97
411.8	453.07
412.178	484.03
412.555	465.27
412.933	464.82
413.31	453.75
413.687	474.99
414.065	467.08
414.442	480.41
414.819	458.26
415.197	475.89
415.574	491.94
415.951	500.75
416.328	506.17
416.705	493.07
417.082	496.46
417.46	469.34
417.837	487.42
418.214	504.37
418.591	482.9
418.967	506.17
419.344	521.54
419.721	518.15
420.098	501.65
420.475	507.53
420.852	541.65
421.228	507.3
421.605	546.62
421.982	542.78
422.358	544.36
422.735	540.3
423.111	536.68
423.488	538.71
423.864	521.99
424.241	551.14
424.617	550.69
424.994	526.51
425.37	543.23
425.746	539.17
426.123	570.35
426.499	554.99
426.875	578.26
427.251	582.1
427.627	580.52
428.003	564.7
428.379	576.91
428.756	590.01
429.132	582.33
429.507	595.21
429.883	611.93
430.259	604.7
430.635	622.1
431.011	613.06
431.387	632.27
431.763	623.23
432.138	622.33
432.514	649.22
432.89	647.64
433.265	662.78
433.641	638.15
434.016	652.16
434.392	667.75
434.767	670.01
435.143	658.03
435.518	660.97
435.894	688.77
436.269	687.64
436.644	695.55
437.02	700.74
437.395	711.59
437.77	705.49
438.145	706.39
438.52	710.46
438.895	733.06
439.271	741.65
439.646	703.91
440.021	737.13
440.395	750.69
440.77	732.61
441.145	753.62
441.52	744.36
441.895	753.4
442.27	763.57
442.645	747.75
443.019	766.05
443.394	762.21
443.769	771.25
444.143	770.12
444.518	765.6
444.892	766.05
445.267	776.45
445.641	774.41
446.016	771.7
446.39	795.43
446.764	800.4
447.139	813.28
447.513	811.48
447.887	788.2
448.262	811.48
448.636	828.65
449.01	823
449.384	846.05
449.758	833.17
450.132	842.66
450.506	854.41
450.88	828.42
451.254	849.89
451.628	884.69
452.002	865.26
452.376	875.65
452.75	875.88
453.123	879.04
453.497	894.64
453.871	908.87
454.244	913.85
454.618	907.74
454.992	909.78
455.365	928.08
455.739	957.69
456.112	939.38
456.486	947.07
456.859	958.36
457.232	992.26
457.606	954.52
457.979	987.29
458.352	995.2
458.725	1030.45
459.099	1008.76
459.472	1030.68
459.845	1032.49
460.218	1061.19
460.591	1063.22
460.964	1057.57
461.337	1083.33
461.71	1097.12
462.083	1100.28
462.456	1096.21
462.829	1085.37
463.201	1112.48
463.574	1121.75
463.947	1163.78
464.32	1159.72
464.692	1153.61
465.065	1160.17
465.438	1167.62
465.81	1223.44
466.183	1191.58
466.555	1226.15
466.928	1225.02
467.3	1243.78
467.672	1245.59
468.045	1266.83
468.417	1259.37
468.789	1277
469.161	1269.99
469.534	1309.54
469.906	1350.67
470.278	1354.96
470.65	1371.69
471.022	1376.88
471.394	1411.23
471.766	1387.96
472.138	1429.54
472.51	1445.36
472.882	1451.68
473.253	1484.45
473.625	1525.81
473.997	1500.05
474.369	1509.54
474.74	1568.29
475.112	1558.8
475.484	1600.38
475.855	1597.9
476.227	1609.87
476.598	1651.45
476.97	1675.41
477.341	1686.48
477.713	1688.29
478.084	1734.84
478.455	1782.3
478.827	1785.24
479.198	1810.77
479.569	1844.44
479.94	1900.71
480.311	1890.54
480.682	1896.42
481.053	1973.48
481.424	1986.81
481.795	2013.7
482.166	2048.05
482.537	2046.02
482.908	2081.05
483.279	2133.47
483.65	2123.08
484.021	2160.82
484.391	2226.58
484.762	2209.86
485.133	2249.86
485.503	2266.13
485.874	2278.33
486.244	2316.75
486.615	2386.12
486.985	2396.74
487.356	2404.2
487.726	2418.44
488.097	2453.24
488.467	2445.11
488.837	2536.63
489.207	2548.83
489.578	2567.36
489.948	2627.7
490.318	2620.24
490.688	2667.25
491.058	2676.29
491.428	2744.53
491.798	2737.98
492.168	2771.42
492.538	2813.23
492.908	2845.32
493.278	2865.21
493.648	2867.69
494.017	2868.6
494.387	2959.22
494.757	2966.67
495.126	2985.43
495.496	2979.78
495.866	3006.45
496.235	3038.31
496.605	3048.03
496.974	3074.24
497.344	3070.17
497.713	3142.94
498.082	3122.6
498.452	3193.33
498.821	3183.84
499.19	3207.12
499.559	3237.17
499.928	3235.59
500.298	3291.64
500.667	3273.33
501.036	3336.83
501.405	3366.66
501.774	3340.45
502.143	3372.54
502.512	3405.31
502.88	3419.32
503.249	3389.26
503.618	3462.48
503.987	3473.55
504.356	3505.64
504.724	3497.51
505.093	3514.23
505.462	3593.55
505.83	3599.65
506.199	3593.78
506.567	3639.65
506.936	3616.6
507.304	3676.94
507.672	3713.09
508.041	3696.6
508.409	3753.77
508.777	3822.92
509.145	3838.29
509.514	3828.35
509.882	3862.47
510.25	3854.56
510.618	3861.57
510.986	3924.39
511.354	3946.31
511.722	3965.97
512.09	4003.71
512.458	3988.12
512.826	3989.47
513.193	4027.21
513.561	4077.6
513.929	4133.87
514.297	4118.96
514.664	4183.59
515.032	4215
515.4	4254.1
515.767	4233.98
516.135	4298.39
516.502	4269.46
516.869	4325.96
517.237	4330.71
517.604	4319.18
517.972	4381.78
518.339	4405.51
518.706	4470.81
519.073	4480.98
519.44	4507.65
519.808	4521.66
520.175	4557.14
520.542	4631.71
520.909	4653.63
521.276	4631.94
521.643	4721.43
522.009	4680.98
522.376	4757.13
522.743	4841.88
523.11	4853.18
523.477	4870.13
523.843	4880.3
524.21	4941.31
524.577	4943.34
524.943	5013.17
525.31	5048.88
525.676	5072.15
526.043	5091.36
526.409	5146.5
526.776	5216.56
527.142	5228.76
527.508	5233.51
527.874	5283.9
528.241	5297.46
528.607	5312.37
528.973	5331.58
529.339	5405.03
529.705	5436.66
530.071	5434.41
530.437	5494.29
530.803	5542.42
531.169	5535.87
531.535	5535.87
531.901	5572.93
532.267	5594.17
532.632	5664.23
532.998	5704
533.364	5702.65
533.73	5701.74
534.095	5786.26
534.461	5745.13
534.826	5788.29
535.192	5847.73
535.557	5904.45
535.923	5882.98
536.288	5929.53
536.653	5928.86
537.019	5917.1
537.384	5970.21
537.749	6025.35
538.114	6041.85
538.479	6044.11
538.845	6139.7
539.21	6092.01
539.575	6157.78
539.94	6177.44
540.305	6200.26
540.67	6169.98
541.034	6184.44
541.399	6317.77
541.764	6249.52
542.129	6256.3
542.494	6281.61
542.858	6301.73
543.223	6334.04
543.587	6379.92
543.952	6420.59
544.316	6401.39
544.681	6426.7
545.045	6415.17
545.41	6494.04
545.774	6510.99
546.138	6478.22
546.503	6523.19
546.867	6536.07
547.231	6640.02
547.595	6553.47
547.959	6621.27
548.324	6637.09
548.688	6619.68
549.052	6694.94
549.416	6746.24
549.779	6725.9
550.143	6719.57
550.507	6795.05
550.871	6814.26
551.235	6771.09
551.599	6921.82
551.962	6837.08
552.326	6905.78
552.689	6967.47
553.053	6927.93
553.417	7000.24
553.78	7034.82
554.143	7047.02
554.507	7055.15
554.87	7097.64
555.234	7204.08
555.597	7163.4
555.96	7168.14
556.323	7186.68
556.686	7230.97
557.05	7284.53
557.413	7270.29
557.776	7347.8
558.139	7385.09
558.502	7323.85
558.865	7391.42
559.228	7488.81
559.59	7496.27
559.953	7502.6
560.316	7557.06
560.679	7622.14
561.041	7681.35
561.404	7742.37
561.767	7715.7
562.129	7688.36
562.492	7809.48
562.854	7768.13
563.217	7823.95
563.579	7853.78
563.941	7913.66
564.304	7997.5
564.666	7969.03
565.028	7955.92
565.39	8029.37
565.753	8027.78
566.115	8100.55
566.477	8169.7
566.839	8221.68
567.201	8197.72
567.563	8236.14
567.925	8253.54
568.287	8328.57
568.648	8364.5
569.01	8383.03
569.372	8443.37
569.734	8394.55
570.095	8444.5
570.457	8489.69
570.819	8456.47
571.18	8529.24
571.542	8553.19
571.903	8580.76
572.265	8654.43
572.626	8631.84
572.987	8694.88
573.349	8702.57
573.71	8762
574.071	8717.71
574.432	8792.06
574.794	8876.8
575.155	8865.95
575.516	8793.64
575.877	8850.36
576.238	8845.39
576.599	8970.36
576.96	9017.59
577.32	8986.18
577.681	9019.4
578.042	9054.42
578.403	8981.88
578.763	9086.06
579.124	9066.4
579.485	9062.33
579.845	9139.39
580.206	9101.43
580.566	9097.81
580.927	9081.77
581.287	9171.26
581.648	9155.66
582.008	9153.63
582.368	9183.69
582.728	9214.87
583.089	9185.94
583.449	9129.22
583.809	9192.05
584.169	9144.14
584.529	9221.65
584.889	9225.27
585.249	9209.22
585.609	9215.1
585.969	9183.91
586.329	9204.25
586.688	9231.82
587.048	9200.63
587.408	9160.18
587.768	9263.23
588.127	9162.67
588.487	9176.68
588.846	9308.65
589.206	9224.59
589.565	9238.82
589.925	9287.19
590.284	9190.24
590.643	9243.8
591.003	9226.85
591.362	9232.27
591.721	9253.97
592.08	9257.58
592.44	9325.38
592.799	9287.41
593.158	9267.3
593.517	9219.62
593.876	9287.86
594.235	9325.6
594.593	9314.3
594.952	9331.48
595.311	9306.39
595.67	9314.53
596.029	9410.12
596.387	9333.06
596.746	9380.52
597.104	9379.84
597.463	9385.49
597.822	9418.03
598.18	9304.36
598.538	9384.81
598.897	9402.66
599.255	9407.41
599.613	9507.52
599.972	9436.79
600.33	9435.88
600.688	9411.93
601.046	9483.56
601.404	9467.97
601.762	9477.91
602.12	9465.71
602.478	9494.41
602.836	9540.96
603.194	9529.66
603.552	9452.38
603.91	9519.04
604.268	9514.07
604.625	9561.53
604.983	9524.02
605.341	9472.49
605.698	9526.73
606.056	9563.34
606.413	9542.32
606.771	9562.43
607.128	9632.49
607.485	9557.69
607.843	9503
608.2	9676.33
608.557	9721.3
608.914	9591.13
609.272	9686.27
609.629	9703.45
609.986	9702.32
610.343	9749.77
610.7	9760.17
611.057	9700.96
611.414	9741.41
611.771	9703.67
612.127	9756.1
612.484	9765.14
612.841	9873.84
613.198	9740.05
613.554	9802.43
613.911	9829.09
614.267	9835.65
614.624	9839.94
614.98	9829.54
615.337	9831.35
615.693	9864.12
616.05	9820.05
616.406	9953.83
616.762	9905.47
617.118	9796.1
617.475	9838.36
617.831	10002.65
618.187	9915.64
618.543	9938.69
618.899	9949.77
619.255	9925.13
619.611	9952.93
619.967	10029.31
620.323	10023.21
620.678	10020.05
621.034	9945.47
621.39	9999.71
621.746	9972.82
622.101	9994.29
622.457	9959.26
622.812	10012.14
623.168	10094.62
623.523	9987.51
623.879	10041.97
624.234	10011.23
624.589	10065.7
624.945	10056.88
625.3	10005.58
625.655	10027.96
626.01	10040.84
626.365	10049.2
626.72	9996.77
627.075	9999.93
627.43	9981.18
627.785	10033.83
628.14	10022.53
628.495	9979.82
628.85	10046.26
629.205	10045.58
629.559	10077.9
629.914	9951.12
630.269	9987.51
630.623	9960.61
630.978	9901.41
631.332	9960.39
631.687	10023.44
632.041	9956.32
632.396	9995.42
632.75	9886.49
633.104	9918.81
633.459	9883.1
633.813	9855.98
634.167	9853.72
634.521	9858.02
634.875	9848.3
635.229	9903.44
635.583	9811.92
635.937	9895.98
636.291	9819.15
636.645	9784.57
636.999	9791.13
637.352	9831.8
637.706	9770.56
638.06	9826.15
638.413	9784.57
638.767	9794.74
639.121	9688.08
639.474	9662.77
639.828	9703.22
640.181	9737.57
640.534	9699.83
640.888	9730.11
641.241	9618.25
641.594	9689.66
641.947	9659.6
642.301	9621.41
642.654	9708.87
643.007	9700.73
643.36	9653.73
643.713	9610.11
644.066	9642.66
644.419	9580.74
644.771	9483.79
645.124	9387.52
645.477	9357.24
645.83	9319.95
646.182	9353.85
646.535	9239.95
646.888	9268.88
647.24	9290.57
647.593	9287.86
647.945	9269.78
648.298	9234.31
648.65	9292.38
649.002	9201.31
649.355	9221.42
649.707	9194.98
650.059	9252.38
650.411	9361.08
650.763	9331.48
651.115	9437.46
651.467	9404.02
651.819	9466.84
652.171	9390.01
652.523	9376.9
652.875	9402.21
653.227	9335.32
653.578	9288.32
653.93	9399.5
654.282	9312.27
654.633	9284.02
654.985	9365.83
655.337	9340.07
655.688	9347.3
656.039	9328.54
656.391	9259.16
656.742	9220.07
657.094	9317.69
657.445	9310.91
657.796	9270.91
658.147	9313.4
658.498	9250.58
658.849	9252.16
659.2	9288.99
659.551	9243.57
659.902	9241.99
660.253	9234.31
660.604	9298.94
660.955	9190.92
661.306	9271.82
661.656	9169.67
662.007	9266.85
662.358	9173.06
662.708	9165.38
663.059	9133.74
663.409	9161.54
663.76	9197.02
664.11	9219.84
664.461	9258.94
664.811	9214.42
665.161	9178.04
665.511	9185.27
665.862	9281.54
666.212	9195.21
666.562	9226.4
666.912	9158.38
667.262	9214.64
667.612	9159.05
667.962	9139.39
668.312	9139.62
668.662	9201.76
669.011	9152.5
669.361	9143.46
669.711	9115.44
670.06	9123.8
670.41	9117.02
670.76	9140.52
671.109	9124.7
671.459	9145.27
671.808	9106.17
672.157	9160.86
672.507	9048.77
672.856	9107.98
673.205	9105.5
673.554	9127.42
673.904	9055.33
674.253	9162.44
674.602	9042.9
674.951	8959.96
675.3	9005.61
675.649	9086.06
675.998	9049.9
676.346	9044.71
676.695	8983.01
677.044	9011.71
677.393	9035.44
677.741	8931.71
678.09	8961.54
678.438	8965.61
678.787	8948.66
679.135	8911.38
679.484	8946.86
679.832	8944.6
680.181	8898.72
680.529	8939.62
680.877	8875.67
681.225	8897.14
681.573	8926.29
681.922	8850.13
682.27	8822.56
682.618	8827.99
682.966	8833.86
683.314	8863.92
683.661	8818.5
684.009	8750.48
684.357	8780.08
684.705	8731.95
685.053	8737.37
685.4	8715.67
685.748	8646.3
686.095	8592.29
686.443	8658.73
686.79	8638.61
687.138	8614.43
687.485	8656.69
687.832	8649.91
688.18	8643.59
688.527	8629.35
688.874	8619.86
689.221	8594.1
689.568	8505.06
689.915	8502.57
690.262	8478.84
690.609	8526.98
690.956	8444.04
691.303	8427.09
691.65	8366.76
691.997	8368.57
692.344	8360.88
692.69	8345.74
693.037	8410.15
693.383	8337.38
693.73	8301.45
694.077	8274.78
694.423	8272.97
694.769	8200.21
695.116	8236.59
695.462	8186.2
695.808	8171.06
696.155	8186.42
696.501	8134.9
696.847	8132.19
697.193	8063.26
697.539	8108.23
697.885	8021.68
698.231	8030.5
698.577	8000.67
698.923	7992.08
699.269	7924.74
699.614	7968.35
699.96	7885.87
700.306	7967.67
700.651	7853.1
700.997	7880.22
701.342	7882.48
701.688	7869.14
702.033	7753.89
702.379	7842.7
702.724	7785.08
703.069	7796.15
703.415	7703.27
703.76	7676.83
704.105	7658.08
704.45	7687.23
704.795	7670.28
705.14	7636.16
705.485	7640.45
705.83	7608.81
706.175	7589.15
706.52	7564.52
706.865	7530.85
707.209	7550.51
707.554	7487.01
707.899	7524.97
708.243	7572.88
708.588	7465.09
708.932	7465.54
709.277	7397.74
709.621	7402.71
709.966	7352.32
710.31	7390.29
710.654	7343.51
710.998	7312.32
711.342	7392.32
711.687	7358.87
712.031	7282.04
712.375	7241.36
712.719	7285.2
713.063	7315.03
713.407	7233
713.75	7285.43
714.094	7214.47
714.438	7208.82
714.782	7247.69
715.125	7147.81
715.469	7194.58
715.812	7129.28
716.156	7112.1
716.499	7161.37
716.843	7117.07
717.186	7130.41
717.53	7149.16
717.873	7128.82
718.216	7160.69
718.559	7095.83
718.902	7036.17
719.246	7003.4
719.589	7004.31
719.932	7021.48
720.275	6988.94
720.617	7028.26
720.96	6978.77
721.303	7019.45
721.646	6985.1
721.989	6941.26
722.331	6958.88
722.674	6911.43
723.016	6888.38
723.359	6904.87
723.701	6927.02
724.044	6875.27
724.386	6872.33
724.729	6874.37
725.071	6878.21
725.413	6832.56
725.755	6808.61
726.097	6847.48
726.439	6792.34
726.782	6792.79
727.124	6812.9
727.465	6788.04
727.807	6686.12
728.149	6771.55
728.491	6748.72
728.833	6719.8
729.175	6680.47
729.516	6678.44
729.858	6702.85
730.199	6682.51
730.541	6649.97
730.882	6666.92
731.224	6629.85
731.565	6615.17
731.906	6673.02
732.248	6652
732.589	6666.46
732.93	6566.8
733.271	6549.86
733.612	6590.76
733.953	6544.66
734.294	6577.65
734.635	6520.48
734.976	6539.46
735.317	6513.02
735.658	6533.13
735.999	6514.38
736.339	6504.66
736.68	6475.73
737.021	6509.18
737.361	6464.89
737.702	6530.42
738.042	6513.47
738.383	6449.07
738.723	6468.5
739.063	6411.33
739.404	6450.42
739.744	6446.13
740.084	6418.33
740.424	6420.37
740.764	6355.28
741.104	6392.57
741.444	6359.8
741.784	6387.6
742.124	6367.26
742.464	6374.49
742.804	6330.43
743.143	6303.76
743.483	6270.09
743.823	6266.02
744.162	6245.46
744.502	6360.93
744.841	6280.71
745.181	6286.59
745.52	6255.17
745.86	6265.34
746.199	6226.02
746.538	6197.1
746.877	6226.47
747.216	6257.43
747.556	6246.14
747.895	6202.75
748.234	6166.36
748.573	6171.33
748.911	6151.9
749.25	6184.22
749.589	6156.87
749.928	6159.36
750.267	6167.95
750.605	6119.58
750.944	6101.28
751.283	6107.83
751.621	6091.34
751.96	6099.02
752.298	6024.22
752.636	6036.65
752.975	5996.42
753.313	6021.73
753.651	6042.52
753.989	6001.17
754.327	6025.35
754.666	6012.02
755.004	6008.85
755.342	5969.08
755.679	5933.38
756.017	5963.66
756.355	5962.75
756.693	5904.9
757.031	5935.86
757.368	5874.17
757.706	5871.23
758.044	5856.09
758.381	5852.47
758.719	5859.03
759.056	5811.34
759.394	5792.59
759.731	5751.91
760.068	5800.72
760.405	5748.75
760.743	5762.53
761.08	5741.97
761.417	5739.48
761.754	5679.14
762.091	5689.77
762.428	5701.29
762.765	5661.29
763.102	5657
763.438	5640.28
763.775	5621.74
764.112	5630.33
764.449	5574.51
764.785	5570.22
765.122	5494.52
765.458	5537.45
765.795	5528.64
766.131	5537.23
766.467	5487.06
766.804	5499.04
767.14	5458.13
767.476	5440.73
767.812	5451.81
768.148	5456.55
768.485	5387.63
768.821	5350.79
769.157	5368.42
769.492	5348.98
769.828	5348.53
770.164	5255.88
770.5	5280.28
770.836	5259.27
771.171	5157.8
771.507	5219.5
771.842	5183.11
772.178	5226.73
772.513	5136.11
772.849	5146.73
773.184	5113.74
773.519	5142.44
773.855	5089.56
774.19	5061.99
774.525	5051.36
774.86	5072.83
775.195	5053.4
775.53	5014.53
775.865	4959.84
776.2	4965.72
776.535	4905.83
776.87	4908.32
777.205	4927.53
777.539	4921.2
777.874	4926.62
778.209	4887.07
778.543	4895.44
778.878	4863.12
779.212	4840.97
779.547	4811.14
779.881	4880.3
780.215	4801.2
780.55	4813.18
780.884	4754.42
781.218	4762.33
781.552	4744.71
781.886	4727.08
782.22	4704.71
782.554	4681.2
782.888	4687.76
783.222	4655.44
783.556	4631.49
783.889	4614.09
784.223	4618.38
784.557	4606.86
784.89	4627.42
785.224	4598.72
785.557	4508.33
785.891	4542.45
786.224	4553.52
786.558	4534.77
786.891	4463.58
787.224	4466.07
787.557	4469.68
787.891	4480.76
788.224	4456.8
788.557	4415.9
788.89	4405.28
789.223	4406.64
789.556	4410.25
789.888	4412.96
790.221	4345.85
790.554	4288.9
790.887	4330.03
791.219	4297.94
791.552	4288.45
791.884	4281.44
792.217	4278.28
792.549	4241.22
792.882	4231.5
793.214	4210.26
793.546	4254.55
793.879	4190.14
794.211	4188.79
794.543	4178.39
794.875	4169.58
795.207	4213.42
795.539	4146.3
795.871	4148.34
796.203	4132.97
796.535	4047.55
796.867	4085.29
797.198	4059.75
797.53	4061.33
797.862	4047.32
798.193	4041.9
798.525	4050.71
798.856	4082.8
799.188	4013.43
799.519	3983.6
799.85	3971.84
800.182	3933.88
800.513	3996.25
800.844	3988.12
801.175	3958.74
801.506	3971.39
801.837	3924.84
802.168	3897.72
802.499	3906.76
802.83	3897.95
803.161	3870.83
803.491	3869.93
803.822	3895.01
804.153	3824.96
804.483	3806.2
804.814	3796.03
805.145	3822.47
805.475	3785.63
805.805	3773.88
806.136	3756.71
806.466	3799.87
806.796	3748.12
807.126	3711.51
807.457	3731.17
807.787	3718.52
808.117	3688.69
808.447	3713.09
808.777	3718.52
809.107	3699.54
809.436	3688.69
809.766	3645.75
810.096	3678.97
810.426	3638.29
810.755	3612.98
811.085	3614.34
811.414	3634.68
811.744	3614.57
812.073	3614.57
812.403	3603.04
812.732	3560.1
813.061	3504.74
813.39	3594.45
813.719	3557.84
814.049	3562.59
814.378	3584.28
814.707	3576.15
815.036	3572.76
815.365	3546.09
815.693	3504.29
816.022	3496.6
816.351	3528.24
816.68	3492.99
817.008	3469.49
817.337	3481.91
817.665	3443.95
817.994	3448.02
818.322	3479.43
818.651	3488.02
818.979	3414.12
819.307	3429.49
819.636	3440.11
819.964	3444.4
820.292	3452.31
820.62	3436.49
820.948	3442.82
821.276	3412.99
821.604	3410.96
821.932	3414.57
822.259	3400.56
822.587	3412.31
822.915	3444.63
823.243	3410.5
823.57	3397.4
823.898	3425.64
824.225	3376.83
824.553	3376.15
824.88	3398.3
825.207	3397.4
825.535	3334.57
825.862	3428.58
826.189	3398.07
826.516	3416.38
826.843	3389.94
827.17	3404.4
827.497	3415.48
827.824	3361.01
828.151	3415.48
828.478	3404.85
828.805	3400.11
829.131	3394.23
829.458	3396.04
829.785	3362.82
830.111	3352.65
830.438	3395.81
830.764	3417.96
831.09	3378.19
831.417	3383.84
831.743	3413.44
832.069	3382.03
832.395	3396.49
832.722	3362.82
833.048	3346.1
833.374	3432.65
833.7	3401.69
834.026	3361.24
834.351	3371.86
834.677	3365.98
835.003	3391.75
835.329	3408.24
835.654	3382.93
835.98	3355.82
836.306	3365.53
836.631	3344.06
836.956	3384.74
837.282	3328.92
837.607	3322.82
837.932	3343.84
838.258	3300.68
838.583	3313.33
838.908	3322.14
839.233	3282.6
839.558	3317.17
839.883	3289.15
840.208	3300.22
840.533	3306.33
840.858	3275.14
841.182	3274.46
841.507	3257.29
841.832	3257.97
842.156	3228.36
842.481	3216.61
842.805	3266.78
843.13	3214.35
843.454	3241.47
843.778	3188.81
844.103	3230.4
844.427	3191.07
844.751	3181.58
845.075	3203.96
845.399	3161.47
845.723	3146.78
846.047	3187.46
846.371	3137.29
846.695	3141.13
847.019	3154.01
847.343	3142.26
847.666	3101.13
847.99	3053.68
848.313	3072.66
848.637	3062.49
848.96	3071.3
849.284	3057.29
849.607	3028.37
849.931	3035.37
850.254	3005.77
850.577	3001.7
850.9	3008.71
851.223	2997.41
851.546	2978.42
851.869	2943.85
852.192	2942.72
852.515	2941.36
852.838	2899.1
853.161	2919.22
853.483	2927.8
853.806	2914.7
854.129	2899.56
854.451	2884.19
854.774	2868.14
855.096	2862.5
855.419	2862.95
855.741	2894.36
856.063	2834.93
856.385	2821.82
856.708	2825.21
857.03	2810.29
857.352	2782.5
857.674	2765.77
857.996	2765.32
858.318	2784.08
858.64	2772.33
858.961	2769.16
859.283	2747.7
859.605	2743.63
859.926	2756.28
860.248	2766.23
860.57	2771.65
860.891	2741.14
861.212	2742.5
861.534	2750.63
861.855	2674.48
862.176	2744.53
862.498	2740.01
862.819	2726.45
863.14	2724.19
863.461	2740.92
863.782	2704.76
864.103	2661.6
864.424	2742.27
864.745	2679.22
865.065	2682.39
865.386	2676.96
865.707	2690.97
866.027	2679.68
866.348	2671.54
866.668	2682.84
866.989	2667.47
867.309	2689.84
867.63	2640.58
867.95	2643.97
868.27	2653.46
868.59	2628.15
868.91	2646.23
869.23	2652.11
869.55	2657.08
869.87	2620.24
870.19	2628.83
870.51	2639.22
870.83	2636.51
871.15	2623.63
871.469	2617.53
871.789	2629.96
872.109	2614.82
872.428	2615.04
872.748	2587.25
873.067	2622.5
873.386	2610.3
873.706	2618.43
874.025	2599.9
874.344	2578.89
874.663	2595.16
874.982	2576.85
875.301	2595.61
875.62	2567.14
875.939	2612.56
876.258	2569.17
876.577	2566.91
876.896	2528.27
877.214	2537.76
877.533	2522.39
877.852	2554.25
878.17	2522.84
878.489	2547.02
878.807	2519.68
879.125	2522.39
879.444	2521.04
879.762	2506.12
880.08	2512.22
880.398	2531.88
880.716	2516.74
881.034	2487.36
881.352	2486.69
881.67	2501.15
881.988	2473.81
882.306	2500.02
882.624	2476.97
882.941	2457.53
883.259	2472.22
883.577	2492.11
883.894	2454.14
884.212	2432.45
884.529	2436.52
884.846	2415.28
885.164	2430.42
885.481	2432
885.798	2443.3
886.115	2417.76
886.432	2430.19
886.75	2396.52
887.067	2410.76
887.383	2407.37
887.7	2406.69
888.017	2389.29
888.334	2396.52
888.651	2372.79
888.967	2389.29
889.284	2322.62
889.6	2365.56
889.917	2374.82
890.233	2367.37
890.55	2347.93
890.866	2348.84
891.182	2325.56
891.498	2363.53
891.815	2351.32
892.131	2316.3
892.447	2303.41
892.763	2301.61
893.079	2280.36
893.395	2283.08
893.71	2286.01
894.026	2293.24
894.342	2294.15
894.657	2299.12
894.973	2248.05
895.289	2256.86
895.604	2271.78
895.92	2226.58
896.235	2240.82
896.55	2245.56
896.865	2221.61
897.181	2241.49
897.496	2202.17
897.811	2225.45
898.126	2190.65
898.441	2204.21
898.756	2192.91
899.071	2192
899.386	2192.23
899.7	2170.08
900.015	2127.83
900.33	2168.28
900.644	2149.97
900.959	2154.94
901.273	2130.09
901.588	2098.67
901.902	2138.9
902.216	2100.71
902.531	2098.9
902.845	2101.61
903.159	2047.38
903.473	2083.31
903.787	2084.21
904.101	2065.91
904.415	2097.32
904.729	2050.99
905.042	2074.95
905.356	2074.04
905.67	2063.87
905.984	2042.18
906.297	2004.89
906.611	2021.61
906.924	2007.38
907.237	2000.6
907.551	2019.35
907.864	2013.7
908.177	1988.17
908.491	2007.6
908.804	1952.01
909.117	1969.86
909.43	1967.83
909.743	1960.6
910.056	1945.91
910.368	1933.48
910.681	1966.93
910.994	1885.8
911.307	1942.29
911.619	1886.93
911.932	1892.13
912.244	1937.1
912.557	1884.67
912.869	1887.83
913.181	1870.88
913.494	1866.14
913.806	1880.83
914.118	1872.46
914.43	1853.71
914.742	1849.64
915.054	1866.14
915.366	1825.69
915.678	1811.9
915.99	1809.64
916.302	1811.68
916.613	1819.36
916.925	1808.06
917.236	1807.16
917.548	1787.72
917.859	1794.5
918.171	1796.08
918.482	1785.46
918.794	1768.29
919.105	1750.89
919.416	1734.84
919.727	1757.67
920.038	1760.83
920.349	1748.4
920.66	1718.34
920.971	1763.54
921.282	1735.97
921.593	1738.01
921.903	1705.01
922.214	1711.34
922.525	1676.31
922.835	1691.9
923.146	1689.19
923.456	1679.02
923.767	1674.96
924.077	1686.93
924.387	1639.93
924.697	1653.94
925.008	1677.22
925.318	1649.42
925.628	1647.16
925.938	1601.96
926.248	1599.25
926.558	1608.52
926.867	1641.74
927.177	1628.18
927.487	1602.87
927.796	1610.1
928.106	1630.66
928.416	1587.27
928.725	1586.37
929.034	1588.18
929.344	1583.21
929.653	1574.85
929.962	1569.87
930.271	1566.26
930.581	1556.09
930.89	1545.02
931.199	1536.2
931.508	1541.63
931.817	1543.89
932.125	1526.49
932.434	1492.59
932.743	1484.23
933.051	1501.18
933.36	1481.06
933.669	1497.56
933.977	1525.13
934.286	1478.35
934.594	1468.18
934.902	1471.57
935.21	1453.49
935.519	1480.16
935.827	1464.11
936.135	1459.14
936.443	1436.77
936.751	1442.19
937.059	1425.92
937.367	1425.92
937.674	1436.54
937.982	1427.28
938.29	1437.45
938.597	1423.21
938.905	1390.67
939.213	1411.46
939.52	1415.75
939.827	1384.12
940.135	1363.1
940.442	1377.11
940.749	1381.4
941.056	1365.13
941.363	1370.11
941.67	1334.17
941.977	1379.6
942.284	1349.54
942.591	1367.62
942.898	1323.33
943.205	1346.6
943.511	1340.05
943.818	1321.52
944.125	1325.81
944.431	1340.95
944.738	1328.52
945.044	1307.51
945.35	1296.21
945.657	1284.68
945.963	1310.67
946.269	1313.38
946.575	1276.32
946.881	1276.1
947.187	1274.51
947.493	1293.72
947.799	1251.01
948.105	1263.67
948.41	1269.54
948.716	1267.51
949.022	1264.57
949.327	1258.92
949.633	1234.74
949.938	1270.9
950.244	1243.55
950.549	1234.06
950.854	1231.35
951.16	1239.04
951.465	1234.29
951.77	1232.48
952.075	1216.44
952.38	1173.05
952.685	1211.92
952.99	1190.22
953.294	1185.93
953.599	1192.71
953.904	1194.74
954.209	1172.37
954.513	1179.15
954.818	1192.03
955.122	1178.7
955.426	1166.04
955.731	1142.77
956.035	1129.89
956.339	1158.36
956.643	1169.43
956.948	1164.01
957.252	1159.26
957.556	1124.01
957.86	1148.64
958.163	1114.52
958.467	1133.95
958.771	1116.55
959.075	1114.97
959.378	1134.86
959.682	1090.79
959.985	1114.52
960.289	1115.42
960.592	1105.25
960.896	1106.61
961.199	1109.32
961.502	1096.21
961.805	1074.07
962.108	1100.73
962.411	1084.46
962.714	1090.79
963.017	1043.79
963.32	1063.67
963.623	1071.13
963.926	1042.88
964.228	1046.72
964.531	1053.73
964.833	1048.31
965.136	1061.86
965.438	1050.11
965.741	1031.58
966.043	1030.68
966.345	1046.05
966.648	1008.98
966.95	1049.66
967.252	1041.98
967.554	1047.18
967.856	987.06
968.158	1008.53
968.46	993.62
968.761	1014.41
969.063	979.16
969.365	1013.96
969.666	1000.4
969.968	988.19
970.269	966.73
970.571	950.23
970.872	994.75
971.174	966.73
971.475	976.9
971.776	965.37
972.077	949.33
972.378	970.12
972.679	982.77
972.98	971.02
973.281	950.68
973.582	952.94
973.883	974.64
974.183	941.87
974.484	953.62
974.785	942.09
975.085	950
975.386	977.12
975.686	967.86
975.986	936.67
976.287	933.96
976.587	937.12
976.887	917.01
977.187	912.26
977.487	910.68
977.787	930.79
978.087	905.94
978.387	928.99
978.687	925.15
978.987	894.19
979.286	934.64
979.586	902.32
979.885	906.84
980.185	880.63
980.484	869.33
980.784	895.32
981.083	894.41
981.382	881.53
981.682	866.16
981.981	893.73
982.28	864.81
982.579	873.17
982.878	874.53
983.177	877.01
983.475	862.77
983.774	873.85
984.073	853.28
984.372	851.47
984.67	834.98
984.969	854.19
985.267	836.56
985.566	833.62
985.864	841.98
986.162	836.56
986.461	857.58
986.759	820.29
987.057	846.28
987.355	823
987.653	820.29
987.951	808.76
988.249	824.81
988.547	820.29
988.844	819.61
989.142	795.43
989.44	825.26
989.737	824.13
990.035	795.66
990.332	807.63
990.63	789.1
990.927	785.26
991.224	783.45
991.521	794.3
991.819	770.35
992.116	780.29
992.413	779.84
992.71	781.19
993.006	760.86
993.303	748.2
993.6	779.16
993.897	789.56
994.193	753.62
994.49	778.03
994.787	770.35
995.083	771.7
995.379	790.69
995.676	733.29
995.972	735.09
996.268	744.58
996.565	742.1
996.861	733.74
997.157	751.59
997.453	751.82
997.749	720.86
998.044	733.06
998.34	727.86
998.636	737.81
998.932	715.66
999.227	699.39
999.523	704.36
999.818	717.92
1000.114	706.85
1000.409	720.86
1000.704	700.74
1001	716.79
1001.295	688.77
1001.59	712.5
1001.885	715.66
1002.18	697.13
1002.475	721.08
1002.77	687.64
1003.065	681.99
1003.359	698.03
1003.654	679.73
1003.949	673.4
1004.243	698.26
1004.538	678.15
1004.832	678.15
1005.127	681.08
1005.421	687.86
1005.715	675.43
1006.009	676.34
1006.304	654.64
1006.598	657.58
1006.892	672.04
1007.186	643.8
1007.48	637.47
1007.773	644.7
1008.067	653.29
1008.361	657.58
1008.655	650.35
1008.948	654.19
1009.242	643.34
1009.535	658.94
1009.829	660.97
1010.122	661.2
1010.415	647.86
1010.708	614.64
1011.001	637.7
1011.295	623.23
1011.588	618.94
1011.881	640.86
1012.173	609.9
1012.466	640.41
1012.759	611.93
1013.052	608.32
1013.344	604.7
1013.637	604.93
1013.93	603.8
1014.222	617.36
1014.514	605.83
1014.807	603.8
1015.099	603.35
1015.391	584.59
1015.683	628.66
1015.976	607.19
1016.268	610.8
1016.56	584.36
1016.851	593.85
1017.143	581.2
1017.435	609.9
1017.727	599.28
1018.018	581.65
1018.31	577.81
1018.602	575.78
1018.893	572.61
1019.185	561.99
1019.476	576.23
1019.767	579.17
1020.058	584.36
1020.35	557.47
1020.641	537.13
1020.932	563.8
1021.223	555.66
1021.514	565.15
1021.804	550.24
1022.095	550.24
1022.386	528.32
1022.677	538.49
1022.967	543.01
1023.258	533.74
1023.548	520.64
1023.839	552.73
1024.129	528.09
1024.419	553.4
1024.709	541.65
1025	511.82
1025.29	522.67
1025.58	515.44
1025.87	531.26
1026.16	516.57
1026.449	521.99
1026.739	510.24
1027.029	525.38
1027.319	521.09
1027.608	496.46
1027.898	521.31
1028.187	525.83
1028.477	499.17
1028.766	500.3
1029.055	518.15
1029.344	516.79
1029.634	500.98
1029.923	478.15
1030.212	505.27
1030.501	496.23
1030.79	484.48
1031.078	489
1031.367	494.2
1031.656	470.24
1031.945	485.61
1032.233	489.68
1032.522	488.09
1032.81	500.75
1033.099	474.99
1033.387	491.71
1033.675	480.19
1033.963	481.77
1034.251	461.2
1034.54	479.06
1034.828	484.7
1035.116	468.66
1035.403	468.89
1035.691	496
1035.979	474.99
1036.267	482.22
1036.554	440.19
1036.842	463.69
1037.129	474.76
1037.417	472.5
1037.704	450.58
1037.992	465.04
1038.279	455.1
1038.566	442.67
1038.853	442.67
1039.14	442.67
