Data from foam1_polythene_foam_FLMS001491_00048.txt Node
Date: Wed Feb 08 10:54:53 GMT 2017
User: dcchb
Spectrometer: FLMS00149
Trigger mode: 0
Integration Time (sec): 2.000000E-2
Scans to average: 10
Electric dark correction enabled: true
Nonlinearity correction enabled: false
Boxcar width: 0
XAxis mode: Wavelengths
Number of Pixels in Spectrum: 2048
>>>>>Begin Spectral Data<<<<<
341.393	-17.15
341.776	-17.15
342.16	-17.15
342.543	-57.6
342.927	-55.79
343.31	-63.25
343.693	-59.18
344.077	-71.61
344.46	-68.22
344.843	-37.03
345.226	-53.98
345.61	-37.26
345.993	-34.77
346.376	-3.59
346.759	17.88
347.142	30.76
347.525	45.22
347.908	52.91
348.291	83.42
348.674	97.43
349.057	101.27
349.44	123.19
349.823	134.94
350.206	170.65
350.588	191.89
350.971	204.32
351.354	204.32
351.737	219.91
352.119	238.21
352.502	244.77
352.884	257.87
353.267	260.13
353.65	278.66
354.032	270.3
354.414	308.95
354.797	311.88
355.179	303.07
355.562	299.46
355.944	317.53
356.326	311.88
356.709	322.73
357.091	334.48
357.473	313.92
357.855	333.8
358.238	322.51
358.62	344.88
359.002	326.57
359.384	348.04
359.766	330.42
360.148	319.34
360.53	317.08
360.912	308.72
361.294	336.06
361.676	327.25
362.057	327.48
362.439	329.96
362.821	312.11
363.203	307.82
363.584	313.24
363.966	322.96
364.348	308.72
364.729	318.21
365.111	303.75
365.493	315.95
365.874	312.79
366.256	306.46
366.637	301.04
367.019	302.39
367.4	312.11
367.781	307.36
368.163	301.72
368.544	300.81
368.925	278.44
369.306	299.46
369.688	315.27
370.069	296.97
370.45	316.4
370.831	291.09
371.212	310.08
371.593	280.7
371.974	311.66
372.355	295.39
372.736	299
373.117	298.55
373.498	303.3
373.879	308.49
374.26	313.47
374.641	313.92
375.021	305.33
375.402	321.6
375.783	294.26
376.163	306.23
376.544	305.56
376.925	313.01
377.305	303.52
377.686	321.15
378.066	308.04
378.447	301.26
378.827	312.79
379.208	308.27
379.588	340.58
379.968	316.63
380.349	338.55
380.729	315.05
381.109	325.9
381.489	346.46
381.87	339.45
382.25	318.44
382.63	323.86
383.01	320.47
383.39	350.98
383.77	338.32
384.15	344.43
384.53	335.61
384.91	329.51
385.29	337.19
385.67	329.74
386.049	343.97
386.429	360.47
386.809	328.83
387.189	334.48
387.568	358.44
387.948	339.23
388.328	319.57
388.707	337.87
389.087	354.37
389.466	353.01
389.846	345.78
390.225	349.62
390.605	368.83
390.984	342.84
391.363	373.58
391.743	388.04
392.122	361.83
392.501	367.7
392.881	377.65
393.26	363.86
393.639	372.67
394.018	363.18
394.397	384.88
394.776	389.17
395.155	379.45
395.534	425.1
395.913	382.39
396.292	378.55
396.671	384.88
397.05	402.28
397.429	392.79
397.808	399.79
398.186	381.04
398.565	395.05
398.944	404.76
399.323	408.15
399.701	409.28
400.08	390.98
400.458	399.79
400.837	402.05
401.215	387.14
401.594	417.64
401.972	392.11
402.351	406.12
402.729	408.15
403.107	432.11
403.486	432.33
403.864	416.97
404.242	449.96
404.62	434.59
404.999	420.58
405.377	430.98
405.755	428.49
406.133	471.65
406.511	454.03
406.889	437.3
407.267	451.77
407.645	468.49
408.023	444.31
408.401	450.19
408.779	461.03
409.156	457.64
409.534	475.95
409.912	462.39
410.29	460.36
410.667	487.93
411.045	462.61
411.422	494.48
411.8	477.98
412.178	487.7
412.555	475.95
412.933	497.87
413.31	513.24
413.687	509.17
414.065	521.14
414.442	510.52
414.819	513.69
415.197	548.26
415.574	508.72
415.951	512.78
416.328	505.78
416.705	546
417.082	520.24
417.46	538.32
417.837	539
418.214	532.67
418.591	567.02
418.967	561.37
419.344	553.23
419.721	538.32
420.098	560.24
420.475	573.12
420.852	550.75
421.228	572.89
421.605	576.74
421.982	584.42
422.358	593.46
422.735	593.68
423.111	600.92
423.488	592.78
423.864	598.2
424.241	595.94
424.617	614.93
424.994	626.45
425.37	612.44
425.746	618.54
426.123	625.1
426.499	620.58
426.875	637.3
427.251	659.45
427.627	683.85
428.003	650.86
428.379	649.95
428.756	678.65
429.132	708.26
429.507	698.09
429.883	700.8
430.259	699.22
430.635	709.61
431.011	714.59
431.387	730.86
431.763	735.38
432.138	739.67
432.514	757.3
432.89	774.92
433.265	761.59
433.641	790.06
434.016	805.2
434.392	783.51
434.767	803.85
435.143	825.32
435.518	828.71
435.894	830.06
436.269	849.5
436.644	853.57
437.02	843.4
437.395	846.79
437.77	842.94
438.145	864.86
438.52	898.76
438.895	875.94
439.271	890.4
439.646	916.84
440.021	947.57
440.395	911.64
440.77	921.59
441.145	945.09
441.52	970.85
441.895	939.21
442.27	949.38
442.645	960
443.019	973.56
443.394	983.96
443.769	995.93
444.143	993.22
444.518	1017.85
444.892	1005.88
445.267	1026.89
445.641	1010.4
446.016	1018.76
446.39	1059.44
446.764	1033
447.139	1052.43
447.513	1059.44
447.887	1058.76
448.262	1075.71
448.636	1083.62
449.01	1080.68
449.384	1090.62
449.758	1125.65
450.132	1118.87
450.506	1133.56
450.88	1166.78
451.254	1163.16
451.628	1200.9
452.002	1184.18
452.376	1190.05
452.75	1184.4
453.123	1213.78
453.497	1229.83
453.871	1230.28
454.244	1247.45
454.618	1254.01
454.992	1250.39
455.365	1258.3
455.739	1287.45
456.112	1329.48
456.486	1296.27
456.859	1315.7
457.232	1345.98
457.606	1321.35
457.979	1363.83
458.352	1359.99
458.725	1390.05
459.099	1385.53
459.472	1435.7
459.845	1423.04
460.218	1407.45
460.591	1437.28
460.964	1432.31
461.337	1459.42
461.71	1491.74
462.083	1529.48
462.456	1511.85
462.829	1521.8
463.201	1531.74
463.574	1522.93
463.947	1541.46
464.32	1578.97
464.692	1585.3
465.065	1592.75
465.438	1621.23
465.81	1655.13
466.183	1648.8
466.555	1717.27
466.928	1684.73
467.3	1683.83
467.672	1688.12
468.045	1719.53
468.417	1783.03
468.789	1787.55
469.161	1773.54
469.534	1843.37
469.906	1876.14
470.278	1840.21
470.65	1920.66
471.022	1935.34
471.394	1955.46
471.766	1973.31
472.138	1955.23
472.51	2008.56
472.882	2040.88
473.253	2061.89
473.625	2075.45
473.997	2141.89
474.369	2142.12
474.74	2153.19
475.112	2190.71
475.484	2241.33
475.855	2252.17
476.227	2283.58
476.598	2344.37
476.97	2329.23
477.341	2380.08
477.713	2466.4
478.084	2463.92
478.455	2477.7
478.827	2533.97
479.198	2601.77
479.569	2600.86
479.94	2658.04
480.311	2670.92
480.682	2745.72
481.053	2791.82
481.424	2839.05
481.795	2846.28
482.166	2911.59
482.537	2985.26
482.908	3007.63
483.279	2998.14
483.65	3045.82
484.021	3104.35
484.391	3175.54
484.762	3188.42
485.133	3222.99
485.503	3278.59
485.874	3374.18
486.244	3368.3
486.615	3456.43
486.985	3476.55
487.356	3553.61
487.726	3566.04
488.097	3678.12
488.467	3617.79
488.837	3725.13
489.207	3764.68
489.578	3776.43
489.948	3838.57
490.318	3927.83
490.688	3961.51
491.058	3986.14
491.428	4051
491.798	4058.45
492.168	4147.49
492.538	4186.13
492.908	4153.59
493.278	4314.04
493.648	4289.86
494.017	4340.93
494.387	4402.62
494.757	4417.99
495.126	4504.32
495.496	4468.84
495.866	4499.34
496.235	4537.99
496.605	4651.88
496.974	4642.39
497.344	4749.28
497.713	4775.72
498.082	4738.66
498.452	4809.62
498.821	4883.06
499.19	4886.23
499.559	4900.24
499.928	4962.16
500.298	4990.41
500.667	5060.46
501.036	5042.61
501.405	5095.94
501.774	5105.88
502.143	5197.18
502.512	5221.81
502.88	5286.22
503.249	5294.8
503.618	5360.79
503.987	5324.86
504.356	5366.67
504.724	5417.06
505.093	5415.93
505.462	5485.53
505.83	5507.45
506.199	5577.96
506.567	5559.66
506.936	5664.06
507.304	5725.98
507.672	5733.66
508.041	5756.94
508.409	5788.35
508.777	5864.28
509.145	5917.84
509.514	5918.97
509.882	6010.27
510.25	6025.41
510.618	6036.48
510.986	6104.5
511.354	6159.64
511.722	6183.82
512.09	6256.13
512.458	6214.33
512.826	6337.94
513.193	6352.86
513.561	6389.24
513.929	6463.81
514.297	6544.94
514.664	6537.03
515.032	6553.53
515.4	6582.45
515.767	6626.52
516.135	6709.46
516.502	6716.91
516.869	6836.68
517.237	6852.96
517.604	6875.55
517.972	6991.71
518.339	7008.43
518.706	6956
519.073	7066.51
519.44	7139.05
519.808	7190.12
520.175	7277.58
520.542	7321.19
520.909	7322.55
521.276	7347.41
521.643	7466.27
522.009	7530.68
522.376	7558.93
522.743	7562.54
523.11	7711.92
523.477	7785.81
523.843	7786.26
524.21	7862.65
524.577	8035.98
524.943	7979.25
525.31	8139.02
525.676	8094.5
526.043	8113.49
526.409	8243.2
526.776	8280.26
527.142	8361.84
527.508	8406.81
527.874	8530.2
528.241	8546.92
528.607	8572.23
528.973	8604.77
529.339	8652
529.705	8729.97
530.071	8754.15
530.437	8828.5
530.803	8885.9
531.169	8923.41
531.535	8964.09
531.901	8989.4
532.267	8995.95
532.632	9104.87
532.998	9113.69
533.364	9191.65
533.73	9224.64
534.095	9282.72
534.461	9321.37
534.826	9423.74
535.192	9413.57
535.557	9525.88
535.923	9482.49
536.288	9607.91
536.653	9605.43
537.019	9667.8
537.384	9627.8
537.749	9648.81
538.114	9680.23
538.479	9776.95
538.845	9821.46
539.21	9821.24
539.575	9897.4
539.94	9929.48
540.305	9944.63
540.67	9940.56
541.034	9993.21
541.399	10027.11
541.764	10108.91
542.129	10156.37
542.494	10126.99
542.858	10172.42
543.223	10230.27
543.587	10310.72
543.952	10268.91
544.316	10283.83
544.681	10341.68
545.045	10450.6
545.41	10438.4
545.774	10429.81
546.138	10460.77
546.503	10576.25
546.867	10488.57
547.231	10654.89
547.595	10687.66
547.959	10705.06
548.324	10729.92
548.688	10729.69
549.052	10775.11
549.416	10768.11
549.779	10875.22
550.143	10871.38
550.507	10899.85
550.871	10976.01
551.235	10955.67
551.599	11082.22
551.962	11159.06
552.326	11172.62
552.689	11257.13
553.053	11190.47
553.417	11177.36
553.78	11350.92
554.143	11316.79
554.507	11361.76
554.87	11373.51
555.234	11496.68
555.597	11521.08
555.96	11514.98
556.323	11588.2
556.686	11616.22
557.05	11697.57
557.413	11677.01
557.776	11740.06
558.139	11834.07
558.502	11836.1
558.865	12039.71
559.228	12058.92
559.59	12047.62
559.953	12051.01
560.316	12265.69
560.679	12169.88
561.041	12274.51
561.404	12323.32
561.767	12404.22
562.129	12372.58
562.492	12465.92
562.854	12556.76
563.217	12502.98
563.579	12605.35
563.941	12755.63
564.304	12703.42
564.666	12793.82
565.028	12794.04
565.39	12871.1
565.753	12935.06
566.115	12996.07
566.477	13026.8
566.839	13058.44
567.201	13150.42
567.563	13156.07
567.925	13273.58
568.287	13293.69
568.648	13231.77
569.01	13420.24
569.372	13436.96
569.734	13432.9
570.095	13589.5
570.457	13645.32
570.819	13676.5
571.18	13608.71
571.542	13719.44
571.903	13801.47
572.265	13756.95
572.626	13771.64
572.987	13840.34
573.349	13836.27
573.71	13942.71
574.071	13961.92
574.432	14052.99
574.794	14154.46
575.155	14020.9
575.516	14102.03
575.877	14086.66
576.238	14183.38
576.599	14260.44
576.96	14219.77
577.32	14331.63
577.681	14296.38
578.042	14348.58
578.403	14342.02
578.763	14344.28
579.124	14320.56
579.485	14437.39
579.845	14473.32
580.206	14438.74
580.566	14432.64
580.927	14459.54
581.287	14431.74
581.648	14379.31
582.008	14563.94
582.368	14546.54
582.728	14616.14
583.089	14538.4
583.449	14556.93
583.809	14574.33
584.169	14680.77
584.529	14567.78
584.889	14673.09
585.249	14566.65
585.609	14568.23
585.969	14681.45
586.329	14633.54
586.688	14730.71
587.048	14649.81
587.408	14601
587.768	14664.95
588.127	14545.18
588.487	14601.68
588.846	14693.43
589.206	14575.46
589.565	14658.4
589.925	14682.35
590.284	14635.8
590.643	14591.96
591.003	14730.49
591.362	14784.5
591.721	14804.61
592.08	14738.85
592.44	14750.15
592.799	14793.31
593.158	14766.19
593.517	14853.65
593.876	14768
594.235	14735.23
594.593	14795.12
594.952	14835.12
595.311	14674.22
595.67	14756.25
596.029	14972.29
596.387	14952.86
596.746	14932.29
597.104	14838.73
597.463	14843.48
597.822	14862.91
598.18	14734.1
598.538	14838.28
598.897	14944.27
599.255	14815.23
599.613	15035.11
599.972	14954.66
600.33	14944.49
600.688	14853.65
601.046	14979.97
601.404	15029.01
601.762	14920.99
602.12	14914.44
602.478	15038.28
602.836	15104.26
603.194	14998.73
603.552	14999.63
603.91	15012.06
604.268	15064.04
604.625	15082.57
604.983	15113.76
605.341	14993.31
605.698	15155.34
606.056	15087.99
606.413	15142.68
606.771	15132.96
607.128	15215
607.485	15148.1
607.843	15076.92
608.2	15172.74
608.557	15262
608.914	15196.24
609.272	15225.16
609.629	15266.29
609.986	15358.49
610.343	15393.52
610.7	15331.6
611.057	15333.41
611.414	15384.48
611.771	15410.47
612.127	15416.57
612.484	15497.47
612.841	15529.34
613.198	15468.55
613.554	15518.94
613.911	15583.12
614.267	15541.31
614.624	15535.44
614.98	15580.86
615.337	15614.31
615.693	15487.3
616.05	15569.34
616.406	15654.98
616.762	15654.98
617.118	15617.02
617.475	15698.6
617.831	15678.49
618.187	15622.67
618.543	15743.34
618.899	15729.78
619.255	15764.36
619.611	15669.22
619.967	15701.54
620.323	15747.18
620.678	15669.9
621.034	15727.3
621.39	15713.51
621.746	15751.7
622.101	15789.67
622.457	15778.6
622.812	15789.67
623.168	15732.95
623.523	15744.7
623.879	15791.7
624.234	15686.17
624.589	15804.58
624.945	15724.36
625.3	15812.04
625.655	15771.59
626.01	15725.26
626.365	15692.05
626.72	15788.99
627.075	15708.99
627.43	15647.75
627.785	15679.62
628.14	15780.18
628.495	15825.15
628.85	15749.44
629.205	15689.56
629.559	15758.94
629.914	15667.19
630.269	15636.91
630.623	15709.22
630.978	15630.8
631.332	15653.18
631.687	15646.17
632.041	15674.64
632.396	15623.12
632.75	15582.22
633.104	15600.07
633.459	15551.48
633.813	15513.52
634.167	15422.45
634.521	15553.07
634.875	15475.1
635.229	15469.68
635.583	15404.14
635.937	15413.41
636.291	15351.04
636.645	15400.3
636.999	15409.79
637.352	15413.86
637.706	15306.07
638.06	15370.47
638.413	15337.7
638.767	15213.19
639.121	15399.62
639.474	15183.81
639.828	15259.06
640.181	15217.26
640.534	15218.16
640.888	15139.29
641.241	15095.68
641.594	15107.65
641.947	15223.81
642.301	15103.36
642.654	15152.85
643.007	15214.09
643.36	15091.61
643.713	15054.1
644.066	15091.16
644.419	15017.49
644.771	14920.54
645.124	14902.91
645.477	14840.32
645.83	14817.49
646.182	14581.79
646.535	14508.57
646.888	14505.86
647.24	14373.89
647.593	14475.13
647.945	14460.66
648.298	14389.03
648.65	14331.63
649.002	14305.41
649.355	14376.15
649.707	14284.62
650.059	14423.83
650.411	14587.44
650.763	14626.54
651.115	14766.87
651.467	14688
651.819	14798.06
652.171	14723.48
652.523	14627.89
652.875	14645.97
653.227	14653.88
653.578	14653.88
653.93	14662.24
654.282	14547.67
654.633	14493.66
654.985	14547.67
655.337	14520.1
655.688	14516.93
656.039	14584.05
656.391	14407.79
656.742	14500.89
657.094	14456.15
657.445	14478.97
657.796	14452.76
658.147	14409.14
658.498	14490.95
658.849	14436.94
659.2	14471.96
659.551	14391.51
659.902	14501.12
660.253	14383.15
660.604	14424.51
660.955	14276.94
661.306	14323.72
661.656	14427.45
662.007	14334.79
662.358	14281.69
662.708	14322.82
663.059	14278.3
663.409	14184.97
663.76	14278.52
664.11	14230.61
664.461	14249.15
664.811	14310.84
665.161	14315.58
665.511	14222.03
665.862	14359.2
666.212	14256.38
666.562	14363.72
666.912	14258.41
667.262	14167.11
667.612	14218.64
667.962	14191.75
668.312	14200.11
668.662	14299.09
669.011	14216.15
669.361	14179.99
669.711	14174.34
670.06	14219.99
670.41	14132.54
670.76	14085.76
671.109	14142.26
671.459	14049.6
671.808	14213.44
672.157	14158.07
672.507	14056.61
672.856	14069.04
673.205	14088.92
673.554	14160.79
673.904	14064.07
674.253	14103.16
674.602	14083.5
674.951	13893.9
675.3	13881.92
675.649	14059.77
675.998	13981.81
676.346	13970.06
676.695	14043.27
677.044	14013.67
677.393	14036.04
677.741	13968.02
678.09	13998.08
678.438	13909.04
678.787	13968.25
679.135	13810.74
679.484	13888.02
679.832	13839.89
680.181	13795.37
680.529	13855.48
680.877	13803.73
681.225	13761.47
681.573	13844.41
681.922	13796.73
682.27	13703.85
682.618	13667.01
682.966	13691.87
683.314	13649.39
683.661	13664.75
684.009	13565.1
684.357	13487.58
684.705	13537.75
685.053	13634.7
685.4	13531.88
685.748	13440.13
686.095	13507.24
686.443	13417.08
686.79	13422.5
687.138	13555.83
687.485	13439.9
687.832	13417.75
688.18	13398.77
688.527	13280.36
688.874	13313.8
689.221	13305.89
689.568	13207.36
689.915	13190.64
690.262	13167.14
690.609	13193.58
690.956	13118.78
691.303	13104.54
691.65	13067.26
691.997	12982.51
692.344	12867.26
692.69	12917.88
693.037	12902.51
693.383	12806.25
693.73	12795.85
694.077	12819.35
694.423	12801.27
694.769	12688.51
695.116	12668.17
695.462	12648.74
695.808	12603.54
696.155	12660.26
696.501	12548.62
696.847	12553.82
697.193	12472.02
697.539	12556.53
697.885	12451.9
698.231	12400.61
698.577	12432.47
698.923	12366.71
699.269	12260.5
699.614	12292.13
699.96	12300.95
700.306	12251.46
700.651	12216.88
700.997	12191.12
701.342	12113.83
701.688	12139.14
702.033	12118.81
702.379	12119.03
702.724	12080.61
703.069	12047.17
703.415	11872.48
703.76	11905.25
704.105	11912.03
704.45	11800.62
704.795	11803.56
705.14	11806.72
705.485	11818.47
705.83	11745.03
706.175	11754.75
706.52	11680.63
706.865	11571.02
707.209	11597.46
707.554	11531.93
707.899	11638.82
708.243	11558.59
708.588	11470.69
708.932	11503
709.277	11534.87
709.621	11429.11
709.966	11377.81
710.31	11398.6
710.654	11274.76
710.998	11404.47
711.342	11350.92
711.687	11352.72
712.031	11223.91
712.375	11155.67
712.719	11228.89
713.063	11239.96
713.407	11172.16
713.75	11173.75
714.094	11178.72
714.438	11058.49
714.782	11063.01
715.125	11072.96
715.469	11043.13
715.812	11052.17
716.156	11018.04
716.499	10986.86
716.843	10960.19
717.186	10937.82
717.53	10936.01
717.873	10919.52
718.216	10860.31
718.559	10875
718.902	10804.72
719.246	10764.94
719.589	10810.59
719.932	10665.74
720.275	10695.11
720.617	10729.69
720.96	10717.03
721.303	10699.63
721.646	10679.07
721.989	10574.67
722.331	10652.63
722.674	10648.56
723.016	10598.39
723.359	10638.17
723.701	10634.78
724.044	10556.13
724.386	10487.89
724.729	10539.41
725.071	10530.37
725.413	10469.13
725.755	10435.91
726.097	10403.14
726.439	10433.88
726.782	10472.3
727.124	10439.53
727.465	10364.05
727.807	10416.93
728.149	10356.14
728.491	10342.81
728.833	10291.51
729.175	10299.19
729.516	10282.47
729.858	10331.28
730.199	10182.81
730.541	10241.57
730.882	10200.66
731.224	10252.87
731.565	10183.26
731.906	10188.23
732.248	10178.07
732.589	10133.32
732.93	10123.6
733.271	10075.02
733.612	10115.02
733.953	10116.15
734.294	10064.85
734.635	10021.46
734.976	10013.78
735.317	9992.53
735.658	9996.6
735.999	10091.29
736.339	10013.32
736.68	10012.65
737.021	9963.16
737.361	9877.06
737.702	9953.66
738.042	9872.31
738.383	9868.92
738.723	9934.91
739.063	9843.61
739.404	9931.52
739.744	9819.43
740.084	9816.72
740.424	9750.05
740.764	9747.79
741.104	9795.48
741.444	9729.49
741.784	9709.6
742.124	9761.35
742.464	9771.97
742.804	9708.02
743.143	9666.89
743.483	9706.44
743.823	9630.74
744.162	9621.02
744.502	9588.02
744.841	9564.52
745.181	9610.62
745.52	9520
745.86	9536.27
746.199	9521.13
746.538	9550.06
746.877	9557.74
747.216	9541.47
747.556	9504.86
747.895	9519.33
748.234	9466.45
748.573	9444.98
748.911	9438.42
749.25	9415.37
749.589	9427.13
749.928	9340.57
750.267	9445.66
750.605	9347.81
750.944	9435.94
751.283	9335.15
751.621	9308.26
751.96	9286.79
752.298	9275.26
752.636	9319.33
752.975	9212.44
753.313	9174.93
753.651	9285.89
753.989	9182.61
754.327	9189.84
754.666	9086.57
755.004	9142.16
755.342	9077.98
755.679	9107.81
756.017	9029.85
756.355	9072.11
756.693	9018.77
757.031	9051.54
757.368	8957.98
757.706	8938.32
758.044	8832.79
758.381	8905.33
758.719	8933.13
759.056	8875.28
759.394	8819.46
759.731	8752.34
760.068	8783.98
760.405	8763.64
760.743	8651.33
761.08	8679.8
761.417	8626.92
761.754	8601.16
762.091	8565.45
762.428	8577.43
762.765	8543.53
763.102	8593.47
763.438	8546.24
763.775	8475.06
764.112	8512.57
764.449	8527.04
764.785	8476.64
765.122	8464.66
765.458	8381.95
765.795	8351.45
766.131	8383.99
766.467	8300.15
766.804	8342.63
767.14	8254.5
767.476	8203.43
767.812	8219.47
768.148	8256.08
768.485	8163.43
768.821	8165.24
769.157	8120.27
769.492	8140.15
769.828	8129.08
770.164	8068.52
770.5	8049.76
770.836	8028.07
771.171	7990.78
771.507	7968.86
771.842	7932.02
772.178	7893.15
772.513	7879.37
772.849	7887.05
773.184	7835.53
773.519	7780.61
773.855	7740.16
774.19	7703.33
774.525	7760.28
774.86	7722.09
775.195	7710.11
775.53	7650.45
775.865	7627.4
776.2	7572.03
776.535	7468.76
776.87	7505.82
777.205	7439.61
777.539	7435.76
777.874	7412.04
778.209	7301.08
778.543	7300.85
778.878	7291.81
779.212	7230.57
779.547	7233.06
779.881	7257.01
780.215	7203.91
780.55	7247.75
780.884	7118.03
781.218	7096.56
781.552	7162.78
781.886	7067.64
782.22	7101.54
782.554	7095.66
782.888	6981.31
783.222	7007.75
783.556	6967.08
783.889	6938.38
784.223	6932.05
784.557	6895.44
784.89	6917.13
785.224	6847.31
785.557	6822
785.891	6778.16
786.224	6753.52
786.558	6790.13
786.891	6726.41
787.224	6662.68
787.557	6635.56
787.891	6708.55
788.224	6606.86
788.557	6682.79
788.89	6640.53
789.223	6656.58
789.556	6567.77
789.888	6550.82
790.221	6553.75
790.554	6518.27
790.887	6540.87
791.219	6481.89
791.552	6473.53
791.884	6427.43
792.217	6379.75
792.549	6396.24
792.882	6333.42
793.214	6293.65
793.546	6328.9
793.879	6281.45
794.211	6297.26
794.543	6320.99
794.875	6237.38
795.207	6270.15
795.539	6239.41
795.871	6300.43
796.203	6198.74
796.535	6155.57
796.867	6105.18
797.198	6060.89
797.53	6156.7
797.862	6030.6
798.193	6050.72
798.525	6001.9
798.856	5991.51
799.188	5986.99
799.519	5961.23
799.85	5900.66
800.182	5925.07
800.513	5936.6
800.844	5824.28
801.175	5893.43
801.506	5899.76
801.837	5858.86
802.168	5796.49
802.499	5814.79
802.83	5805.07
803.161	5735.02
803.491	5758.29
803.822	5731.4
804.153	5687.34
804.483	5701.35
804.814	5664.96
805.145	5675.59
805.475	5600.78
805.805	5647.79
806.136	5697.05
806.466	5614.12
806.796	5604.63
807.126	5639.43
807.457	5528.24
807.787	5606.21
808.117	5541.8
808.447	5457.29
808.777	5526.21
809.107	5518.98
809.436	5461.13
809.766	5504.74
810.096	5439.21
810.426	5415.71
810.755	5430.17
811.085	5418.87
811.414	5387.46
811.744	5350.62
812.073	5387.68
812.403	5357.4
812.732	5348.59
813.061	5390.39
813.39	5335.93
813.719	5316.5
814.049	5345.88
814.378	5336.84
814.707	5329.83
815.036	5269.04
815.365	5242.15
815.693	5200.12
816.022	5225.88
816.351	5187.24
816.68	5163.28
817.008	5204.86
817.337	5176.84
817.665	5130.74
817.994	5132.77
818.322	5115.6
818.651	5097.3
818.979	5067.69
819.307	5100.69
819.636	5088.26
819.964	5092.32
820.292	5092.1
820.62	5113.11
820.948	5097.52
821.276	5084.19
821.604	5087.58
821.932	5061.14
822.259	5079.44
822.587	5054.36
822.915	4975.04
823.243	5095.49
823.57	5023.62
823.898	5034.92
824.225	5049.84
824.553	5000.35
824.88	5031.08
825.207	4974.81
825.535	4993.34
825.862	5028.37
826.189	5084.41
826.516	5056.84
826.843	5064.53
827.17	5064.75
827.497	5039.67
827.824	5033.79
828.151	5089.16
828.478	5091.87
828.805	5060.23
829.131	5047.13
829.458	5046.68
829.785	4992.44
830.111	5034.92
830.438	5017.3
830.764	5031.53
831.09	5048.03
831.417	4972.78
831.743	5003.29
832.069	5047.58
832.395	4974.59
832.722	5020.46
833.048	5019.78
833.374	4978.88
833.7	4994.25
834.026	5039.67
834.351	5010.52
834.677	5022.95
835.003	4987.69
835.329	4978.65
835.654	4999.22
835.98	5003.29
836.306	4977.3
836.631	4959.67
836.956	4964.19
837.282	4948.37
837.607	4932.1
837.932	4895.27
838.258	4940.69
838.583	4968.03
838.908	4903.4
839.233	4914.48
839.558	4879.67
839.883	4907.7
840.208	4884.87
840.533	4840.13
840.858	4862.5
841.182	4804.2
841.507	4865.21
841.832	4817.08
842.156	4833.57
842.481	4813.91
842.805	4797.64
843.13	4758.32
843.454	4744.08
843.778	4754.25
844.103	4769.62
844.427	4637.87
844.751	4735.95
845.075	4709.06
845.399	4684.88
845.723	4633.13
846.047	4641.49
846.371	4616.18
846.695	4626.8
847.019	4634.93
847.343	4551.77
847.666	4563.52
847.99	4559.23
848.313	4579.79
848.637	4505.67
848.96	4525.11
849.284	4510.42
849.607	4513.81
849.931	4459.35
850.254	4447.37
850.577	4437.88
850.9	4417.77
851.223	4410.99
851.546	4378.44
851.869	4323.08
852.192	4345
852.515	4304.77
852.838	4298.67
853.161	4306.36
853.483	4264.55
853.806	4283.98
854.129	4230.88
854.451	4267.03
854.774	4247.83
855.096	4232.69
855.419	4194.49
855.741	4257.32
856.063	4228.17
856.385	4180.26
856.708	4171.9
857.03	4129.19
857.352	4151.78
857.674	4102.29
857.996	4082.41
858.318	4093.03
858.64	4050.54
858.961	4046.48
859.283	4038.11
859.605	4057.55
859.926	4065.23
860.248	4034.27
860.57	4043.09
860.891	4031.11
861.212	3965.8
861.534	4032.46
861.855	4000.15
862.176	3972.13
862.498	4027.49
862.819	3994.27
863.14	4014.16
863.461	3959.25
863.782	4002.41
864.103	3930.55
864.424	3947.72
864.745	3954.05
865.065	3916.31
865.386	3911.56
865.707	3910.43
866.027	3885.58
866.348	3902.3
866.668	3853.94
866.989	3895.97
867.309	3890.55
867.63	3946.82
867.95	3872.02
868.27	3856.2
868.59	3881.96
868.91	3854.39
869.23	3860.94
869.55	3860.04
869.87	3851.9
870.19	3860.04
870.51	3850.55
870.83	3857.33
871.15	3828.4
871.469	3872.92
871.789	3797.22
872.109	3798.8
872.428	3805.8
872.748	3792.92
873.067	3814.39
873.386	3802.87
873.706	3799.93
874.025	3745.24
874.344	3738.46
874.663	3786.6
874.982	3730.33
875.301	3746.6
875.62	3727.84
875.939	3677.9
876.258	3735.07
876.577	3748.18
876.896	3729.65
877.214	3712.7
877.533	3656.2
877.852	3709.08
878.17	3738.46
878.489	3727.84
878.807	3673.83
879.125	3674.96
879.444	3678.58
879.762	3657.33
880.08	3698.91
880.398	3606.71
880.716	3680.38
881.034	3625.47
881.352	3584.11
881.67	3624.34
881.988	3614.62
882.306	3545.92
882.624	3596.09
882.941	3585.24
883.259	3605.36
883.577	3562.19
883.894	3573.72
884.212	3561.97
884.529	3573.72
884.846	3582.31
885.164	3545.47
885.481	3557.45
885.798	3511.12
886.115	3511.8
886.432	3528.75
886.75	3543.44
887.067	3558.13
887.383	3520.61
887.7	3505.7
888.017	3486.49
888.334	3441.52
888.651	3502.54
888.967	3490.33
889.284	3465.25
889.6	3436.77
889.917	3447.85
890.233	3449.43
890.55	3429.32
890.866	3419.6
891.182	3404.01
891.498	3394.29
891.815	3416.66
892.131	3425.47
892.447	3399.94
892.763	3359.94
893.079	3370.79
893.395	3342.77
893.71	3376.21
894.026	3353.61
894.342	3372.37
894.657	3296.21
894.973	3304.8
895.289	3278.36
895.604	3316.33
895.92	3241.07
896.235	3259.15
896.55	3246.95
896.865	3230
897.181	3229.1
897.496	3246.04
897.811	3204.01
898.126	3206.72
898.441	3197.23
898.756	3156.1
899.071	3187.74
899.386	3143
899.7	3166.95
900.015	3138.25
900.33	3137.57
900.644	3118.36
900.959	3108.87
901.273	3109.1
901.588	3074.07
901.902	3067.29
902.216	3070.91
902.531	3068.87
902.845	3026.16
903.159	3056.22
903.473	3023.23
903.787	3001.08
904.101	2964.47
904.415	2968.31
904.729	2986.16
905.042	2934.19
905.356	2955.66
905.67	2969.67
905.984	2926.73
906.297	2918.6
906.611	2913.62
906.924	2931.48
907.237	2912.27
907.551	2918.37
907.864	2914.08
908.177	2890.12
908.491	2881.99
908.804	2888.31
909.117	2850.12
909.43	2861.42
909.743	2847.19
910.056	2832.5
910.368	2827.3
910.681	2827.52
910.994	2825.49
911.307	2813.51
911.619	2768.99
911.932	2756.79
912.244	2806.06
912.557	2780.97
912.869	2718.15
913.181	2737.81
913.494	2734.19
913.806	2715.89
914.118	2710.24
914.43	2714.08
914.742	2676.12
915.054	2696.68
915.366	2676.57
915.678	2676.34
915.99	2639.51
916.302	2643.57
916.613	2633.86
916.925	2610.81
917.236	2604.25
917.548	2575.33
917.859	2607.87
918.171	2599.73
918.482	2526.97
918.794	2576.01
919.105	2531.94
919.416	2534.2
919.727	2490.81
920.038	2498.27
920.349	2494.43
920.66	2479.29
920.971	2479.74
921.282	2457.36
921.593	2440.87
921.903	2441.77
922.214	2410.13
922.525	2404.03
922.835	2446.52
923.146	2419.17
923.456	2398.38
923.767	2418.95
924.077	2410.13
924.387	2375.11
924.697	2377.37
925.008	2386.18
925.318	2365.39
925.628	2368.78
925.938	2346.86
926.248	2333.75
926.558	2344.37
926.867	2310.02
927.177	2317.93
927.487	2284.71
927.796	2270.03
928.106	2275
928.416	2276.35
928.725	2258.27
929.034	2266.64
929.344	2254.43
929.653	2239.97
929.962	2230.25
930.271	2217.37
930.581	2198.16
930.89	2229.8
931.199	2214.21
931.508	2196.81
931.817	2189.58
932.125	2189.35
932.434	2184.6
932.743	2114.1
933.051	2163.36
933.36	2147.99
933.669	2145.96
933.977	2127.66
934.286	2139.41
934.594	2117.94
934.902	2124.49
935.21	2086.75
935.519	2099.63
935.827	2116.58
936.135	2070.93
936.443	2076.81
936.751	2053.76
937.059	2058.05
937.367	2040.2
937.674	2040.43
937.982	2047.66
938.29	2049.92
938.597	2030.48
938.905	1988
939.213	1985.29
939.52	1997.94
939.827	2006.3
940.135	1979.41
940.442	2029.81
940.749	1987.09
941.056	1978.96
941.363	1961.78
941.67	1981.67
941.977	1944.84
942.284	1902.8
942.591	1902.8
942.898	1903.48
943.205	1909.13
943.511	1903.48
943.818	1904.16
944.125	1907.1
944.431	1882.46
944.738	1869.58
945.044	1880.2
945.35	1864.16
945.657	1825.29
945.963	1840.66
946.269	1842.92
946.575	1818.29
946.881	1825.29
947.187	1802.47
947.493	1802.01
947.799	1814.9
948.105	1792.98
948.41	1818.06
948.716	1783.94
949.022	1765.41
949.327	1760.43
949.633	1755.46
949.938	1781.45
950.244	1781.22
950.549	1762.69
950.854	1734.67
951.16	1738.29
951.465	1750.94
951.77	1759.53
952.075	1699.42
952.38	1693.32
952.685	1696.25
952.99	1715.01
953.294	1696.25
953.599	1680.66
953.904	1685.86
954.209	1664.84
954.513	1680.21
954.818	1668.46
955.122	1659.65
955.426	1640.21
955.731	1641.34
956.035	1638.4
956.339	1649.93
956.643	1635.24
956.948	1621
957.252	1616.48
957.556	1585.07
957.86	1616.93
958.163	1591.17
958.467	1585.3
958.771	1588.01
959.075	1568.35
959.378	1544.62
959.682	1587.33
959.985	1579.65
960.289	1579.65
960.592	1524.51
960.896	1545.75
961.199	1530.16
961.502	1521.34
961.805	1535.36
962.108	1530.84
962.411	1494.45
962.714	1485.41
963.017	1491.06
963.32	1499.65
963.623	1496.03
963.926	1475.92
964.228	1508.46
964.531	1449.26
964.833	1475.02
965.136	1484.28
965.438	1463.27
965.741	1466.66
966.043	1425.3
966.345	1441.35
966.648	1439.31
966.95	1432.76
967.252	1418.52
967.554	1408.58
967.856	1399.31
968.158	1401.35
968.46	1427.11
968.761	1380.33
969.063	1399.77
969.365	1385.3
969.666	1380.1
969.968	1363.16
970.269	1366.32
970.571	1327
970.872	1377.17
971.174	1301.24
971.475	1372.42
971.776	1323.38
972.077	1366.55
972.378	1357.73
972.679	1349.15
972.98	1358.18
973.281	1355.47
973.582	1330.16
973.883	1346.89
974.183	1333.55
974.484	1315.47
974.785	1317.28
975.085	1330.39
975.386	1317.28
975.686	1308.02
975.986	1293.1
976.287	1294.01
976.587	1283.84
976.887	1299.2
977.187	1268.7
977.487	1272.54
977.787	1267.57
978.087	1255.59
978.387	1279.77
978.687	1278.19
978.987	1258.3
979.286	1270.28
979.586	1275.93
979.885	1233.67
980.185	1227.34
980.484	1245.42
980.784	1221.69
981.083	1231.63
981.382	1215.82
981.682	1189.83
981.981	1205.65
982.28	1215.36
982.579	1208.13
982.878	1221.24
983.177	1184.18
983.475	1195.93
983.774	1170.84
984.073	1161.35
984.372	1157.29
984.67	1150.05
984.969	1198.87
985.267	1162.48
985.566	1187.57
985.864	1189.38
986.162	1129.72
986.461	1116.84
986.759	1122.48
987.057	1149.38
987.355	1125.42
987.653	1113.22
987.951	1126.78
988.249	1107.8
988.547	1094.69
988.844	1101.24
989.142	1087.46
989.44	1083.84
989.737	1107.12
990.035	1081.36
990.332	1083.39
990.63	1072.54
990.927	1066.67
991.224	1079.1
991.521	1065.08
991.819	1054.46
992.116	1070.51
992.413	1043.84
992.71	1030.96
993.006	1035.48
993.303	1059.21
993.6	1064.86
993.897	1038.87
994.193	1037.74
994.49	1030.74
994.787	1014.46
995.083	1013.11
995.379	991.64
995.676	1025.76
995.972	1023.05
996.268	990.51
996.565	999.32
996.861	1020.34
997.157	1014.24
997.453	1011.98
997.749	974.92
998.044	990.28
998.34	956.16
998.636	985.99
998.932	969.72
999.227	974.24
999.523	991.19
999.818	957.07
1000.114	974.69
1000.409	977.18
1000.704	986.67
1001	963.17
1001.295	948.03
1001.59	965.43
1001.885	936.95
1002.18	930.85
1002.475	907.35
1002.77	915.71
1003.065	908.03
1003.359	913.68
1003.654	930.17
1003.949	898.31
1004.243	915.71
1004.538	901.47
1004.832	911.19
1005.127	882.26
1005.421	898.99
1005.715	907.35
1006.009	908.48
1006.304	907.8
1006.598	887.91
1006.892	871.64
1007.186	864.19
1007.48	849.72
1007.773	845.66
1008.067	854.47
1008.361	850.4
1008.655	848.14
1008.948	843.85
1009.242	828.26
1009.535	863.73
1009.829	859.44
1010.122	849.05
1010.415	852.44
1010.708	842.49
1011.001	819.89
1011.295	823.96
1011.588	819.67
1011.881	830.74
1012.173	797.3
1012.466	797.97
1012.759	831.64
1013.052	789.39
1013.344	801.36
1013.637	802.27
1013.93	804.53
1014.222	789.16
1014.514	784.19
1014.807	794.13
1015.099	770.63
1015.391	772.44
1015.683	770.86
1015.976	774.25
1016.268	764.75
1016.56	749.61
1016.851	741.93
1017.143	766.11
1017.435	748.03
1017.727	733.34
1018.018	729.5
1018.31	733.34
1018.602	750.52
1018.893	728.37
1019.185	735.15
1019.476	709.16
1019.767	714.13
1020.058	728.37
1020.35	740.8
1020.641	713
1020.932	712.1
1021.223	710.29
1021.514	705.77
1021.804	680.01
1022.095	690.63
1022.386	716.17
1022.677	683.17
1022.967	715.72
1023.258	670.29
1023.548	684.98
1023.839	699.67
1024.129	708.48
1024.419	661.93
1024.709	680.24
1025	681.82
1025.29	673.91
1025.58	643.85
1025.87	640.92
1026.16	662.61
1026.449	653.34
1026.739	640.69
1027.029	653.12
1027.319	644.31
1027.608	656.73
1027.898	643.85
1028.187	637.98
1028.477	644.08
1028.766	633.01
1029.055	629.39
1029.344	633.23
1029.634	607.47
1029.923	618.54
1030.212	623.29
1030.501	611.99
1030.79	633.01
1031.078	609.96
1031.367	630.29
1031.656	613.8
1031.945	607.47
1032.233	605.21
1032.522	623.06
1032.81	595.94
1033.099	571.31
1033.387	592.33
1033.675	581.93
1033.963	613.35
1034.251	579.45
1034.54	572.44
1034.828	605.89
1035.116	576.51
1035.403	566.57
1035.691	603.18
1035.979	587.58
1036.267	586.91
1036.554	570.63
1036.842	576.96
1037.129	565.66
1037.417	550.97
1037.704	555.95
1037.992	571.31
1038.279	558.21
1038.566	555.95
1038.853	555.95
1039.14	555.95
