Data from foam1_polythene_foam_FLMS001491_00087.txt Node
Date: Wed Feb 08 10:55:31 GMT 2017
User: dcchb
Spectrometer: FLMS00149
Trigger mode: 0
Integration Time (sec): 2.000000E-2
Scans to average: 10
Electric dark correction enabled: true
Nonlinearity correction enabled: false
Boxcar width: 0
XAxis mode: Wavelengths
Number of Pixels in Spectrum: 2048
>>>>>Begin Spectral Data<<<<<
341.393	-17.58
341.776	-17.58
342.16	-17.58
342.543	-67.07
342.927	-84.93
343.31	-68.66
343.693	-71.59
344.077	-67.07
344.46	-39.05
344.843	-47.64
345.226	-54.42
345.61	-37.02
345.993	-8.54
346.376	-1.77
346.759	5.69
347.142	39.14
347.525	31.68
347.908	33.94
348.291	86.14
348.674	86.82
349.057	112.36
349.44	131.79
349.823	143.77
350.206	158.91
350.588	175.4
350.971	193.94
351.354	213.82
351.737	206.59
352.119	224.9
352.502	273.03
352.884	255.4
353.267	248.85
353.65	266.93
354.032	281.62
354.414	310.54
354.797	287.49
355.179	307.38
355.562	325.46
355.944	309.41
356.326	340.37
356.709	321.16
357.091	320.71
357.473	336.3
357.855	315.29
358.238	317.1
358.62	314.38
359.002	311.45
359.384	318.9
359.766	322.29
360.148	353.25
360.53	330.88
360.912	338.34
361.294	329.75
361.676	329.75
362.057	307.83
362.439	291.79
362.821	316.87
363.203	295.18
363.584	304.89
363.966	306.7
364.348	336.76
364.729	313.48
365.111	326.81
365.493	336.98
365.874	306.7
366.256	306.25
366.637	290.88
367.019	317.77
367.4	286.14
367.781	300.83
368.163	303.76
368.544	285.23
368.925	312.8
369.306	316.87
369.688	286.36
370.069	301.5
370.45	310.54
370.831	315.74
371.212	295.63
371.593	298.57
371.974	311.22
372.355	307.38
372.736	287.72
373.117	297.66
373.498	316.42
373.879	296.53
374.26	312.58
374.641	306.47
375.021	279.58
375.402	300.6
375.783	300.6
376.163	312.12
376.544	312.12
376.925	316.64
377.305	302.86
377.686	308.96
378.066	317.32
378.447	318
378.827	307.15
379.208	330.66
379.588	332.91
379.968	329.07
380.349	330.2
380.729	317.1
381.109	327.49
381.489	317.1
381.87	314.38
382.25	314.61
382.63	323.88
383.01	322.07
383.39	319.58
383.77	334.95
384.15	343.31
384.53	341.95
384.91	315.97
385.29	343.54
385.67	342.18
386.049	341.5
386.429	349.86
386.809	340.82
387.189	345.12
387.568	339.92
387.948	352.35
388.328	350.32
388.707	355.97
389.087	348.73
389.466	362.07
389.846	372.24
390.225	349.19
390.605	350.77
390.984	373.59
391.363	341.05
391.743	351.45
392.122	344.44
392.501	390.77
392.881	386.02
393.26	371.78
393.639	385.57
394.018	375.63
394.397	362.97
394.776	380.82
395.155	368.17
395.534	360.03
395.913	368.17
396.292	396.42
396.671	394.16
397.05	399.13
397.429	400.71
397.808	405.68
398.186	402.52
398.565	379.47
398.944	393.48
399.323	386.7
399.701	406.13
400.08	389.18
400.458	391.9
400.837	401.61
401.215	394.61
401.594	409.52
401.972	401.39
402.351	408.39
402.729	403.2
403.107	416.75
403.486	438
403.864	421.27
404.242	432.35
404.62	425.79
404.999	414.49
405.377	405.46
405.755	441.61
406.133	429.41
406.511	449.75
406.889	428.28
407.267	441.39
407.645	448.62
408.023	448.17
408.401	452.91
408.779	438.9
409.156	455.85
409.534	446.36
409.912	448.17
410.29	459.24
410.667	470.54
411.045	459.47
411.422	454.49
411.8	452.46
412.178	492.46
412.555	462.4
412.933	490.65
413.31	499.24
413.687	470.54
414.065	506.92
414.442	496.98
414.819	497.43
415.197	490.42
415.574	506.7
415.951	501.27
416.328	478.45
416.705	510.76
417.082	543.3
417.46	517.77
417.837	532.01
418.214	518.45
418.591	547.82
418.967	513.48
419.344	516.41
419.721	542.4
420.098	529.97
420.475	527.71
420.852	535.17
421.228	566.81
421.605	547.6
421.982	550.31
422.358	525
422.735	584.66
423.111	562.74
423.488	546.47
423.864	569.07
424.241	553.25
424.617	582.17
424.994	584.21
425.37	591.89
425.746	576.52
426.123	591.89
426.499	586.02
426.875	602.06
427.251	617.2
427.627	590.76
428.003	629.86
428.379	629.63
428.756	636.18
429.132	642.06
429.507	644.55
429.883	630.76
430.259	640.03
430.635	666.69
431.011	656.52
431.387	664.43
431.763	673.92
432.138	698.78
432.514	686.8
432.89	678.67
433.265	686.13
433.641	687.03
434.016	718.22
434.392	736.97
434.767	723.41
435.143	713.24
435.518	744.66
435.894	738.55
436.269	737.2
436.644	745.33
437.02	766.12
437.395	770.87
437.77	748.27
438.145	782.17
438.52	776.52
438.895	805.67
439.271	799.34
439.646	824.2
440.021	827.82
440.395	805.9
440.77	812.68
441.145	805.44
441.52	826.01
441.895	842.05
442.27	852
442.645	848.83
443.019	864.65
443.394	876.18
443.769	859.45
444.143	875.5
444.518	899.23
444.892	866.91
445.267	880.25
445.641	889.96
446.016	908.49
446.39	933.8
446.764	899
447.139	922.28
447.513	941.26
447.887	952.79
448.262	938.55
448.636	950.53
449.01	985.33
449.384	983.07
449.758	970.86
450.132	964.76
450.506	995.04
450.88	989.85
451.254	996.85
451.628	1001.6
452.002	1011.09
452.376	1017.19
452.75	1024.87
453.123	1046.79
453.497	1029.62
453.871	1043.18
454.244	1071.88
454.618	1088.38
454.992	1093.12
455.365	1086.12
455.739	1081.14
456.112	1096.28
456.486	1129.28
456.859	1124.53
457.232	1139.22
457.606	1156.17
457.979	1143.74
458.352	1155.27
458.725	1174.7
459.099	1170.86
459.472	1186.68
459.845	1177.41
460.218	1184.87
460.591	1191.2
460.964	1200.91
461.337	1243.63
461.71	1217.19
462.083	1251.08
462.456	1251.08
462.829	1243.63
463.201	1273.68
463.574	1280.01
463.947	1295.6
464.32	1338.09
464.692	1311.19
465.065	1334.47
465.438	1349.39
465.81	1359.55
466.183	1345.54
466.555	1390.29
466.928	1387.8
467.3	1373.34
467.672	1409.27
468.045	1441.59
468.417	1444.3
468.789	1454.69
469.161	1457.86
469.534	1484.07
469.906	1508.7
470.278	1503.05
470.65	1501.92
471.022	1545.31
471.394	1553.67
471.766	1576.27
472.138	1628.7
472.51	1637.06
472.882	1653.56
473.253	1681.13
473.625	1640.45
473.997	1717.74
474.369	1689.94
474.74	1738.3
475.112	1752.31
475.484	1797.51
475.855	1797.28
476.227	1810.39
476.598	1882.25
476.97	1877.51
477.341	1897.62
477.713	1944.62
478.084	1941.23
478.455	1963.15
478.827	1965.64
479.198	2040.89
479.569	2072.53
479.94	2118.4
480.311	2105.3
480.682	2170.83
481.053	2182.81
481.424	2226.65
481.795	2252.64
482.166	2271.85
482.537	2275.69
482.908	2348.91
483.279	2334.9
483.65	2373.09
484.021	2447.89
484.391	2474.55
484.762	2489.02
485.133	2500.32
485.503	2556.59
485.874	2600.43
486.244	2630.71
486.615	2668.22
486.985	2689.24
487.356	2718.16
487.726	2759.52
488.097	2799.74
488.467	2793.64
488.837	2844.71
489.207	2890.81
489.578	2936.01
489.948	2972.85
490.318	2999.51
490.688	2959.51
491.058	3068.66
491.428	3078.83
491.798	3121.32
492.168	3184.37
492.538	3177.13
492.908	3213.97
493.278	3258.04
493.648	3274.08
494.017	3326.96
494.387	3355.43
494.757	3406.28
495.126	3374.42
495.496	3446.73
495.866	3433.85
496.235	3474.75
496.605	3481.76
496.974	3463
497.344	3545.26
497.713	3564.47
498.082	3590.46
498.452	3618.93
498.821	3672.49
499.19	3671.58
499.559	3709.78
499.928	3762.88
500.298	3775.99
500.667	3807.85
501.036	3804.46
501.405	3823.9
501.774	3812.82
502.143	3880.84
502.512	3869.77
502.88	3952.93
503.249	3962.2
503.618	4020.5
503.987	4030.44
504.356	4078.81
504.724	4047.39
505.093	4050.56
505.462	4084.23
505.83	4118.58
506.199	4116.77
506.567	4169.65
506.936	4195.41
507.304	4233.6
507.672	4252.36
508.041	4311.12
508.409	4309.31
508.777	4356.31
509.145	4463.88
509.514	4460.72
509.882	4468.4
510.25	4454.39
510.618	4472.69
510.986	4490.55
511.354	4529.41
511.722	4577.1
512.09	4610.54
512.458	4587.72
512.826	4662.97
513.193	4719.47
513.561	4749.97
513.929	4821.61
514.297	4867.71
514.664	4878.78
515.032	4823.19
515.4	4872.23
515.767	4931.21
516.135	4964.21
516.502	4909.29
516.869	5034.71
517.237	5045.56
517.604	5060.47
517.972	5141.38
518.339	5182.96
518.706	5176.86
519.073	5226.35
519.44	5308.15
519.808	5363.74
520.175	5292.56
520.542	5373.69
520.909	5385.44
521.276	5325.33
521.643	5437.41
522.009	5515.6
522.376	5551.76
522.743	5565.32
523.11	5660.91
523.477	5755.15
523.843	5800.79
524.21	5885.31
524.577	5863.17
524.943	5858.65
525.31	5877.63
525.676	6008.47
526.043	5925.99
526.409	5941.81
526.776	6056.38
527.142	6043.5
527.508	6073.33
527.874	6124.63
528.241	6206.43
528.607	6243.27
528.973	6347.22
529.339	6329.37
529.705	6453.43
530.071	6459.31
530.437	6474.67
530.803	6501.34
531.169	6479.87
531.535	6467.89
531.901	6543.37
532.267	6544.5
532.632	6586.76
532.998	6621.11
533.364	6749.47
533.73	6747.44
534.095	6788.34
534.461	6843.93
534.826	6911.73
535.192	6932.06
535.557	6947.88
535.923	6935.68
536.288	6925.51
536.653	6979.07
537.019	6958.05
537.384	6985.85
537.749	7030.59
538.114	7035.56
538.479	7058.84
538.845	7134.09
539.21	7197.59
539.575	7173.41
539.94	7279.62
540.305	7324.37
540.67	7305.84
541.034	7316.69
541.399	7323.24
541.764	7310.58
542.129	7416.12
542.494	7374.54
542.858	7465.61
543.223	7432.39
543.587	7505.61
543.952	7479.85
544.316	7471.94
544.681	7523.69
545.045	7576.34
545.41	7643.23
545.774	7690.01
546.138	7713.29
546.503	7701.53
546.867	7745.15
547.231	7727.75
547.595	7777.92
547.959	7757.8
548.324	7756.22
548.688	7817.46
549.052	7878.03
549.416	7854.3
549.779	7932.94
550.143	8012.71
550.507	8105.59
550.871	8046.61
551.235	8068.3
551.599	8188.08
551.962	8164.35
552.326	8166.16
552.689	8188.53
553.053	8205.48
553.417	8192.6
553.78	8311.01
554.143	8250.9
554.507	8295.19
554.87	8360.27
555.234	8463.77
555.597	8434.85
555.96	8444.79
556.323	8482.76
556.686	8526.37
557.05	8623.77
557.413	8657.67
557.776	8718.46
558.139	8725.46
558.502	8642.75
558.865	8772.69
559.228	8752.13
559.59	8754.16
559.953	8878
560.316	8866.25
560.679	8930.66
561.041	8998.9
561.404	8993.7
561.767	9090.65
562.129	9145.11
562.492	9196.41
562.854	9176.52
563.217	9247.93
563.579	9222.17
563.941	9311.21
564.304	9312.57
564.666	9322.74
565.028	9376.74
565.39	9371.32
565.753	9481.15
566.115	9512.79
566.477	9554.82
566.839	9621.71
567.201	9731.99
567.563	9726.34
567.925	9761.37
568.287	9766.11
568.648	9850.18
569.01	9848.37
569.372	9969.27
569.734	9889.73
570.095	9943.28
570.457	9971.76
570.819	9912.32
571.18	10029.61
571.542	10007.24
571.903	10049.27
572.265	10074.13
572.626	10134.01
572.987	10146.89
573.349	10229.15
573.71	10208.59
574.071	10236.84
574.432	10316.38
574.794	10469.15
575.155	10417.62
575.516	10364.52
575.877	10401.35
576.238	10446.77
576.599	10414.46
576.96	10477.51
577.32	10449.94
577.681	10462.14
578.042	10495.81
578.403	10490.61
578.763	10545.98
579.124	10548.69
579.485	10554.79
579.845	10635.47
580.206	10656.49
580.566	10665.07
580.927	10663.49
581.287	10769.25
581.648	10663.04
582.008	10684.73
582.368	10692.42
582.728	10669.59
583.089	10642.25
583.449	10642.02
583.809	10602.48
584.169	10610.38
584.529	10623.04
584.889	10717.95
585.249	10762.02
585.609	10742.36
585.969	10792.98
586.329	10798.63
586.688	10786.65
587.048	10747.56
587.408	10752.53
587.768	10764.73
588.127	10815.58
588.487	10748.91
588.846	10842.02
589.206	10646.09
589.565	10719.76
589.925	10755.69
590.284	10702.36
590.643	10749.14
591.003	10719.53
591.362	10741
591.721	10744.62
592.08	10848.12
592.44	10904.84
592.799	10835.92
593.158	10872.07
593.517	10838.4
593.876	10892.19
594.235	10922.02
594.593	10878.63
594.952	10866.65
595.311	10795.01
595.67	10786.65
596.029	10846.31
596.387	10874.56
596.746	10885.41
597.104	10828.91
597.463	10824.16
597.822	10895.8
598.18	10846.76
598.538	10927.89
598.897	10919.3
599.255	10897.83
599.613	11033.2
599.972	10878.85
600.33	10980.54
600.688	10913.88
601.046	10981.22
601.404	10966.31
601.762	11023.93
602.12	10977.83
602.478	10972.64
602.836	10960.66
603.194	10833.43
603.552	10870.27
603.91	10892.64
604.268	10953.65
604.625	10949.81
604.983	11003.14
605.341	10961.56
605.698	11108.22
606.056	11091.73
606.413	11121.56
606.771	11157.49
607.128	11125.4
607.485	11102.35
607.843	11070.49
608.2	11181.44
608.557	11157.94
608.914	11130.6
609.272	11174.89
609.629	11143.7
609.986	11172.63
610.343	11133.08
610.7	11211.72
611.057	11126.08
611.414	11157.26
611.771	11196.58
612.127	11206.75
612.484	11241.55
612.841	11332.17
613.198	11354.77
613.554	11327.65
613.911	11330.14
614.267	11366.75
614.624	11318.84
614.98	11326.3
615.337	11399.97
615.693	11339.86
616.05	11303.47
616.406	11331.5
616.762	11251.95
617.118	11266.64
617.475	11305.51
617.831	11333.76
618.187	11309.58
618.543	11356.58
618.899	11464.37
619.255	11455.56
619.611	11429.8
619.967	11460.08
620.323	11474.54
620.678	11441.78
621.034	11401.32
621.39	11413.53
621.746	11423.02
622.101	11601.09
622.457	11357.94
622.812	11435.67
623.168	11462.34
623.523	11380.08
623.879	11444.71
624.234	11395
624.589	11392.29
624.945	11381.89
625.3	11446.97
625.655	11378.95
626.01	11380.31
626.365	11413.3
626.72	11460.31
627.075	11499.18
627.43	11458.95
627.785	11492.62
628.14	11511.83
628.495	11469.12
628.85	11486.07
629.205	11433.19
629.559	11448.33
629.914	11364.94
630.269	11415.11
630.623	11341.89
630.978	11289.01
631.332	11313.87
631.687	11351.83
632.041	11292.17
632.396	11362.68
632.75	11194.1
633.104	11240.2
633.459	11237.71
633.813	11267.09
634.167	11329.01
634.521	11244.27
634.875	11292.17
635.229	11271.84
635.583	11263.02
635.937	11190.48
636.291	11202.46
636.645	11125.17
636.999	11145.74
637.352	11156.13
637.706	11044.05
638.06	11081.56
638.413	11075.46
638.767	10995.69
639.121	11052.63
639.474	10909.81
639.828	10863.71
640.181	11001.11
640.534	10919.3
640.888	10898.51
641.241	10908.68
641.594	10936.25
641.947	10979.19
642.301	10844.05
642.654	10969.25
643.007	10932.18
643.36	10918.17
643.713	10901.68
644.066	11012.18
644.419	10916.59
644.771	10793.66
645.124	10778.52
645.477	10670.5
645.83	10530.61
646.182	10476.6
646.535	10388.24
646.888	10381.92
647.24	10312.09
647.593	10463.72
647.945	10437.51
648.298	10366.55
648.65	10389.15
649.002	10272.77
649.355	10344.18
649.707	10353.22
650.059	10431.63
650.411	10561.35
650.763	10562.25
651.115	10663.04
651.467	10698.97
651.819	10634.11
652.171	10679.08
652.523	10497.17
652.875	10536.04
653.227	10535.36
653.578	10558.63
653.93	10528.81
654.282	10450.39
654.633	10387.79
654.985	10351.63
655.337	10415.36
655.688	10326.78
656.039	10388.47
656.391	10372.43
656.742	10350.5
657.094	10328.36
657.445	10363.61
657.796	10393.44
658.147	10442.25
658.498	10326.1
658.849	10406.77
659.2	10429.6
659.551	10412.65
659.902	10494.23
660.253	10443.61
660.604	10440.22
660.955	10354.8
661.306	10424.4
661.656	10321.35
662.007	10398.64
662.358	10339.88
662.708	10322.26
663.059	10309.38
663.409	10160.91
663.76	10170.62
664.11	10191.19
664.461	10211.75
664.811	10190.73
665.161	10157.97
665.511	10194.8
665.862	10206.1
666.212	10238.64
666.562	10258.76
666.912	10220.11
667.262	10216.27
667.612	10265.08
667.962	10302.37
668.312	10306.89
668.662	10303.05
669.011	10312.54
669.361	10294.69
669.711	10193.9
670.06	10181.7
670.41	10198.42
670.76	10121.81
671.109	10195.71
671.459	10171.53
671.808	10129.95
672.157	10057.63
672.507	10007.01
672.856	10088.36
673.205	10037.29
673.554	10008.14
673.904	10029.16
674.253	10068.03
674.602	10010.85
674.951	9919.78
675.3	9860.35
675.649	10052.43
675.998	10076.61
676.346	10051.53
676.695	10185.54
677.044	10053.79
677.393	10052.21
677.741	10119.55
678.09	10078.2
678.438	10057.18
678.787	10048.82
679.135	10068.93
679.484	9971.98
679.832	10024.64
680.181	9844.98
680.529	9866.22
680.877	9906
681.225	9828.48
681.573	9898.31
681.922	9813.34
682.27	9803.4
682.618	9753.68
682.966	9759.79
683.314	9768.6
683.661	9699
684.009	9676.85
684.357	9676.17
684.705	9754.81
685.053	9797.75
685.4	9697.64
685.748	9703.06
686.095	9715.72
686.443	9699.22
686.79	9670.3
687.138	9655.38
687.485	9729.5
687.832	9624.2
688.18	9664.2
688.527	9571.32
688.874	9497.19
689.221	9439.57
689.568	9424.2
689.915	9435.27
690.262	9320.7
690.609	9345.33
690.956	9347.37
691.303	9220.82
691.65	9221.04
691.997	9235.05
692.344	9264.43
692.69	9211.55
693.037	9212
693.383	9117.09
693.73	9227.82
694.077	9159.58
694.423	9157.77
694.769	9227.82
695.116	9219.91
695.462	9227.14
695.808	9133.36
696.155	9157.54
696.501	9152.12
696.847	9111.44
697.193	9000.03
697.539	8996.64
697.885	8900.83
698.231	8868.06
698.577	8837.78
698.923	8875.52
699.269	8699.7
699.614	8669.64
699.96	8691.79
700.306	8674.84
700.651	8671.23
700.997	8641.85
701.342	8571.34
701.688	8585.81
702.033	8565.92
702.379	8616.09
702.724	8481.63
703.069	8603.21
703.415	8538.35
703.76	8565.01
704.105	8577.67
704.45	8592.36
704.795	8510.55
705.14	8530.67
705.485	8526.6
705.83	8360.73
706.175	8427.84
706.52	8450.67
706.865	8412.93
707.209	8401.86
707.554	8318.92
707.899	8350.78
708.243	8256.55
708.588	8322.08
708.932	8135.2
709.277	8157.79
709.621	8114.86
709.966	8067.4
710.31	8081.19
710.654	7993.96
710.998	7956.67
711.342	7981.3
711.687	8017.01
712.031	7936.1
712.375	7983.56
712.719	8033.5
713.063	8059.49
713.407	8098.81
713.75	8015.2
714.094	7985.6
714.438	8018.81
714.782	8026.95
715.125	7935.65
715.469	8029.21
715.812	7981.3
716.156	7855.43
716.499	7965.71
716.843	7924.35
717.186	7797.8
717.53	7887.52
717.873	7832.15
718.216	7774.3
718.559	7768.65
718.902	7657.47
719.246	7605.94
719.589	7642.33
719.932	7577.92
720.275	7609.79
720.617	7588.32
720.96	7592.39
721.303	7544.25
721.646	7610.24
721.989	7634.42
722.331	7611.37
722.674	7584.93
723.016	7634.87
723.359	7618.15
723.701	7578.6
724.044	7593.06
724.386	7554.87
724.729	7585.38
725.071	7615.89
725.413	7593.29
725.755	7590.58
726.097	7586.96
726.439	7568.2
726.782	7532.95
727.124	7473.29
727.465	7446.4
727.807	7400.53
728.149	7422.67
728.491	7386.29
728.833	7311.71
729.175	7267.2
729.516	7263.35
729.858	7261.77
730.199	7252.06
730.541	7251.15
730.882	7219.51
731.224	7231.72
731.565	7231.94
731.906	7229.91
732.248	7223.58
732.589	7250.02
732.93	7204.6
733.271	7144.26
733.612	7281.43
733.953	7223.81
734.294	7230.59
734.635	7218.84
734.976	7254.09
735.317	7194.2
735.658	7225.39
735.999	7199.63
736.339	7170.48
736.68	7172.96
737.021	7118.73
737.361	7163.7
737.702	7104.49
738.042	7092.06
738.383	7072.85
738.723	7028.78
739.063	7052.96
739.404	6991.27
739.744	6950.59
740.084	6896.36
740.424	6933.87
740.764	6944.94
741.104	6931.39
741.444	6914.21
741.784	6828.11
742.124	6894.78
742.464	6905.85
742.804	6914.21
743.143	6894.32
743.483	6928.22
743.823	6928.22
744.162	6850.71
744.502	6872.86
744.841	6892.29
745.181	6940.42
745.52	6900.43
745.86	6940.65
746.199	6878.05
746.538	6924.15
746.877	6869.92
747.216	6871.5
747.556	6808
747.895	6768.9
748.234	6832.86
748.573	6800.77
748.911	6790.82
749.25	6697.72
749.589	6674.44
749.928	6693.2
750.267	6656.14
750.605	6635.12
750.944	6583.37
751.283	6566.88
751.621	6556.25
751.96	6519.19
752.298	6526.88
752.636	6511.51
752.975	6507.22
753.313	6497.72
753.651	6506.76
753.989	6513.77
754.327	6555.8
754.666	6534.56
755.004	6565.97
755.342	6532.75
755.679	6506.54
756.017	6521.23
756.355	6515.13
756.693	6590.38
757.031	6502.02
757.368	6497.27
757.706	6386.54
758.044	6424.96
758.381	6450.72
758.719	6426.99
759.056	6408.91
759.394	6365.3
759.731	6272.42
760.068	6289.82
760.405	6232.19
760.743	6210.5
761.08	6163.95
761.417	6172.99
761.754	6113.33
762.091	6063.16
762.428	6136.83
762.765	6045.31
763.102	6092.31
763.438	6025.87
763.775	6027.23
764.112	6032.43
764.449	6036.49
764.785	6016.16
765.122	6026.32
765.458	5914.92
765.795	5993.33
766.131	5974.57
766.467	5988.59
766.804	5978.42
767.14	5954.46
767.476	5972.31
767.812	5961.47
768.148	5921.47
768.485	5951.98
768.821	5879.89
769.157	5887.57
769.492	5866.78
769.828	5851.41
770.164	5802.38
770.5	5752.21
770.836	5750.85
771.171	5728.93
771.507	5721.47
771.842	5615.26
772.178	5643.74
772.513	5570.52
772.849	5639.44
773.184	5559.22
773.519	5499.56
773.855	5490.29
774.19	5504.3
774.525	5463.85
774.86	5506.11
775.195	5482.84
775.53	5408.04
775.865	5439.67
776.2	5386.57
776.535	5361.94
776.87	5377.98
777.205	5347.02
777.539	5413.69
777.874	5381.6
778.209	5317.87
778.543	5336.4
778.878	5379.56
779.212	5325.78
779.547	5297.08
779.881	5288.72
780.215	5213.46
780.55	5244.88
780.884	5193.35
781.218	5210.07
781.552	5192.22
781.886	5168.49
782.22	5129.17
782.554	5129.4
782.888	5115.84
783.222	5027.48
783.556	4985
783.889	5043.3
784.223	4988.84
784.557	4924.66
784.89	4935.96
785.224	4904.55
785.557	4879.01
785.891	4895.96
786.224	4879.46
786.558	4830.2
786.891	4802.85
787.224	4829.07
787.557	4817.54
787.891	4785.45
788.224	4778
788.557	4814.38
788.89	4761.95
789.223	4807.37
789.556	4711.56
789.888	4733.25
790.221	4746.13
790.554	4702.97
790.887	4682.86
791.219	4701.84
791.552	4640.37
791.884	4720.82
792.217	4606.47
792.549	4660.71
792.882	4616.64
793.214	4557.21
793.546	4606.47
793.879	4529.41
794.211	4553.37
794.543	4522.86
794.875	4505.91
795.207	4511.56
795.539	4454.39
795.871	4462.98
796.203	4384.33
796.535	4400.15
796.867	4420.72
797.198	4386.37
797.53	4331.68
797.862	4311.12
798.193	4337.1
798.525	4294.39
798.856	4314.96
799.188	4265.92
799.519	4250.1
799.85	4286.71
800.182	4248.97
800.513	4277.22
800.844	4256.88
801.175	4279.03
801.506	4250.78
801.837	4265.01
802.168	4227.95
802.499	4254.39
802.83	4188.86
803.161	4196.77
803.491	4179.82
803.822	4216.2
804.153	4225.47
804.483	4182.53
804.814	4104.79
805.145	4147.28
805.475	4142.53
805.805	4152.25
806.136	4144.11
806.466	4109.76
806.796	4125.36
807.126	4054.63
807.457	4034.29
807.787	4059.37
808.117	4049.88
808.447	3987.28
808.777	4016.66
809.107	3979.82
809.436	3939.6
809.766	3949.09
810.096	3890.56
810.426	3935.98
810.755	3940.5
811.085	3946.15
811.414	3933.5
811.744	3873.16
812.073	3861.64
812.403	3856.44
812.732	3839.49
813.061	3872.26
813.39	3885.36
813.719	3847.17
814.049	3895.99
814.378	3887.62
814.707	3867.29
815.036	3844.24
815.365	3832.26
815.693	3841.98
816.022	3784.35
816.351	3832.48
816.68	3798.36
817.008	3804.24
817.337	3776.21
817.665	3776.89
817.994	3781.41
818.322	3751.58
818.651	3760.85
818.979	3741.19
819.307	3752.03
819.636	3712.94
819.964	3713.84
820.292	3750.9
820.62	3704.13
820.948	3665.26
821.276	3697.12
821.604	3684.69
821.932	3654.18
822.259	3666.84
822.587	3627.52
822.915	3630.46
823.243	3679.95
823.57	3629.78
823.898	3669.55
824.225	3606.05
824.553	3613.96
824.88	3613.05
825.207	3660.51
825.535	3662.32
825.862	3679.04
826.189	3625.03
826.516	3654.41
826.843	3680.17
827.17	3660.06
827.497	3682.21
827.824	3714.29
828.151	3691.7
828.478	3620.06
828.805	3646.73
829.131	3677.69
829.458	3667.97
829.785	3671.36
830.111	3693.5
830.438	3704.13
830.764	3710.45
831.09	3684.92
831.417	3623.45
831.743	3648.99
832.069	3675.65
832.395	3637.91
832.722	3670.23
833.048	3655.77
833.374	3620.29
833.7	3608.08
834.026	3632.94
834.351	3641.98
834.677	3636.56
835.003	3596.78
835.329	3604.69
835.654	3623.45
835.98	3612.6
836.306	3590.68
836.631	3582.55
836.956	3557.01
837.282	3581.19
837.607	3541.87
837.932	3585.03
838.258	3550.46
838.583	3564.24
838.908	3512.49
839.233	3543.45
839.558	3570.8
839.883	3513.85
840.208	3502.1
840.533	3507.07
840.858	3514.98
841.182	3563.34
841.507	3519.72
841.832	3530.12
842.156	3532.38
842.481	3503.23
842.805	3509.33
843.13	3493.51
843.454	3499.84
843.778	3469.78
844.103	3480.4
844.427	3456.45
844.751	3451.03
845.075	3457.8
845.399	3400.86
845.723	3417.81
846.047	3387.07
846.371	3425.94
846.695	3430.01
847.019	3333.51
847.343	3381.65
847.666	3344.36
847.99	3297.13
848.313	3300.75
848.637	3242.22
848.96	3235.21
849.284	3265.49
849.607	3237.02
849.931	3248.09
850.254	3216.91
850.577	3152.95
850.9	3166.51
851.223	3184.37
851.546	3193.86
851.869	3176.91
852.192	3160.41
852.515	3181.2
852.838	3124.93
853.161	3117.25
853.483	3129
853.806	3139.62
854.129	3113.63
854.451	3106.63
854.774	3105.5
855.096	3063.92
855.419	3112.05
855.741	3095.78
856.063	3100.75
856.385	3029.34
856.708	3133.52
857.03	3094.2
857.352	3094.65
857.674	3086.74
857.996	3044.48
858.318	3036.12
858.64	3030.92
858.961	3065.05
859.283	2980.53
859.605	2996.35
859.926	3000.42
860.248	3001.55
860.57	2946.41
860.891	2984.37
861.212	2965.61
861.534	2948.21
861.855	2936.01
862.176	2923.58
862.498	2908.21
862.819	2888.55
863.14	2904.82
863.461	2877.03
863.782	2863.7
864.103	2872.74
864.424	2828.44
864.745	2870.93
865.065	2868.89
865.386	2878.61
865.707	2812.17
866.027	2808.56
866.348	2815.56
866.668	2835.67
866.989	2820.53
867.309	2785.96
867.63	2803.13
867.95	2820.76
868.27	2812.62
868.59	2787.54
868.91	2865.28
869.23	2790.7
869.55	2800.87
869.87	2834.09
870.19	2815.79
870.51	2829.12
870.83	2805.17
871.15	2790.7
871.469	2807.2
871.789	2822.34
872.109	2791.38
872.428	2788.9
872.748	2749.12
873.067	2827.54
873.386	2767.88
873.706	2772.17
874.025	2785.05
874.344	2764.26
874.663	2762.23
874.982	2771.95
875.301	2773.08
875.62	2739.41
875.939	2773.75
876.258	2724.49
876.577	2700.08
876.896	2707.99
877.214	2698.73
877.533	2698.73
877.852	2670.93
878.17	2660.76
878.489	2705.51
878.807	2687.2
879.125	2662.57
879.444	2671.16
879.762	2707.54
880.08	2655.57
880.398	2675.23
880.716	2659.18
881.034	2632.97
881.352	2646.07
881.67	2654.66
881.988	2653.31
882.306	2653.53
882.624	2625.06
882.941	2646.07
883.259	2623.7
883.577	2596.81
883.894	2618.73
884.212	2646.98
884.529	2617.15
884.846	2635.23
885.164	2620.31
885.481	2618.05
885.798	2626.19
886.115	2618.96
886.432	2581.44
886.75	2563.82
887.067	2601.1
887.383	2585.51
887.7	2571.05
888.017	2557.04
888.334	2578.05
888.651	2556.13
888.967	2616.7
889.284	2520.2
889.6	2538.28
889.917	2547.55
890.233	2557.04
890.55	2500.32
890.866	2474.55
891.182	2499.86
891.498	2478.85
891.815	2470.94
892.131	2503.71
892.447	2423.26
892.763	2415.12
893.079	2472.97
893.395	2455.8
893.71	2438.62
894.026	2427.1
894.342	2462.58
894.657	2408.79
894.973	2401.79
895.289	2392.75
895.604	2405.18
895.92	2361.79
896.235	2378.51
896.55	2375.12
896.865	2348.68
897.181	2343.48
897.496	2387.1
897.811	2369.25
898.126	2333.54
898.441	2353.88
898.756	2337.83
899.071	2304.61
899.386	2339.19
899.7	2353.88
900.015	2317.04
900.33	2303.94
900.644	2304.84
900.959	2286.54
901.273	2284.95
901.588	2304.39
901.902	2312.52
902.216	2310.94
902.531	2300.77
902.845	2281.11
903.159	2248.57
903.473	2279.3
903.787	2254.22
904.101	2248.57
904.415	2243.15
904.729	2244.96
905.042	2188.23
905.356	2224.62
905.67	2230.04
905.984	2208.12
906.297	2194.79
906.611	2174.9
906.924	2151.4
907.237	2183.26
907.551	2137.39
907.864	2149.14
908.177	2146.2
908.491	2129.93
908.804	2100.33
909.117	2106.65
909.43	2063.49
909.743	2079.99
910.056	2091.06
910.368	2079.54
910.681	2058.29
910.994	2074.79
911.307	2068.46
911.619	2048.35
911.932	2007.22
912.244	2002.02
912.557	2031.85
912.869	2028.24
913.181	2017.84
913.494	1997.96
913.806	1997.73
914.118	1986.43
914.43	1964.06
914.742	1964.06
915.054	1962.25
915.366	1935.36
915.678	2004.28
915.99	1967.45
916.302	1970.84
916.613	1972.65
916.925	1980.56
917.236	1934
917.548	1947.79
917.859	1930.61
918.171	1918.18
918.482	1946.88
918.794	1911.4
919.105	1931.52
919.416	1896.94
919.727	1895.59
920.038	1879.54
920.349	1890.84
920.66	1868.02
920.971	1868.02
921.282	1836.6
921.593	1855.81
921.903	1853.1
922.214	1820.56
922.525	1838.41
922.835	1805.64
923.146	1800.22
923.456	1796.83
923.767	1790.5
924.077	1825.08
924.387	1775.59
924.697	1778.53
925.008	1756.15
925.318	1757.06
925.628	1756.38
925.938	1731.52
926.248	1722.03
926.558	1696.95
926.867	1699.21
927.177	1727.45
927.487	1705.53
927.796	1705.31
928.106	1700.56
928.416	1693.78
928.725	1698.3
929.034	1657.4
929.344	1674.12
929.653	1643.16
929.962	1656.72
930.271	1663.5
930.581	1636.61
930.89	1643.61
931.199	1648.59
931.508	1660.56
931.817	1624.41
932.125	1674.8
932.434	1632.32
932.743	1626.67
933.051	1599.1
933.36	1613.11
933.669	1637.97
933.977	1633.22
934.286	1627.8
934.594	1590.06
934.902	1565.65
935.21	1592.09
935.519	1571.98
935.827	1571.98
936.135	1572.43
936.443	1541.47
936.751	1536.27
937.059	1583.73
937.367	1532.66
937.674	1557.29
937.982	1543.28
938.29	1541.02
938.597	1521.36
938.905	1480
939.213	1510.96
939.52	1514.35
939.827	1506.9
940.135	1496.95
940.442	1486.33
940.749	1481.59
941.056	1478.42
941.363	1458.76
941.67	1452.66
941.977	1438.87
942.284	1450.17
942.591	1452.43
942.898	1418.76
943.205	1421.93
943.511	1419.44
943.818	1468.7
944.125	1415.6
944.431	1401.59
944.738	1410.17
945.044	1383.96
945.35	1408.82
945.657	1428.48
945.963	1397.07
946.269	1367.69
946.575	1384.86
946.881	1380.57
947.187	1376.5
947.493	1374.24
947.799	1400.46
948.105	1388.71
948.41	1362.49
948.716	1374.47
949.022	1348.03
949.327	1345.09
949.633	1318.88
949.938	1336.96
950.244	1365.2
950.549	1299.9
950.854	1343.51
951.16	1334.24
951.465	1343.74
951.77	1317.75
952.075	1296.05
952.38	1307.13
952.685	1297.41
952.99	1273
953.294	1295.38
953.599	1289.05
953.904	1308.03
954.209	1236.62
954.513	1281.59
954.818	1272.1
955.122	1230.97
955.426	1262.38
955.731	1263.96
956.035	1254.7
956.339	1249.5
956.643	1243.85
956.948	1224.87
957.252	1239.11
957.556	1256.51
957.86	1207.24
958.163	1221.93
958.467	1199.33
958.771	1206.79
959.075	1220.58
959.378	1181.25
959.682	1169.96
959.985	1206.56
960.289	1165.66
960.592	1180.58
960.896	1164.53
961.199	1152.1
961.502	1147.13
961.805	1166.11
962.108	1173.34
962.411	1157.3
962.714	1134.48
963.017	1173.8
963.32	1160.24
963.623	1135.61
963.926	1159.56
964.228	1130.63
964.531	1136.06
964.833	1140.13
965.136	1137.64
965.438	1150.52
965.741	1116.62
966.043	1107.58
966.345	1114.59
966.648	1122.05
966.95	1096.96
967.252	1103.74
967.554	1085.89
967.856	1109.84
968.158	1055.61
968.46	1068.49
968.761	1112.1
969.063	1096.06
969.365	1069.62
969.666	1055.16
969.968	1079.34
970.269	1049.96
970.571	1056.74
970.872	1056.74
971.174	1055.61
971.475	1074.14
971.776	1048.6
972.077	1050.64
972.378	1018.09
972.679	1047.7
972.98	1054.48
973.281	1054.25
973.582	1023.29
973.883	1026.23
974.183	996.4
974.484	1027.81
974.785	1003.41
975.085	994.82
975.386	1033.91
975.686	996.63
975.986	1016.96
976.287	1012.67
976.587	994.59
976.887	990.75
977.187	966.34
977.487	973.35
977.787	974.93
978.087	999.79
978.387	979.23
978.687	960.7
978.987	976.06
979.286	977.87
979.586	965.89
979.885	921.83
980.185	950.3
980.484	920.7
980.784	960.7
981.083	928.61
981.382	946.01
981.682	950.07
981.981	959.11
982.28	942.16
982.579	945.78
982.878	948.04
983.177	930.64
983.475	948.04
983.774	950.07
984.073	917.76
984.372	914.59
984.67	922.73
984.969	917.31
985.267	922.5
985.566	927.02
985.864	907.82
986.162	904.88
986.461	886.57
986.759	894.71
987.057	894.71
987.355	893.35
987.653	892.45
987.951	870.3
988.249	887.7
988.547	881.38
988.844	874.14
989.142	871.88
989.44	872.79
989.737	851.55
990.035	852.22
990.332	854.26
990.63	855.16
990.927	866.23
991.224	844.77
991.521	849.51
991.819	847.48
992.116	829.4
992.413	842.73
992.71	845.44
993.006	819
993.303	839.57
993.6	819.91
993.897	848.61
994.193	812.9
994.49	809.74
994.787	806.35
995.083	808.61
995.379	798.21
995.676	806.12
995.972	779.91
996.268	786.69
996.565	806.8
996.861	804.32
997.157	770.42
997.453	786.69
997.749	789.4
998.044	780.13
998.34	786.46
998.636	783.98
998.932	795.28
999.227	794.6
999.523	783.07
999.818	772.23
1000.114	755.73
1000.409	757.99
1000.704	781.72
1001	766.58
1001.295	762.06
1001.59	770.64
1001.885	763.86
1002.18	753.02
1002.475	773.81
1002.77	762.06
1003.065	753.47
1003.359	730.19
1003.654	722.96
1003.949	741.72
1004.243	722.51
1004.538	740.36
1004.832	721.83
1005.127	699.01
1005.421	727.25
1005.715	732
1006.009	733.81
1006.304	741.94
1006.598	697.2
1006.892	714.6
1007.186	704.43
1007.48	690.87
1007.773	690.87
1008.067	692.45
1008.361	708.5
1008.655	711.66
1008.948	696.3
1009.242	709.4
1009.535	706.69
1009.829	654.94
1010.122	656.75
1010.415	649.29
1010.708	652.91
1011.001	664.43
1011.295	658.33
1011.588	679.12
1011.881	660.59
1012.173	662.17
1012.466	644.77
1012.759	658.56
1013.052	659.69
1013.344	652.68
1013.637	655.62
1013.93	641.16
1014.222	649.97
1014.514	626.92
1014.807	627.6
1015.099	613.59
1015.391	619.69
1015.683	645.22
1015.976	614.04
1016.268	643.19
1016.56	627.37
1016.851	626.69
1017.143	610.2
1017.435	617.2
1017.727	626.69
1018.018	618.11
1018.31	585.34
1018.602	614.72
1018.893	604.55
1019.185	596.64
1019.476	588.5
1019.767	597.54
1020.058	609.74
1020.35	580.59
1020.641	591.44
1020.932	605.68
1021.223	607.71
1021.514	589.41
1021.804	589.63
1022.095	590.54
1022.386	574.26
1022.677	581.5
1022.967	582.17
1023.258	572
1023.548	569.29
1023.839	579.01
1024.129	580.14
1024.419	557.32
1024.709	563.19
1025	546.92
1025.29	573.36
1025.58	548.5
1025.87	558.45
1026.16	559.58
1026.449	566.13
1026.739	543.76
1027.029	561.38
1027.319	539.01
1027.608	551.67
1027.898	543.3
1028.187	548.73
1028.477	543.08
1028.766	533.81
1029.055	524.1
1029.344	535.17
1029.634	510.09
1029.923	526.81
1030.212	527.71
1030.501	522.29
1030.79	511.67
1031.078	525
1031.367	522.06
1031.656	502.63
1031.945	501.72
1032.233	525.23
1032.522	499.46
1032.81	505.57
1033.099	510.31
1033.387	496.53
1033.675	515.06
1033.963	494.49
1034.251	518.67
1034.54	494.94
1034.828	489.3
1035.116	475.28
1035.403	486.36
1035.691	477.32
1035.979	492.23
1036.267	506.92
1036.554	505.34
1036.842	492.01
1037.129	500.82
1037.417	478.45
1037.704	480.48
1037.992	480.26
1038.279	501.72
1038.566	475.28
1038.853	475.28
1039.14	475.28
