Data from foam2_polystyrene_foam_FLMS001491_00043.txt Node
Date: Wed Feb 08 10:58:00 GMT 2017
User: dcchb
Spectrometer: FLMS00149
Trigger mode: 0
Integration Time (sec): 2.000000E-2
Scans to average: 10
Electric dark correction enabled: true
Nonlinearity correction enabled: false
Boxcar width: 0
XAxis mode: Wavelengths
Number of Pixels in Spectrum: 2048
>>>>>Begin Spectral Data<<<<<
341.393	-4.7
341.776	-4.7
342.16	-4.7
342.543	-50.35
342.927	-85.61
343.31	-71.82
343.693	-75.21
344.077	-61.65
344.46	-43.57
344.843	-58.94
345.226	-44.93
345.61	-34.31
345.993	-12.61
346.376	0.95
346.759	-0.18
347.142	19.02
347.525	39.36
347.908	69.19
348.291	67.84
348.674	92.47
349.057	114.39
349.44	133.37
349.823	148.51
350.206	148.29
350.588	217.21
350.971	209.75
351.354	226.7
351.737	251.79
352.119	271.67
352.502	277.55
352.884	297.66
353.267	284.33
353.65	309.64
354.032	332.01
354.414	313.03
354.797	327.49
355.179	343.76
355.562	328.62
355.944	352.58
356.326	364.55
356.709	349.86
357.091	381.28
357.473	371.56
357.855	371.56
358.238	378.34
358.62	379.69
359.002	374.5
359.384	346.02
359.766	359.13
360.148	363.65
360.53	350.77
360.912	360.03
361.294	348.73
361.676	381.5
362.057	334.5
362.439	362.97
362.821	369.52
363.203	355.06
363.584	362.07
363.966	373.14
364.348	337.43
364.729	361.61
365.111	348.06
365.493	366.81
365.874	364.55
366.256	362.52
366.637	361.84
367.019	370.65
367.4	339.69
367.781	361.84
368.163	360.03
368.544	358
368.925	373.59
369.306	370.2
369.688	351.22
370.069	369.3
370.45	370.43
370.831	346.02
371.212	374.04
371.593	376.76
371.974	359.81
372.355	367.94
372.736	362.97
373.117	358.45
373.498	370.43
373.879	370.2
374.26	374.95
374.641	369.3
375.021	390.54
375.402	377.66
375.783	380.82
376.163	395.96
376.544	385.34
376.925	392.57
377.305	408.62
377.686	394.83
378.066	404.1
378.447	402.07
378.827	402.07
379.208	412.46
379.588	422.86
379.968	402.74
380.349	423.76
380.729	418.34
381.109	430.99
381.489	428.51
381.87	428.28
382.25	441.16
382.63	447.26
383.01	440.03
383.39	436.19
383.77	453.36
384.15	465.79
384.53	491.33
384.91	484.1
385.29	489.07
385.67	479.13
386.049	479.58
386.429	474.38
386.809	504.21
387.189	476.87
387.568	502.4
387.948	476.87
388.328	507.83
388.707	499.01
389.087	506.24
389.466	505.57
389.846	520.93
390.225	514.38
390.605	515.06
390.984	520.03
391.363	509.41
391.743	553.25
392.122	549.86
392.501	529.75
392.881	546.47
393.26	563.19
393.639	559.8
394.018	543.76
394.397	554.6
394.776	581.5
395.155	565.23
395.534	578.56
395.913	582.17
396.292	575.62
396.671	595.96
397.05	610.42
397.429	594.38
397.808	602.96
398.186	627.6
398.565	631.89
398.944	612.91
399.323	635.51
399.701	648.61
400.08	650.65
400.458	657.2
400.837	671.66
401.215	680.7
401.594	664.66
401.972	688.16
402.351	677.09
402.729	649.52
403.107	702.4
403.486	686.8
403.864	698.33
404.242	699.46
404.62	725.45
404.999	732.9
405.377	722.51
405.755	735.16
406.133	726.58
406.511	725
406.889	751.66
407.267	769.29
407.645	774.03
408.023	782.39
408.401	802.51
408.779	795.05
409.156	799.12
409.534	813.35
409.912	817.87
410.29	826.46
410.667	855.16
411.045	866.69
411.422	888.83
411.8	910.53
412.178	903.52
412.555	913.24
412.933	918.66
413.31	923.63
413.687	938.32
414.065	948.94
414.442	944.2
414.819	965.67
415.197	986.01
415.574	1016.29
415.951	1013.58
416.328	1009.73
416.705	1009.51
417.082	1013.12
417.46	1029.62
417.837	1066.68
418.214	1098.54
418.591	1050.64
418.967	1055.61
419.344	1077.08
419.721	1069.39
420.098	1089.96
420.475	1101.26
420.852	1137.64
421.228	1148.49
421.605	1176.28
421.982	1156.85
422.358	1148.94
422.735	1193.46
423.111	1206.56
423.488	1200.01
423.864	1236.39
424.241	1242.04
424.617	1240.91
424.994	1264.64
425.37	1288.14
425.746	1266.9
426.123	1309.61
426.499	1311.65
426.875	1297.41
427.251	1357.52
427.627	1384.64
428.003	1397.75
428.379	1384.41
428.756	1405.43
429.132	1459.44
429.507	1427.12
429.883	1495.14
430.259	1486.33
430.635	1495.6
431.011	1510.51
431.387	1577.4
431.763	1603.16
432.138	1581.02
432.514	1596.16
432.89	1617.85
433.265	1684.74
433.641	1681.35
434.016	1725.42
434.392	1732.65
434.767	1749.6
435.143	1760.22
435.518	1759.09
435.894	1799.09
436.269	1816.49
436.644	1865.98
437.02	1845.87
437.395	1879.99
437.77	1896.26
438.145	1920.22
438.52	1936.04
438.895	1991.63
439.271	1985.53
439.646	2025.98
440.021	2015.81
440.395	2047.45
440.77	2014.23
441.145	2041.8
441.52	2085.19
441.895	2115.92
442.27	2112.98
442.645	2126.09
443.019	2173.54
443.394	2188.01
443.769	2144.84
444.143	2182.36
444.518	2209.93
444.892	2244.28
445.267	2258.29
445.641	2298.51
446.016	2286.54
446.39	2353.2
446.764	2346.65
447.139	2324.95
447.513	2367.66
447.887	2403.59
448.262	2400.21
448.636	2394.56
449.01	2465.06
449.384	2481.56
449.758	2516.36
450.132	2518.85
450.506	2545.74
450.88	2558.85
451.254	2546.19
451.628	2623.25
452.002	2604.49
452.376	2658.73
452.75	2672.74
453.123	2696.47
453.497	2740.76
453.871	2791.38
454.244	2820.08
454.618	2823.02
454.992	2866.63
455.365	2865.96
455.739	2979.4
456.112	3059.4
456.486	3023.47
456.859	3021.66
457.232	3105.95
457.606	3102.79
457.979	3108.89
458.352	3203.57
458.725	3260.52
459.099	3251.48
459.472	3318.15
459.845	3342.55
460.218	3410.57
460.591	3383
460.964	3383.68
461.337	3501.65
461.71	3549.55
462.083	3610.12
462.456	3619.16
462.829	3659.16
463.201	3695.09
463.574	3664.35
463.947	3715.2
464.32	3854.63
464.692	3842.43
465.065	3911.13
465.438	4004.46
465.81	4027.73
466.183	4041.07
466.555	4167.62
466.928	4187.05
467.3	4158.8
467.672	4235.64
468.045	4346.82
468.417	4343.43
468.789	4391.57
469.161	4474.95
469.534	4518.12
469.906	4566.93
470.278	4649.86
470.65	4654.84
471.022	4800.14
471.394	4847.37
471.766	4919.69
472.138	4978.89
472.51	5133.47
472.882	5134.37
473.253	5239.45
473.625	5319.45
473.997	5399.22
474.369	5456.85
474.74	5487.81
475.112	5654.81
475.484	5749.72
475.855	5803.51
476.227	5868.59
476.598	5978.87
476.97	6064.97
477.341	6164.17
477.713	6213.89
478.084	6375.02
478.455	6552.19
478.827	6599.87
479.198	6722.13
479.569	6760.09
479.94	6922.35
480.311	7010.71
480.682	7150.59
481.053	7353.97
481.424	7463.57
481.795	7487.08
482.166	7633.74
482.537	7787.41
482.908	7946.73
483.279	7992.37
483.65	8129.55
484.021	8364.79
484.391	8454.96
484.762	8534.51
485.133	8608.4
485.503	8708.51
485.874	8867.61
486.244	8970.2
486.615	9148.95
486.985	9265.34
487.356	9452
487.726	9480.47
488.097	9707.58
488.467	9769.95
488.837	9979.89
489.207	10078.42
489.578	10190.06
489.948	10377.85
490.318	10430.05
490.688	10472.31
491.058	10734.22
491.428	10840.21
491.798	10933.54
492.168	11161.78
492.538	11133.08
492.908	11339.86
493.278	11450.14
493.648	11477.25
494.017	11684.71
494.387	11798.83
494.757	11886.51
495.126	12102.77
495.496	12111.36
495.866	12192.04
496.235	12351.13
496.605	12457.34
496.974	12518.58
497.344	12672.48
497.713	12730.78
498.082	12861.85
498.452	13011.68
498.821	13019.59
499.19	13110.88
499.559	13308.39
499.928	13428.16
500.298	13471.33
500.667	13572.11
501.036	13596.52
501.405	13749.74
501.774	13724.65
502.143	13899.79
502.512	13975.49
502.88	14163.96
503.249	14207.58
503.618	14283.73
503.987	14341.81
504.356	14402.6
504.724	14529.6
505.093	14580.68
505.462	14692.09
505.83	14838.07
506.199	14950.38
506.567	15136.14
506.936	15146.76
507.304	15408.9
507.672	15400.54
508.041	15556.7
508.409	15698.84
508.777	15793.3
509.145	15914.43
509.514	15891.15
509.882	16044.59
510.25	16139.28
510.618	16252.5
510.986	16427.18
511.354	16532.04
511.722	16756.21
512.09	16845.48
512.458	16899.71
512.826	17088.86
513.193	17088.63
513.561	17268.97
513.929	17439.81
514.297	17548.96
514.664	17594.83
515.032	17844.09
515.4	17977.2
515.767	18015.84
516.135	18094.48
516.502	18147.59
516.869	18484.98
517.237	18473.91
517.604	18483.4
517.972	18751.64
518.339	18886.1
518.706	18784.41
519.073	19009.49
519.44	19148.01
519.808	19376.03
520.175	19396.82
520.542	19671.62
520.909	19728.79
521.276	19919.97
521.643	20148.21
522.009	20246.52
522.376	20365.38
522.743	20450.58
523.11	20762.66
523.477	20970.11
523.843	21208.75
524.21	21329.65
524.577	21383.89
524.943	21639.7
525.31	21695.97
525.676	21985
526.043	22144.54
526.409	22210.08
526.776	22366.91
527.142	22413.24
527.508	22644.19
527.874	22771.42
528.241	22977.97
528.607	23104.29
528.973	23398.52
529.339	23325.76
529.705	23539.99
530.071	23930.49
530.437	23883.48
530.803	24096.13
531.169	24289.12
531.535	24285.96
531.901	24340.87
532.267	24482.34
532.632	24696.57
532.998	24776.57
533.364	24956
533.73	25037.58
534.095	25123.45
534.461	25350.11
534.826	25612.48
535.192	25443.67
535.557	25694.96
535.923	25747.61
536.288	25849.08
536.653	26038.68
537.019	25914.16
537.384	26061.96
537.749	26296.3
538.114	26271.89
538.479	26401.61
538.845	26461.04
539.21	26534.26
539.575	26566.8
539.94	26757.53
540.305	26915.27
540.67	27035.94
541.034	27175.82
541.399	27188.48
541.764	27232.09
542.129	27581.92
542.494	27494.91
542.858	27663.95
543.223	27725.19
543.587	27837.05
543.952	27790.95
544.316	27855.13
544.681	27897.84
545.045	28023.49
545.41	28264.16
545.774	28274.55
546.138	28350.26
546.503	28600.65
546.867	28496.69
547.231	28748.44
547.595	28824.82
547.959	28954.76
548.324	29010.35
548.688	29108.43
549.052	29183.68
549.416	29319.27
549.779	29318.59
550.143	29448.53
550.507	29671.58
550.871	29709.32
551.235	29625.03
551.599	29940.95
551.962	29958.58
552.326	30072.25
552.689	30221.85
553.053	30134.62
553.417	30336.42
553.78	30590.65
554.143	30562.4
554.507	30783.64
554.87	30781.83
555.234	31124.2
555.597	31022.05
555.96	31192.22
556.323	31376.62
556.686	31294.36
557.05	31556.5
557.413	31749.49
557.776	31715.37
558.139	31977.05
558.502	32080.33
558.865	32233.55
559.228	32490.71
559.59	32562.35
559.953	32619.98
560.316	32957.14
560.679	33003.69
561.041	33189.45
561.404	33281.65
561.767	33540.86
562.129	33554.19
562.492	33935.2
562.854	33882.54
563.217	34126.6
563.579	34229.42
563.941	34421.28
564.304	34481.17
564.666	34636.65
565.028	34612.47
565.39	34834.83
565.753	34890.2
566.115	35186.69
566.477	35252
566.839	35497.64
567.201	35642.27
567.563	35662.16
567.925	36000
568.287	35885.2
568.648	36047.23
569.01	36133.33
569.372	36479.54
569.734	36343.72
570.095	36621.9
570.457	36713.65
570.819	36846.08
571.18	36811.5
571.542	37199.06
571.903	37039.97
572.265	37301.43
572.626	37469.79
572.987	37469.34
573.349	37602.9
573.71	37619.39
574.071	37813.06
574.432	37928.08
574.794	38327.17
575.155	38196.1
575.516	38043.11
575.877	38255.08
576.238	38411.46
576.599	38466.83
576.96	38428.86
577.32	38503.44
577.681	38601.97
578.042	38834.73
578.403	38770.1
578.763	38867.04
579.124	38962.41
579.485	39003.31
579.845	39033.59
580.206	38983.88
580.566	39012.35
580.927	39219.35
581.287	39144.32
581.648	39162.4
582.008	39468.16
582.368	39286.92
582.728	39269.97
583.089	39308.61
583.449	39280.14
583.809	39369.63
584.169	39523.3
584.529	39387.26
584.889	39756.96
585.249	39257.09
585.609	39461.6
585.969	39677.64
586.329	39561.49
586.688	39549.96
587.048	39627.7
587.408	39487.82
587.768	39529.17
588.127	39628.6
588.487	39458.44
588.846	39725.1
589.206	39614.82
589.565	39507.25
589.925	39694.59
590.284	39569.4
590.643	39638.77
591.003	39698.89
591.362	39918.54
591.721	39779.11
592.08	39807.36
592.44	39890.52
592.799	39809.62
593.158	39773.91
593.517	39753.35
593.876	39913.34
594.235	39810.3
594.593	39774.14
594.952	39919.67
595.311	39733.23
595.67	39821.37
596.029	40014.36
596.387	39936.62
596.746	40053.9
597.104	39818.88
597.463	39853.91
597.822	40063.4
598.18	39868.15
598.538	39930.29
598.897	40113.11
599.255	39965.77
599.613	40358.53
599.972	40089.84
600.33	40278.31
600.688	40202.15
601.046	40309.94
601.404	40423.16
601.762	40250.51
602.12	40674.45
602.478	40618.64
602.836	40562.59
603.194	40261.81
603.552	40390.17
603.91	40333.67
604.268	40534.57
604.625	40308.36
604.983	40452.09
605.341	40368.25
605.698	40589.26
606.056	40755.58
606.413	40601.01
606.771	40709.03
607.128	40764.62
607.485	40656.83
607.843	40765.3
608.2	41064.05
608.557	41233.31
608.914	41052.07
609.272	41332.97
609.629	41184.95
609.986	41389.01
610.343	41250.71
610.7	41440.53
611.057	41226.53
611.414	41296.81
611.771	41401.67
612.127	41603.24
612.484	41545.62
612.841	41592.17
613.198	41459.74
613.554	41520.98
613.911	41723.47
614.267	41719.17
614.624	41593.98
614.98	41682.56
615.337	41811.6
615.693	41797.14
616.05	41888.43
616.406	42086.39
616.762	41937.24
617.118	42034.64
617.475	41977.24
617.831	42053.85
618.187	42113.74
618.543	42054.3
618.899	42301.53
619.255	42284.13
619.611	42074.87
619.967	42344.01
620.323	42361.19
620.678	42200.29
621.034	42184.92
621.39	42220.18
621.746	42057.02
622.101	42690.45
622.457	42032.61
622.812	42226.05
623.168	42352.15
623.523	42251.81
623.879	42350.79
624.234	42216.79
624.589	42340.62
624.945	42412.71
625.3	42536.1
625.655	42370.91
626.01	42440.51
626.365	42488.64
626.72	42330.23
627.075	42265.15
627.43	42264.47
627.785	42249.78
628.14	42332.26
628.495	42341.3
628.85	42233.51
629.205	42035.1
629.559	42372.71
629.914	42113.96
630.269	42173.4
630.623	42147.63
630.978	42080.97
631.332	42108.77
631.687	42147.18
632.041	41973.85
632.396	42174.98
632.75	42096.56
633.104	41920.07
633.459	41779.73
633.813	41920.97
634.167	41779.28
634.521	41696.57
634.875	41776.57
635.229	41813.63
635.583	41661.32
635.937	41654.31
636.291	41389.24
636.645	41527.09
636.999	41448.67
637.352	41550.36
637.706	41321.67
638.06	41416.35
638.413	41409.12
638.767	41228.79
639.121	41292.06
639.474	41071.05
639.828	41026.76
640.181	40976.82
640.534	41001.9
640.888	40892.07
641.241	40672.19
641.594	40793.32
641.947	40894.11
642.301	40889.81
642.654	40786.54
643.007	40825.18
643.36	40654.79
643.713	40570.95
644.066	40768.69
644.419	40400.79
644.771	40236.72
645.124	39768.26
645.477	39751.09
645.83	39478.1
646.182	39328.95
646.535	39365.56
646.888	39103.19
647.24	39037.66
647.593	39142.06
647.945	39032.91
648.298	38942.3
648.65	38839.7
649.002	38793.6
649.355	38760.38
649.707	38796.08
650.059	38870.66
650.411	39365.79
650.763	39427.48
651.115	39904.98
651.467	39739.11
651.819	39754.48
652.171	39570.98
652.523	39619.11
652.875	39534.14
653.227	39366.92
653.578	39616.4
653.93	39427.25
654.282	39172.8
654.633	38975.97
654.985	39189.29
655.337	39349.29
655.688	39138.67
656.039	39269.07
656.391	38905.23
656.742	39069.52
657.094	39083.08
657.445	39178.9
657.796	39047.38
658.147	38929.41
658.498	38869.98
658.849	39032.91
659.2	38878.57
659.551	38809.19
659.902	39063.87
660.253	38990.88
660.604	38913.6
660.955	38876.08
661.306	38860.94
661.656	38870.21
662.007	38928.51
662.358	38906.59
662.708	38812.81
663.059	38906.36
663.409	38655.75
663.76	38716.54
664.11	38727.84
664.461	38797.21
664.811	38747.72
665.161	38654.17
665.511	38578.46
665.862	38516.09
666.212	38656.43
666.562	38545.92
666.912	38578.24
667.262	38491.91
667.612	38524.91
667.962	38528.52
668.312	38573.04
668.662	38622.98
669.011	38420.5
669.361	38434.74
669.711	38410.33
670.06	38448.3
670.41	38311.35
670.76	38336.21
671.109	38639.03
671.459	38445.59
671.808	38204.24
672.157	38399.03
672.507	38205.59
672.856	38164.91
673.205	38413.04
673.554	38459.82
673.904	38347.51
674.253	38419.82
674.602	38142.54
674.951	37664.14
675.3	37336.69
675.649	38082.2
675.998	38052.15
676.346	38136.44
676.695	38227.29
677.044	37935.77
677.393	38031.36
677.741	38006.95
678.09	37876.56
678.438	37825.94
678.787	37812.83
679.135	37676.34
679.484	37525.84
679.832	37679.96
680.181	37393.86
680.529	37648.32
680.877	37442.22
681.225	37371.94
681.573	37783
681.922	37383.01
682.27	37396.12
682.618	37407.42
682.966	37271.6
683.314	37361.09
683.661	37136.92
684.009	37061.89
684.357	36908.45
684.705	36886.53
685.053	36837.72
685.4	36761.79
685.748	36602.47
686.095	36557.95
686.443	36515.47
686.79	36418.07
687.138	36484.05
687.485	36419.88
687.832	36339.88
688.18	36210.62
688.527	35996.38
688.874	36007.01
689.221	36047.91
689.568	35919.55
689.915	35712.32
690.262	35790.29
690.609	35767.46
690.956	35608.37
691.303	35473.23
691.65	35346.46
691.997	35374.25
692.344	35131.77
692.69	35051.78
693.037	35200.25
693.383	34896.07
693.73	34955.96
694.077	34776.98
694.423	34744.44
694.769	34639.36
695.116	34580.15
695.462	34567.72
695.808	34341.29
696.155	34483.66
696.501	34111.01
696.847	34129.31
697.193	33985.59
697.539	34063.33
697.885	33869.43
698.231	33681.19
698.577	33834.63
698.923	33797.35
699.269	33605.26
699.614	33463.57
699.96	33339.96
700.306	33391.25
700.651	33259.28
700.997	33008.67
701.342	33099.74
701.688	33065.61
702.033	32831.5
702.379	32950.36
702.724	32713.53
703.069	32852.96
703.415	32549.47
703.76	32521.45
704.105	32594.67
704.45	32542.46
704.795	32282.13
705.14	32301.34
705.485	32203.49
705.83	31990.84
706.175	32150.16
706.52	31895.93
706.865	31685.54
707.209	31676.95
707.554	31490.74
707.899	31650.96
708.243	31411.19
708.588	31469.05
708.932	31165.32
709.277	31175.49
709.621	31285.1
709.966	31053.46
710.31	30956.97
710.654	30854.15
710.998	30971.88
711.342	30943.86
711.687	30827.93
712.031	30718.1
712.375	30634.49
712.719	30669.52
713.063	30543.42
713.407	30617.77
713.75	30611.89
714.094	30409.86
714.438	30310.88
714.782	30280.83
715.125	30136.88
715.469	30354.72
715.812	30066.6
716.156	29886.26
716.499	29876.54
716.843	29967.84
717.186	29816.66
717.53	29820.05
717.873	29853.95
718.216	29693.05
718.559	29526.72
718.902	29399.04
719.246	29515.2
719.589	29395.2
719.932	29188.65
720.275	29230.23
720.617	29240.18
720.96	29240.86
721.303	29150.24
721.646	29105.94
721.989	28999.96
722.331	28962.22
722.674	28893.75
723.016	28799.29
723.359	28854.88
723.701	28911.6
724.044	28736.91
724.386	28629.57
724.729	28747.76
725.071	28533.08
725.413	28595.9
725.755	28474.55
726.097	28452.63
726.439	28232.75
726.782	28331.73
727.124	28428.22
727.465	28237.72
727.807	28145.97
728.149	28153.88
728.491	28039.31
728.833	28119.08
729.175	28000.66
729.516	27896.71
729.858	27825.3
730.199	27825.98
730.541	27771.97
730.882	27810.16
731.224	27731.06
731.565	27618.3
731.906	27583.72
732.248	27619.88
732.589	27484.52
732.93	27396.16
733.271	27439.09
733.612	27461.92
733.953	27439.09
734.294	27311.87
734.635	27212.89
734.976	27338.98
735.317	27219.21
735.658	27088.14
735.999	27122.49
736.339	27017.41
736.68	27099.89
737.021	26867.36
737.361	26849.05
737.702	26978.99
738.042	26925.89
738.383	26762.05
738.723	26777.64
739.063	26651.09
739.404	26750.98
739.744	26576.97
740.084	26588.72
740.424	26731.09
740.764	26536.29
741.104	26532.23
741.444	26391.21
741.784	26216.53
742.124	26439.57
742.464	26398.22
742.804	26327.49
743.143	26256.53
743.483	26360.03
743.823	26090.88
744.162	26119.58
744.502	26204.33
744.841	26021.28
745.181	26095.4
745.52	25910.55
745.86	25995.52
746.199	25858.57
746.538	25854.73
746.877	25905.58
747.216	25805.01
747.556	25668.97
747.895	25732.7
748.234	25668.07
748.573	25574.51
748.911	25535.64
749.25	25609.09
749.589	25488.19
749.928	25429.2
750.267	25446.83
750.605	25425.81
750.944	25355.99
751.283	25185.14
751.621	25197.57
751.96	25079.38
752.298	25115.31
752.636	25018.82
752.975	24876.68
753.313	24929.1
753.651	25084.58
753.989	24748.09
754.327	24812.5
754.666	24701.54
755.004	24708.55
755.342	24700.18
755.679	24528.66
756.017	24457.7
756.355	24510.13
756.693	24408.21
757.031	24340.19
757.368	24221.55
757.706	24179.29
758.044	24101.56
758.381	24050.48
758.719	24070.82
759.056	24017.94
759.394	23892.3
759.731	23761
760.068	23690.94
760.405	23635.35
760.743	23566.43
761.08	23567.11
761.417	23540.89
761.754	23438.97
762.091	23446.88
762.428	23343.38
762.765	23071.3
763.102	23275.59
763.438	23061.13
763.775	23022.04
764.112	23053.67
764.449	22925.54
764.785	22862.49
765.122	22768.03
765.458	22637.19
765.795	22608.04
766.131	22513.8
766.467	22469.96
766.804	22409.85
767.14	22258.67
767.476	22279.46
767.812	22182.28
768.148	22134.38
768.485	21959.69
768.821	21938.9
769.157	21990.42
769.492	21934.83
769.828	21944.32
770.164	21714.5
770.5	21653.26
770.836	21556.76
771.171	21482.42
771.507	21496.88
771.842	21257.34
772.178	21180.05
772.513	21082.43
772.849	21064.8
773.184	21034.07
773.519	21050.56
773.855	20840.62
774.19	20857.12
774.525	20711.14
774.86	20748.2
775.195	20545.26
775.53	20548.2
775.865	20452.16
776.2	20350.02
776.535	20185.95
776.87	20205.16
777.205	20145.5
777.539	20050.81
777.874	19966.52
778.209	19879.52
778.543	19859.63
778.878	19675.91
779.212	19707.32
779.547	19633.88
779.881	19659.64
780.215	19557.04
780.55	19538.96
780.884	19455.58
781.218	19409.7
781.552	19332.64
781.886	19346.43
782.22	19218.29
782.554	19102.82
782.888	18991.41
783.222	18864.63
783.556	18859.66
783.889	18779.44
784.223	18611.3
784.557	18630.74
784.89	18715.93
785.224	18557.29
785.557	18534.92
785.891	18364.76
786.224	18416.73
786.558	18377.86
786.891	18206.8
787.224	18156.85
787.557	18139.45
787.891	17968.38
788.224	18033.24
788.557	17995.95
788.89	17891.78
789.223	17902.62
789.556	17756.19
789.888	17786.92
790.221	17520.71
790.554	17528.4
790.887	17516.42
791.219	17365.91
791.552	17372.92
791.884	17232.36
792.217	17212.47
792.549	17144.68
792.882	17082.08
793.214	16965.47
793.546	17086.15
793.879	16857.68
794.211	16802.54
794.543	16867.85
794.875	16765.48
795.207	16830.11
795.539	16666.5
795.871	16774.97
796.203	16560.28
796.535	16419.05
796.867	16492.49
797.198	16411.81
797.53	16327.75
797.862	16254.53
798.193	16277.35
798.525	16181.54
798.856	16220.18
799.188	16014.76
799.519	16017.47
799.85	15838.72
800.182	15890.02
800.513	15958.72
800.844	15717.82
801.175	15878.27
801.506	15833.98
801.837	15732.06
802.168	15667.88
802.499	15589.69
802.83	15546.53
803.161	15473.08
803.491	15507.43
803.822	15354.89
804.153	15371.84
804.483	15241.45
804.814	15211.85
805.145	15256.36
805.475	15046.2
805.805	15063.38
806.136	15060.89
806.466	14989.93
806.796	15000.33
807.126	14801.01
807.457	14816.38
807.787	14747.23
808.117	14691.86
808.447	14721.46
808.777	14825.87
809.107	14716.27
809.436	14651.18
809.766	14581.58
810.096	14548.13
810.426	14484.63
810.755	14617.96
811.085	14452.54
811.414	14462.03
811.744	14407.57
812.073	14408.48
812.403	14349.27
812.732	14231.53
813.061	14299.1
813.39	14172.1
813.719	14255.26
814.049	14245.77
814.378	14141.59
814.707	14149.27
815.036	14062.5
815.365	13950.18
815.693	13957.19
816.022	13905.67
816.351	13832
816.68	13750.42
817.008	13820.47
817.337	13624.99
817.665	13674.49
817.994	13715.61
818.322	13681.72
818.651	13561.72
818.979	13555.17
819.307	13627.48
819.636	13565.11
819.964	13536.18
820.292	13567.14
820.62	13549.52
820.948	13495.51
821.276	13516.07
821.604	13382.06
821.932	13505.9
822.259	13558.33
822.587	13414.6
822.915	13424.32
823.243	13467.71
823.57	13351.33
823.898	13405.11
824.225	13360.37
824.553	13309.52
824.88	13437.88
825.207	13423.87
825.535	13392.46
825.862	13359.92
826.189	13394.49
826.516	13489.41
826.843	13438.56
827.17	13446.02
827.497	13376.64
827.824	13470.2
828.151	13432.46
828.478	13436.53
828.805	13431.33
829.131	13423.87
829.458	13383.42
829.785	13284.21
830.111	13345.45
830.438	13327.38
830.764	13306.36
831.09	13250.99
831.417	13231.56
831.743	13374.83
832.069	13335.51
832.395	13198.11
832.722	13342.29
833.048	13270.88
833.374	13316.75
833.7	13220.71
834.026	13193.37
834.351	13175.29
834.677	13237.43
835.003	13236.3
835.329	13234.04
835.654	13152.01
835.98	13145.01
836.306	13195.18
836.631	13031.34
836.956	13135.74
837.282	13086.03
837.607	13016.2
837.932	12984.11
838.258	13018.01
838.583	13001.28
838.908	12912.47
839.233	12875.18
839.558	12827.28
839.883	12816.43
840.208	12854.85
840.533	12863.21
840.858	12776.66
841.182	12752.02
841.507	12726.04
841.832	12738.24
842.156	12696.66
842.481	12668.64
842.805	12682.19
843.13	12638.81
843.454	12611.69
843.778	12596.32
844.103	12549.09
844.427	12535.53
844.751	12533.27
845.075	12519.26
845.399	12473.16
845.723	12371.24
846.047	12474.52
846.371	12311.58
846.695	12289.44
847.019	12155.43
847.343	12147.07
847.666	12148.2
847.99	12071.59
848.313	12008.54
848.637	11976.45
848.96	11888.54
849.284	11946.17
849.607	11745.72
849.931	11734.42
850.254	11691.03
850.577	11540.08
850.9	11544.6
851.223	11539.4
851.546	11462.11
851.869	11417.37
852.192	11435.67
852.515	11389.57
852.838	11350.93
853.161	11294.66
853.483	11178.73
853.806	11079.07
854.129	11253.53
854.451	11092.18
854.774	11007.89
855.096	10989.81
855.419	10978.06
855.741	10941.68
856.063	10926.31
856.385	10863.94
856.708	10852.41
857.03	10754.11
857.352	10856.48
857.674	10781.68
857.996	10737.84
858.318	10648.58
858.64	10719.99
858.961	10683.38
859.283	10506.66
859.605	10534.23
859.926	10570.16
860.248	10519.99
860.57	10506.21
860.891	10463.72
861.212	10430.5
861.534	10433.89
861.855	10487.22
862.176	10406.77
862.498	10475.02
862.819	10371.97
863.14	10348.02
863.461	10282.03
863.782	10297.85
864.103	10290.39
864.424	10290.17
864.745	10295.14
865.065	10217.17
865.386	10206.33
865.707	10188.93
866.027	10214.69
866.348	10222.6
866.668	10174.24
866.989	10108.93
867.309	10067.35
867.63	10168.81
867.95	10091.3
868.27	10083.85
868.59	9975.37
868.91	10016.95
869.23	9961.59
869.55	10035.48
869.87	10081.13
870.19	10000.23
870.51	10002.49
870.83	9979.89
871.15	9905.09
871.469	9949.16
871.789	9969.5
872.109	9915.71
872.428	9833.68
872.748	9826.68
873.067	9873.46
873.386	9859.67
873.706	9755.49
874.025	9720.46
874.344	9765.89
874.663	9757.07
874.982	9749.84
875.301	9734.7
875.62	9714.59
875.939	9677.75
876.258	9739.22
876.577	9646.34
876.896	9682.95
877.214	9582.84
877.533	9669.84
877.852	9620.58
878.17	9581.49
878.489	9625.55
878.807	9621.48
879.125	9566.12
879.444	9484.31
879.762	9524.31
880.08	9482.96
880.398	9438.66
880.716	9463.52
881.034	9421.94
881.352	9458.55
881.67	9328.38
881.988	9439.79
882.306	9334.94
882.624	9287.93
882.941	9300.81
883.259	9262.17
883.577	9300.59
883.894	9250.19
884.212	9209.29
884.529	9158.22
884.846	9163.19
885.164	9231.44
885.481	9156.41
885.798	9173.13
886.115	9127.94
886.432	9060.37
886.75	9084.1
887.067	9075.51
887.383	9096.3
887.7	9037.32
888.017	8953.48
888.334	8990.99
888.651	8993.7
888.967	8923.42
889.284	8836.19
889.6	8845.23
889.917	8836.19
890.233	8822.41
890.55	8753.71
890.866	8771.34
891.182	8741.06
891.498	8724.78
891.815	8696.08
892.131	8664.22
892.447	8658.8
892.763	8662.41
893.079	8608.63
893.395	8565.01
893.71	8534.96
894.026	8528.63
894.342	8567.73
894.657	8472.81
894.973	8396.66
895.289	8435.07
895.604	8400.05
895.92	8370.22
896.235	8300.62
896.55	8323.21
896.865	8312.14
897.181	8228.3
897.496	8276.21
897.811	8244.57
898.126	8175.65
898.441	8210.9
898.756	8156.44
899.071	8076.21
899.386	8104.69
899.7	7995.09
900.015	8011.13
900.33	7928.2
900.644	7936.56
900.959	7909.89
901.273	7890
901.588	7857.24
901.902	7835.77
902.216	7822.89
902.531	7809.1
902.845	7800.29
903.159	7684.13
903.473	7671.71
903.787	7678.71
904.101	7692.95
904.415	7622.89
904.729	7563.46
905.042	7530.92
905.356	7561.2
905.67	7466.06
905.984	7471.03
906.297	7382.45
906.611	7421.32
906.924	7404.59
907.237	7273.75
907.551	7328.44
907.864	7305.16
908.177	7269.68
908.491	7235.33
908.804	7195.33
909.117	7197.82
909.43	7185.62
909.743	7159.4
910.056	7089.12
910.368	7079.63
910.681	7016.81
910.994	6977.26
911.307	7006.41
911.619	6895.23
911.932	6894.1
912.244	6876.47
912.557	6841.22
912.869	6838.96
913.181	6794.21
913.494	6770.03
913.806	6777.27
914.118	6790.6
914.43	6734.55
914.742	6742.46
915.054	6635.35
915.366	6588.8
915.678	6566.65
915.99	6573.43
916.302	6558.51
916.613	6429.03
916.925	6489.14
917.236	6385.64
917.548	6360.78
917.859	6397.84
918.171	6389.93
918.482	6309.93
918.794	6306.32
919.105	6276.71
919.416	6235.58
919.727	6239.43
920.038	6150.39
920.349	6171.86
920.66	6165.08
920.971	6146.77
921.282	6075.14
921.593	6045.99
921.903	6014.12
922.214	6020.9
922.525	6032.43
922.835	6005.31
923.146	5968.25
923.456	5908.81
923.767	5894.8
924.077	5923.28
924.387	5834.92
924.697	5836.27
925.008	5766.44
925.318	5788.59
925.628	5814.35
925.938	5720.34
926.248	5707.24
926.558	5700.23
926.867	5671.53
927.177	5626.11
927.487	5619.56
927.796	5569.16
928.106	5567.35
928.416	5545.43
928.725	5567.13
929.034	5511.76
929.344	5505.89
929.653	5462.72
929.962	5401.26
930.271	5398.54
930.581	5371.43
930.89	5369.17
931.199	5337.98
931.508	5311.77
931.817	5312.9
932.125	5298.66
932.434	5259.34
932.743	5213.46
933.051	5203.52
933.36	5187.93
933.669	5193.13
933.977	5166.69
934.286	5104.31
934.594	5170.3
934.902	5116.29
935.21	5079.23
935.519	5080.81
935.827	5072.45
936.135	5006.24
936.443	4972.12
936.751	4950.65
937.059	4943.87
937.367	4870.87
937.674	4925.11
937.982	4865
938.29	4867.71
938.597	4885.11
938.905	4797.2
939.213	4797.66
939.52	4747.04
939.827	4758.56
940.135	4738.45
940.442	4732.12
940.749	4693.93
941.056	4685.12
941.363	4724.21
941.67	4689.41
941.977	4632.46
942.284	4634.04
942.591	4613.25
942.898	4603.09
943.205	4616.19
943.511	4559.7
943.818	4479.02
944.125	4487.61
944.431	4497.78
944.738	4463.88
945.044	4420.27
945.35	4425.46
945.657	4399.02
945.963	4331.23
946.269	4351.79
946.575	4327.39
946.881	4345.24
947.187	4329.87
947.493	4249.87
947.799	4279.7
948.105	4233.38
948.41	4204.68
948.716	4235.19
949.022	4169.65
949.327	4180.95
949.633	4123.32
949.938	4110.44
950.244	4133.49
950.549	4087.39
950.854	4048.07
951.16	4100.73
951.465	4086.49
951.77	4055.08
952.075	4022.08
952.38	3979.37
952.685	4009.88
952.99	4020.28
953.294	3995.64
953.599	3931.69
953.904	3925.59
954.209	3883.1
954.513	3903.67
954.818	3902.54
955.122	3850.79
955.426	3862.77
955.731	3800.62
956.035	3805.82
956.339	3779.6
956.643	3767.17
956.948	3764.92
957.252	3734.41
957.556	3719.27
957.86	3691.92
958.163	3711.13
958.467	3642.21
958.771	3657.35
959.075	3668.19
959.378	3635.65
959.682	3658.25
959.985	3611.7
960.289	3579.61
960.592	3560.4
960.896	3560.63
961.199	3558.37
961.502	3472.04
961.805	3480.4
962.108	3448.77
962.411	3499.39
962.714	3476.34
963.017	3467.97
963.32	3426.84
963.623	3408.99
963.926	3391.59
964.228	3356.79
964.531	3384.13
964.833	3368.32
965.136	3350.24
965.438	3292.39
965.741	3372.16
966.043	3302.33
966.345	3301.2
966.648	3249.22
966.95	3267.3
967.252	3239.96
967.554	3224.82
967.856	3219.84
968.158	3187.08
968.46	3163.12
968.761	3159.96
969.063	3125.61
969.365	3143.46
969.666	3120.19
969.968	3112.05
970.269	3083.35
970.571	3092.84
970.872	3077.48
971.174	3085.16
971.475	3064.59
971.776	3022.11
972.077	3040.87
972.378	3006.29
972.679	3020.98
972.98	2967.87
973.281	2975.78
973.582	2977.82
973.883	2966.52
974.183	2960.42
974.484	2949.12
974.785	2901.21
975.085	2935.78
975.386	2920.42
975.686	2885.39
975.986	2884.26
976.287	2867.31
976.587	2837.03
976.887	2821.21
977.187	2831.83
977.487	2817.37
977.787	2795.45
978.087	2755.9
978.387	2761.33
978.687	2757.94
978.987	2752.96
979.286	2744.6
979.586	2721.1
979.885	2688.11
980.185	2698.05
980.484	2723.13
980.784	2669.35
981.083	2663.25
981.382	2679.07
981.682	2630.26
981.981	2659.63
982.28	2605.17
982.579	2602.91
982.878	2605.4
983.177	2597.94
983.475	2566.53
983.774	2577.38
984.073	2564.72
984.372	2515.68
984.67	2533.31
984.969	2517.04
985.267	2528.79
985.566	2492.86
985.864	2505.74
986.162	2477.94
986.461	2495.12
986.759	2434.78
987.057	2452.63
987.355	2449.02
987.653	2400.43
987.951	2421.9
988.249	2394.78
988.547	2382.8
988.844	2377.16
989.142	2338.74
989.44	2327.21
989.737	2334.44
990.035	2307.55
990.332	2338.51
990.63	2309.81
990.927	2302.58
991.224	2274.56
991.521	2273.65
991.819	2261.68
992.116	2237.5
992.413	2250.38
992.71	2195.46
993.006	2205.63
993.303	2204.28
993.6	2221.9
993.897	2197.95
994.193	2205.18
994.49	2155.47
994.787	2141
995.083	2182.58
995.379	2134.22
995.676	2131.96
995.972	2134.68
996.268	2129.03
996.565	2080.89
996.861	2077.73
997.157	2094.22
997.453	2046.54
997.749	2037.28
998.044	2030.27
998.34	2015.58
998.636	2049.71
998.932	2007.9
999.227	1966.77
999.523	1979.43
999.818	1975.58
1000.114	1932.42
1000.409	1924.96
1000.704	1924.51
1001	1933.1
1001.295	1899.65
1001.59	1917.28
1001.885	1902.37
1002.18	1902.37
1002.475	1899.65
1002.77	1880.9
1003.065	1845.42
1003.359	1848.13
1003.654	1872.99
1003.949	1849.49
1004.243	1853.33
1004.538	1845.19
1004.832	1832.99
1005.127	1801.35
1005.421	1787.79
1005.715	1785.76
1006.009	1786.89
1006.304	1755.7
1006.598	1745.08
1006.892	1777.85
1007.186	1757.28
1007.48	1708.25
1007.773	1701.24
1008.067	1709.83
1008.361	1689.94
1008.655	1713.44
1008.948	1658.3
1009.242	1687
1009.535	1652.88
1009.829	1627.12
1010.122	1594.8
1010.415	1630.73
1010.708	1623.73
1011.001	1604.75
1011.295	1602.03
1011.588	1583.73
1011.881	1594.58
1012.173	1550.96
1012.466	1555.71
1012.759	1554.8
1013.052	1501.92
1013.344	1528.14
1013.637	1533.34
1013.93	1537.86
1014.222	1506.22
1014.514	1534.47
1014.807	1485.43
1015.099	1472.09
1015.391	1483.39
1015.683	1473.22
1015.976	1486.56
1016.268	1474.35
1016.56	1432.32
1016.851	1413.34
1017.143	1410.85
1017.435	1429.61
1017.727	1398.65
1018.018	1399.55
1018.31	1415.37
1018.602	1399.33
1018.893	1411.08
1019.185	1391.19
1019.476	1388.25
1019.767	1368.14
1020.058	1364.3
1020.35	1324.53
1020.641	1360.68
1020.932	1334.92
1021.223	1294.47
1021.514	1304.19
1021.804	1277.3
1022.095	1292.21
1022.386	1264.19
1022.677	1282.72
1022.967	1270.74
1023.258	1219.9
1023.548	1233.68
1023.839	1240.69
1024.129	1236.39
1024.419	1270.52
1024.709	1218.77
1025	1171.76
1025.29	1177.64
1025.58	1166.34
1025.87	1202.5
1026.16	1204.08
1026.449	1140.58
1026.739	1162.95
1027.029	1151.88
1027.319	1142.16
1027.608	1160.92
1027.898	1142.61
1028.187	1124.31
1028.477	1129.5
1028.766	1122.5
1029.055	1120.01
1029.344	1089.05
1029.634	1103.29
1029.923	1059.68
1030.212	1081.82
1030.501	1092.22
1030.79	1092.67
1031.078	1046.12
1031.367	1063.52
1031.656	1058.77
1031.945	1051.77
1032.233	1009.28
1032.522	1035.72
1032.81	1026
1033.099	1035.72
1033.387	1016.74
1033.675	995.95
1033.963	981.03
1034.251	991.43
1034.54	995.95
1034.828	987.81
1035.116	982.39
1035.403	954.82
1035.691	971.99
1035.979	965.67
1036.267	966.57
1036.554	930.19
1036.842	925.44
1037.129	932
1037.417	924.31
1037.704	927.25
1037.992	917.98
1038.279	882.96
1038.566	900.36
1038.853	900.36
1039.14	900.36
