Data from foam1_polythene_foam_FLMS001491_00055.txt Node
Date: Wed Feb 08 10:55:03 GMT 2017
User: dcchb
Spectrometer: FLMS00149
Trigger mode: 0
Integration Time (sec): 2.000000E-2
Scans to average: 10
Electric dark correction enabled: true
Nonlinearity correction enabled: false
Boxcar width: 0
XAxis mode: Wavelengths
Number of Pixels in Spectrum: 2048
>>>>>Begin Spectral Data<<<<<
341.393	0.47
341.776	0.47
342.16	0.47
342.543	-49.25
342.927	-59.87
343.31	-73.43
343.693	-57.61
344.077	-73.2
344.46	-61
344.843	-65.29
345.226	-37.72
345.61	-37.05
345.993	-14.22
346.376	11.54
346.759	10.18
347.142	21.03
347.525	44.31
347.908	58.09
348.291	82.05
348.674	91.76
349.057	100.58
349.44	110.29
349.823	156.85
350.206	152.1
350.588	188.03
350.971	188.03
351.354	201.14
351.737	222.16
352.119	236.62
352.502	249.27
352.884	269.61
353.267	292.89
353.65	276.84
354.032	304.19
354.414	312.77
354.797	306.45
355.179	313.45
355.562	311.42
355.944	308.48
356.326	324.07
356.709	316.84
357.091	313.68
357.473	330.4
357.855	313.9
358.238	351.64
358.62	331.76
359.002	324.07
359.384	331.76
359.766	322.94
360.148	317.52
360.53	324.3
360.912	309.84
361.294	333.56
361.676	330.63
362.057	327.69
362.439	320.68
362.821	327.69
363.203	319.78
363.584	313
363.966	303.28
364.348	289.95
364.729	297.63
365.111	288.82
365.493	308.48
365.874	287.92
366.256	309.38
366.637	315.94
367.019	291.53
367.4	293.11
367.781	305.99
368.163	289.05
368.544	294.92
368.925	289.95
369.306	327.69
369.688	306.67
370.069	305.09
370.45	305.32
370.831	314.81
371.212	306.67
371.593	301.7
371.974	294.7
372.355	307.8
372.736	313.23
373.117	301.02
373.498	279.78
373.879	305.09
374.26	314.36
374.641	298.99
375.021	309.38
375.402	301.02
375.783	284.3
376.163	315.03
376.544	309.38
376.925	319.55
377.305	340.57
377.686	302.61
378.066	315.49
378.447	316.16
378.827	316.62
379.208	317.75
379.588	313.9
379.968	310.51
380.349	316.62
380.729	301.25
381.109	336.05
381.489	316.84
381.87	324.53
382.25	340.34
382.63	334.69
383.01	299.44
383.39	331.98
383.77	322.49
384.15	321.14
384.53	328.37
384.91	348.25
385.29	354.36
385.67	342.83
386.049	338.54
386.429	343.96
386.809	344.41
387.189	339.44
387.568	350.29
387.948	337.18
388.328	352.77
388.707	352.32
389.087	376.05
389.466	341.02
389.846	347.8
390.225	349.16
390.605	374.92
390.984	350.97
391.363	355.03
391.743	378.99
392.122	349.38
392.501	376.05
392.881	367.46
393.26	371.08
393.639	362.72
394.018	372.89
394.397	374.47
394.776	375.6
395.155	379.44
395.534	377.86
395.913	378.31
396.292	378.31
396.671	363.62
397.05	402.04
397.429	358.42
397.808	390.51
398.186	386.9
398.565	388.93
398.944	403.17
399.323	405.43
399.701	388.7
400.08	405.43
400.458	402.94
400.837	397.52
401.215	408.82
401.594	396.84
401.972	411.53
402.351	402.26
402.729	416.95
403.107	411.53
403.486	412.88
403.864	423.28
404.242	416.73
404.62	411.08
404.999	415.14
405.377	418.76
405.755	422.6
406.133	440.45
406.511	424.64
406.889	438.65
407.267	435.71
407.645	425.31
408.023	438.19
408.401	427.57
408.779	431.42
409.156	460.79
409.534	441.81
409.912	443.62
410.29	454.69
410.667	454.92
411.045	473.45
411.422	476.84
411.8	482.49
412.178	512.54
412.555	495.59
412.933	496.72
413.31	498.08
413.687	483.39
414.065	488.81
414.442	503.5
414.819	521.58
415.197	501.47
415.574	495.14
415.951	510.96
416.328	503.5
416.705	508.93
417.082	497.85
417.46	521.13
417.837	522.71
418.214	531.98
418.591	544.86
418.967	528.81
419.344	530.62
419.721	557.74
420.098	553.67
420.475	546.67
420.852	556.61
421.228	558.42
421.605	549.6
421.982	548.25
422.358	564.75
422.735	601.13
423.111	570.17
423.488	581.69
423.864	585.08
424.241	590.96
424.617	608.59
424.994	607.23
425.37	607.46
425.746	597.06
426.123	620.34
426.499	614.46
426.875	616.72
427.251	623.5
427.627	607
428.003	627.12
428.379	649.94
428.756	646.55
429.132	666.44
429.507	657.85
429.883	679.54
430.259	675.48
430.635	679.32
431.011	674.35
431.387	698.98
431.763	696.27
432.138	734.68
432.514	704.63
432.89	731.07
433.265	724.97
433.641	740.11
434.016	756.38
434.392	738.53
434.767	755.02
435.143	749.15
435.518	757.06
435.894	799.77
436.269	764.74
436.644	804.74
437.02	779.43
437.395	805.42
437.77	787.56
438.145	794.12
438.52	829.37
438.895	830.05
439.271	835.02
439.646	861.01
440.021	842.7
440.395	863.49
440.77	843.61
441.145	861.46
441.52	886.54
441.895	882.48
442.27	898.97
442.645	880.44
443.019	916.15
443.394	922.93
443.769	904.85
444.143	918.41
444.518	935.36
444.892	944.85
445.267	940.1
445.641	955.92
446.016	958.63
446.39	984.17
446.764	993.43
447.139	992.53
447.513	989.59
447.887	989.82
448.262	1000.21
448.636	1002.02
449.01	1005.86
449.384	1031.63
449.758	1034.11
450.132	1047.67
450.506	1017.39
450.88	1046.99
451.254	1052.42
451.628	1060.33
452.002	1083.38
452.376	1105.52
452.75	1091.28
453.123	1130.15
453.497	1128.12
453.871	1114.34
454.244	1118.4
454.618	1150.49
454.992	1143.03
455.365	1178.29
455.739	1187.33
456.112	1205.41
456.486	1184.16
456.859	1211.96
457.232	1216.03
457.606	1229.13
457.979	1234.33
458.352	1253.09
458.725	1278.85
459.099	1252.64
459.472	1279.75
459.845	1278.62
460.218	1315.91
460.591	1309.13
460.964	1305.97
461.337	1317.27
461.71	1339.19
462.083	1336.93
462.456	1360.43
462.829	1381.9
463.201	1348.45
463.574	1366.53
463.947	1393.65
464.32	1438.17
464.692	1443.14
465.065	1448.34
465.438	1471.39
465.81	1491.73
466.183	1515.68
466.555	1529.01
466.928	1524.95
467.3	1540.09
467.672	1559.75
468.045	1596.58
468.417	1580.54
468.789	1585.06
469.161	1599.29
469.534	1634.77
469.906	1670.7
470.278	1687.88
470.65	1686.98
471.022	1738.05
471.394	1751.61
471.766	1748.44
472.138	1777.59
472.51	1798.16
472.882	1829.8
473.253	1858.95
473.625	1861.89
473.997	1895.78
474.369	1902.34
474.74	1906.18
475.112	1945.5
475.484	1972.84
475.855	1988.66
476.227	2020.53
476.598	2073.86
476.97	2099.39
477.341	2119.73
477.713	2169.9
478.084	2221.65
478.455	2212.84
478.827	2247.41
479.198	2281.54
479.569	2258.49
479.94	2343.46
480.311	2354.53
480.682	2447.86
481.053	2489.44
481.424	2511.13
481.795	2550.46
482.166	2522.89
482.537	2584.8
482.908	2645.82
483.279	2641.75
483.65	2709.55
484.021	2721.98
484.391	2798.58
484.762	2805.59
485.133	2835.19
485.503	2877.45
485.874	2920.39
486.244	2963.33
486.615	2988.41
486.985	3013.95
487.356	3087.16
487.726	3087.39
488.097	3208.29
488.467	3195.64
488.837	3240.15
489.207	3293.03
489.578	3328.97
489.948	3344.11
490.318	3355.41
490.688	3449.41
491.058	3476.08
491.428	3548.4
491.798	3577.32
492.168	3610.54
492.538	3626.13
492.908	3645.79
493.278	3700.48
493.648	3728.5
494.017	3816.86
494.387	3797.2
494.757	3846.47
495.126	3910.42
495.496	3919.46
495.866	3892.34
496.235	3946.13
496.605	4006.69
496.974	4040.13
497.344	4086.91
497.713	4095.27
498.082	4159.9
498.452	4206.46
498.821	4201.26
499.19	4218.21
499.559	4273.35
499.928	4293.69
500.298	4340.46
500.667	4361.03
501.036	4373.46
501.405	4420.69
501.774	4423.63
502.143	4448.03
502.512	4494.81
502.88	4565.77
503.249	4532.32
503.618	4547.47
503.987	4575.04
504.356	4637.63
504.724	4683.28
505.093	4683.28
505.462	4740.91
505.83	4762.37
506.199	4809.38
506.567	4866.55
506.936	4841.24
507.304	4884.41
507.672	4942.26
508.041	4989.04
508.409	4982.71
508.777	5090.05
509.145	5088.02
509.514	5126.43
509.882	5128.69
510.25	5137.96
510.618	5218.86
510.986	5254.79
511.354	5286.43
511.722	5285.52
512.09	5374.56
512.458	5372.08
512.826	5440.1
513.193	5475.35
513.561	5471.73
513.929	5521.68
514.297	5583.14
514.664	5626.53
515.032	5636.25
515.4	5701.11
515.767	5696.81
516.135	5765.74
516.502	5760.99
516.869	5866.07
517.237	5877.37
517.604	5883.7
517.972	5974.32
518.339	5955.34
518.706	6000.99
519.073	5997.6
519.44	6109.91
519.808	6203.47
520.175	6230.81
520.542	6252.73
520.909	6299.96
521.276	6323.01
521.643	6360.75
522.009	6428.09
522.376	6494.53
522.743	6501.76
523.11	6569.11
523.477	6614.98
523.843	6748.54
524.21	6729.55
524.577	6836.67
524.943	6819.04
525.31	6850.46
525.676	6963.67
526.043	6979.94
526.409	7015.65
526.776	7111.92
527.142	7087.51
527.508	7178.13
527.874	7183.1
528.241	7269.43
528.607	7310.1
528.973	7377.67
529.339	7367.05
529.705	7466.03
530.071	7405.7
530.437	7470.33
530.803	7580.38
531.169	7634.62
531.535	7635.75
531.901	7674.84
532.267	7693.37
532.632	7765.46
532.998	7846.14
533.364	7841.84
533.73	7869.19
534.095	7985.79
534.461	7978.79
534.826	8020.14
535.192	8052.23
535.557	8092.23
535.923	8083.64
536.288	8128.84
536.653	8183.3
537.019	8154.15
537.384	8193.7
537.749	8234.83
538.114	8264.2
538.479	8271.66
538.845	8320.7
539.21	8399.12
539.575	8333.81
539.94	8431.43
540.305	8493.8
540.67	8452.22
541.034	8520.92
541.399	8529.28
541.764	8544.2
542.129	8659.22
542.494	8613.12
542.858	8701.71
543.223	8705.32
543.587	8730.18
543.952	8697.41
544.316	8782.38
544.681	8780.57
545.045	8849.05
545.41	8923.85
545.774	8891.08
546.138	8955.94
546.503	8954.13
546.867	8941.7
547.231	9038.65
547.595	9059.44
547.959	9061.47
548.324	9116.84
548.688	9178.98
549.052	9184.41
549.416	9171.52
549.779	9261.47
550.143	9307.34
550.507	9364.06
550.871	9383.5
551.235	9332.65
551.599	9396.38
551.962	9499.65
552.326	9519.99
552.689	9524.51
553.053	9487
553.417	9549.59
553.78	9618.52
554.143	9649.25
554.507	9639.08
554.87	9749.81
555.234	9849.7
555.597	9770.15
555.96	9864.61
556.323	9888.12
556.686	9882.47
557.05	9949.58
557.413	9969.47
557.776	9991.39
558.139	10064.83
558.502	10105.06
558.865	10178.28
559.228	10240.65
559.59	10263.93
559.953	10200.42
560.316	10329.91
560.679	10401.77
561.041	10406.52
561.404	10446.52
561.767	10544.37
562.129	10515.44
562.492	10629.79
562.854	10678.83
563.217	10660.75
563.579	10713.86
563.941	10781.65
564.304	10818.26
564.666	10856.45
565.028	10919.95
565.39	10943
565.753	10967.86
566.115	11041.98
566.477	11124.69
566.839	11129.89
567.201	11210.11
567.563	11228.87
567.925	11309.55
568.287	11264.12
568.648	11316.33
569.01	11358.81
569.372	11421.63
569.734	11485.14
570.095	11534.17
570.457	11612.14
570.819	11583.66
571.18	11601.74
571.542	11771.46
571.903	11638.8
572.265	11734.17
572.626	11797.44
572.987	11803.09
573.349	11785.47
573.71	11896.42
574.071	11858.23
574.432	11962.64
574.794	12013.94
575.155	11976.2
575.516	12027.04
575.877	12006.7
576.238	12063.2
576.599	12180.71
576.96	12193.59
577.32	12220.03
577.681	12204.21
578.042	12295.74
578.403	12140.94
578.763	12278.56
579.124	12192.01
579.485	12284.21
579.845	12331.89
580.206	12256.42
580.566	12387.71
580.927	12359.69
581.287	12442.85
581.648	12366.24
582.008	12479.23
582.368	12382.51
582.728	12446.24
583.089	12391.55
583.449	12444.66
583.809	12399.69
584.169	12514.71
584.529	12453.02
584.889	12527.82
585.249	12388.84
585.609	12470.65
585.969	12480.59
586.329	12574.6
586.688	12568.95
587.048	12463.64
587.408	12490.99
587.768	12458.9
588.127	12472.68
588.487	12373.02
588.846	12543.64
589.206	12425.68
589.565	12412.57
589.925	12519.23
590.284	12535.5
590.643	12558.33
591.003	12603.98
591.362	12697.76
591.721	12590.87
592.08	12605.11
592.44	12680.13
592.799	12585.22
593.158	12539.12
593.517	12495.05
593.876	12549.06
594.235	12465.68
594.593	12580.7
594.952	12597.87
595.311	12584.99
595.67	12739.34
596.029	12753.58
596.387	12716.06
596.746	12683.3
597.104	12753.58
597.463	12727.59
597.822	12709.74
598.18	12636.97
598.538	12581.6
598.897	12766.91
599.255	12623.86
599.613	12838.09
599.972	12705.89
600.33	12791.09
600.688	12745.67
601.046	12806.01
601.404	12833.8
601.762	12800.58
602.12	12897.53
602.478	12896.62
602.836	12908.15
603.194	12759.45
603.552	12826.8
603.91	12783.63
604.268	12723.75
604.625	12766.23
604.983	12830.86
605.341	12752.45
605.698	12865.89
606.056	12970.52
606.413	12963.74
606.771	12893.46
607.128	13013.46
607.485	12931.43
607.843	12905.89
608.2	13027.92
608.557	13007.81
608.914	12975.27
609.272	13048.03
609.629	13141.14
609.986	13026.79
610.343	13046.45
610.7	13081.7
611.057	13106.79
611.414	13069.73
611.771	13140.69
612.127	13188.82
612.484	13200.57
612.841	13195.37
613.198	13075.6
613.554	13213.9
613.911	13227.69
614.267	13183.17
614.624	13220.01
614.98	13258.42
615.337	13228.37
615.693	13268.59
616.05	13181.14
616.406	13320.79
616.762	13315.6
617.118	13309.27
617.475	13235.37
617.831	13315.82
618.187	13358.53
618.543	13398.31
618.899	13452.32
619.255	13422.26
619.611	13316.5
619.967	13288.48
620.323	13450.28
620.678	13351.08
621.034	13324.64
621.39	13321.47
621.746	13338.65
622.101	13510.62
622.457	13404.63
622.812	13469.49
623.168	13540
623.523	13412.32
623.879	13438.76
624.234	13299.33
624.589	13474.46
624.945	13399.66
625.3	13399.89
625.655	13423.16
626.01	13425.2
626.365	13389.72
626.72	13466.33
627.075	13444.63
627.43	13378.65
627.785	13323.28
628.14	13408.48
628.495	13429.94
628.85	13351.08
629.205	13340.23
629.559	13393.79
629.914	13301.59
630.269	13393.11
630.623	13285.77
630.978	13308.59
631.332	13379.55
631.687	13250.74
632.041	13312.88
632.396	13220.23
632.75	13222.49
633.104	13250.97
633.459	13172.78
633.813	13213
634.167	13202.15
634.521	13180.91
634.875	13200.57
635.229	13195.83
635.583	13132.1
635.937	13163.96
636.291	13046.22
636.645	13070.18
636.999	13004.87
637.352	13086.22
637.706	13040.8
638.06	12980.01
638.413	13016.62
638.767	13005.55
639.121	13020.24
639.474	12881.26
639.828	13011.88
640.181	12968.03
640.534	12918.77
640.888	12962.39
641.241	12918.54
641.594	12917.19
641.947	12881.03
642.301	12919.9
642.654	12881.71
643.007	12867.92
643.36	12763.07
643.713	12788.38
644.066	12790.64
644.419	12745.89
644.771	12745.44
645.124	12585.22
645.477	12594.49
645.83	12497.76
646.182	12464.77
646.535	12441.27
646.888	12364.89
647.24	12342.97
647.593	12325.11
647.945	12342.51
648.298	12238.79
648.65	12250.31
649.002	12222.29
649.355	12244.89
649.707	12234.27
650.059	12307.04
650.411	12429.74
650.763	12384.77
651.115	12500.02
651.467	12475.84
651.819	12514.04
652.171	12473.81
652.523	12408.73
652.875	12461.83
653.227	12466.13
653.578	12575.05
653.93	12324.89
654.282	12382.97
654.633	12352.68
654.985	12364.21
655.337	12368.5
655.688	12364.66
656.039	12419.35
656.391	12253.03
656.742	12308.39
657.094	12386.81
657.445	12380.03
657.796	12272.91
658.147	12225.68
658.498	12323.31
658.849	12268.62
659.2	12301.16
659.551	12208.96
659.902	12324.66
660.253	12294.15
660.604	12290.09
660.955	12216.64
661.306	12283.53
661.656	12273.14
662.007	12192.69
662.358	12189.98
662.708	12241.5
663.059	12180.48
663.409	12120.6
663.76	12159.24
664.11	12180.71
664.461	12151.79
664.811	12198.56
665.161	12227.49
665.511	12144.55
665.862	12100.26
666.212	12158.56
666.562	12287.37
666.912	12081.05
667.262	12161.95
667.612	12101.39
667.962	12136.42
668.312	12097.1
668.662	12180.48
669.011	12126.93
669.361	12100.26
669.711	12031.79
670.06	12103.65
670.41	12025.46
670.76	12065.23
671.109	11967.38
671.459	12066.14
671.808	11995.86
672.157	12086.02
672.507	11908.85
672.856	11928.97
673.205	12013.26
673.554	11969.64
673.904	12028.85
674.253	12039.47
674.602	12021.62
674.951	11817.33
675.3	11817.33
675.649	11980.94
675.998	12009.42
676.346	11933.26
676.695	11997.89
677.044	11884
677.393	11876.76
677.741	11845.8
678.09	11851.68
678.438	11842.41
678.787	11814.62
679.135	11813.04
679.484	11742.76
679.832	11826.37
680.181	11852.81
680.529	11825.24
680.877	11802.64
681.225	11709.76
681.573	11801.74
681.922	11792.7
682.27	11699.59
682.618	11717.22
682.966	11642.42
683.314	11622.31
683.661	11638.58
684.009	11568.75
684.357	11557
684.705	11526.72
685.053	11456.44
685.4	11552.93
685.748	11429.09
686.095	11453.72
686.443	11370.11
686.79	11415.08
687.138	11409.21
687.485	11455.98
687.832	11409.88
688.18	11409.21
688.527	11330.11
688.874	11353.16
689.221	11293.73
689.568	11326.72
689.915	11243.79
690.262	11224.13
690.609	11185.48
690.956	11108.42
691.303	11077.24
691.65	11000.4
691.997	11032.72
692.344	10971.25
692.69	11006.05
693.037	11047.41
693.383	10889.22
693.73	10947.07
694.077	10879.5
694.423	10917.24
694.769	10890.8
695.116	10933.51
695.462	10809
695.808	10830.46
696.155	10874.08
696.501	10774.19
696.847	10766.51
697.193	10672.95
697.539	10664.14
697.885	10594.09
698.231	10503.92
698.577	10539.62
698.923	10481.55
699.269	10479.51
699.614	10385.96
699.96	10446.97
700.306	10409.91
700.651	10365.17
700.997	10321.78
701.342	10378.72
701.688	10357.03
702.033	10352.28
702.379	10251.27
702.724	10287.88
703.069	10258.05
703.415	10217.82
703.76	10126.08
704.105	10150.26
704.45	10121.1
704.795	10025.51
705.14	10034.78
705.485	10077.72
705.83	9978.51
706.175	9999.53
706.52	9962.24
706.865	9922.92
707.209	10006.08
707.554	9929.92
707.899	9950.49
708.243	9921.56
708.588	9983.03
708.932	9797.72
709.277	9798.17
709.621	9800.66
709.966	9685.18
710.31	9768.34
710.654	9630.27
710.998	9735.8
711.342	9670.72
711.687	9677.27
712.031	9553.21
712.375	9540.33
712.719	9570.61
713.063	9574.45
713.407	9548.24
713.75	9538.29
714.094	9447.22
714.438	9424.85
714.782	9458.07
715.125	9411.52
715.469	9459.65
715.812	9355.25
716.156	9380.78
716.499	9342.14
716.843	9322.25
717.186	9329.71
717.53	9387.34
717.873	9329.49
718.216	9391.86
718.559	9302.82
718.902	9197.06
719.246	9292.43
719.589	9208.36
719.932	9067.57
720.275	9187.12
720.617	9169.49
720.96	9180.11
721.303	9151.64
721.646	9049.04
721.989	9089.04
722.331	9144.41
722.674	9107.12
723.016	9100.79
723.359	9084.3
723.701	9142.82
724.044	9063.28
724.386	8987.35
724.729	8990.51
725.071	9051.08
725.413	8993.68
725.755	8933.34
726.097	8940.8
726.439	8918.65
726.782	8923.62
727.124	8844.98
727.465	8895.83
727.807	8832.32
728.149	8788.48
728.491	8787.13
728.833	8784.64
729.175	8754.81
729.516	8809.95
729.858	8727.92
730.199	8740.35
730.541	8746
730.882	8758.65
731.224	8793.91
731.565	8736.96
731.906	8752.55
732.248	8748.71
732.589	8689.96
732.93	8630.75
733.271	8711.42
733.612	8708.49
733.953	8691.76
734.294	8596.17
734.635	8595.49
734.976	8608.83
735.317	8534.93
735.658	8564.31
735.999	8493.12
736.339	8495.38
736.68	8515.72
737.021	8482.73
737.361	8461.94
737.702	8578.32
738.042	8469.17
738.383	8462.62
738.723	8495.38
739.063	8479.79
739.404	8503.52
739.744	8497.87
740.084	8451.77
740.424	8473.69
740.764	8429.85
741.104	8402.05
741.444	8384.43
741.784	8384.43
742.124	8342.85
742.464	8346.69
742.804	8334.94
743.143	8297.2
743.483	8297.65
743.823	8236.86
744.162	8283.41
744.502	8285.9
744.841	8163.87
745.181	8236.41
745.52	8178.78
745.86	8163.64
746.199	8141.49
746.538	8153.25
746.877	8160.48
747.216	8188.5
747.556	8117.31
747.895	8138.11
748.234	8123.42
748.573	8151.21
748.911	8076.86
749.25	8088.16
749.589	8082.06
749.928	8039.8
750.267	8096.3
750.605	8026.47
750.944	7974.72
751.283	8045.45
751.621	7976.08
751.96	7935.17
752.298	7892.01
752.636	7932.91
752.975	7886.81
753.313	7879.81
753.651	7876.87
753.989	7880.71
754.327	7864.67
754.666	7768.85
755.004	7878.9
755.342	7851.79
755.679	7821.73
756.017	7776.53
756.355	7795.74
756.693	7797.78
757.031	7692.92
757.368	7698.34
757.706	7661.28
758.044	7686.59
758.381	7748.96
758.719	7594.62
759.056	7709.42
759.394	7612.7
759.731	7554.39
760.068	7603.66
760.405	7477.78
760.743	7535.18
761.08	7419.03
761.417	7499.25
761.754	7431.01
762.091	7434.85
762.428	7400.5
762.765	7302.2
763.102	7391.91
763.438	7327.51
763.775	7282.53
764.112	7336.32
764.449	7346.71
764.785	7243.89
765.122	7240.5
765.458	7183.55
765.795	7233.72
766.131	7208.64
766.467	7158.92
766.804	7123.22
767.14	7093.61
767.476	7103.1
767.812	7064.46
768.148	7074.86
768.485	7014.74
768.821	6926.16
769.157	6964.58
769.492	6912.83
769.828	6921.64
770.164	6891.58
770.5	6845.48
770.836	6885.48
771.171	6835.77
771.507	6743.34
771.842	6789.21
772.178	6750.8
772.513	6742.89
772.849	6720.74
773.184	6707.41
773.519	6700.63
773.855	6672.61
774.19	6678.03
774.525	6653.17
774.86	6645.94
775.195	6629.9
775.53	6559.16
775.865	6595.32
776.2	6480.3
776.535	6489.34
776.87	6436.23
777.205	6436
777.539	6403.69
777.874	6436.91
778.209	6334.76
778.543	6316.46
778.878	6299.96
779.212	6306.29
779.547	6238.04
779.881	6229
780.215	6224.26
780.55	6281.88
780.884	6142.9
781.218	6216.57
781.552	6147.2
781.886	6177.03
782.22	6087.54
782.554	6120.76
782.888	6057.71
783.222	6052.74
783.556	6000.31
783.889	6008.67
784.223	5993.08
784.557	6004.83
784.89	5995.11
785.224	5944.94
785.557	5922.12
785.891	5890.03
786.224	5943.36
786.558	5891.38
786.891	5836.02
787.224	5807.32
787.557	5755.12
787.891	5829.01
788.224	5750.6
788.557	5763.93
788.89	5705.17
789.223	5743.82
789.556	5685.97
789.888	5675.57
790.221	5638.74
790.554	5628.34
790.887	5619.08
791.219	5585.18
791.552	5558.29
791.884	5520.77
792.217	5571.39
792.549	5512.86
792.882	5454.33
793.214	5458.63
793.546	5512.41
793.879	5490.49
794.211	5439.19
794.543	5417.72
794.875	5378.18
795.207	5469.02
795.539	5362.81
795.871	5386.31
796.203	5378.86
796.535	5352.64
796.867	5323.04
797.198	5311.29
797.53	5257.05
797.862	5268.35
798.193	5297.95
798.525	5229.93
798.856	5231.51
799.188	5164.4
799.519	5156.26
799.85	5116.94
800.182	5117.62
800.513	5127.79
800.844	5115.36
801.175	5063.84
801.506	5112.65
801.837	5077.62
802.168	5056.38
802.499	5070.16
802.83	5017.51
803.161	5032.65
803.491	4992.2
803.822	4993.1
804.153	5015.48
804.483	4971.41
804.814	4975.48
805.145	4957.62
805.475	4924.86
805.805	4990.17
806.136	4956.49
806.466	4928.02
806.796	4882.6
807.126	4876.04
807.457	4871.98
807.787	4841.47
808.117	4787.46
808.447	4824.29
808.777	4826.78
809.107	4772.09
809.436	4728.25
809.766	4773.67
810.096	4728.03
810.426	4737.29
810.755	4751.75
811.085	4715.37
811.414	4738.42
811.744	4637.18
812.073	4677.41
812.403	4658.42
812.732	4650.29
813.061	4608.48
813.39	4592.21
813.719	4587.46
814.049	4641.7
814.378	4590.18
814.707	4545.88
815.036	4598.31
815.365	4558.09
815.693	4508.6
816.022	4566.45
816.351	4533.23
816.68	4527.58
817.008	4456.62
817.337	4478.77
817.665	4484.42
817.994	4494.59
818.322	4473.12
818.651	4425.89
818.979	4431.31
819.307	4431.54
819.636	4378.66
819.964	4343.4
820.292	4401.03
820.62	4387.92
820.948	4397.19
821.276	4405.1
821.604	4422.27
821.932	4381.37
822.259	4394.02
822.587	4409.84
822.915	4385.66
823.243	4414.14
823.57	4384.98
823.898	4453.68
824.225	4375.04
824.553	4364.87
824.88	4383.4
825.207	4389.96
825.535	4396.96
825.862	4435.83
826.189	4382.72
826.516	4388.15
826.843	4389.73
827.17	4389.28
827.497	4405.1
827.824	4415.04
828.151	4411.2
828.478	4365.1
828.805	4394.02
829.131	4360.58
829.458	4363.06
829.785	4345.44
830.111	4361.26
830.438	4377.07
830.764	4401.25
831.09	4332.33
831.417	4373.01
831.743	4372.55
832.069	4369.39
832.395	4327.13
832.722	4332.1
833.048	4328.49
833.374	4367.36
833.7	4347.7
834.026	4313.12
834.351	4351.31
834.677	4350.86
835.003	4352.44
835.329	4344.98
835.654	4348.15
835.98	4318.32
836.306	4359.22
836.631	4269.05
836.956	4320.13
837.282	4283.97
837.607	4275.61
837.932	4298.88
838.258	4248.94
838.583	4243.52
838.908	4218.89
839.233	4187.02
839.558	4247.81
839.883	4217.53
840.208	4187.7
840.533	4213.24
840.858	4223.41
841.182	4217.76
841.507	4181.83
841.832	4167.59
842.156	4214.59
842.481	4177.08
842.805	4191.09
843.13	4126.23
843.454	4170.98
843.778	4145.44
844.103	4143.18
844.427	4115.39
844.751	4152.45
845.075	4156.74
845.399	4123.97
845.723	4085.78
846.047	4092.56
846.371	4055.5
846.695	4056.18
847.019	4021.15
847.343	4016.41
847.666	3938.22
847.99	3970.98
848.313	3940.48
848.637	3943.19
848.96	3962.62
849.284	3895.96
849.607	3861.83
849.931	3882.85
850.254	3880.36
850.577	3846.01
850.9	3826.81
851.223	3847.37
851.546	3800.59
851.869	3820.7
852.192	3796.07
852.515	3754.49
852.838	3748.39
853.161	3772.57
853.483	3747.49
853.806	3759.24
854.129	3750.42
854.451	3729.41
854.774	3675.85
855.096	3713.81
855.419	3718.79
855.741	3702.06
856.063	3653.93
856.385	3632.24
856.708	3625.23
857.03	3635.4
857.352	3639.92
857.674	3620.71
857.996	3578.23
858.318	3562.86
858.64	3592.46
858.961	3545.91
859.283	3499.36
859.605	3490.09
859.926	3511.33
860.248	3476.08
860.57	3472.24
860.891	3489.19
861.212	3475.63
861.534	3511.79
861.855	3480.37
862.176	3435.4
862.498	3459.58
862.819	3496.42
863.14	3507.94
863.461	3441.96
863.782	3472.01
864.103	3474.73
864.424	3446.25
864.745	3493.71
865.065	3458.68
865.386	3461.84
865.707	3432.47
866.027	3457.78
866.348	3446.03
866.668	3455.52
866.989	3416.2
867.309	3393.15
867.63	3432.47
867.95	3425.46
868.27	3378.46
868.59	3369.64
868.91	3301.85
869.23	3370.32
869.55	3316.76
869.87	3356.08
870.19	3327.16
870.51	3336.88
870.83	3321.06
871.15	3296.42
871.469	3321.73
871.789	3313.83
872.109	3288.74
872.428	3300.94
872.748	3341.17
873.067	3313.37
873.386	3337.33
873.706	3319.25
874.025	3298.91
874.344	3300.27
874.663	3318.34
874.982	3299.14
875.301	3342.07
875.62	3251
875.939	3276.09
876.258	3264.56
876.577	3266.37
876.896	3265.46
877.214	3300.49
877.533	3225.47
877.852	3281.96
878.17	3293.03
878.489	3236.77
878.807	3237.9
879.125	3231.57
879.444	3273.15
879.762	3198.35
880.08	3179.37
880.398	3161.74
880.716	3182.08
881.034	3164.22
881.352	3141.17
881.67	3133.49
881.988	3152.25
882.306	3140.95
882.624	3165.58
882.941	3123.55
883.259	3136.43
883.577	3158.35
883.894	3172.59
884.212	3133.72
884.529	3102.53
884.846	3107.96
885.164	3131.46
885.481	3120.38
885.798	3118.35
886.115	3091.46
886.432	3101.18
886.75	3096.2
887.067	3109.76
887.383	3101.63
887.7	3075.19
888.017	3081.74
888.334	3083.55
888.651	3119.71
888.967	3098.01
889.284	3040.16
889.6	3011.46
889.917	3028.41
890.233	2988.41
890.55	2991.12
890.866	3018.92
891.182	3005.13
891.498	2922.65
891.815	2939.6
892.131	2941.86
892.447	2922.2
892.763	2937.79
893.079	2903.21
893.395	2895.53
893.71	2860.05
894.026	2913.16
894.342	2875.87
894.657	2872.93
894.973	2849.66
895.289	2832.48
895.604	2826.38
895.92	2833.39
896.235	2866.38
896.55	2828.19
896.865	2812.14
897.181	2844.46
897.496	2856.89
897.811	2833.39
898.126	2813.95
898.441	2810.11
898.756	2776.66
899.071	2774.18
899.386	2791.81
899.7	2808.08
900.015	2769.88
900.33	2761.98
900.644	2768.75
900.959	2747.06
901.273	2720.17
901.588	2720.17
901.902	2697.57
902.216	2708.64
902.531	2690.11
902.845	2663.9
903.159	2693.28
903.473	2669.32
903.787	2619.15
904.101	2602.21
904.415	2570.12
904.729	2623.67
905.042	2590
905.356	2589.1
905.67	2625.26
905.984	2573.05
906.297	2599.95
906.611	2547.97
906.924	2564.24
907.237	2519.72
907.551	2532.38
907.864	2537.12
908.177	2550.23
908.491	2556.56
908.804	2521.3
909.117	2523.56
909.43	2512.26
909.743	2497.35
910.056	2488.54
910.368	2484.02
910.681	2483.56
910.994	2481.98
911.307	2470.68
911.619	2428.88
911.932	2484.92
912.244	2445.15
912.557	2435.88
912.869	2424.58
913.181	2406.73
913.494	2405.83
913.806	2375.32
914.118	2362.66
914.43	2363.12
914.742	2369.22
915.054	2398.82
915.366	2345.94
915.678	2300.97
915.99	2279.73
916.302	2287.41
916.613	2260.75
916.925	2261.88
917.236	2292.61
917.548	2259.16
917.859	2275.43
918.171	2251.03
918.482	2245.83
918.794	2234.31
919.105	2239.73
919.416	2222.55
919.727	2218.94
920.038	2218.71
920.349	2184.14
920.66	2179.84
920.971	2186.85
921.282	2194.53
921.593	2194.53
921.903	2194.31
922.214	2130.58
922.525	2142.78
922.835	2152.05
923.146	2146.17
923.456	2099.39
923.767	2145.72
924.077	2154.76
924.387	2128.09
924.697	2121.09
925.008	2081.77
925.318	2121.77
925.628	2080.86
925.938	2086.74
926.248	2069.79
926.558	2030.7
926.867	2044.93
927.177	2038.38
927.487	2036.8
927.796	2002.9
928.106	2022.56
928.416	2034.08
928.725	2012.39
929.034	2001.54
929.344	1995.67
929.653	1963.58
929.962	1967.19
930.271	1943.92
930.581	1943.47
930.89	1927.2
931.199	1923.81
931.508	1906.63
931.817	1925.61
932.125	1925.84
932.434	1877.03
932.743	1927.65
933.051	1919.06
933.36	1878.83
933.669	1896.24
933.977	1878.16
934.286	1835.22
934.594	1879.29
934.902	1869.34
935.21	1874.77
935.519	1883.81
935.827	1836.12
936.135	1844.03
936.443	1838.61
936.751	1825.5
937.059	1821.66
937.367	1805.84
937.674	1823.92
937.982	1801.32
938.29	1806.29
938.597	1789.12
938.905	1777.37
939.213	1780.53
939.52	1753.41
939.827	1781.21
940.135	1758.61
940.442	1781.89
940.749	1755.22
941.056	1745.28
941.363	1713.19
941.67	1707.77
941.977	1717.71
942.284	1697.14
942.591	1671.16
942.898	1704.83
943.205	1687.2
943.511	1665.28
943.818	1673.87
944.125	1655.79
944.431	1681.55
944.738	1690.82
945.044	1668.67
945.35	1638.84
945.657	1643.81
945.963	1623.02
946.269	1602.23
946.575	1620.54
946.881	1627.77
947.187	1632.06
947.493	1615.56
947.799	1620.99
948.105	1583.25
948.41	1585.06
948.716	1623.47
949.022	1598.84
949.327	1571.5
949.633	1565.4
949.938	1567.88
950.244	1581.44
950.549	1544.15
950.854	1583.48
951.16	1543.48
951.465	1553.65
951.77	1558.17
952.075	1536.47
952.38	1533.53
952.685	1524.04
952.99	1525.85
953.294	1517.94
953.599	1522.46
953.904	1484.27
954.209	1496.47
954.513	1494.66
954.818	1505.96
955.122	1445.17
955.426	1459.64
955.731	1474.55
956.035	1437.26
956.339	1427.55
956.643	1480.43
956.948	1427.77
957.252	1424.16
957.556	1442.91
957.86	1412.86
958.163	1393.88
958.467	1434.55
958.771	1417.6
959.075	1429.81
959.378	1423.03
959.682	1375.57
959.985	1396.36
960.289	1385.51
960.592	1393.88
960.896	1380.99
961.199	1362.46
961.502	1378.06
961.805	1385.51
962.108	1360.66
962.411	1366.53
962.714	1379.19
963.017	1359.98
963.32	1361.33
963.623	1336.93
963.926	1324.5
964.228	1336.02
964.531	1331.5
964.833	1316.59
965.136	1294.22
965.438	1332.63
965.741	1316.36
966.043	1285.63
966.345	1307.55
966.648	1275.46
966.95	1289.02
967.252	1307.32
967.554	1286.31
967.856	1284.05
968.158	1281.79
968.46	1252.86
968.761	1240.21
969.063	1265.29
969.365	1274.56
969.666	1234.11
969.968	1241.34
970.269	1245.41
970.571	1244.5
970.872	1248.79
971.174	1211.28
971.475	1208.34
971.776	1221.9
972.077	1213.32
972.378	1224.61
972.679	1202.24
972.98	1211.51
973.281	1171.28
973.582	1183.94
973.883	1178.97
974.183	1187.78
974.484	1181.45
974.785	1168.57
975.085	1176.03
975.386	1177.84
975.686	1164.96
975.986	1165.63
976.287	1163.6
976.587	1134.45
976.887	1139.19
977.187	1155.69
977.487	1132.87
977.787	1132.41
978.087	1127.67
978.387	1137.39
978.687	1107.1
978.987	1131.28
979.286	1122.02
979.586	1110.95
979.885	1085.64
980.185	1124.28
980.484	1098.74
980.784	1115.24
981.083	1103.49
981.382	1112.3
981.682	1107.33
981.981	1073.43
982.28	1072.53
982.579	1071.17
982.878	1067.78
983.177	1068.69
983.475	1048.8
983.774	1052.42
984.073	1069.14
984.372	1068.01
984.67	1048.57
984.969	1046.31
985.267	1038.63
985.566	1021.91
985.864	1051.74
986.162	1018.97
986.461	1024.17
986.759	1031.85
987.057	1023.72
987.355	1037.05
987.653	1021.46
987.951	1037.73
988.249	1001.34
988.547	1014.9
988.844	999.76
989.142	990.72
989.44	994.11
989.737	975.13
990.035	960.67
990.332	961.8
990.63	982.14
990.927	981.46
991.224	967.9
991.521	963.38
991.819	969.93
992.116	964.06
992.413	944.62
992.71	956.6
993.006	949.59
993.303	954.57
993.6	947.11
993.897	933.55
994.193	934.68
994.49	968.12
994.787	933.32
995.083	919.09
995.379	926.09
995.676	944.4
995.972	888.58
996.268	922.25
996.565	923.15
996.861	937.16
997.157	900.1
997.453	923.38
997.749	912.31
998.044	869.37
998.34	884.28
998.636	884.28
998.932	897.39
999.227	894.23
999.523	908.46
999.818	859.65
1000.114	869.6
1000.409	849.94
1000.704	870.95
1001	873.44
1001.295	854.45
1001.59	847.22
1001.885	861.46
1002.18	858.52
1002.475	825.98
1002.77	851.74
1003.065	831.18
1003.359	833.21
1003.654	851.07
1003.949	874.79
1004.243	819.43
1004.538	813.55
1004.832	814.23
1005.127	820.78
1005.421	817.62
1005.715	806.32
1006.009	822.82
1006.304	811.52
1006.598	820.56
1006.892	781.24
1007.186	799.09
1007.48	783.04
1007.773	776.94
1008.067	789.82
1008.361	794.34
1008.655	767
1008.948	785.98
1009.242	774.91
1009.535	781.69
1009.829	753.89
1010.122	762.25
1010.415	769.49
1010.708	781.69
1011.001	734.91
1011.295	743.05
1011.588	716.38
1011.881	746.21
1012.173	772.65
1012.466	738.75
1012.759	736.94
1013.052	739.66
1013.344	741.69
1013.637	741.46
1013.93	731.75
1014.222	717.51
1014.514	715.7
1014.807	724.06
1015.099	685.65
1015.391	721.13
1015.683	709.6
1015.976	736.49
1016.268	707.79
1016.56	695.14
1016.851	706.89
1017.143	694.01
1017.435	698.07
1017.727	688.13
1018.018	688.58
1018.31	693.33
1018.602	676.38
1018.893	681.8
1019.185	684.06
1019.476	682.03
1019.767	672.76
1020.058	661.69
1020.35	680.9
1020.641	675.48
1020.932	652.65
1021.223	658.53
1021.514	674.12
1021.804	652.2
1022.095	660.34
1022.386	633.9
1022.677	644.29
1022.967	635.03
1023.258	633.9
1023.548	628.92
1023.839	621.24
1024.129	626.21
1024.419	623.73
1024.709	625.76
1025	632.31
1025.29	624.18
1025.58	603.16
1025.87	606.78
1026.16	598.42
1026.449	594.57
1026.739	600
1027.029	614.69
1027.319	593.44
1027.608	588.7
1027.898	611.52
1028.187	597.51
1028.477	603.39
1028.766	597.96
1029.055	593.22
1029.344	583.05
1029.634	611.98
1029.923	574.01
1030.212	587.8
1030.501	582.6
1030.79	600
1031.078	576.27
1031.367	576.5
1031.656	569.04
1031.945	575.37
1032.233	583.73
1032.522	572.2
1032.81	592.54
1033.099	552.77
1033.387	548.7
1033.675	555.25
1033.963	550.96
1034.251	558.19
1034.54	544.18
1034.828	517.74
1035.116	528.81
1035.403	575.14
1035.691	521.58
1035.979	529.27
1036.267	534.46
1036.554	535.82
1036.842	547.34
1037.129	543.05
1037.417	507.35
1037.704	543.95
1037.992	523.16
1038.279	522.94
1038.566	517.97
1038.853	517.97
1039.14	517.97
