Data from foam2_polystyrene_foam_FLMS001491_00025.txt Node
Date: Wed Feb 08 10:57:44 GMT 2017
User: dcchb
Spectrometer: FLMS00149
Trigger mode: 0
Integration Time (sec): 2.000000E-2
Scans to average: 10
Electric dark correction enabled: true
Nonlinearity correction enabled: false
Boxcar width: 0
XAxis mode: Wavelengths
Number of Pixels in Spectrum: 2048
>>>>>Begin Spectral Data<<<<<
341.393	-7.53
341.776	-7.53
342.16	-7.53
342.543	-52.95
342.927	-59.96
343.31	-59.28
343.693	-59.73
344.077	-59.73
344.46	-64.7
344.843	-61.99
345.226	-38.04
345.61	-31.03
345.993	-4.36
346.376	-26.74
346.759	7.16
347.142	29.76
347.525	36.54
347.908	48.97
348.291	70.89
348.674	91.68
349.057	120.6
349.44	107.95
349.823	162.41
350.206	150.89
350.588	222.75
350.971	228.17
351.354	236.53
351.737	249.87
352.119	246.93
352.502	266.14
352.884	300.71
353.267	291.22
353.65	307.49
354.032	322.18
354.414	323.54
354.797	330.09
355.179	341.62
355.562	328.06
355.944	346.81
356.326	349.75
356.709	353.59
357.091	348.17
357.473	365.57
357.855	365.34
358.238	371.45
358.62	370.32
359.002	359.47
359.384	363.31
359.766	347.49
360.148	367.6
360.53	370.09
360.912	356.08
361.294	345.68
361.676	353.14
362.057	367.83
362.439	348.85
362.821	364.21
363.203	353.14
363.584	356.3
363.966	357.66
364.348	349.07
364.729	348.17
365.111	348.85
365.493	345.46
365.874	352.69
366.256	356.76
366.637	373.25
367.019	352.46
367.4	368.51
367.781	370.32
368.163	375.06
368.544	345.01
368.925	352.24
369.306	349.07
369.688	356.08
370.069	372.8
370.45	360.37
370.831	360.37
371.212	331.67
371.593	353.37
371.974	364.67
372.355	362.86
372.736	381.61
373.117	357.21
373.498	370.99
373.879	368.96
374.26	373.48
374.641	361.05
375.021	374.61
375.402	374.61
375.783	398.79
376.163	379.13
376.544	391.11
376.925	387.49
377.305	395.17
377.686	424.33
378.066	405.34
378.447	398.11
378.827	404.66
379.208	415.74
379.588	402.86
379.968	417.55
380.349	412.57
380.729	422.29
381.109	421.61
381.489	433.82
381.87	424.1
382.25	434.49
382.63	429.52
383.01	432.23
383.39	443.76
383.77	442.86
384.15	436.08
384.53	460.71
384.91	460.48
385.29	473.36
385.67	452.35
386.049	462.74
386.429	457.77
386.809	483.08
387.189	474.95
387.568	480.14
387.948	488.05
388.328	509.75
388.707	467.04
389.087	490.09
389.466	495.06
389.846	516.3
390.225	514.04
390.605	488.96
390.984	519.69
391.363	519.92
391.743	528.28
392.122	516.07
392.501	527.37
392.881	541.38
393.26	561.5
393.639	554.04
394.018	533.7
394.397	555.62
394.776	547.26
395.155	555.62
395.534	578.67
395.913	551.78
396.292	558.33
396.671	613.02
397.05	603.98
397.429	595.17
397.808	588.84
398.186	608.5
398.565	598.56
398.944	581.61
399.323	621.83
399.701	613.92
400.08	616.18
400.458	630.2
400.837	646.24
401.215	637.43
401.594	636.3
401.972	651.44
402.351	676.3
402.729	654.15
403.107	684.43
403.486	676.52
403.864	702.51
404.242	692.57
404.62	707.93
404.999	708.84
405.377	714.49
405.755	725.79
406.133	695.5
406.511	735.5
406.889	743.41
407.267	740.93
407.645	758.33
408.023	780.7
408.401	764.2
408.779	817.54
409.156	798.1
409.534	798.33
409.912	805.33
410.29	816.63
410.667	831.32
411.045	821.15
411.422	844.43
411.8	856.86
412.178	859.34
412.555	881.94
412.933	873.58
413.31	894.6
413.687	908.83
414.065	913.8
414.442	930.07
414.819	921.94
415.197	944.31
415.574	939.57
415.951	949.96
416.328	948.15
416.705	971.2
417.082	979.56
417.46	977.53
417.837	1007.81
418.214	1010.75
418.591	1009.85
418.967	1038.77
419.344	1035.61
419.721	1038.09
420.098	1067.02
420.475	1057.98
420.852	1072.22
421.228	1089.39
421.605	1076.74
421.982	1117.64
422.358	1102.95
422.735	1153.35
423.111	1145.44
423.488	1147.47
423.864	1177.07
424.241	1155.38
424.617	1198.99
424.994	1192.89
425.37	1216.62
425.746	1206.9
426.123	1210.52
426.499	1243.06
426.875	1265.43
427.251	1264.53
427.627	1329.39
428.003	1287.58
428.379	1321.93
428.756	1352.66
429.132	1356.28
429.507	1398.76
429.883	1406.9
430.259	1392.44
430.635	1395.82
431.011	1456.61
431.387	1465.2
431.763	1472.43
432.138	1515.82
432.514	1528.25
432.89	1520.57
433.265	1582.49
433.641	1578.64
434.016	1564.18
434.392	1603.73
434.767	1631.07
435.143	1621.58
435.518	1650.96
435.894	1689.6
436.269	1678.3
436.644	1704.07
437.02	1722.82
437.395	1742.93
437.77	1752.88
438.145	1781.35
438.52	1789.94
438.895	1863.38
439.271	1831.97
439.646	1869.94
440.021	1896.38
440.395	1893.44
440.77	1922.14
441.145	1932.08
441.52	1959.65
441.895	1954.68
442.27	1970.05
442.645	1956.71
443.019	2009.59
443.394	1982.02
443.769	2021.57
444.143	2027.9
444.518	2048.69
444.892	2050.95
445.267	2073.55
445.641	2133.43
446.016	2094.11
446.39	2119.65
446.764	2132.98
447.139	2146.77
447.513	2173.66
447.887	2194.9
448.262	2210.27
448.636	2226.54
449.01	2261.56
449.384	2264.95
449.758	2255.24
450.132	2318.74
450.506	2348.12
450.88	2338.4
451.254	2343.37
451.628	2382.24
452.002	2419.75
452.376	2468.11
452.75	2494.78
453.123	2460.2
453.497	2528
453.871	2540.88
454.244	2572.52
454.618	2587.66
454.992	2625.17
455.365	2613.65
455.739	2657.03
456.112	2672.63
456.486	2732.96
456.859	2735.45
457.232	2804.83
457.606	2784.71
457.979	2810.25
458.352	2852.74
458.725	2934.77
459.099	2928.89
459.472	2992.39
459.845	3043.01
460.218	3026.97
460.591	3080.75
460.964	3078.04
461.337	3142.9
461.71	3187.64
462.083	3230.35
462.456	3235.55
462.829	3258.37
463.201	3313.29
463.574	3312.61
463.947	3387.41
464.32	3409.78
464.692	3470.35
465.065	3501.76
465.438	3528.88
465.81	3595.32
466.183	3641.42
466.555	3708.53
466.928	3720.74
467.3	3724.58
467.672	3769.55
468.045	3871.47
468.417	3875.76
468.789	3933.39
469.161	3964.12
469.534	4018.81
469.906	4118.69
470.278	4165.02
470.65	4189.88
471.022	4300.83
471.394	4350.1
471.766	4394.39
472.138	4399.36
472.51	4514.16
472.882	4569.98
473.253	4615.63
473.625	4692.24
473.997	4782.63
474.369	4814.49
474.74	4921.83
475.112	4985.11
475.484	5029.18
475.855	5153.01
476.227	5141.94
476.598	5334.03
476.97	5387.81
477.341	5475.72
477.713	5536.96
478.084	5618.99
478.455	5763.85
478.827	5784.64
479.198	5967
479.569	5941.92
479.94	6115.02
480.311	6207
480.682	6283.38
481.053	6407.44
481.424	6553.88
481.795	6590.72
482.166	6705.29
482.537	6804.5
482.908	6904.38
483.279	6983.02
483.65	7151.61
484.021	7337.14
484.391	7370.36
484.762	7465.5
485.133	7472.28
485.503	7584.36
485.874	7776.22
486.244	7776.9
486.615	7926.05
486.985	8072.26
487.356	8236.77
487.726	8295.98
488.097	8437
488.467	8460.5
488.837	8660.94
489.207	8776.87
489.578	8946.59
489.948	8961.28
490.318	9088.73
490.688	9115.62
491.058	9243.3
491.428	9417.08
491.798	9524.42
492.168	9695.49
492.538	9773.46
492.908	9883.96
493.278	9905.43
493.648	9960.8
494.017	10162.37
494.387	10197.85
494.757	10251.64
495.126	10395.36
495.496	10438.98
495.866	10572.76
496.235	10675.58
496.605	10744.28
496.974	10810.49
497.344	10954.9
497.713	11024.27
498.082	11245.74
498.452	11189.92
498.821	11254.1
499.19	11339.07
499.559	11528.67
499.928	11567.53
500.298	11600.98
500.667	11684.14
501.036	11693.18
501.405	11851.82
501.774	11814.76
502.143	11945.6
502.512	12026.96
502.88	12191.25
503.249	12207.97
503.618	12285.71
503.987	12389.21
504.356	12357.34
504.724	12478.25
505.093	12533.61
505.462	12568.41
505.83	12813.6
506.199	12892.47
506.567	13037.1
506.936	13024.67
507.304	13168.4
507.672	13288.17
508.041	13268.28
508.409	13485.68
508.777	13587.14
509.145	13612.9
509.514	13661.72
509.882	13757.99
510.25	13781.71
510.618	13976.06
510.986	13979
511.354	14207.01
511.722	14315.03
512.09	14438.65
512.458	14457.85
512.826	14577.4
513.193	14684.29
513.561	14595.03
513.929	14860.33
514.297	15049.25
514.664	15027.56
515.032	15068.69
515.4	15290.83
515.767	15298.96
516.135	15433.42
516.502	15500.76
516.869	15693.53
517.237	15830.47
517.604	15772.62
517.972	16073.41
518.339	16132.39
518.706	16144.59
519.073	16256.45
519.44	16444.02
519.808	16530.79
520.175	16623.9
520.542	16876.55
520.909	16973.04
521.276	17006.94
521.643	17158.8
522.009	17318.12
522.376	17324.67
522.743	17477.21
523.11	17669.75
523.477	17915.84
523.843	17994.03
524.21	18168.72
524.577	18295.95
524.943	18400.58
525.31	18398.54
525.676	18714.92
526.043	18768.25
526.409	18887.79
526.776	19036.49
527.142	19074
527.508	19265.86
527.874	19440.77
528.241	19610.94
528.607	19636.25
528.973	19808.22
529.339	19862.91
529.705	20083.47
530.071	20206.86
530.437	20325.95
530.803	20504.25
531.169	20696.56
531.535	20518.94
531.901	20674.64
532.267	20723.68
532.632	20952.37
532.998	21038.92
533.364	21075.08
533.73	21183.33
534.095	21466.94
534.461	21391.91
534.826	21579.93
535.192	21656.31
535.557	21776.53
535.923	21758.45
536.288	21815.17
536.653	22051.78
537.019	21914.61
537.384	22136.3
537.749	22301.72
538.114	22273.92
538.479	22295.84
538.845	22548.72
539.21	22437.31
539.575	22566.34
539.94	22697.41
540.305	22905.77
540.67	22875.03
541.034	23108.7
541.399	23077.74
541.764	23154.8
542.129	23239.32
542.494	23321.58
542.858	23347.56
543.223	23451.29
543.587	23657.39
543.952	23617.61
544.316	23680.66
544.681	23636.6
545.045	23847.44
545.41	23809.92
545.774	24020.31
546.138	24034.33
546.503	24187.99
546.867	24252.85
547.231	24525.84
547.595	24497.82
547.959	24694.2
548.324	24688.55
548.688	24710.92
549.052	24824.36
549.416	24978.71
549.779	24888.54
550.143	25028.65
550.507	25348.87
550.871	25366.49
551.235	25206.27
551.599	25489.2
551.962	25534.63
552.326	25545.92
552.689	25643.32
553.053	25714.06
553.417	25830.89
553.78	26267.49
554.143	26141.61
554.507	26263.19
554.87	26425
555.234	26628.83
555.597	26516.29
555.96	26655.5
556.323	26789.96
556.686	26798.77
557.05	26991.08
557.413	27038.54
557.776	27227.01
558.139	27374.8
558.502	27387.01
558.865	27478.98
559.228	27666.77
559.59	27844.17
559.953	27871.51
560.316	28271.73
560.679	28129.13
561.041	28329.35
561.404	28548.78
561.767	28724.82
562.129	28619.97
562.492	28851.6
562.854	28943.35
563.217	28953.97
563.579	29107.19
563.941	29348.99
564.304	29441.87
564.666	29759.37
565.028	29609.55
565.39	29811.35
565.753	30041.17
566.115	30130.44
566.477	30198.23
566.839	30268.96
567.201	30538.56
567.563	30469.18
567.925	30723.19
568.287	30685.68
568.648	30856.07
569.01	30990.98
569.372	31145.55
569.734	31157.75
570.095	31310.07
570.457	31430.29
570.819	31406.56
571.18	31493.11
571.542	31739.21
571.903	31750.96
572.265	31893.33
572.626	31952.76
572.987	32106.66
573.349	32156.82
573.71	32257.16
574.071	32409.92
574.432	32411.05
574.794	32607.66
575.155	32575.57
575.516	32514.78
575.877	32674.55
576.238	32701.89
576.599	32868.44
576.96	32921.1
577.32	33042.68
577.681	33117.25
578.042	33120.64
578.403	33239.06
578.763	33222.56
579.124	33188.89
579.485	33318.83
579.845	33417.58
580.206	33290.81
580.566	33383.46
580.927	33386.85
581.287	33468.65
581.648	33361.31
582.008	33511.14
582.368	33515.88
582.728	33703.9
583.089	33597.69
583.449	33670.46
583.809	33628.65
584.169	33636.56
584.529	33639.72
584.889	33914.07
585.249	33784.58
585.609	33588.65
585.969	33929.88
586.329	33762.21
586.688	33838.81
587.048	33909.77
587.408	33761.75
587.768	33923.11
588.127	33868.42
588.487	33848.76
588.846	34053.05
589.206	33666.84
589.565	33766.95
589.925	33984.35
590.284	33907.29
590.643	33962.2
591.003	33961.07
591.362	34027.74
591.721	33891.47
592.08	33860.51
592.44	33993.84
592.799	33996.78
593.158	33909.09
593.517	34013.27
593.876	33911.58
594.235	33995.87
594.593	33939.83
594.952	34111.12
595.311	33888.08
595.67	33997.23
596.029	34280.61
596.387	34170.78
596.746	34344.79
597.104	34204.91
597.463	34246.94
597.822	34443.09
598.18	34370.78
598.538	34427.72
598.897	34554.95
599.255	34112.03
599.613	34559.02
599.972	34297.78
600.33	34548.85
600.688	34397.44
601.046	34457.33
601.404	34503.2
601.762	34394.51
602.12	34721.95
602.478	34692.8
602.836	34731.67
603.194	34531
603.552	34660.94
603.91	34533.94
604.268	34696.87
604.625	34596.76
604.983	34773.25
605.341	34630.43
605.698	34868.62
606.056	34891.44
606.413	34778.45
606.771	34873.59
607.128	35009.18
607.485	34831.56
607.843	34837.66
608.2	35030.87
608.557	35175.95
608.914	35020.7
609.272	35273.35
609.629	35269.06
609.986	35232.45
610.343	35137.08
610.7	35452.78
611.057	35294.37
611.414	35192.68
611.771	35284.43
612.127	35422.95
612.484	35427.02
612.841	35538.88
613.198	35526
613.554	35531.2
613.911	35738.65
614.267	35613.46
614.624	35554.02
614.98	35661.82
615.337	35878.76
615.693	35749.5
616.05	35754.7
616.406	35967.57
616.762	35782.72
617.118	35900.45
617.475	35963.05
617.831	35989.49
618.187	36131.86
618.543	36088.47
618.899	36178.19
619.255	36215.25
619.611	36043.73
619.967	36206.44
620.323	36377.73
620.678	36007.34
621.034	36040.34
621.39	35960.11
621.746	35984.29
622.101	36362.82
622.457	36217.28
622.812	36287.56
623.168	36415.02
623.523	36547.67
623.879	36433.32
624.234	36309.94
624.589	36442.81
624.945	36407.56
625.3	36422.25
625.655	36273.78
626.01	36398.29
626.365	36407.11
626.72	36385.87
627.075	36363.72
627.43	36454.34
627.785	36352.87
628.14	36346.09
628.495	36462.7
628.85	36323.95
629.205	36274.46
629.559	36475.13
629.914	36351.06
630.269	36307.9
630.623	36158.75
630.978	36003.5
631.332	36170.96
631.687	36168.02
632.041	35902.26
632.396	36244.63
632.75	35963.5
633.104	35972.77
633.459	35720.35
633.813	35768.93
634.167	35780.23
634.521	35764.19
634.875	35751.76
635.229	35749.05
635.583	35591.08
635.937	35634.92
636.291	35609.84
636.645	35513.35
636.999	35436.74
637.352	35592.21
637.706	35382.28
638.06	35566.68
638.413	35408.94
638.767	35356.97
639.121	35432.9
639.474	35086.01
639.828	35150.87
640.181	35235.39
640.534	35316.06
640.888	35109.29
641.241	34867.94
641.594	34803.08
641.947	34914.94
642.301	34776.19
642.654	34853.93
643.007	34839.47
643.36	34797.43
643.713	34673.37
644.066	34907.71
644.419	34541.17
644.771	34408.52
645.124	34029.09
645.477	33917
645.83	33775.31
646.182	33672.26
646.535	33541.42
646.888	33569.44
647.24	33439.95
647.593	33573.96
647.945	33485.38
648.298	33418.03
648.65	33292.84
649.002	33341.65
649.355	33451.48
649.707	33203.8
650.059	33396.34
650.411	33712.04
650.763	33808.98
651.115	34124.46
651.467	33974.63
651.819	34031.35
652.171	33978.02
652.523	33892.6
652.875	33870.45
653.227	33690.57
653.578	33947.29
653.93	33865.25
654.282	33606.05
654.633	33589.55
654.985	33635.43
655.337	33677.01
655.688	33668.87
656.039	33838.14
656.391	33481.76
656.742	33643.11
657.094	33501.65
657.445	33615.99
657.796	33527.86
658.147	33494.19
658.498	33478.6
658.849	33474.98
659.2	33458.71
659.551	33251.71
659.902	33487.18
660.253	33359.05
660.604	33409.45
660.955	33261.65
661.306	33319.51
661.656	33182.79
662.007	33203.8
662.358	33178.72
662.708	33154.76
663.059	33175.33
663.409	32934.66
663.76	33175.55
664.11	33248.55
664.461	33078.16
664.811	33039.96
665.161	33088.55
665.511	32991.38
665.862	32969.01
666.212	33049.23
666.562	33018.04
666.912	33044.94
667.262	32935.33
667.612	32913.19
667.962	32882.68
668.312	32772.63
668.662	33125.61
669.011	32929.23
669.361	32783.25
669.711	32905.96
670.06	32722.23
670.41	32693.08
670.76	32651.05
671.109	32885.17
671.459	32678.62
671.808	32609.02
672.157	32706.41
672.507	32575.12
672.856	32460.77
673.205	32610.37
673.554	32575.12
673.904	32473.43
674.253	32589.58
674.602	32445.4
674.951	31986.66
675.3	31806.32
675.649	32375.35
675.998	32255.58
676.346	32278.18
676.695	32162.47
677.044	32034.34
677.393	32186.88
677.741	32216.26
678.09	31949.82
678.438	31916.6
678.787	32001.35
679.135	32031.4
679.484	31837.51
679.832	32039.31
680.181	31865.98
680.529	32041.8
680.877	31904.63
681.225	31803.16
681.573	31912.99
681.922	31693.79
682.27	31763.39
682.618	31822.6
682.966	31678.87
683.314	31777.4
683.661	31695.14
684.009	31421.25
684.357	31487.69
684.705	31487.46
685.053	31391.87
685.4	31332.21
685.748	31225.55
686.095	31307.81
686.443	31109.62
686.79	31051.32
687.138	31005.44
687.485	30966.12
687.832	30804.77
688.18	30904.2
688.527	30572.01
688.874	30680.93
689.221	30572.91
689.568	30467.38
689.915	30280.94
690.262	30462.63
690.609	30334.72
690.956	30229.42
691.303	30258.79
691.65	30127.27
691.997	30071.68
692.344	30013.6
692.69	29940.16
693.037	29997.56
693.383	29666.04
693.73	29896.32
694.077	29626.27
694.423	29604.12
694.769	29562.77
695.116	29521.41
695.462	29457.69
695.808	29252.72
696.155	29355.77
696.501	29067.87
696.847	29108.54
697.193	29043.23
697.539	29085.94
697.885	28898.83
698.231	28794.65
698.577	28766.86
698.923	28696.8
699.269	28638.05
699.614	28449.58
699.96	28449.35
700.306	28308.56
700.651	28201
700.997	28091.17
701.342	28136.36
701.688	28004.16
702.033	27883.26
702.379	27965.07
702.724	27768.46
703.069	27863.38
703.415	27578.64
703.76	27422.49
704.105	27472.2
704.45	27421.81
704.795	27353.33
705.14	27237.41
705.485	27151.08
705.83	27125.77
706.175	27090.97
706.52	27038.99
706.865	26919.45
707.209	26922.84
707.554	26800.58
707.899	26800.81
708.243	26680.58
708.588	26609.4
708.932	26434.71
709.277	26537.08
709.621	26476.3
709.966	26234.04
710.31	26482.85
710.654	26167.15
710.998	26208.28
711.342	26212.57
711.687	26243.76
712.031	26155.85
712.375	25993.6
712.719	25932.81
713.063	25921.73
713.407	26006.93
713.75	25740.5
714.094	25748.18
714.438	25731.68
714.782	25816.88
715.125	25437
715.469	25531.01
715.812	25462.99
716.156	25303.44
716.499	25394.74
716.843	25317.68
717.186	25218.25
717.53	25243.79
717.873	25260.51
718.216	25110
718.559	25011.48
718.902	24981.65
719.246	24884.25
719.589	24955.88
719.932	24762.67
720.275	24766.06
720.617	24811.25
720.96	24663.69
721.303	24787.07
721.646	24810.8
721.989	24578.49
722.331	24713.18
722.674	24587.76
723.016	24615.1
723.359	24574.88
723.701	24649.22
724.044	24405.62
724.386	24253.75
724.729	24492.84
725.071	24374.66
725.413	24351.38
725.755	24229.8
726.097	24136.92
726.439	24069.13
726.782	24094.21
727.124	24058.73
727.465	23973.08
727.807	24070.26
728.149	23939.86
728.491	23954.33
728.833	23936.48
729.175	23751.85
729.516	23735.8
729.858	23719.53
730.199	23799.98
730.541	23696.71
730.882	23674.11
731.224	23622.59
731.565	23496.26
731.906	23532.42
732.248	23580.1
732.589	23398.64
732.93	23245.65
733.271	23442.7
733.612	23384.85
733.953	23399.54
734.294	23240.22
734.635	23101.02
734.976	23225.08
735.317	23131.3
735.658	23063.5
735.999	22999.55
736.339	23097.4
736.68	23209.04
737.021	23112.54
737.361	22957.74
737.702	22949.38
738.042	22941.25
738.383	22949.38
738.723	22951.19
739.063	22915.03
739.404	22946.22
739.744	22753
740.084	22661.71
740.424	22677.3
740.764	22600.24
741.104	22759.56
741.444	22594.14
741.784	22578.54
742.124	22553.23
742.464	22513.91
742.804	22530.64
743.143	22513.46
743.483	22454.71
743.823	22344.43
744.162	22435.27
744.502	22460.13
744.841	22213.81
745.181	22494.71
745.52	22225.11
745.86	22322.05
746.199	22215.62
746.538	22254.03
746.877	22245.9
747.216	22121.83
747.556	22056.75
747.895	22076.41
748.234	21884.78
748.573	21956.41
748.911	21910.54
749.25	21874.83
749.589	21645.01
749.928	21752.58
750.267	21744.22
750.605	21638.46
750.944	21595.97
751.283	21550.78
751.621	21592.36
751.96	21435.52
752.298	21392.59
752.636	21403.21
752.975	21252.03
753.313	21261.29
753.651	21338.58
753.989	21210.45
754.327	21223.33
754.666	21017.23
755.004	21217.45
755.342	21081.18
755.679	21039.83
756.017	20899.49
756.355	21022.88
756.693	20854.75
757.031	20861.98
757.368	20658.82
757.706	20689.78
758.044	20623.57
758.381	20608.2
758.719	20501.76
759.056	20504.02
759.394	20436.23
759.731	20339.96
760.068	20318.49
760.405	20133.41
760.743	20139.96
761.08	20203.47
761.417	20031.72
761.754	19932.74
762.091	19878.95
762.428	19985.84
762.765	19814.55
763.102	19785.4
763.438	19738.17
763.775	19689.58
764.112	19651.39
764.449	19655.23
764.785	19576.82
765.122	19393.09
765.458	19430.38
765.795	19331.17
766.131	19198.29
766.467	19217.96
766.804	19188.58
767.14	19120.1
767.476	18987.45
767.812	18928.47
768.148	19029.94
768.485	18865.42
768.821	18613.45
769.157	18707.23
769.492	18660.91
769.828	18635.82
770.164	18538.2
770.5	18485.09
770.836	18313.35
771.171	18332.55
771.507	18335.27
771.842	18153.58
772.178	18216.4
772.513	18168.04
772.849	18062.28
773.184	18018.89
773.519	17957.65
773.855	17894.37
774.19	17791.1
774.525	17675.17
774.86	17729.41
775.195	17653.25
775.53	17584.55
775.865	17483.54
776.2	17401.28
776.535	17226.37
776.87	17268.18
777.205	17211.68
777.539	17106.6
777.874	17141.85
778.209	16979.37
778.543	17017.11
778.878	16888.07
779.212	16860.05
779.547	16701.64
779.881	16772.14
780.215	16746.38
780.55	16670.45
780.884	16491.25
781.218	16583
781.552	16478.82
781.886	16339.61
782.22	16239.28
782.554	16298.03
782.888	16091.26
783.222	16064.37
783.556	15928.55
783.889	15917.7
784.223	15771.27
784.557	15757.26
784.89	15778.72
785.224	15687.65
785.557	15645.39
785.891	15636.81
786.224	15607.2
786.558	15549.58
786.891	15345.74
787.224	15404.72
787.557	15271.39
787.891	15356.59
788.224	15386.19
788.557	15286.31
788.89	15200.21
789.223	15190.49
789.556	15057.16
789.888	15060.55
790.221	15004.73
790.554	14752.76
790.887	14909.82
791.219	14794.34
791.552	14656.27
791.884	14736.49
792.217	14673.89
792.549	14622.14
792.882	14508.47
793.214	14477.51
793.546	14501.92
793.879	14408.82
794.211	14293.11
794.543	14317.97
794.875	14241.81
795.207	14301.7
795.539	14124.08
795.871	14079.79
796.203	14075.72
796.535	13958.66
796.867	14061.25
797.198	13847.02
797.53	13836.63
797.862	13755.95
798.193	13820.13
798.525	13678.67
798.856	13699.91
799.188	13475.73
799.519	13472.57
799.85	13430.54
800.182	13439.58
800.513	13508.27
800.844	13329.07
801.175	13496.07
801.506	13429.86
801.837	13320.94
802.168	13253.37
802.499	13234.61
802.83	13202.52
803.161	13151.67
803.491	13179.02
803.822	13067.83
804.153	13011.79
804.483	13024.45
804.814	12881.62
805.145	12894.96
805.475	12852.92
805.805	12878.23
806.136	12881.17
806.466	12817.45
806.796	12800.27
807.126	12671.01
807.457	12722.98
807.787	12635.3
808.117	12593.95
808.447	12581.97
808.777	12506.27
809.107	12470.34
809.436	12361.41
809.766	12435.53
810.096	12414.29
810.426	12309.89
810.755	12371.36
811.085	12327.97
811.414	12197.12
811.744	12194.64
812.073	12229.89
812.403	12093.62
812.732	12104.92
813.061	12066.05
813.39	12019.05
813.719	11945.83
814.049	12040.74
814.378	11964.59
814.707	11885.49
815.036	11884.59
815.365	11815.21
815.693	11774.31
816.022	11770.02
816.351	11692.28
816.68	11644.59
817.008	11672.39
817.337	11550.13
817.665	11583.13
817.994	11523.47
818.322	11528.89
818.651	11534.99
818.979	11560.53
819.307	11504.03
819.636	11510.81
819.964	11445.05
820.292	11436.92
820.62	11421.78
820.948	11384.71
821.276	11438.95
821.604	11397.6
821.932	11529.12
822.259	11508.78
822.587	11463.58
822.915	11477.37
823.243	11445.5
823.57	11357.14
823.898	11543.35
824.225	11386.52
824.553	11426.52
824.88	11377.48
825.207	11415.22
825.535	11395.11
825.862	11369.57
826.189	11413.19
826.516	11404.15
826.843	11438.72
827.17	11418.84
827.497	11407.54
827.824	11356.69
828.151	11417.93
828.478	11370.03
828.805	11375.45
829.131	11393.53
829.458	11314.89
829.785	11328.67
830.111	11332.96
830.438	11379.74
830.764	11377.26
831.09	11306.98
831.417	11345.17
831.743	11339.74
832.069	11291.61
832.395	11304.49
832.722	11279.18
833.048	11268.79
833.374	11245.28
833.7	11184.95
834.026	11225.17
834.351	11210.03
834.677	11199.63
835.003	11190.6
835.329	11265.85
835.654	11188.11
835.98	11202.35
836.306	11221.1
836.631	11101.78
836.956	11174.78
837.282	11175.91
837.607	11076.7
837.932	11057.27
838.258	10977.27
838.583	11049.13
838.908	11059.75
839.233	11081.9
839.558	11033.09
839.883	11042.12
840.208	10937.95
840.533	10989.24
840.858	10933.88
841.182	10966.87
841.507	10978.4
841.832	10907.67
842.156	10808.68
842.481	10871.51
842.805	10829.48
843.13	10906.08
843.454	10847.33
843.778	10773.66
844.103	10707.67
844.427	10674.22
844.751	10685.3
845.075	10689.59
845.399	10640.55
845.723	10602.81
846.047	10596.71
846.371	10569.14
846.695	10504.06
847.019	10489.37
847.343	10419.99
847.666	10385.42
847.99	10305.2
848.313	10262.03
848.637	10213.22
848.96	10141.81
849.284	10213.67
849.607	10033.11
849.931	10005.32
850.254	9968.48
850.577	9918.31
850.9	9860.01
851.223	9857.07
851.546	9753.12
851.869	9704.98
852.192	9783.4
852.515	9736.62
852.838	9668.83
853.161	9673.8
853.483	9617.08
853.806	9583.86
854.129	9547.25
854.451	9530.75
854.774	9507.48
855.096	9447.36
855.419	9459.12
855.741	9405.11
856.063	9353.36
856.385	9290.31
856.708	9337.09
857.03	9305.67
857.352	9340.7
857.674	9241.95
857.996	9259.8
858.318	9269.74
858.64	9193.36
858.961	9183.64
859.283	9123.53
859.605	9148.62
859.926	9144.77
860.248	9119.24
860.57	9036.08
860.891	9025.45
861.212	9035.85
861.534	8973.93
861.855	9007.38
862.176	9019.13
862.498	8978.68
862.819	8968.28
863.14	8890.32
863.461	8892.8
863.782	8814.61
864.103	8868.85
864.424	8848.06
864.745	8841.28
865.065	8800.6
865.386	8752.92
865.707	8798.34
866.027	8786.59
866.348	8752.24
866.668	8727.16
866.989	8716.31
867.309	8679.02
867.63	8690.1
867.95	8672.02
868.27	8618.01
868.59	8695.75
868.91	8636.31
869.23	8553.15
869.55	8512.25
869.87	8605.8
870.19	8549.08
870.51	8481.29
870.83	8550.89
871.15	8458.92
871.469	8499.82
871.789	8516.09
872.109	8504.34
872.428	8411.01
872.748	8479.03
873.067	8443.78
873.386	8381.63
873.706	8398.8
874.025	8343.66
874.344	8353.83
874.663	8363.78
874.982	8400.39
875.301	8295.98
875.62	8321.07
875.939	8345.25
876.258	8370.33
876.577	8278.36
876.896	8248.75
877.214	8245.36
877.533	8245.14
877.852	8203.56
878.17	8215.76
878.489	8268.41
878.807	8162.65
879.125	8167.85
879.444	8143.44
879.762	8173.95
880.08	8106.16
880.398	8100.73
880.716	8098.25
881.034	8123.11
881.352	8049.89
881.67	8047.63
881.988	8083.33
882.306	8048.76
882.624	7988.42
882.941	7972.83
883.259	7887.63
883.577	7958.14
883.894	7879.04
884.212	7866.39
884.529	7872.26
884.846	7935.77
885.164	7886.28
885.481	7816.22
885.798	7859.16
886.115	7787.52
886.432	7795.43
886.75	7781.19
887.067	7765.6
887.383	7698.26
887.7	7727.18
888.017	7764.25
888.334	7662.55
888.651	7609.9
888.967	7658.26
889.284	7598.37
889.6	7618.94
889.917	7474.54
890.233	7515.21
890.55	7444.48
890.866	7521.54
891.182	7493.74
891.498	7462.56
891.815	7451.48
892.131	7383.01
892.447	7355.44
892.763	7336.23
893.079	7380.07
893.395	7315.67
893.71	7314.09
894.026	7335.33
894.342	7293.07
894.657	7165.84
894.973	7208.1
895.289	7202.23
895.604	7212.4
895.92	7171.27
896.235	7119.52
896.55	7096.47
896.865	7093.53
897.181	7035.9
897.496	7022.8
897.811	6990.71
898.126	6960.2
898.441	6922.91
898.756	6924.72
899.071	6911.16
899.386	6913.42
899.7	6875.45
900.015	6853.08
900.33	6792.29
900.644	6804.5
900.959	6764.72
901.273	6745.74
901.588	6644.5
901.902	6632.52
902.216	6681.11
902.531	6665.29
902.845	6621.68
903.159	6593.88
903.473	6568.8
903.787	6526.99
904.101	6585.29
904.415	6522.02
904.729	6444.05
905.042	6430.49
905.356	6432.98
905.67	6450.16
905.984	6354.56
906.297	6379.65
906.611	6320.89
906.924	6307.11
907.237	6278.86
907.551	6304.17
907.864	6207.68
908.177	6281.12
908.491	6208.35
908.804	6182.37
909.117	6130.16
909.43	6117.96
909.743	6081.8
910.056	6092.65
910.368	6069.37
910.681	6019.66
910.994	6001.35
911.307	5988.02
911.619	5972.65
911.932	5956.38
912.244	5858.53
912.557	5874.58
912.869	5863.5
913.181	5831.41
913.494	5855.37
913.806	5807.91
914.118	5790.29
914.43	5748.7
914.742	5720.68
915.054	5722.04
915.366	5647.46
915.678	5686.79
915.99	5651.98
916.302	5573.79
916.613	5565.43
916.925	5560.69
917.236	5523.4
917.548	5535.15
917.859	5541.25
918.171	5495.15
918.482	5506.45
918.794	5458.77
919.105	5366.12
919.416	5347.36
919.727	5367.02
920.038	5352.33
920.349	5359.34
920.66	5318.43
920.971	5257.42
921.282	5262.84
921.593	5213.58
921.903	5152.56
922.214	5148.04
922.525	5164.31
922.835	5145.33
923.146	5125.44
923.456	5074.6
923.767	5085.67
924.077	5064.2
924.387	5064.43
924.697	5012
925.008	4986.92
925.318	4954.83
925.628	4946.69
925.938	4968.84
926.248	4889.97
926.558	4908.95
926.867	4892.46
927.177	4821.95
927.487	4826.92
927.796	4767.04
928.106	4774.04
928.416	4770.65
928.725	4749.86
929.034	4735.4
929.344	4699.24
929.653	4730.43
929.962	4680.71
930.271	4666.93
930.581	4687.49
930.89	4613.14
931.199	4604.1
931.508	4588.06
931.817	4553.26
932.125	4542.63
932.434	4501.96
932.743	4506.7
933.051	4469.87
933.36	4466.7
933.669	4405.46
933.977	4441.85
934.286	4414.73
934.594	4361.85
934.902	4368.85
935.21	4332.92
935.519	4314.62
935.827	4310.32
936.135	4289.76
936.443	4240.04
936.751	4250.44
937.059	4220.84
937.367	4197.11
937.674	4223.1
937.982	4238.69
938.29	4177.22
938.597	4176.99
938.905	4084.57
939.213	4107.84
939.52	4118.01
939.827	4117.11
940.135	4047.05
940.442	4061.07
940.749	4036.21
941.056	4024.46
941.363	4014.74
941.67	4002.99
941.977	3987.4
942.284	3951.01
942.591	4004.8
942.898	3925.7
943.205	3935.87
943.511	3911.69
943.818	3879.15
944.125	3850.9
944.431	3849.77
944.738	3869.21
945.044	3800.73
945.35	3833.27
945.657	3794.86
945.963	3767.06
946.269	3779.27
946.575	3763.22
946.881	3756.67
947.187	3723.9
947.493	3680.06
947.799	3698.14
948.105	3667.63
948.41	3678.02
948.716	3615.43
949.022	3645.26
949.327	3609.55
949.633	3587.63
949.938	3539.72
950.244	3614.52
950.549	3525.49
950.854	3516
951.16	3512.83
951.465	3530.91
951.77	3464.47
952.075	3468.76
952.38	3496.79
952.685	3468.31
952.99	3373.4
953.294	3435.55
953.599	3403.91
953.904	3379.28
954.209	3379.5
954.513	3360.74
954.818	3349.9
955.122	3287.07
955.426	3312.16
955.731	3313.29
956.035	3257.24
956.339	3306.51
956.643	3239.62
956.948	3244.36
957.252	3242.33
957.556	3217.92
957.86	3209.56
958.163	3165.27
958.467	3153.97
958.771	3177.7
959.075	3125.27
959.378	3145.16
959.682	3112.84
959.985	3141.09
960.289	3077.81
960.592	3048.66
960.896	3073.97
961.199	3031.71
961.502	3059.96
961.805	3012.73
962.108	2957.59
962.411	2975.44
962.714	3017.03
963.017	2984.71
963.32	2968.21
963.623	2958.95
963.926	2919.4
964.228	2906.29
964.531	2896.8
964.833	2919.17
965.136	2864.03
965.438	2864.94
965.741	2859.97
966.043	2828.33
966.345	2850.93
966.648	2830.82
966.95	2806.86
967.252	2802.79
967.554	2774.55
967.856	2785.62
968.158	2791.04
968.46	2785.84
968.761	2754.43
969.063	2782
969.365	2741.55
969.666	2699.75
969.968	2688.9
970.269	2662.01
970.571	2692.29
970.872	2687.99
971.174	2658.39
971.475	2656.13
971.776	2613.65
972.077	2616.36
972.378	2609.35
972.679	2605.74
972.98	2607.09
973.281	2564.83
973.582	2575.68
973.883	2566.64
974.183	2546.76
974.484	2549.69
974.785	2534.78
975.085	2540.2
975.386	2519.41
975.686	2513.54
975.986	2485.51
976.287	2472.41
976.587	2493.2
976.887	2434.44
977.187	2469.47
977.487	2472.41
977.787	2421.33
978.087	2415.01
978.387	2401.67
978.687	2420.88
978.987	2374.56
979.286	2362.35
979.586	2355.57
979.885	2337.5
980.185	2311.73
980.484	2292.75
980.784	2301.56
981.083	2280.55
981.382	2328.91
981.682	2291.85
981.981	2278.51
982.28	2248.68
982.579	2212.98
982.878	2240.55
983.177	2229.7
983.475	2186.76
983.774	2216.37
984.073	2221.57
984.372	2184.96
984.67	2206.88
984.969	2184.28
985.267	2184.96
985.566	2171.62
985.864	2144.73
986.162	2145.86
986.461	2135.24
986.759	2118.52
987.057	2106.31
987.355	2115.13
987.653	2071.97
987.951	2077.39
988.249	2070.84
988.547	2069.93
988.844	2049.59
989.142	2065.41
989.44	2052.53
989.737	2038.97
990.035	2022.25
990.332	2021.12
990.63	2023.15
990.927	1994.23
991.224	1993.32
991.521	1989.03
991.819	1987
992.116	1965.3
992.413	1946.54
992.71	1955.58
993.006	1940.67
993.303	1955.81
993.6	1915.36
993.897	1946.09
994.193	1902.03
994.49	1886.21
994.787	1878.07
995.083	1884.17
995.379	1871.07
995.676	1820.22
995.972	1870.61
996.268	1832.65
996.565	1843.5
996.861	1830.39
997.157	1819.32
997.453	1807.57
997.749	1800.56
998.044	1756.72
998.34	1755.59
998.636	1772.76
998.932	1735.7
999.227	1747.23
999.523	1732.77
999.818	1735.93
1000.114	1774.57
1000.409	1705.87
1000.704	1710.84
1001	1719.21
1001.295	1705.2
1001.59	1701.13
1001.885	1677.63
1002.18	1684.18
1002.475	1671.98
1002.77	1653.45
1003.065	1649.15
1003.359	1661.13
1003.654	1659.09
1003.949	1622.49
1004.243	1632.2
1004.538	1626.55
1004.832	1602.37
1005.127	1598.08
1005.421	1606.21
1005.715	1573.22
1006.009	1559.66
1006.304	1578.19
1006.598	1537.06
1006.892	1534.8
1007.186	1524.86
1007.48	1523.05
1007.773	1518.53
1008.067	1504.52
1008.361	1503.84
1008.655	1478.76
1008.948	1478.76
1009.242	1467.91
1009.535	1503.62
1009.829	1468.14
1010.122	1468.82
1010.415	1448.25
1010.708	1440.12
1011.001	1463.17
1011.295	1395.6
1011.588	1412.32
1011.881	1389.05
1012.173	1410.06
1012.466	1389.95
1012.759	1375.03
1013.052	1380.91
1013.344	1372.32
1013.637	1352.89
1013.93	1344.3
1014.222	1358.76
1014.514	1333
1014.807	1329.16
1015.099	1316.28
1015.391	1293.23
1015.683	1330.06
1015.976	1301.82
1016.268	1294.81
1016.56	1288.26
1016.851	1263.17
1017.143	1259.78
1017.435	1254.13
1017.727	1264.08
1018.018	1225.66
1018.31	1238.54
1018.602	1256.17
1018.893	1237.41
1019.185	1216.39
1019.476	1198.99
1019.767	1196.51
1020.058	1186.11
1020.35	1180.24
1020.641	1175.27
1020.932	1157.64
1021.223	1147.02
1021.514	1179.79
1021.804	1128.71
1022.095	1164.87
1022.386	1143.63
1022.677	1136.62
1022.967	1123.52
1023.258	1099.11
1023.548	1109.05
1023.839	1086.91
1024.129	1093.01
1024.419	1093.69
1024.709	1082.39
1025	1092.33
1025.29	1086.68
1025.58	1043.74
1025.87	1042.16
1026.16	1034.03
1026.449	1056.4
1026.739	1017.3
1027.029	1023.41
1027.319	1015.72
1027.608	1006.46
1027.898	1001.71
1028.187	984.99
1028.477	982.95
1028.766	970.53
1029.055	996.06
1029.344	992.9
1029.634	992.45
1029.923	956.97
1030.212	959.23
1030.501	963.07
1030.79	966.01
1031.078	977.76
1031.367	929.17
1031.656	941.83
1031.945	947.25
1032.233	908.61
1032.522	915.61
1032.81	918.55
1033.099	913.58
1033.387	900.24
1033.675	906.8
1033.963	889.17
1034.251	882.39
1034.54	841.26
1034.828	873.35
1035.116	876.06
1035.403	860.02
1035.691	872.45
1035.979	861.83
1036.267	842.85
1036.554	849.17
1036.842	845.78
1037.129	844.88
1037.417	843.07
1037.704	836.29
1037.992	837.87
1038.279	814.82
1038.566	815.28
1038.853	815.28
1039.14	815.28
