Data from foam_black_FLMS001491_00007.txt Node
Date: Wed Feb 08 10:43:25 GMT 2017
User: dcchb
Spectrometer: FLMS00149
Trigger mode: 0
Integration Time (sec): 2.000000E-2
Scans to average: 10
Electric dark correction enabled: true
Nonlinearity correction enabled: false
Boxcar width: 0
XAxis mode: Wavelengths
Number of Pixels in Spectrum: 2048
>>>>>Begin Spectral Data<<<<<
341.393	-0.96
341.776	-0.96
342.16	-0.96
342.543	-66.5
342.927	-77.57
343.31	-64.24
343.693	-75.08
344.077	-51.81
344.46	-58.59
344.843	-65.37
345.226	-32.6
345.61	-36.44
345.993	-38.7
346.376	-5.25
346.759	3.11
347.142	24.8
347.525	53.73
347.908	61.86
348.291	67.74
348.674	104.12
349.057	112.71
349.44	122.2
349.823	136.21
350.206	149.54
350.588	182.54
350.971	196.77
351.354	211.46
351.737	212.14
352.119	263.67
352.502	260.95
352.884	271.57
353.267	285.13
353.65	304.12
354.032	289.88
354.414	314.29
354.797	314.06
355.179	315.42
355.562	319.03
355.944	321.29
356.326	326.04
356.709	327.39
357.091	338.92
357.473	331.23
357.855	312.7
358.238	323.32
358.62	318.58
359.002	333.04
359.384	349.54
359.766	317
360.148	330.33
360.53	337.79
360.912	346.15
361.294	341.18
361.676	333.04
362.057	333.49
362.439	328.07
362.821	333.49
363.203	328.75
363.584	318.13
363.966	321.29
364.348	327.39
364.729	340.73
365.111	336.21
365.493	340.05
365.874	315.87
366.256	309.54
366.637	327.17
367.019	344.12
367.4	344.57
367.781	309.77
368.163	307.28
368.544	335.08
368.925	334.62
369.306	339.82
369.688	345.47
370.069	329.43
370.45	334.62
370.831	324.68
371.212	346.38
371.593	356.09
371.974	330.56
372.355	359.03
372.736	321.52
373.117	331.46
373.498	332.36
373.879	349.09
374.26	336.43
374.641	345.92
375.021	325.36
375.402	339.82
375.783	340.73
376.163	359.26
376.544	363.78
376.925	369.88
377.305	345.47
377.686	362.65
378.066	339.14
378.447	361.06
378.827	352.02
379.208	372.59
379.588	347.05
379.968	373.27
380.349	358.13
380.729	371.69
381.109	388.63
381.489	375.75
381.87	368.07
382.25	373.94
382.63	382.08
383.01	371.69
383.39	401.74
383.77	398.13
384.15	371.01
384.53	399.71
384.91	391.57
385.29	386.37
385.67	375.07
386.049	406.26
386.429	392.02
386.809	385.47
387.189	402.64
387.568	417.33
387.948	397
388.328	410.1
388.707	402.42
389.087	413.04
389.466	431.34
389.846	417.79
390.225	414.62
390.605	439.25
390.984	413.72
391.363	438.58
391.743	426.15
392.122	446.03
392.501	443.77
392.881	444.23
393.26	444.23
393.639	466.6
394.018	448.29
394.397	453.26
394.776	437.45
395.155	445.36
395.534	452.14
395.913	473.38
396.292	460.95
396.671	480.83
397.05	488.29
397.429	478.12
397.808	457.56
398.186	464.79
398.565	497.56
398.944	486.26
399.323	497.33
399.701	498.69
400.08	500.95
400.458	517.44
400.837	518.35
401.215	514.96
401.594	509.53
401.972	485.81
402.351	515.41
402.729	537.1
403.107	540.49
403.486	513.38
403.864	514.73
404.242	535.07
404.62	534.62
404.999	535.97
405.377	539.36
405.755	557.89
406.133	570.78
406.511	545.69
406.889	562.87
407.267	563.54
407.645	574.62
408.023	598.35
408.401	605.58
408.779	592.02
409.156	610.55
409.534	618.46
409.912	601.96
410.29	614.39
410.667	626.14
411.045	602.19
411.422	650.1
411.8	633.6
412.178	637.67
412.555	636.08
412.933	650.1
413.31	670.43
413.687	667.5
414.065	673.82
414.442	679.02
414.819	699.36
415.197	700.26
415.574	696.2
415.951	696.65
416.328	715.86
416.705	720.15
417.082	705.91
417.46	731.9
417.837	721.73
418.214	733.26
418.591	736.2
418.967	732.81
419.344	755.63
419.721	754.5
420.098	748.4
420.475	762.41
420.852	770.77
421.228	783.65
421.605	786.36
421.982	791.34
422.358	787.27
422.735	811
423.111	804.44
423.488	810.77
423.864	810.09
424.241	820.03
424.617	860.03
424.994	848.96
425.37	876.3
425.746	865.46
426.123	877.66
426.499	886.25
426.875	886.25
427.251	865.46
427.627	909.75
428.003	921.05
428.379	919.69
428.756	942.52
429.132	944.33
429.507	942.52
429.883	972.8
430.259	981.16
430.635	954.72
431.011	967.15
431.387	1009.86
431.763	1022.06
432.138	1027.49
432.514	1029.97
432.89	1038.33
433.265	1047.37
433.641	1082.4
434.016	1052.8
434.392	1091.44
434.767	1107.03
435.143	1078.11
435.518	1112.46
435.894	1130.54
436.269	1150.42
436.644	1145
437.02	1193.13
437.395	1166.47
437.77	1189.52
438.145	1176.64
438.52	1184.55
438.895	1227.71
439.271	1215.28
439.646	1248.27
440.021	1245.33
440.395	1250.08
440.77	1229.29
441.145	1234.49
441.52	1274.26
441.895	1265.22
442.27	1268.84
442.645	1276.29
443.019	1279.91
443.394	1272.9
443.769	1288.05
444.143	1274.71
444.518	1337.08
444.892	1283.75
445.267	1310.64
445.641	1346.8
446.016	1307.93
446.39	1356.29
446.764	1357.87
447.139	1351.77
447.513	1385.22
447.887	1420.25
448.262	1397.19
448.636	1400.81
449.01	1411.21
449.384	1417.53
449.758	1423.18
450.132	1414.6
450.506	1470.87
450.88	1474.26
451.254	1452.11
451.628	1500.7
452.002	1507.93
452.376	1495.95
452.75	1533.69
453.123	1524.88
453.497	1578.66
453.871	1552.9
454.244	1593.57
454.618	1622.73
454.992	1613.46
455.365	1614.14
455.739	1662.05
456.112	1673.35
456.486	1681.26
456.859	1708.83
457.232	1746.11
457.606	1730.29
457.979	1775.72
458.352	1777.98
458.725	1798.99
459.099	1831.53
459.472	1861.36
459.845	1832.89
460.218	1873.79
460.591	1907.46
460.964	1911.53
461.337	1944.3
461.71	1955.37
462.083	1973.68
462.456	1968.93
462.829	2003.51
463.201	2038.53
463.574	2026.1
463.947	2074.69
464.32	2108.36
464.692	2103.84
465.065	2090.74
465.438	2171.41
465.81	2140.9
466.183	2203.05
466.555	2237.62
466.928	2269.94
467.3	2258.87
467.672	2284.18
468.045	2347.23
468.417	2366.43
468.789	2379.77
469.161	2419.09
469.534	2426.32
469.906	2493.66
470.278	2484.4
470.65	2518.3
471.022	2568.46
471.394	2607.78
471.766	2642.13
472.138	2621.34
472.51	2701.34
472.882	2750.38
473.253	2783.6
473.625	2830.15
473.997	2858.4
474.369	2900.66
474.74	2913.31
475.112	2974.78
475.484	3019.53
475.855	3060.88
476.227	3078.05
476.598	3179.75
476.97	3188.56
477.341	3214.55
477.713	3330.48
478.084	3315.79
478.455	3441.21
478.827	3435.79
479.198	3583.58
479.569	3548.55
479.94	3621.32
480.311	3611.83
480.682	3694.08
481.053	3796.45
481.424	3857.24
481.795	3923.68
482.166	3941.76
482.537	3977.47
482.908	4042.55
483.279	4148.08
483.65	4153.28
484.021	4251.13
484.391	4290.9
484.762	4332.48
485.133	4340.17
485.503	4458.81
485.874	4516.89
486.244	4563.89
486.615	4650.67
486.985	4704.23
487.356	4743.32
487.726	4779.48
488.097	4914.62
488.467	4942.19
488.837	4990.32
489.207	5072.35
489.578	5047.72
489.948	5190.54
490.318	5249.97
490.688	5247.04
491.058	5364.1
491.428	5378.33
491.798	5449.97
492.168	5523.87
492.538	5587.37
492.908	5574.94
493.278	5679.57
493.648	5723.18
494.017	5750.07
494.387	5787.14
494.757	5865.1
495.126	5945.55
495.496	5955.27
495.866	5968.37
496.235	6090.18
496.605	6047.02
496.974	6073.91
497.344	6196.16
497.713	6264.64
498.082	6304.64
498.452	6356.16
498.821	6425.76
499.19	6418.53
499.559	6408.59
499.928	6476.84
500.298	6560.22
500.667	6596.38
501.036	6586.89
501.405	6679.54
501.774	6751.86
502.143	6695.81
502.512	6781.91
502.88	6848.35
503.249	6854.45
503.618	6954.11
503.987	6971.96
504.356	6984.39
504.724	7081.57
505.093	7106.2
505.462	7159.08
505.83	7185.74
506.199	7303.25
506.567	7324.72
506.936	7328.11
507.304	7415.12
507.672	7418.73
508.041	7501.44
508.409	7527.88
508.777	7585.28
509.145	7627.77
509.514	7648.33
509.882	7700.31
510.25	7753.64
510.618	7799.06
510.986	7870.02
511.354	7880.19
511.722	7966.51
512.09	8072.95
512.458	8037.7
512.826	8112.5
513.193	8146.4
513.561	8155.21
513.929	8258.71
514.297	8423.9
514.664	8425.03
515.032	8401.76
515.4	8517.23
515.767	8593.39
516.135	8610.34
516.502	8640.17
516.869	8757.23
517.237	8768.98
517.604	8736.89
517.972	8856.21
518.339	8915.87
518.706	8952.93
519.073	9025.69
519.44	9092.36
519.808	9227.72
520.175	9242.41
520.542	9307.27
520.909	9378
521.276	9350.21
521.643	9492.35
522.009	9578
522.376	9620.71
522.743	9694.38
523.11	9767.82
523.477	9868.16
523.843	9949.51
524.21	10052.56
524.577	10088.49
524.943	10184.08
525.31	10156.29
525.676	10331.2
526.043	10326.68
526.409	10387.24
526.776	10541.81
527.142	10559.44
527.508	10601.25
527.874	10736.61
528.241	10839.88
528.607	10810.96
528.973	10919.43
529.339	11079.43
529.705	11049.14
530.071	11153.55
530.437	11156.71
530.803	11253.66
531.169	11282.58
531.535	11361.9
531.901	11350.61
532.267	11458.4
532.632	11559.87
532.998	11537.95
533.364	11694.1
533.73	11734.1
534.095	11741.56
534.461	11803.25
534.826	11830.37
535.192	11904.94
535.557	11924.6
535.923	11997.14
536.288	12052.96
536.653	12169.79
537.019	12189
537.384	12152.62
537.749	12261.09
538.114	12326.17
538.479	12385.38
538.845	12422.22
539.21	12415.44
539.575	12458.6
539.94	12495.43
540.305	12638.48
540.67	12666.05
541.034	12612.49
541.399	12712.83
541.764	12759.83
542.129	12748.53
542.494	12903.11
542.858	12871.24
543.223	12911.69
543.587	13092.48
543.952	13044.35
544.316	13074.4
544.681	13118.69
545.045	13224.91
545.41	13211.8
545.774	13213.83
546.138	13280.95
546.503	13400.95
546.867	13414.73
547.231	13460.83
547.595	13466.48
547.959	13592.13
548.324	13580.15
548.688	13590.32
549.052	13684.78
549.416	13693.14
549.779	13718.45
550.143	13823.53
550.507	13866.92
550.871	13962.51
551.235	13965
551.599	14162.96
551.962	14110.08
552.326	14199.12
552.689	14305.33
553.053	14214.26
553.417	14234.82
553.78	14398.66
554.143	14415.16
554.507	14467.36
554.87	14475.04
555.234	14651.99
555.597	14488.83
555.96	14665.32
556.323	14770.85
556.686	14827.8
557.05	14937.63
557.413	14867.58
557.776	15052.66
558.139	15084.97
558.502	15065.31
558.865	15245.87
559.228	15260.33
559.59	15461.91
559.953	15378.52
560.316	15587.56
560.679	15531.06
561.041	15741.9
561.404	15826.19
561.767	15831.39
562.129	15869.36
562.492	16040.2
562.854	15976.25
563.217	15918.85
563.579	16089.92
563.941	16310.7
564.304	16278.61
564.666	16398.83
565.028	16397.25
565.39	16503.24
565.753	16594.76
566.115	16713.4
566.477	16613.29
566.839	16686.51
567.201	16903.23
567.563	16856.9
567.925	17061.19
568.287	16950.68
568.648	17065.03
569.01	17136.44
569.372	17237.68
569.734	17153.84
570.095	17344.8
570.457	17376.66
570.819	17377.11
571.18	17482.87
571.542	17528.3
571.903	17634.51
572.265	17755.63
572.626	17792.92
572.987	17777.1
573.349	17797.22
573.71	17887.38
574.071	17996.31
574.432	18057.77
574.794	18076.53
575.155	18093.71
575.516	18028.17
575.877	18161.05
576.238	18226.13
576.599	18249.86
576.96	18267.49
577.32	18287.6
577.681	18401.72
578.042	18434.04
578.403	18436.52
578.763	18437.65
579.124	18522.39
579.485	18494.37
579.845	18521.04
580.206	18522.39
580.566	18468.61
580.927	18486.69
581.287	18694.82
581.648	18441.27
582.008	18586.35
582.368	18586.12
582.728	18689.62
583.089	18548.16
583.449	18675.16
583.809	18630.64
584.169	18665.44
584.529	18601.94
584.889	18892.1
585.249	18661.83
585.609	18644.2
585.969	18811.65
586.329	18811.2
586.688	18704.99
587.048	18786.79
587.408	18750.86
587.768	18687.81
588.127	18790.64
588.487	18731.43
588.846	18910.41
589.206	18716.29
589.565	18819.34
589.925	18904.31
590.284	18876.74
590.643	18849.62
591.003	18969.84
591.362	18876.96
591.721	18992.89
592.08	18949.05
592.44	19017.97
592.799	19074.7
593.158	19031.08
593.517	19082.38
593.876	19047.35
594.235	19118.08
594.593	19076.96
594.952	19188.82
595.311	19042.15
595.67	19209.61
596.029	19260.45
596.387	19304.97
596.746	19175.48
597.104	19179.55
597.463	19275.82
597.822	19387
598.18	19245.77
598.538	19293.22
598.897	19423.39
599.255	19262.71
599.613	19602.82
599.972	19407.12
600.33	19443.73
600.688	19345.65
601.046	19616.15
601.404	19593.1
601.762	19531.18
602.12	19615.25
602.478	19562.14
602.836	19632.65
603.194	19492.99
603.552	19623.38
603.91	19463.39
604.268	19650.05
604.625	19598.52
604.983	19665.64
605.341	19545.19
605.698	19727.56
606.056	19659.54
606.413	19699.76
606.771	19741.8
607.128	19734.11
607.485	19624.51
607.843	19662.93
608.2	19714.23
608.557	19791.74
608.914	19687.11
609.272	19867.44
609.629	19828.57
609.986	19973.88
610.343	19793.77
610.7	19911.28
611.057	19888.69
611.414	19907.22
611.771	19975.92
612.127	20059.98
612.484	19965.75
612.841	20017.5
613.198	19936.37
613.554	19885.07
613.911	19985.41
614.267	19971.62
614.624	20003.94
614.98	19991.06
615.337	20213.65
615.693	20092.52
616.05	20041.68
616.406	20170.94
616.762	20156.7
617.118	20062.01
617.475	20162.58
617.831	20174.33
618.187	20190.37
618.543	20120.32
618.899	20196.02
619.255	20308.34
619.611	20284.38
619.967	20311.05
620.323	20304.49
620.678	20245.96
621.034	20095.69
621.39	20202.8
621.746	20038.51
622.101	20325.06
622.457	20186.76
622.812	20196.02
623.168	20299.07
623.523	20302.91
623.879	20248.22
624.234	20071.73
624.589	20263.59
624.945	20306.53
625.3	20252.97
625.655	20340.88
626.01	20248.68
626.365	20221.33
626.72	20124.84
627.075	20223.82
627.43	20198.06
627.785	20158.96
628.14	20128.23
628.495	20146.08
628.85	20141.79
629.205	19922.36
629.559	20156.93
629.914	20130.04
630.269	20144.05
630.623	20117.38
630.978	20054.11
631.332	20113.09
631.687	20055.91
632.041	20025.86
632.396	20122.58
632.75	19966.65
633.104	20077.83
633.459	19847.78
633.813	19861.34
634.167	19943.15
634.521	19808.91
634.875	19892.53
635.229	19722.36
635.583	19897.27
635.937	19789.71
636.291	19784.51
636.645	19762.36
636.999	19711.52
637.352	19786.32
637.706	19548.58
638.06	19694.34
638.413	19668.13
638.767	19617.73
639.121	19692.53
639.474	19555.81
639.828	19643.27
640.181	19546.32
640.534	19573.21
640.888	19496.61
641.241	19543.16
641.594	19553.55
641.947	19620.9
642.301	19457.74
642.654	19488.47
643.007	19596.72
643.36	19528.47
643.713	19477.4
644.066	19687.56
644.419	19427.23
644.771	19250.74
645.124	19109.72
645.477	19058.2
645.83	18942.95
646.182	18933.68
646.535	18866.11
646.888	19027.47
647.24	18850.97
647.593	18971.65
647.945	18907.92
648.298	18923.74
648.65	18831.54
649.002	18678.55
649.355	18711.32
649.707	18766.23
650.059	18885.55
650.411	18966
650.763	19150.63
651.115	19341.36
651.467	19227.91
651.819	19249.83
652.171	19136.39
652.523	19170.96
652.875	19109.05
653.227	18986.56
653.578	19142.72
653.93	19129.38
654.282	19001.7
654.633	19038.31
654.985	19041.02
655.337	19134.36
655.688	18962.61
656.039	19146.33
656.391	18870.63
656.742	19017.75
657.094	18834.48
657.445	19091.87
657.796	18905.44
658.147	18846.45
658.498	18948.15
658.849	18949.5
659.2	18876.74
659.551	18870.41
659.902	18905.66
660.253	18816.4
660.604	18932.78
660.955	18714.48
661.306	18890.75
661.656	18800.13
662.007	18834.7
662.358	18886.9
662.708	18830.18
663.059	18705.44
663.409	18714.93
663.76	18735.95
664.11	18711.77
664.461	18703.86
664.811	18696.18
665.161	18706.34
665.511	18689.17
665.862	18607.36
666.212	18654.14
666.562	18647.14
666.912	18569.17
667.262	18636.06
667.612	18604.88
667.962	18655.72
668.312	18548.83
668.662	18608.95
669.011	18553.13
669.361	18438.33
669.711	18508.61
670.06	18402.62
670.41	18373.25
670.76	18337.31
671.109	18423.41
671.459	18386.8
671.808	18256.41
672.157	18394.04
672.507	18156.53
672.856	18327.82
673.205	18177.09
673.554	18248.5
673.904	18273.36
674.253	18280.82
674.602	18254.83
674.951	17994.27
675.3	17749.08
675.649	18111.56
675.998	18007.38
676.346	18074.27
676.695	18154.27
677.044	17952.01
677.393	18101.39
677.741	18008.28
678.09	17900.26
678.438	17932.35
678.787	17922.41
679.135	17887.61
679.484	17898.91
679.832	17931.9
680.181	17772.58
680.529	17817.55
680.877	17712.25
681.225	17742.3
681.573	17860.26
681.922	17631.12
682.27	17614.17
682.618	17624.34
682.966	17579.14
683.314	17608.75
683.661	17564.91
684.009	17449.88
684.357	17420.05
684.705	17431.8
685.053	17460.05
685.4	17362.42
685.748	17287.17
686.095	17369.2
686.443	17223.67
686.79	17210.11
687.138	17203.78
687.485	17365.59
687.832	17146.16
688.18	17272.03
688.527	17151.81
688.874	17203.78
689.221	17090.12
689.568	17000.17
689.915	17045.82
690.262	17045.15
690.609	16970.12
690.956	16938.03
691.303	16893.06
691.65	16784.36
691.997	16842.89
692.344	16728.54
692.69	16739.84
693.037	16780.07
693.383	16546.18
693.73	16675.89
694.077	16569.68
694.423	16506.63
694.769	16475.22
695.116	16485.61
695.462	16434.31
695.808	16304.37
696.155	16421.88
696.501	16318.61
696.847	16328.1
697.193	16093.98
697.539	16211.49
697.885	16260.31
698.231	16118.84
698.577	16146.41
698.923	16081.78
699.269	16106.86
699.614	15943.93
699.96	15951.84
700.306	16008.11
700.651	15911.62
700.997	15880.2
701.342	15741
701.688	15796.14
702.033	15758.63
702.379	15820.77
702.724	15708.68
703.069	15764.27
703.415	15429.82
703.76	15488.12
704.105	15583.49
704.45	15531.29
704.795	15445.87
705.14	15420.78
705.485	15409.93
705.83	15341.69
706.175	15322.7
706.52	15312.31
706.865	15250.16
707.209	15229.6
707.554	15184.63
707.899	15162.03
708.243	15110.51
708.588	15069.83
708.932	15010.4
709.277	14969.49
709.621	14966.1
709.966	14907.57
710.31	14948.25
710.654	14760.69
710.998	14867.58
711.342	14798.42
711.687	14829.61
712.031	14742.61
712.375	14674.81
712.719	14691.31
713.063	14640.01
713.407	14705.55
713.75	14639.78
714.094	14558.43
714.438	14503.06
714.782	14637.98
715.125	14435.27
715.469	14460.81
715.812	14373.8
716.156	14226.24
716.499	14359.79
716.843	14369.06
717.186	14252.22
717.53	14419
717.873	14303.52
718.216	14390.53
718.559	14181.72
718.902	14090.42
719.246	14191.66
719.589	14092.68
719.932	14104.88
720.275	13974.49
720.617	13967.71
720.96	13939.69
721.303	13868.73
721.646	13907.37
721.989	13913.02
722.331	13920.26
722.674	13889.3
723.016	13839.13
723.359	13809.3
723.701	13868.05
724.044	13767.72
724.386	13644.33
724.729	13785.8
725.071	13699.7
725.413	13668.06
725.755	13630.09
726.097	13579.47
726.439	13570.21
726.782	13541.06
727.124	13595.74
727.465	13591.22
727.807	13470.78
728.149	13452.7
728.491	13486.14
728.833	13492.7
729.175	13380.38
729.516	13325.02
729.858	13359.82
730.199	13328.18
730.541	13309.42
730.882	13354.17
731.224	13272.14
731.565	13226.49
731.906	13145.13
732.248	13222.42
732.589	13118.69
732.93	13061.75
733.271	13145.36
733.612	13091.35
733.953	13093.84
734.294	13047.51
734.635	13031.69
734.976	13022.88
735.317	12968.19
735.658	12917.12
735.999	12987.17
736.339	12832.15
736.68	12959.38
737.021	12924.35
737.361	12891.58
737.702	12869.21
738.042	12787.86
738.383	12739.95
738.723	12751.02
739.063	12655.43
739.404	12711.47
739.744	12721.19
740.084	12598.03
740.424	12606.17
740.764	12621.08
741.104	12692.94
741.444	12585.15
741.784	12594.87
742.124	12519.61
742.464	12524.13
742.804	12424.93
743.143	12428.54
743.483	12453.18
743.823	12451.37
744.162	12277.59
744.502	12374.08
744.841	12363.91
745.181	12324.59
745.52	12343.8
745.86	12265.38
746.199	12243.24
746.538	12213.18
746.877	12297.7
747.216	12276.91
747.556	12208.21
747.895	12224.93
748.234	12178.15
748.573	12105.61
748.911	12098.61
749.25	12054.09
749.589	12026.75
749.928	12085.73
750.267	12116.46
750.605	12071.49
750.944	11968.67
751.283	11873.98
751.621	11927.99
751.96	11912.62
752.298	11832.4
752.636	11877.82
752.975	11777.49
753.313	11750.37
753.651	11838.05
753.989	11740.88
754.327	11660.2
754.666	11633.54
755.004	11624.72
755.342	11703.36
755.679	11668.79
756.017	11583.59
756.355	11554.89
756.693	11467.66
757.031	11485.29
757.368	11508.34
757.706	11504.5
758.044	11438.96
758.381	11433.99
758.719	11375.92
759.056	11345.63
759.394	11314.67
759.731	11236.48
760.068	11179.08
760.405	11143.83
760.743	11134.11
761.08	11185.86
761.417	11117.17
761.754	11082.14
762.091	11071.29
762.428	11051.63
762.765	10962.82
763.102	11029.03
763.438	10932.76
763.775	10886.89
764.112	10965.3
764.449	10908.58
764.785	10859.09
765.122	10844.4
765.458	10790.62
765.795	10776.16
766.131	10686.22
766.467	10696.61
766.804	10666.1
767.14	10550.17
767.476	10539.78
767.812	10529.61
768.148	10539.33
768.485	10543.17
768.821	10455.49
769.157	10483.51
769.492	10448.93
769.828	10425.66
770.164	10347.47
770.5	10281.26
770.836	10431.99
771.171	10267.02
771.507	10183.86
771.842	10174.59
772.178	10182.73
772.513	10183.63
772.849	10065.44
773.184	10013.69
773.519	10111.09
773.855	10041.94
774.19	9927.82
774.525	9943.86
774.86	9941.6
775.195	9952.45
775.53	9880.14
775.865	9893.47
776.2	9795.17
776.535	9710.87
776.87	9735.73
777.205	9716.52
777.539	9704.32
777.874	9721.04
778.209	9632.01
778.543	9632.46
778.878	9552.23
779.212	9543.65
779.547	9487.6
779.881	9570.77
780.215	9499.35
780.55	9445.8
780.884	9392.69
781.218	9347.72
781.552	9372.58
781.886	9316.53
782.22	9290.77
782.554	9278.8
782.888	9160.15
783.222	9199.25
783.556	9125.81
783.889	9151.79
784.223	9136.2
784.557	9022.76
784.89	9046.49
785.224	9016.2
785.557	9047.62
785.891	8913.38
786.224	8905.92
786.558	8918.13
786.891	8867.05
787.224	8801.75
787.557	8821.18
787.891	8829.99
788.224	8768.3
788.557	8777.57
788.89	8710.9
789.223	8702.99
789.556	8650.79
789.888	8645.59
790.221	8545.03
790.554	8493.73
790.887	8641.07
791.219	8510.91
791.552	8486.5
791.884	8449.66
792.217	8460.51
792.549	8391.59
792.882	8289.67
793.214	8249.22
793.546	8364.7
793.879	8246.51
794.211	8285.38
794.543	8284.92
794.875	8288.99
795.207	8168.54
795.539	8082.22
795.871	8114.98
796.203	8081.09
796.535	8071.6
796.867	8131.26
797.198	8012.84
797.53	8025.95
797.862	7941.43
798.193	7930.36
798.525	7929.68
798.856	7903.69
799.188	7899.4
799.519	7774.65
799.85	7794.77
800.182	7781.21
800.513	7719.06
800.844	7755.67
801.175	7672.51
801.506	7669.12
801.837	7660.31
802.168	7670.48
802.499	7610.14
802.83	7548.67
803.161	7549.8
803.491	7577.6
803.822	7485.4
804.153	7449.47
804.483	7425.06
804.814	7385.74
805.145	7313.42
805.475	7339.41
805.805	7289.92
806.136	7346.19
806.466	7356.59
806.796	7269.13
807.126	7230.26
807.457	7156.82
807.787	7165.63
808.117	7153.2
808.447	7161.34
808.777	7122.47
809.107	7126.76
809.436	7089.47
809.766	7061.45
810.096	7033.2
810.426	7025.52
810.755	7030.95
811.085	7001.12
811.414	6959.53
811.744	6906.88
812.073	6890.16
812.403	6874.11
812.732	6821.01
813.061	6870.5
813.39	6774
813.719	6809.93
814.049	6809.48
814.378	6760.44
814.707	6735.36
815.036	6767.9
815.365	6706.66
815.693	6617.85
816.022	6632.09
816.351	6588.24
816.68	6578.08
817.008	6611.52
817.337	6555.03
817.665	6524.07
817.994	6525.87
818.322	6548.7
818.651	6495.37
818.979	6501.02
819.307	6518.19
819.636	6477.29
819.964	6402.71
820.292	6449.49
820.62	6398.42
820.948	6423.73
821.276	6398.65
821.604	6378.76
821.932	6373.79
822.259	6423.05
822.587	6426.22
822.915	6390.96
823.243	6412.43
823.57	6400
823.898	6430.28
824.225	6299.44
824.553	6376.72
824.88	6342.83
825.207	6357.74
825.535	6338.53
825.862	6416.5
826.189	6334.47
826.516	6420.57
826.843	6409.04
827.17	6363.62
827.497	6389.15
827.824	6352.32
828.151	6344.64
828.478	6392.09
828.805	6379.44
829.131	6394.35
829.458	6344.41
829.785	6349.83
830.111	6399.55
830.438	6362.71
830.764	6291.08
831.09	6366.1
831.417	6336.27
831.743	6338.31
832.069	6350.51
832.395	6302.83
832.722	6340.57
833.048	6298.31
833.374	6325.2
833.7	6271.42
834.026	6323.39
834.351	6315.71
834.677	6289.95
835.003	6282.26
835.329	6337.18
835.654	6315.71
835.98	6303.73
836.306	6289.72
836.631	6252.43
836.956	6300.34
837.282	6279.55
837.607	6220.34
837.932	6219.22
838.258	6245.88
838.583	6195.03
838.908	6207.69
839.233	6240.68
839.558	6219.67
839.883	6187.58
840.208	6204.98
840.533	6171.53
840.858	6173.57
841.182	6136.73
841.507	6155.94
841.832	6136.96
842.156	6129.73
842.481	6112.33
842.805	6101.25
843.13	6089.27
843.454	6108.03
843.778	6039.78
844.103	6098.77
844.427	6019.22
844.751	5972.44
845.075	6002.95
845.399	5993.01
845.723	5990.52
846.047	5992.55
846.371	5979.9
846.695	6037.75
847.019	5958.2
847.343	5945.32
847.666	5890.41
847.99	5920.92
848.313	5872.56
848.637	5823.97
848.96	5806.12
849.284	5800.92
849.607	5758.44
849.931	5765.44
850.254	5730.87
850.577	5687.93
850.9	5646.57
851.223	5668.72
851.546	5664.43
851.869	5586.46
852.192	5606.35
852.515	5565.67
852.838	5600.47
853.161	5563.87
853.483	5533.13
853.806	5500.36
854.129	5551.21
854.451	5528.84
854.774	5530.87
855.096	5424.89
855.419	5486.13
855.741	5408.39
856.063	5420.59
856.385	5397.32
856.708	5406.58
857.03	5331.55
857.352	5373.59
857.674	5335.62
857.996	5320.71
858.318	5336.3
858.64	5346.47
858.961	5336.07
859.283	5254.72
859.605	5293.82
859.926	5282.29
860.248	5243.42
860.57	5234.83
860.891	5245
861.212	5247.49
861.534	5215.17
861.855	5249.97
862.176	5206.59
862.498	5184.89
862.819	5206.36
863.14	5189.86
863.461	5209.3
863.782	5197.77
864.103	5218.56
864.424	5155.51
864.745	5193.25
865.065	5119.13
865.386	5129.3
865.707	5113.71
866.027	5180.15
866.348	5088.17
866.668	5133.82
866.989	5062.64
867.309	5067.61
867.63	5102.63
867.95	5093.59
868.27	5052.24
868.59	5021.73
868.91	5042.3
869.23	5019.92
869.55	5011.11
869.87	5067.38
870.19	5025.12
870.51	5041.84
870.83	5033.26
871.15	4994.61
871.469	4982.19
871.789	4999.36
872.109	5020.6
872.428	4988.96
872.748	4997.55
873.067	4948.29
873.386	4948.74
873.706	4926.37
874.025	4915.29
874.344	4877.1
874.663	4869.65
874.982	4881.62
875.301	4932.92
875.62	4932.92
875.939	4907.39
876.258	4874.84
876.577	4877.56
876.896	4876.2
877.214	4874.39
877.533	4820.83
877.852	4825.13
878.17	4859.48
878.489	4830.78
878.807	4760.27
879.125	4805.69
879.444	4807.73
879.762	4804.11
880.08	4761.63
880.398	4751.23
880.716	4779.93
881.034	4746.71
881.352	4780.83
881.67	4749.65
881.988	4726.6
882.306	4717.56
882.624	4697.45
882.941	4701.06
883.259	4672.36
883.577	4670.56
883.894	4693.38
884.212	4649.54
884.529	4622.65
884.846	4597.11
885.164	4607.05
885.481	4597.11
885.798	4552.59
886.115	4556.43
886.432	4553.72
886.75	4530.67
887.067	4541.74
887.383	4572.7
887.7	4476.66
888.017	4516.66
888.334	4502.88
888.651	4491.8
888.967	4501.52
889.284	4434.4
889.6	4429.21
889.917	4404.35
890.233	4417.68
890.55	4373.61
890.866	4377.91
891.182	4381.3
891.498	4343.11
891.815	4382.43
892.131	4291.58
892.447	4327.06
892.763	4355.08
893.079	4312.82
893.395	4294.29
893.71	4191.47
894.026	4203.67
894.342	4227.4
894.657	4160.74
894.973	4229.44
895.289	4192.83
895.604	4237.57
895.92	4115.99
896.235	4108.76
896.55	4101.08
896.865	4132.49
897.181	4111.7
897.496	4053.4
897.811	4056.79
898.126	4052.27
898.441	4050.01
898.756	4037.58
899.071	3986.73
899.386	3986.28
899.7	3929.78
900.015	4000.06
900.33	3924.36
900.644	3916.45
900.959	3934.76
901.273	3896.11
901.588	3882.1
901.902	3871.25
902.216	3814.08
902.531	3789.9
902.845	3798.04
903.159	3812.5
903.473	3825.15
903.787	3816.34
904.101	3771.6
904.415	3730.01
904.729	3754.87
905.042	3752.61
905.356	3721.88
905.67	3659.51
905.984	3671.49
906.297	3672.84
906.611	3647.31
906.924	3641.88
907.237	3638.49
907.551	3597.59
907.864	3595.33
908.177	3560.08
908.491	3577.93
908.804	3572.73
909.117	3519.4
909.43	3488.44
909.743	3531.83
910.056	3501.77
910.368	3468.55
910.681	3452.06
910.994	3453.41
911.307	3431.72
911.619	3430.14
911.932	3412.96
912.244	3419.29
912.557	3399.85
912.869	3382
913.181	3374.32
913.494	3351.49
913.806	3300.2
914.118	3352.85
914.43	3342
914.742	3286.86
915.054	3253.19
915.366	3277.15
915.678	3307.65
915.99	3246.64
916.302	3240.76
916.613	3210.71
916.925	3221.78
917.236	3185.62
917.548	3186.3
917.859	3191.5
918.171	3198.96
918.482	3136.13
918.794	3136.13
919.105	3117.15
919.416	3085.29
919.727	3085.06
920.038	3075.12
920.349	3055.91
920.66	3027.89
920.971	3062.01
921.282	3015.23
921.593	3019.53
921.903	3024.95
922.214	2973.88
922.525	3000.77
922.835	3022.24
923.146	2955.35
923.456	2916.93
923.767	2942.01
924.077	2932.52
924.387	2935.69
924.697	2903.6
925.008	2885.74
925.318	2865.18
925.628	2874.9
925.938	2880.09
926.248	2848.68
926.558	2852.07
926.867	2830.38
927.177	2836.25
927.487	2820.66
927.796	2793.77
928.106	2751.74
928.416	2743.37
928.725	2752.19
929.034	2758.74
929.344	2723.94
929.653	2731.85
929.962	2710.61
930.271	2704.05
930.581	2672.87
930.89	2675.58
931.199	2698.18
931.508	2674
931.817	2656.14
932.125	2633.77
932.434	2694.56
932.743	2607.78
933.051	2590.61
933.36	2619.99
933.669	2541.57
933.977	2574.79
934.286	2572.08
934.594	2582.7
934.902	2549.71
935.21	2554.68
935.519	2574.11
935.827	2510.16
936.135	2522.59
936.443	2492.31
936.751	2440.56
937.059	2498.63
937.367	2485.75
937.674	2477.62
937.982	2459.77
938.29	2481.69
938.597	2445.75
938.905	2451.4
939.213	2393.55
939.52	2426.32
939.827	2411.18
940.135	2424.51
940.442	2399.88
940.749	2373.89
941.056	2387.9
941.363	2337.74
941.67	2334.35
941.977	2337.96
942.284	2354.91
942.591	2352.42
942.898	2314.23
943.205	2281.69
943.511	2293.89
943.818	2321.46
944.125	2288.7
944.431	2311.97
944.738	2297.96
945.044	2316.04
945.35	2268.36
945.657	2227.68
945.963	2270.84
946.269	2256.38
946.575	2252.77
946.881	2183.84
947.187	2223.61
947.493	2206.44
947.799	2192.2
948.105	2197.4
948.41	2177.06
948.716	2158.08
949.022	2179.55
949.327	2145.65
949.633	2154.92
949.938	2164.63
950.244	2129.15
950.549	2102.26
950.854	2131.86
951.16	2121.24
951.465	2093.67
951.77	2102.94
952.075	2072.66
952.38	2092.54
952.685	2057.52
952.99	2050.96
953.294	2055.03
953.599	2054.58
953.904	2040.12
954.209	2038.31
954.513	1999.44
954.818	2009.61
955.122	2013.68
955.426	2016.16
955.731	1950.17
956.035	1986.78
956.339	1999.21
956.643	1937.29
956.948	1961.02
957.252	1960.57
957.556	1963.28
957.86	1951.98
958.163	1926.9
958.467	1928.71
958.771	1952.89
959.075	1936.62
959.378	1934.36
959.682	1897.97
959.985	1904.3
960.289	1901.81
960.592	1881.7
960.896	1892.1
961.199	1865.43
961.502	1894.58
961.805	1857.97
962.108	1836.05
962.411	1850.29
962.714	1830.4
963.017	1858.88
963.32	1861.14
963.623	1834.7
963.926	1800.57
964.228	1779.33
964.531	1782.72
964.833	1787.02
965.136	1782.04
965.438	1768.71
965.741	1763.51
966.043	1781.14
966.345	1743.63
966.648	1789.73
966.95	1731.65
967.252	1765.55
967.554	1759.22
967.856	1712.89
968.158	1736.85
968.46	1682.16
968.761	1723.06
969.063	1655.72
969.365	1680.13
969.666	1683.97
969.968	1693.23
970.269	1664.08
970.571	1662.95
970.872	1676.06
971.174	1655.27
971.475	1677.87
971.776	1664.76
972.077	1644.42
972.378	1641.71
972.679	1632.22
972.98	1620.24
973.281	1633.57
973.582	1637.87
973.883	1609.84
974.183	1602.61
974.484	1620.24
974.785	1580.92
975.085	1577.3
975.386	1601.71
975.686	1580.92
975.986	1568.26
976.287	1564.65
976.587	1550.41
976.887	1536.17
977.187	1529.85
977.487	1536.4
977.787	1539.79
978.087	1526.01
978.387	1539.56
978.687	1534.59
978.987	1488.49
979.286	1504.76
979.586	1516.74
979.885	1529.62
980.185	1527.13
980.484	1476.29
980.784	1489.17
981.083	1463.18
981.382	1469.51
981.682	1455.95
981.981	1423.41
982.28	1432.9
982.579	1447.82
982.878	1422.96
983.177	1420.02
983.475	1431.09
983.774	1409.85
984.073	1381.83
984.372	1402.17
984.67	1412.34
984.969	1380.47
985.267	1416.86
985.566	1370.08
985.864	1366.46
986.162	1377.08
986.461	1383.64
986.759	1358.1
987.057	1363.98
987.355	1366.69
987.653	1342.28
987.951	1353.81
988.249	1341.83
988.547	1337.08
988.844	1318.1
989.142	1312.68
989.44	1320.36
989.737	1294.37
990.035	1306.8
990.332	1276.97
990.63	1300.25
990.927	1282.85
991.224	1254.15
991.521	1272.45
991.819	1257.76
992.116	1264.09
992.413	1262.06
992.71	1246.69
993.006	1248.5
993.303	1251.89
993.6	1246.69
993.897	1221.61
994.193	1238.1
994.49	1223.87
994.787	1234.94
995.083	1204.43
995.379	1201.04
995.676	1176.86
995.972	1229.06
996.268	1197.2
996.565	1173.47
996.861	1204.66
997.157	1204.66
997.453	1167.6
997.749	1164.21
998.044	1157.88
998.34	1171.44
998.636	1139.12
998.932	1126.02
999.227	1125.34
999.523	1092.8
999.818	1110.42
1000.114	1144.55
1000.409	1126.24
1000.704	1115.85
1001	1129.86
1001.295	1109.97
1001.59	1068.39
1001.885	1080.14
1002.18	1071.1
1002.475	1064.77
1002.77	1083.3
1003.065	1072.91
1003.359	1062.74
1003.654	1055.28
1003.949	1069.97
1004.243	1080.14
1004.538	1037.66
1004.832	1052.12
1005.127	1051.22
1005.421	1025
1005.715	1027.49
1006.009	1038.11
1006.304	1002.4
1006.598	1016.87
1006.892	994.49
1007.186	978.22
1007.48	997.43
1007.773	1000.82
1008.067	1022.52
1008.361	956.08
1008.655	952.46
1008.948	972.35
1009.242	942.97
1009.535	948.39
1009.829	973.48
1010.122	958.79
1010.415	943.65
1010.708	944.55
1011.001	931.22
1011.295	947.26
1011.588	928.05
1011.881	926.25
1012.173	930.54
1012.466	925.34
1012.759	895.97
1013.052	920.6
1013.344	883.08
1013.637	908.85
1013.93	865.23
1014.222	890.99
1014.514	882.41
1014.807	900.26
1015.099	873.82
1015.391	861.62
1015.683	854.84
1015.976	842.18
1016.268	858.68
1016.56	856.19
1016.851	823.42
1017.143	840.83
1017.435	833.59
1017.727	857.1
1018.018	818
1018.31	816.87
1018.602	813.71
1018.893	815.52
1019.185	800.15
1019.476	799.24
1019.767	799.92
1020.058	816.65
1020.35	805.8
1020.641	795.4
1020.932	783.65
1021.223	778.23
1021.514	777.55
1021.804	776.65
1022.095	761.51
1022.386	739.59
1022.677	773.26
1022.967	742.75
1023.258	769.19
1023.548	736.65
1023.839	746.82
1024.129	761.51
1024.419	760.15
1024.709	723.31
1025	742.3
1025.29	745.69
1025.58	703.88
1025.87	721.51
1026.16	737.55
1026.449	714.5
1026.739	697.78
1027.029	702.98
1027.319	694.39
1027.608	732.35
1027.898	675.63
1028.187	690.09
1028.477	688.96
1028.766	686.25
1029.055	666.59
1029.344	684.22
1029.634	669.3
1029.923	677.67
1030.212	664.11
1030.501	665.46
1030.79	639.25
1031.078	644.67
1031.367	639.93
1031.656	623.88
1031.945	618.01
1032.233	644.22
1032.522	651
1032.81	630.44
1033.099	645.35
1033.387	622.75
1033.675	622.75
1033.963	621.4
1034.251	613.71
1034.54	612.81
1034.828	620.72
1035.116	614.62
1035.403	602.64
1035.691	590.66
1035.979	599.7
1036.267	587.95
1036.554	601.51
1036.842	602.41
1037.129	610.77
1037.417	587.27
1037.704	609.64
1037.992	592.7
1038.279	597.22
1038.566	567.16
1038.853	567.16
1039.14	567.16
