Data from foam2_polystyrene_foam_FLMS001491_00072.txt Node
Date: Wed Feb 08 10:58:28 GMT 2017
User: dcchb
Spectrometer: FLMS00149
Trigger mode: 0
Integration Time (sec): 2.000000E-2
Scans to average: 10
Electric dark correction enabled: true
Nonlinearity correction enabled: false
Boxcar width: 0
XAxis mode: Wavelengths
Number of Pixels in Spectrum: 2048
>>>>>Begin Spectral Data<<<<<
341.393	-10.17
341.776	-10.17
342.16	-10.17
342.543	-35.71
342.927	-49.94
343.31	-90.17
343.693	-58.98
344.077	-80.22
344.46	-62.6
344.843	-42.03
345.226	-53.11
345.61	-35.71
345.993	-28.02
346.376	-0.68
346.759	24.18
347.142	17.17
347.525	53.56
347.908	66.66
348.291	86.33
348.674	90.17
349.057	113.44
349.44	132.88
349.823	149.15
350.206	158.19
350.588	201.8
350.971	222.37
351.354	241.12
351.737	260.11
352.119	272.99
352.502	276.83
352.884	298.52
353.267	305.53
353.65	293.55
354.032	325.42
354.414	325.64
354.797	342.36
355.179	343.04
355.562	336.94
355.944	339.2
356.326	349.14
356.709	367.67
357.091	356.83
357.473	375.13
357.855	357.73
358.238	380.1
358.62	358.63
359.002	382.81
359.384	384.4
359.766	380.1
360.148	374
360.53	383.49
360.912	351.86
361.294	372.19
361.676	371.29
362.057	375.36
362.439	380.55
362.821	352.99
363.203	364.96
363.584	351.4
363.966	357.28
364.348	383.94
364.729	371.97
365.111	354.57
365.493	369.48
365.874	362.48
366.256	352.76
366.637	345.3
367.019	371.06
367.4	372.87
367.781	360.67
368.163	371.97
368.544	347.11
368.925	359.99
369.306	368.35
369.688	365.41
370.069	365.87
370.45	359.09
370.831	366.54
371.212	381.01
371.593	366.32
371.974	375.13
372.355	373.32
372.736	361.35
373.117	386.88
373.498	362.7
373.879	395.24
374.26	374
374.641	375.81
375.021	376.94
375.402	388.92
375.783	391.85
376.163	402.48
376.544	426.43
376.925	397.96
377.305	414
377.686	397.5
378.066	415.81
378.447	404.28
378.827	419.42
379.208	410.38
379.588	431.63
379.968	424.62
380.349	419.2
380.729	437.73
381.109	444.51
381.489	421.01
381.87	442.93
382.25	456.26
382.63	419.42
383.01	453.1
383.39	469.59
383.77	486.09
384.15	462.81
384.53	457.84
384.91	461.68
385.29	452.42
385.67	468.69
386.049	472.53
386.429	484.96
386.809	479.08
387.189	502.13
387.568	484.73
387.948	491.74
388.328	510.27
388.707	500.33
389.087	517.05
389.466	516.37
389.846	491.51
390.225	516.6
390.605	520.89
390.984	530.61
391.363	519.31
391.743	537.39
392.122	526.09
392.501	544.17
392.881	562.47
393.26	568.8
393.639	555.69
394.018	588.23
394.397	561.57
394.776	574.67
395.155	604.5
395.534	590.72
395.913	560.89
396.292	625.29
396.671	606.31
397.05	596.14
397.429	616.71
397.808	607.89
398.186	633.66
398.565	611.28
398.944	620.32
399.323	640.89
399.701	644.73
400.08	655.8
400.458	675.01
400.837	655.58
401.215	668.91
401.594	639.98
401.972	665.75
402.351	675.91
402.729	671.39
403.107	707.55
403.486	692.19
403.864	705.52
404.242	699.64
404.62	718.85
404.999	735.35
405.377	735.12
405.755	745.52
406.133	752.52
406.511	746.87
406.889	787.55
407.267	776.48
407.645	768.57
408.023	804.72
408.401	793.2
408.779	799.08
409.156	835.46
409.534	811.96
409.912	832.97
410.29	879.98
410.667	854.67
411.045	874.55
411.422	869.13
411.8	888.79
412.178	890.82
412.555	895.8
412.933	915
413.31	931.27
413.687	937.83
414.065	955.68
414.442	963.36
414.819	974.66
415.197	981.44
415.574	980.99
415.951	994.55
416.328	1016.7
416.705	1012.63
417.082	1032.74
417.46	1042.91
417.837	1064.38
418.214	1075
418.591	1076.58
418.967	1082.46
419.344	1062.34
419.721	1100.76
420.098	1103.25
420.475	1136.02
420.852	1132.4
421.228	1133.3
421.605	1150.7
421.982	1149.12
422.358	1169.91
422.735	1182.12
423.111	1207.2
423.488	1209.23
423.864	1243.13
424.241	1211.95
424.617	1246.75
424.994	1270.7
425.37	1247.88
425.746	1280.19
426.123	1288.1
426.499	1297.14
426.875	1334.65
427.251	1354.31
427.627	1351.15
428.003	1373.52
428.379	1416.23
428.756	1397.7
429.132	1447.87
429.507	1467.53
429.883	1448.55
430.259	1489
430.635	1466.85
431.011	1511.37
431.387	1565.16
431.763	1591.6
432.138	1593.4
432.514	1603.57
432.89	1582.11
433.265	1658.04
433.641	1670.92
434.016	1693.29
434.392	1697.13
434.767	1742.1
435.143	1745.04
435.518	1781.2
435.894	1787.07
436.269	1844.7
436.644	1829.78
437.02	1844.25
437.395	1862.55
437.77	1882.89
438.145	1903.23
438.52	1919.27
438.895	1921.31
439.271	1951.81
439.646	2011.25
440.021	2014.64
440.395	2044.69
440.77	2043.56
441.145	2047.18
441.52	2065.26
441.895	2069.32
442.27	2082.43
442.645	2099.83
443.019	2158.14
443.394	2128.76
443.769	2178.7
444.143	2144.12
444.518	2211.92
444.892	2192.48
445.267	2213.28
445.641	2257.12
446.016	2264.35
446.39	2265.7
446.764	2304.57
447.139	2311.13
447.513	2330.79
447.887	2375.98
448.262	2385.02
448.636	2371.01
449.01	2428.41
449.384	2440.84
449.758	2455.53
450.132	2499.14
450.506	2517.22
450.88	2512.02
451.254	2524.23
451.628	2569.42
452.002	2561.29
452.376	2578.69
452.75	2661.4
453.123	2681.06
453.497	2665.47
453.871	2739.59
454.244	2736.88
454.618	2779.36
454.992	2822.3
455.365	2846.48
455.739	2904.1
456.112	2925.35
456.486	2941.39
456.859	2965.57
457.232	3034.72
457.606	2992.01
457.979	3081.73
458.352	3134.38
458.725	3153.59
459.099	3153.14
459.472	3239.24
459.845	3251.44
460.218	3282.4
460.591	3355.84
460.964	3315.62
461.337	3425.67
461.71	3460.02
462.083	3518.33
462.456	3517.65
462.829	3538.21
463.201	3590.19
463.574	3594.03
463.947	3635.38
464.32	3700.47
464.692	3771.43
465.065	3792.22
465.438	3824.31
465.81	3929.61
466.183	3966.22
466.555	4029.27
466.928	4060.46
467.3	4057.97
467.672	4101.36
468.045	4248.02
468.417	4255.03
468.789	4288.47
469.161	4298.42
469.534	4382.94
469.906	4499.32
470.278	4513.33
470.65	4595.13
471.022	4653.66
471.394	4749.93
471.766	4765.75
472.138	4845.3
472.51	4946.54
472.882	5013.2
473.253	5071.73
473.625	5130.94
473.997	5223.14
474.369	5285.96
474.74	5381.1
475.112	5443.92
475.484	5543.58
475.855	5598.04
476.227	5662.45
476.598	5833.74
476.97	5827.87
477.341	6054.08
477.713	6065.6
478.084	6131.36
478.455	6294.98
478.827	6365.03
479.198	6569.32
479.569	6536.78
479.94	6753.27
480.311	6755.3
480.682	6952.81
481.053	7058.8
481.424	7190.09
481.795	7258.79
482.166	7350.32
482.537	7444.1
482.908	7611.55
483.279	7746.69
483.65	7840.02
484.021	8025.78
484.391	8132.22
484.762	8139.67
485.133	8233.91
485.503	8371.31
485.874	8542.83
486.244	8576.95
486.615	8797.28
486.985	8922.25
487.356	9066.65
487.726	9052.19
488.097	9258.29
488.467	9320.88
488.837	9544.16
489.207	9637.49
489.578	9803.36
489.948	9880.19
490.318	10048.78
490.688	10029.34
491.058	10246.51
491.428	10371.48
491.798	10463.23
492.168	10655.99
492.538	10726.72
492.908	10851.01
493.278	10991.35
493.648	10988.41
494.017	11206.26
494.387	11288.06
494.757	11423.43
495.126	11446.48
495.496	11532.8
495.866	11738.67
496.235	11748.39
496.605	11871.78
496.974	11868.16
497.344	12056.41
497.713	12164.65
498.082	12271.32
498.452	12390.86
498.821	12396.74
499.19	12507.24
499.559	12672.89
499.928	12778.2
500.298	12847.35
500.667	13009.15
501.036	12966.21
501.405	13045.76
501.774	13140.22
502.143	13252.31
502.512	13316.71
502.88	13471.28
503.249	13554.45
503.618	13592.41
503.987	13655.69
504.356	13776.59
504.724	13854.32
505.093	13987.88
505.462	14029.46
505.83	14160.31
506.199	14233.98
506.567	14493.86
506.936	14538.83
507.304	14586.06
507.672	14654.76
508.041	14761.87
508.409	14920.29
508.777	15049.77
509.145	15139.71
509.514	15201.63
509.882	15277.56
510.25	15345.36
510.618	15542.19
510.986	15580.61
511.354	15761.85
511.722	15877.32
512.09	16087.94
512.458	16073.25
512.826	16237.31
513.193	16263.3
513.561	16301.04
513.929	16499.23
514.297	16665.78
514.664	16784.64
515.032	16870.52
515.4	17073.22
515.767	17147.35
516.135	17246.55
516.502	17178.31
516.869	17552.31
517.237	17577.16
517.604	17544.85
517.972	17895.8
518.339	17927.44
518.706	17965.63
519.073	18089.92
519.44	18244.04
519.808	18438.39
520.175	18469.12
520.542	18750.02
520.909	18834.31
521.276	18910.01
521.643	19080.4
522.009	19172.83
522.376	19289.44
522.743	19411.69
523.11	19680.84
523.477	19893.26
523.843	19952.92
524.21	20138.91
524.577	20314.95
524.943	20435.85
525.31	20544.54
525.676	20758.1
526.043	20956.06
526.409	21096.17
526.776	21238.09
527.142	21326.9
527.508	21497.74
527.874	21826.09
528.241	21812.53
528.607	21909.03
528.973	22095.92
529.339	22082.58
529.705	22392.41
530.071	22461.1
530.437	22683.25
530.803	22726.41
531.169	22879.17
531.535	22835.33
531.901	22933.18
532.267	23024.03
532.632	23276.45
532.998	23321.87
533.364	23636.89
533.73	23656.78
534.095	23908.3
534.461	23983.55
534.826	24096.77
535.192	24120.04
535.557	24292.69
535.923	24430.77
536.288	24551.67
536.653	24642.74
537.019	24615.17
537.384	24694.49
537.749	24948.5
538.114	25061.26
538.479	25026.91
538.845	25206.34
539.21	25100.13
539.575	25316.85
539.94	25288.37
540.305	25520.68
540.67	25450.4
541.034	25580.57
541.399	25827.8
541.764	25792.77
542.129	26015.14
542.494	25972.88
542.858	26087.9
543.223	26147.11
543.587	26446.99
543.952	26401.34
544.316	26470.94
544.681	26470.72
545.045	26672.97
545.41	26729.01
545.774	26921.78
546.138	26865.96
546.503	26994.09
546.867	26960.2
547.231	27271.83
547.595	27309.56
547.959	27359.28
548.324	27385.04
548.688	27475.89
549.052	27803.56
549.416	27775.09
549.779	27689.67
550.143	27888.98
550.507	28097.57
550.871	28148.19
551.235	28178.47
551.599	28238.58
551.962	28344.57
552.326	28471.12
552.689	28659.13
553.053	28549.08
553.417	28776.87
553.78	29059.35
554.143	29023.19
554.507	29163.08
554.87	29234.71
555.234	29609.84
555.597	29448.94
555.96	29411.43
556.323	29728.48
556.686	29766.22
557.05	30107.91
557.413	30129.15
557.776	30144.07
558.139	30394.91
558.502	30404.62
558.865	30546.09
559.228	30844.84
559.59	31045.74
559.953	30902.69
560.316	31297.26
560.679	31432.85
561.041	31521.88
561.404	31629.9
561.767	31773.18
562.129	31741.31
562.492	32046.16
562.854	32046.39
563.217	32041.42
563.579	32330.45
563.941	32608.63
564.304	32729.08
564.666	32910.1
565.028	32957.55
565.39	33097.43
565.753	33244.1
566.115	33398.67
566.477	33606.8
566.839	33681.37
567.201	33859.9
567.563	33913.23
567.925	34031.42
568.287	34195.03
568.648	34303.73
569.01	34442.26
569.372	34803.38
569.734	34634.8
570.095	35011.96
570.457	35127.44
570.819	35146.19
571.18	35127.89
571.542	35392.29
571.903	35453.76
572.265	35490.14
572.626	35452.63
572.987	35565.84
573.349	35638.16
573.71	35822.56
574.071	35954.53
574.432	36141.2
574.794	36281.98
575.155	36278.82
575.516	36249.22
575.877	36310.46
576.238	36251.7
576.599	36563.33
576.96	36639.71
577.32	36599.04
577.681	36726.27
578.042	36862.76
578.403	36825.92
578.763	36828.86
579.124	36829.77
579.485	36972.36
579.845	37180.49
580.206	37127.61
580.566	36977.11
580.927	37110.21
581.287	37374.38
581.648	37218
582.008	37373.25
582.368	37410.77
582.728	37357.21
583.089	37342.29
583.449	37359.7
583.809	37578.45
584.169	37509.75
584.529	37457.32
584.889	37655.51
585.249	37421.39
585.609	37380.71
585.969	37639.69
586.329	37365.57
586.688	37556.3
587.048	37493.03
587.408	37493.48
587.768	37440.15
588.127	37411.22
588.487	37322.41
588.846	37627.94
589.206	37274.73
589.565	37405.8
589.925	37670.65
590.284	37405.57
590.643	37622.29
591.003	37652.34
591.362	37765.11
591.721	37616.64
592.08	37644.21
592.44	37615.96
592.799	37660.48
593.158	37587.71
593.517	37542.97
593.876	37731.21
594.235	37619.35
594.593	37662.29
594.952	37820.93
595.311	37657.99
595.67	37689.63
596.029	38011.43
596.387	37865.67
596.746	38013.46
597.104	37823.86
597.463	37776.18
597.822	37977.76
598.18	37732.34
598.538	37723.53
598.897	37967.82
599.255	37710.65
599.613	38154.93
599.972	37903.86
600.33	37999.68
600.688	37921.49
601.046	38145.21
601.404	38167.58
601.762	38107.02
602.12	38399.22
602.478	38302.04
602.836	38382.27
603.194	38094.37
603.552	38246.23
603.91	38189.73
604.268	38390.85
604.625	38317.64
604.983	38476.05
605.341	38310.18
605.698	38543.85
606.056	38639.89
606.413	38626.33
606.771	38621.13
607.128	38642.37
607.485	38522.38
607.843	38572.55
608.2	38789.94
608.557	38910.62
608.914	38759.43
609.272	38907.45
609.629	38968.47
609.986	39137.73
610.343	38892.08
610.7	39300.44
611.057	39067
611.414	39075.13
611.771	39069.03
612.127	39316.25
612.484	39270.61
612.841	39314.67
613.198	39174.56
613.554	39194
613.911	39476.02
614.267	39396.93
614.624	39396.25
614.98	39422.69
615.337	39556.25
615.693	39532.07
616.05	39370.26
616.406	39711.72
616.762	39506.76
617.118	39505.18
617.475	39460.43
617.831	39854.55
618.187	39704.49
618.543	39885.05
618.899	39961.89
619.255	40019.51
619.611	40058.83
619.967	40012.96
620.323	40152.62
620.678	40071.26
621.034	39908.1
621.39	40111.49
621.746	39901.55
622.101	40462.89
622.457	40176.57
622.812	40104.93
623.168	40296.79
623.523	40175.21
623.879	40305.15
624.234	39988.33
624.589	40153.75
624.945	40063.13
625.3	40303.8
625.655	40100.19
626.01	40214.76
626.365	40252.5
626.72	40130.47
627.075	40124.82
627.43	40066.74
627.785	40053.41
628.14	40246.63
628.495	40108.32
628.85	40126.18
629.205	40073.3
629.559	40220.86
629.914	40040.53
630.269	39935.9
630.623	39911.04
630.978	39910.36
631.332	39989.23
631.687	40053.86
632.041	39887.76
632.396	39862.91
632.75	39836.24
633.104	39919.18
633.459	39628.79
633.813	39607.09
634.167	39639.64
634.521	39602.35
634.875	39660.65
635.229	39440.09
635.583	39395.57
635.937	39299.76
636.291	39155.81
636.645	39255.24
636.999	39148.8
637.352	39186.09
637.706	38870.84
638.06	39195.58
638.413	39039.88
638.767	38768.92
639.121	38859.77
639.474	38697.97
639.828	38688.02
640.181	38759.66
640.534	38629.94
640.888	38614.58
641.241	38362.61
641.594	38432.66
641.947	38481.7
642.301	38404.87
642.654	38361.03
643.007	38369.16
643.36	38364.19
643.713	38246.68
644.066	38389.27
644.419	38002.16
644.771	37927.36
645.124	37534.15
645.477	37407.83
645.83	37207.16
646.182	37060.27
646.535	36952.25
646.888	37073.6
647.24	36839.26
647.593	37056.43
647.945	36988.86
648.298	36724.91
648.65	36799.03
649.002	36565.37
649.355	36706.83
649.707	36513.62
650.059	36698.24
650.411	37205.35
650.763	37171.23
651.115	37665.68
651.467	37512.91
651.819	37523.99
652.171	37203.32
652.523	37300.26
652.875	37287.83
653.227	37138.23
653.578	37267.72
653.93	37225.69
654.282	37080.83
654.633	37099.59
654.985	37087.16
655.337	37041.29
655.688	37150.66
656.039	37296.42
656.391	36909.76
656.742	36838.13
657.094	36974.62
657.445	37108.18
657.796	36976.88
658.147	36919.03
658.498	36862.08
658.849	36833.83
659.2	36891.23
659.551	36665.25
659.902	36771.24
660.253	36772.82
660.604	36719.03
660.955	36465.71
661.306	36689.43
661.656	36664.8
662.007	36711.58
662.358	36731.01
662.708	36578.93
663.059	36545.93
663.409	36486.95
663.76	36720.16
664.11	36632.94
664.461	36665.7
664.811	36724.23
665.161	36720.62
665.511	36653.73
665.862	36665.93
666.212	36700.05
666.562	36772.37
666.912	36535.54
667.262	36592.48
667.612	36495.76
667.962	36456.22
668.312	36451.24
668.662	36583.67
669.011	36443.79
669.361	36399.72
669.711	36415.54
670.06	36354.98
670.41	36269.1
670.76	36227.3
671.109	36366.73
671.459	36251.7
671.808	36326.73
672.157	36353.39
672.507	36001.54
672.856	36080.63
673.205	36106.62
673.554	36263.68
673.904	36131.48
674.253	36138.26
674.602	35962.44
674.951	35444.27
675.3	35377.83
675.649	35913.63
675.998	36012.16
676.346	35987.3
676.695	35985.49
677.044	35718.16
677.393	35997.92
677.741	35942.11
678.09	35786.4
678.438	35738.72
678.787	35809.45
679.135	35776.23
679.484	35569.46
679.832	35790.25
680.181	35683.13
680.529	35439.52
680.877	35335.79
681.225	35433.42
681.573	35527.65
681.922	35262.58
682.27	35110.49
682.618	35224.84
682.966	35197.27
683.314	35189.36
683.661	35035.01
684.009	34984.84
684.357	34886.54
684.705	34766.09
685.053	34908.01
685.4	34703.04
685.748	34581.46
686.095	34648.58
686.443	34359.77
686.79	34480
687.138	34469.15
687.485	34403.16
687.832	34200
688.18	34127.92
688.527	34179.44
688.874	33959.79
689.221	33996.17
689.568	33843.4
689.915	33789.39
690.262	33842.5
690.609	33539.91
690.956	33521.38
691.303	33573.13
691.65	33416.75
691.997	33449.74
692.344	33191.67
692.69	33210.65
693.037	33137.89
693.383	33075.29
693.73	33004.56
694.077	32912.58
694.423	32824.9
694.769	32644.34
695.116	32641.63
695.462	32610.22
695.808	32497.9
696.155	32498.35
696.501	32276.67
696.847	32228.76
697.193	32085.48
697.539	32135.43
697.885	31876.9
698.231	31884.81
698.577	31943.79
698.923	31833.51
699.269	31638.94
699.614	31519.62
699.96	31638.72
700.306	31561.88
700.651	31307.43
700.997	31307.65
701.342	31116.7
701.688	31210.93
702.033	30968.45
702.379	30890.26
702.724	30847.1
703.069	30849.58
703.415	30509.25
703.76	30513.32
704.105	30642.13
704.45	30462.02
704.795	30361.24
705.14	30254.57
705.485	30162.82
705.83	30014.35
706.175	30090.28
706.52	29945.65
706.865	29923.51
707.209	29925.09
707.554	29781.14
707.899	29893
708.243	29686.45
708.588	29617.75
708.932	29374.82
709.277	29402.16
709.621	29355.61
709.966	29212.11
710.31	29260.93
710.654	29015.51
710.998	28962.18
711.342	29143.64
711.687	29029.52
712.031	28935.28
712.375	28732.35
712.719	28828.62
713.063	28726.7
713.407	28787.04
713.75	28608.51
714.094	28564.22
714.438	28391.8
714.782	28544.33
715.125	28305.92
715.469	28475.64
715.812	28261.18
716.156	28058.02
716.499	28125.36
716.843	28174.85
717.186	27967.85
717.53	27993.16
717.873	27937.34
718.216	27873.17
718.559	27776.22
718.902	27664.36
719.246	27678.14
719.589	27497.13
719.932	27294.88
720.275	27418.49
720.617	27425.72
720.96	27392.5
721.303	27291.26
721.646	27313.18
721.989	27082.68
722.331	27304.82
722.674	27220.08
723.016	27215.56
723.359	27079.51
723.701	27056.92
724.044	26911.16
724.386	26901.21
724.729	26922.23
725.071	26816.92
725.413	26828.22
725.755	26685.85
726.097	26666.19
726.439	26602.92
726.782	26628.45
727.124	26631.16
727.465	26596.36
727.807	26548.91
728.149	26540.09
728.491	26424.84
728.833	26355.92
729.175	26302.36
729.516	26215.36
729.858	26105.3
730.199	26211.51
730.541	26224.17
730.882	26136.26
731.224	26188.01
731.565	25976.72
731.906	25968.13
732.248	25865.31
732.589	25768.81
732.93	25741.24
733.271	25626.22
733.612	25719.1
733.953	25795.48
734.294	25598.65
734.635	25461.48
734.976	25577.63
735.317	25448.14
735.658	25437.07
735.999	25517.52
736.339	25362.72
736.68	25475.71
737.021	25289.28
737.361	25174.03
737.702	25250.64
738.042	25377.86
738.383	25178.55
738.723	25200.47
739.063	25104.88
739.404	25187.36
739.744	25091.54
740.084	25025.1
740.424	24926.58
740.764	24955.95
741.104	24921.15
741.444	24859.23
741.784	24759.35
742.124	24836.18
742.464	24760.7
742.804	24697.43
743.143	24661.27
743.483	24543.31
743.823	24525.68
744.162	24321.62
744.502	24539.24
744.841	24388.51
745.181	24529.75
745.52	24297.44
745.86	24383.77
746.199	24220.61
746.538	24320.04
746.877	24333.82
747.216	24345.8
747.556	24198.69
747.895	24204.79
748.234	24075.07
748.573	24044.79
748.911	24014.06
749.25	24067.84
749.589	23854.97
749.928	23876.21
750.267	23980.16
750.605	23759.6
750.944	23798.47
751.283	23633.5
751.621	23789.21
751.96	23552.15
752.298	23471.02
752.636	23645.03
752.975	23387.63
753.313	23366.17
753.651	23428.31
753.989	23238.03
754.327	23257.69
754.666	23150.35
755.004	23174.98
755.342	23053.86
755.679	23006.17
756.017	22853.64
756.355	22894.09
756.693	22884.6
757.031	22834.43
757.368	22673.53
757.706	22647.31
758.044	22531.61
758.381	22593.53
758.719	22490.03
759.056	22523.7
759.394	22384.27
759.731	22313.09
760.068	22223.82
760.405	22220.66
760.743	22170.94
761.08	22086.2
761.417	22066.09
761.754	21977.5
762.091	21803.95
762.428	21890.5
762.765	21703.16
763.102	21736.15
763.438	21714.46
763.775	21586.78
764.112	21493.9
764.449	21488.7
764.785	21365.54
765.122	21347.91
765.458	21198.76
765.795	21225.43
766.131	21133.68
766.467	21058.43
766.804	20979.56
767.14	20954.48
767.476	20897.08
767.812	20738.66
768.148	20595.62
768.485	20636.75
768.821	20505.45
769.157	20444.89
769.492	20387.71
769.828	20403.98
770.164	20127.15
770.5	20194.95
770.836	20236.76
771.171	19977.33
771.507	19987.5
771.842	19853.04
772.178	19880.61
772.513	19745.7
772.849	19674.51
773.184	19575.76
773.519	19618.24
773.855	19547.06
774.19	19399.49
774.525	19296.67
774.86	19345.71
775.195	19268.42
775.53	19245.82
775.865	19102.55
776.2	18958.82
776.535	18750.69
776.87	18867.53
777.205	18786.4
777.539	18791.14
777.874	18745.72
778.209	18616.69
778.543	18541.43
778.878	18485.62
779.212	18488.33
779.547	18389.8
779.881	18467.99
780.215	18286.75
780.55	18262.12
780.884	18204.95
781.218	18098.73
781.552	18071.16
781.886	17983.26
782.22	17969.7
782.554	17806.31
782.888	17665.98
783.222	17583.94
783.556	17588.01
783.889	17594.11
784.223	17316.83
784.557	17366.78
784.89	17391.18
785.224	17335.59
785.557	17091.08
785.891	17121.81
786.224	17002.94
786.558	17013.56
786.891	16823.51
787.224	16944.87
787.557	16880.69
787.891	16888.6
788.224	16750.07
788.557	16687.7
788.89	16554.14
789.223	16714.59
789.556	16414.03
789.888	16483.41
790.221	16429.62
790.554	16268.95
790.887	16365.9
791.219	16291.32
791.552	16148.05
791.884	16174.94
792.217	16082.97
792.549	16020.37
792.882	15959.13
793.214	15869.19
793.546	15936.98
793.879	15738.8
794.211	15696.08
794.543	15712.58
794.875	15685.69
795.207	15704.22
795.539	15541.51
795.871	15570.89
796.203	15490.89
796.535	15341.97
796.867	15333.83
797.198	15321.63
797.53	15294.06
797.862	15176.78
798.193	15246.38
798.525	15092.71
798.856	15097.91
799.188	14921.64
799.519	14933.62
799.85	14856.56
800.182	14866.05
800.513	14885.26
800.844	14697.47
801.175	14796.9
801.506	14758.26
801.837	14707.41
802.168	14626.51
802.499	14570.24
802.83	14471.94
803.161	14484.36
803.491	14383.12
803.822	14562.78
804.153	14362.11
804.483	14216.58
804.814	14267.42
805.145	14146.97
805.475	14092.28
805.805	14112.62
806.136	14090.48
806.466	14086.41
806.796	14077.6
807.126	13931.16
807.457	13869.69
807.787	13927.54
808.117	13834.44
808.447	13793.76
808.777	13781.56
809.107	13683.93
809.436	13745.4
809.766	13721.9
810.096	13561
810.426	13590.15
810.755	13641.45
811.085	13587.67
811.414	13543.6
811.744	13463.15
812.073	13418.86
812.403	13447.1
812.732	13274.45
813.061	13325.3
813.39	13263.15
813.719	13278.07
814.049	13282.36
814.378	13196.94
814.707	13197.39
815.036	13125.3
815.365	13127.11
815.693	13022.71
816.022	13052.09
816.351	12882.6
816.68	12872.66
817.008	12950.39
817.337	12836.5
817.665	12752.66
817.994	12846.44
818.322	12816.16
818.651	12761.47
818.979	12744.52
819.307	12741.81
819.636	12608.93
819.964	12627.92
820.292	12656.62
820.62	12668.82
820.948	12530.07
821.276	12665.2
821.604	12587.69
821.932	12605.32
822.259	12538.43
822.587	12502.72
822.915	12533
823.243	12574.36
823.57	12507.47
823.898	12547.24
824.225	12480.35
824.553	12455.04
824.88	12467.92
825.207	12452.78
825.535	12525.09
825.862	12435.83
826.189	12506.79
826.516	12540.69
826.843	12486.9
827.17	12573
827.497	12489.62
827.824	12581.36
828.151	12508.15
828.478	12540.91
828.805	12617.97
829.131	12453.01
829.458	12535.72
829.785	12455.04
830.111	12438.32
830.438	12544.75
830.764	12525.77
831.09	12557.86
831.417	12455.94
831.743	12461.82
832.069	12415.04
832.395	12455.04
832.722	12432.89
833.048	12422.5
833.374	12460.69
833.7	12385.66
834.026	12478.54
834.351	12471.99
834.677	12428.83
835.003	12339.79
835.329	12319.22
835.654	12332.78
835.98	12206.01
836.306	12376.4
836.631	12279.9
836.956	12279.9
837.282	12344.53
837.607	12192
837.932	12180.02
838.258	12171.88
838.583	12139.79
838.908	11989.74
839.233	12114.71
839.558	12066.8
839.883	11956.97
840.208	11980.25
840.533	11976.18
840.858	12043.98
841.182	11960.59
841.507	11862.96
841.832	11891.66
842.156	11865.22
842.481	11815.96
842.805	11809.86
843.13	11740.93
843.454	11794.04
843.778	11772.57
844.103	11753.82
844.427	11678.79
844.751	11726.25
845.075	11658.22
845.399	11613.03
845.723	11570.32
846.047	11648.28
846.371	11400.83
846.695	11507.04
847.019	11353.83
847.343	11375.52
847.666	11260.72
847.99	11220.5
848.313	11198.8
848.637	11146.37
848.96	11125.36
849.284	11088.75
849.607	10966.72
849.931	11001.52
850.254	10846.04
850.577	10804.69
850.9	10772.6
851.223	10788.42
851.546	10765.14
851.869	10642.88
852.192	10704.8
852.515	10633.84
852.838	10586.61
853.161	10585.71
853.483	10526.73
853.806	10501.64
854.129	10480.18
854.451	10493.96
854.774	10396.34
855.096	10345.26
855.419	10313.63
855.741	10291.03
856.063	10229.34
856.385	10303.91
856.708	10247.87
857.03	10161.31
857.352	10112.05
857.674	10147.98
857.996	10053.52
858.318	10041.32
858.64	10066.63
858.961	9962.45
859.283	10019.85
859.605	9940.53
859.926	10005.16
860.248	9852.85
860.57	9851.27
860.891	9860.31
861.212	9823.92
861.534	9788.22
861.855	9770.82
862.176	9751.16
862.498	9754.55
862.819	9797.03
863.14	9680.2
863.461	9639.52
863.782	9589.8
864.103	9595.23
864.424	9577.6
864.745	9617.15
865.065	9580.31
865.386	9465.97
865.707	9533.99
866.027	9611.05
866.348	9541.9
866.668	9583.25
866.989	9517.49
867.309	9465.51
867.63	9508.9
867.95	9473.65
868.27	9499.19
868.59	9324.95
868.91	9355.46
869.23	9375.8
869.55	9351.62
869.87	9400.66
870.19	9294.44
870.51	9317.72
870.83	9295.57
871.15	9271.85
871.469	9248.8
871.789	9235.01
872.109	9292.19
872.428	9174.67
872.748	9264.62
873.067	9198.63
873.386	9150.27
873.706	9110.95
874.025	9154.34
874.344	9127.67
874.663	9169.02
874.982	9041.34
875.301	9121.12
875.62	8999.31
875.939	9073.21
876.258	9026.88
876.577	8994.34
876.896	8990.72
877.214	8984.85
877.533	8936.49
877.852	8901.46
878.17	8930.16
878.489	8975.13
878.807	8986.2
879.125	8890.84
879.444	8865.98
879.762	8866.66
880.08	8837.51
880.398	8806.77
880.716	8860.11
881.034	8813.55
881.352	8831.63
881.67	8818.75
881.988	8822.59
882.306	8725.19
882.624	8677.29
882.941	8758.64
883.259	8600.9
883.577	8637.74
883.894	8599.1
884.212	8574.92
884.529	8583.96
884.846	8598.19
885.164	8551.87
885.481	8510.06
885.798	8511.41
886.115	8467.35
886.432	8489.72
886.75	8451.3
887.067	8409.5
887.383	8385.54
887.7	8407.01
888.017	8359.78
888.334	8320.91
888.651	8384.41
888.967	8321.82
889.284	8314.36
889.6	8238.2
889.917	8201.82
890.233	8231.87
890.55	8152.55
890.866	8174.47
891.182	8166.56
891.498	8101.26
891.815	8117.07
892.131	8132.89
892.447	8024.2
892.763	8024.42
893.079	7998.66
893.395	7971.09
893.71	7922.73
894.026	7954.82
894.342	7874.14
894.657	7871.21
894.973	7888.38
895.289	7856.29
895.604	7821.94
895.92	7765.45
896.235	7780.13
896.55	7759.8
896.865	7708.27
897.181	7697.88
897.496	7724.09
897.811	7647.26
898.126	7607.94
898.441	7529.75
898.756	7590.53
899.071	7549.18
899.386	7462.85
899.7	7463.08
900.015	7487.49
900.33	7334.5
900.644	7400.71
900.959	7402.52
901.273	7362.07
901.588	7316.19
901.902	7285.91
902.216	7276.64
902.531	7223.09
902.845	7231.22
903.159	7173.14
903.473	7162.75
903.787	7115.29
904.101	7088.4
904.415	7115.97
904.729	7056.76
905.042	7004.34
905.356	7010.66
905.67	6951.23
905.984	6940.16
906.297	6924.79
906.611	6986.71
906.924	6917.33
907.237	6897.22
907.551	6821.29
907.864	6800.95
908.177	6817.22
908.491	6777.9
908.804	6771.57
909.117	6736.32
909.43	6677.11
909.743	6671.24
910.056	6641.41
910.368	6575.19
910.681	6560.28
910.994	6593.72
911.307	6490.68
911.619	6461.3
911.932	6488.19
912.244	6431.7
912.557	6394.41
912.869	6386.95
913.181	6390.57
913.494	6343.34
913.806	6319.83
914.118	6304.24
914.43	6301.08
914.742	6240.29
915.054	6235.99
915.366	6228.76
915.678	6211.59
915.99	6164.13
916.302	6112.61
916.613	6061.08
916.925	6070.57
917.236	6058.15
917.548	6011.14
917.859	6004.81
918.171	6010.01
918.482	5947.64
918.794	5945.61
919.105	5954.19
919.416	5858.15
919.727	5836
920.038	5878.94
920.349	5772.73
920.66	5781.99
920.971	5747.42
921.282	5723.69
921.593	5685.5
921.903	5672.85
922.214	5653.86
922.525	5667.2
922.835	5604.6
923.146	5576.58
923.456	5579.74
923.767	5508.33
924.077	5540.19
924.387	5491.83
924.697	5445.73
925.008	5450.7
925.318	5391.95
925.628	5399.41
925.938	5368.45
926.248	5264.72
926.558	5343.14
926.867	5258.17
927.177	5313.53
927.487	5225.63
927.796	5215.46
928.106	5225.63
928.416	5196.7
928.725	5168.45
929.034	5137.04
929.344	5131.62
929.653	5130.94
929.962	5090.26
930.271	5077.83
930.581	5036.03
930.89	4995.57
931.199	5004.16
931.508	5013.65
931.817	4964.62
932.125	4915.35
932.434	4949.02
932.743	4848.46
933.051	4860.44
933.36	4841
933.669	4811.4
933.977	4839.87
934.286	4778.86
934.594	4779.08
934.902	4726.2
935.21	4709.25
935.519	4681.23
935.827	4670.39
936.135	4666.77
936.443	4631.97
936.751	4638.52
937.059	4605.75
937.367	4603.04
937.674	4575.7
937.982	4557.39
938.29	4574.34
938.597	4551.29
938.905	4491.18
939.213	4493.67
939.52	4439.88
939.827	4452.76
940.135	4435.36
940.442	4393.33
940.749	4416.16
941.056	4396.72
941.363	4393.56
941.67	4318.53
941.977	4331.86
942.284	4278.31
942.591	4250.28
942.898	4218.42
943.205	4266.33
943.511	4233.56
943.818	4212.54
944.125	4201.7
944.431	4192.21
944.738	4149.27
945.044	4171.64
945.35	4083.73
945.657	4081.25
945.963	4113.34
946.269	4043.74
946.575	4038.54
946.881	4021.36
947.187	4056.62
947.493	3984.75
947.799	3983.17
948.105	3959.22
948.41	3947.69
948.716	3961.03
949.022	3935.04
949.327	3944.98
949.633	3902.5
949.938	3873.34
950.244	3859.11
950.549	3853.23
950.854	3834.25
951.16	3835.83
951.465	3789.96
951.77	3780.69
952.075	3719
952.38	3750.86
952.685	3752.9
952.99	3679
953.294	3683.97
953.599	3671.32
953.904	3636.51
954.209	3618.21
954.513	3633.8
954.818	3565.56
955.122	3569.85
955.426	3582.05
955.731	3533.47
956.035	3535.5
956.339	3523.52
956.643	3495.05
956.948	3473.58
957.252	3466.8
957.556	3465.22
957.86	3487.82
958.163	3478.1
958.467	3444.43
958.771	3443.07
959.075	3414.6
959.378	3417.31
959.682	3390.19
959.985	3394.49
960.289	3359.91
960.592	3333.02
960.896	3334.15
961.199	3305.9
961.502	3286.02
961.805	3287.82
962.108	3260.93
962.411	3264.77
962.714	3249.86
963.017	3231.55
963.32	3228.62
963.623	3223.64
963.926	3233.81
964.228	3165.79
964.531	3152.01
964.833	3151.33
965.136	3168.05
965.438	3126.47
965.741	3098.68
966.043	3101.61
966.345	3079.02
966.648	3059.35
966.95	3041.05
967.252	3058
967.554	3026.36
967.856	3010.54
968.158	2984.55
968.46	2982.52
968.761	2964.44
969.063	2984.1
969.365	2930.77
969.666	2933.48
969.968	2904.1
970.269	2940.71
970.571	2886.48
970.872	2897.78
971.174	2872.24
971.475	2874.95
971.776	2841.73
972.077	2827.95
972.378	2822.07
972.679	2832.24
972.98	2795.63
973.281	2798.8
973.582	2800.15
973.883	2764.67
974.183	2752.7
974.484	2764.22
974.785	2738.46
975.085	2745.92
975.386	2708.4
975.686	2688.52
975.986	2683.77
976.287	2681.51
976.587	2655.07
976.887	2630.21
977.187	2628.41
977.487	2632.02
977.787	2599.25
978.087	2643.09
978.387	2595.41
978.687	2583.21
978.987	2591.8
979.286	2558.35
979.586	2534.62
979.885	2518.8
980.185	2504.11
980.484	2494.4
980.784	2497.34
981.083	2468.18
981.382	2502.76
981.682	2469.77
981.981	2466.38
982.28	2408.07
982.579	2397.23
982.878	2432.93
983.177	2411.01
983.475	2420.73
983.774	2400.39
984.073	2382.08
984.372	2388.19
984.67	2377.34
984.969	2373.04
985.267	2324.91
985.566	2330.79
985.864	2329.2
986.162	2337.57
986.461	2286.04
986.759	2294.85
987.057	2284.91
987.355	2278.36
987.653	2289.66
987.951	2253.95
988.249	2232.48
988.547	2216.66
988.844	2234.97
989.142	2197.91
989.44	2197.68
989.737	2195.2
990.035	2181.41
990.332	2192.26
990.63	2142.99
990.927	2154.29
991.224	2123.56
991.521	2135.31
991.819	2114.07
992.116	2158.36
992.413	2111.81
992.71	2111.81
993.006	2077.01
993.303	2065.71
993.6	2075.88
993.897	2060.74
994.193	2067.74
994.49	2034.3
994.787	2057.35
995.083	2053.28
995.379	2031.81
995.676	2023
995.972	2024.58
996.268	1991.13
996.565	1985.94
996.861	1967.18
997.157	1988.65
997.453	1948.65
997.749	1959.04
998.044	1946.39
998.34	1929.67
998.636	1932.38
998.932	1903.45
999.227	1889.89
999.523	1907.07
999.818	1876.79
1000.114	1909.55
1000.409	1860.52
1000.704	1841.31
1001	1854.64
1001.295	1820.07
1001.59	1805.38
1001.885	1844.47
1002.18	1761.99
1002.475	1797.01
1002.77	1791.82
1003.065	1781.87
1003.359	1795.43
1003.654	1774.42
1003.949	1775.32
1004.243	1751.59
1004.538	1726.51
1004.832	1733.06
1005.127	1744.36
1005.421	1679.73
1005.715	1704.14
1006.009	1687.41
1006.304	1693.74
1006.598	1655.55
1006.892	1662.1
1007.186	1679.5
1007.48	1674.08
1007.773	1636.57
1008.067	1636.57
1008.361	1600.41
1008.655	1622.56
1008.948	1609.9
1009.242	1604.03
1009.535	1589.34
1009.829	1584.14
1010.122	1557.93
1010.415	1557.02
1010.708	1539.17
1011.001	1539.17
1011.295	1525.84
1011.588	1536
1011.881	1490.58
1012.173	1491.71
1012.466	1487.19
1012.759	1500.3
1013.052	1466.63
1013.344	1468.66
1013.637	1455.78
1013.93	1457.81
1014.222	1454.43
1014.514	1420.3
1014.807	1430.7
1015.099	1438.38
1015.391	1417.14
1015.683	1406.29
1015.976	1413.3
1016.268	1386.86
1016.56	1380.08
1016.851	1357.7
1017.143	1380.3
1017.435	1361.77
1017.727	1355.22
1018.018	1363.81
1018.31	1312.96
1018.602	1305.73
1018.893	1304.6
1019.185	1322.45
1019.476	1283.13
1019.767	1284.71
1020.058	1269.57
1020.35	1242.45
1020.641	1270.93
1020.932	1260.98
1021.223	1253.98
1021.514	1265.5
1021.804	1206.07
1022.095	1245.84
1022.386	1216.24
1022.677	1221.89
1022.967	1200.19
1023.258	1194.77
1023.548	1222.11
1023.839	1202.23
1024.129	1193.64
1024.419	1161.1
1024.709	1180.76
1025	1171.95
1025.29	1161.78
1025.58	1141.89
1025.87	1155.9
1026.16	1117.48
1026.449	1143.25
1026.739	1101.21
1027.029	1099.18
1027.319	1080.88
1027.608	1110.48
1027.898	1065.96
1028.187	1085.17
1028.477	1064.15
1028.766	1079.07
1029.055	1043.81
1029.344	1049.24
1029.634	1027.77
1029.923	1010.59
1030.212	1029.58
1030.501	1044.04
1030.79	1038.39
1031.078	1021.44
1031.367	1021.22
1031.656	1020.54
1031.945	994.1
1032.233	993.87
1032.522	969.24
1032.81	976.02
1033.099	983.25
1033.387	960.88
1033.675	952.52
1033.963	960.88
1034.251	938.73
1034.54	964.49
1034.828	924.72
1035.116	956.59
1035.403	922.46
1035.691	926.3
1035.979	915.68
1036.267	901.67
1036.554	911.61
1036.842	920.43
1037.129	878.17
1037.417	860.77
1037.704	898.06
1037.992	885.85
1038.279	877.72
1038.566	845.63
1038.853	845.63
1039.14	845.63
