Data from foam_black_FLMS001491_00096.txt Node
Date: Wed Feb 08 10:45:05 GMT 2017
User: dcchb
Spectrometer: FLMS00149
Trigger mode: 0
Integration Time (sec): 2.000000E-2
Scans to average: 10
Electric dark correction enabled: true
Nonlinearity correction enabled: false
Boxcar width: 0
XAxis mode: Wavelengths
Number of Pixels in Spectrum: 2048
>>>>>Begin Spectral Data<<<<<
341.393	-11.41
341.776	-11.41
342.16	-11.41
342.543	-40.56
342.927	-62.48
343.31	-70.17
343.693	-73.78
344.077	-56.83
344.46	-66.33
344.843	-47.8
345.226	-42.6
345.61	-37.17
345.993	-21.36
346.376	-1.24
346.759	6.89
347.142	14.58
347.525	44.86
347.908	66.33
348.291	81.69
348.674	99.09
349.057	103.84
349.44	129.38
349.823	130.73
350.206	166.66
350.588	170.5
350.971	181.58
351.354	212.54
351.737	212.08
352.119	232.2
352.502	236.26
352.884	240.78
353.267	259.32
353.65	263.38
354.032	261.58
354.414	282.82
354.797	304.51
355.179	292.76
355.562	304.96
355.944	292.08
356.326	310.39
356.709	304.96
357.091	308.35
357.473	285.76
357.855	305.87
358.238	309.26
358.62	318.75
359.002	311.52
359.384	320.78
359.766	316.71
360.148	316.94
360.53	304.74
360.912	328.47
361.294	294.12
361.676	298.86
362.057	323.72
362.439	293.89
362.821	297.05
363.203	310.61
363.584	301.12
363.966	292.99
364.348	281.01
364.729	310.61
365.111	301.57
365.493	287.56
365.874	291.4
366.256	295.7
366.637	289.37
367.019	277.62
367.4	276.04
367.781	280.11
368.163	299.99
368.544	278.07
368.925	285.53
369.306	286.66
369.688	282.82
370.069	269.94
370.45	310.39
370.831	288.24
371.212	302.93
371.593	274
371.974	287.11
372.355	295.25
372.736	276.49
373.117	274.46
373.498	286.21
373.879	296.38
374.26	288.69
374.641	294.79
375.021	288.02
375.402	280.56
375.783	298.18
376.163	287.34
376.544	270.16
376.925	289.6
377.305	291.18
377.686	315.81
378.066	306.77
378.447	288.69
378.827	301.35
379.208	283.5
379.588	296.6
379.968	292.31
380.349	318.07
380.729	302.03
381.109	312.2
381.489	291.63
381.87	307.9
382.25	301.57
382.63	296.38
383.01	313.33
383.39	313.1
383.77	288.02
384.15	288.24
384.53	295.47
384.91	301.57
385.29	314.68
385.67	315.36
386.049	301.12
386.429	341.35
386.809	288.24
387.189	304.74
387.568	325.3
387.948	299.09
388.328	297.96
388.707	295.47
389.087	292.08
389.466	292.53
389.846	290.5
390.225	301.12
390.605	292.76
390.984	324.85
391.363	311.52
391.743	305.87
392.122	337.51
392.501	316.71
392.881	304.29
393.26	307
393.639	315.81
394.018	324.62
394.397	310.16
394.776	322.36
395.155	302.03
395.534	331.4
395.913	318.52
396.292	319.65
396.671	312.42
397.05	314.68
397.429	328.92
397.808	330.05
398.186	350.84
398.565	312.42
398.944	299.99
399.323	326.88
399.701	314.68
400.08	305.19
400.458	329.6
400.837	316.71
401.215	325.3
401.594	307.68
401.972	317.84
402.351	330.5
402.729	322.36
403.107	353.78
403.486	325.53
403.864	332.76
404.242	334.79
404.62	330.95
404.999	320.56
405.377	351.06
405.755	332.53
406.133	333.66
406.511	346.77
406.889	340.22
407.267	337.05
407.645	347.22
408.023	346.77
408.401	343.83
408.779	355.36
409.156	356.94
409.534	348.35
409.912	348.35
410.29	334.79
410.667	349.26
411.045	349.71
411.422	328.01
411.8	331.4
412.178	344.06
412.555	355.36
412.933	353.55
413.31	342.7
413.687	346.32
414.065	353.32
414.442	375.24
414.819	361.46
415.197	368.46
415.574	347.45
415.951	369.82
416.328	365.53
416.705	351.74
417.082	347.67
417.46	379.54
417.837	376.6
418.214	360.1
418.591	341.8
418.967	355.36
419.344	367.11
419.721	359.88
420.098	379.54
420.475	397.62
420.852	373.66
421.228	352.65
421.605	359.43
421.982	375.24
422.358	375.02
422.735	377.96
423.111	387.22
423.488	355.58
423.864	370.5
424.241	395.36
424.617	398.07
424.994	389.03
425.37	398.29
425.746	365.75
426.123	372.98
426.499	373.21
426.875	403.49
427.251	387.45
427.627	385.87
428.003	384.28
428.379	389.48
428.756	386.77
429.132	389.03
429.507	385.41
429.883	410.27
430.259	401.23
430.635	416.15
431.011	414.57
431.387	413.44
431.763	414.11
432.138	409.37
432.514	408.24
432.89	405.98
433.265	397.39
433.641	400.33
434.016	421.12
434.392	414.34
434.767	408.46
435.143	405.75
435.518	425.86
435.894	418.63
436.269	413.44
436.644	431.06
437.02	434.45
437.395	422.02
437.77	453.89
438.145	436.71
438.52	408.69
438.895	435.81
439.271	453.21
439.646	443.49
440.021	444.62
440.395	449.59
440.77	442.36
441.145	442.59
441.52	431.97
441.895	445.53
442.27	435.13
442.645	437.39
443.019	444.85
443.394	436.26
443.769	429.71
444.143	430.61
444.518	456.15
444.892	453.66
445.267	441.23
445.641	466.09
446.016	448.69
446.39	448.91
446.764	459.99
447.139	458.86
447.513	471.74
447.887	462.93
448.262	451.4
448.636	435.36
449.01	441.01
449.384	472.64
449.758	462.93
450.132	474.68
450.506	470.84
450.88	452.53
451.254	456.82
451.628	459.54
452.002	469.71
452.376	486.65
452.75	493.66
453.123	474.68
453.497	479.87
453.871	490.04
454.244	481.91
454.618	495.47
454.992	493.89
455.365	504.28
455.739	484.39
456.112	487.56
456.486	501.57
456.859	505.64
457.232	509.7
457.606	483.26
457.979	496.82
458.352	510.61
458.725	512.64
459.099	517.61
459.472	503.38
459.845	534.34
460.218	513.55
460.591	547.44
460.964	532.75
461.337	530.27
461.71	544.73
462.083	527.1
462.456	555.58
462.829	553.54
463.201	553.09
463.574	552.64
463.947	574.79
464.32	565.97
464.692	535.69
465.065	554.22
465.438	580.44
465.81	565.3
466.183	573.43
466.555	569.59
466.928	549.25
467.3	599.87
467.672	569.14
468.045	570.04
468.417	575.47
468.789	591.96
469.161	597.84
469.534	579.98
469.906	603.49
470.278	613.66
470.65	612.07
471.022	615.01
471.394	607.78
471.766	617.72
472.138	627.44
472.51	630.38
472.882	636.71
473.253	644.84
473.625	655.91
473.997	649.36
474.369	646.2
474.74	675.8
475.112	660.66
475.484	657.95
475.855	673.99
476.227	673.09
476.598	686.2
476.97	705.86
477.341	717.61
477.713	701.56
478.084	713.54
478.455	695.24
478.827	735.01
479.198	742.47
479.569	718.29
479.94	739.75
480.311	769.58
480.682	763.93
481.053	773.88
481.424	778.17
481.795	754.67
482.166	764.84
482.537	810.94
482.908	793.31
483.279	801
483.65	804.16
484.021	820.43
484.391	847.32
484.762	856.81
485.133	851.39
485.503	868.11
485.874	879.64
486.244	873.76
486.615	878.06
486.985	894.55
487.356	907.21
487.726	912.63
488.097	906.98
488.467	923.93
488.837	938.39
489.207	953.53
489.578	958.28
489.948	982.46
490.318	966.42
490.688	971.61
491.058	1000.54
491.428	992.63
491.798	1013.42
492.168	1018.39
492.538	1025.85
492.908	1021.78
493.278	1023.14
493.648	1014.32
494.017	1033.53
494.387	1020.43
494.757	1056.81
495.126	1061.33
495.496	1080.31
495.866	1063.36
496.235	1082.8
496.605	1077.6
496.974	1087.09
497.344	1092.51
497.713	1124.15
498.082	1095.45
498.452	1118.95
498.821	1117.15
499.19	1087.09
499.559	1115.56
499.928	1125.73
500.298	1132.96
500.667	1122.57
501.036	1131.61
501.405	1127.54
501.774	1152.4
502.143	1117.82
502.512	1153.08
502.88	1165.73
503.249	1139.29
503.618	1133.87
503.987	1165.05
504.356	1181.32
504.724	1174.32
505.093	1184.49
505.462	1182.68
505.83	1178.39
506.199	1195.34
506.567	1205.73
506.936	1200.31
507.304	1236.46
507.672	1207.54
508.041	1237.59
508.409	1210.25
508.777	1250.02
509.145	1248.89
509.514	1245.28
509.882	1250.25
510.25	1257.71
510.618	1302.9
510.986	1282.57
511.354	1311.04
511.722	1326.41
512.09	1314.65
512.458	1310.81
512.826	1328.21
513.193	1333.86
513.561	1346.52
513.929	1365.05
514.297	1373.18
514.664	1366.4
515.032	1350.36
515.4	1425.16
515.767	1403.47
516.135	1404.6
516.502	1413.86
516.869	1445.5
517.237	1422.9
517.604	1433.97
517.972	1467.87
518.339	1470.58
518.706	1488.66
519.073	1446.63
519.44	1486.18
519.808	1498.38
520.175	1479.4
520.542	1519.85
520.909	1486.63
521.276	1507.64
521.643	1521.43
522.009	1540.19
522.376	1531.82
522.743	1561.2
523.11	1560.98
523.477	1565.72
523.843	1597.36
524.21	1610.92
524.577	1600.52
524.943	1587.87
525.31	1594.42
525.676	1622.44
526.043	1617.02
526.409	1627.87
526.776	1600.07
527.142	1605.95
527.508	1643.69
527.874	1645.49
528.241	1643.23
528.607	1629.67
528.973	1642.56
529.339	1639.62
529.705	1654.53
530.071	1676.23
530.437	1660.86
530.803	1708.99
531.169	1674.19
531.535	1706.28
531.901	1723.91
532.267	1734.53
532.632	1702.22
532.998	1715.77
533.364	1727.3
533.73	1741.31
534.095	1788.77
534.461	1779.95
534.826	1763.91
535.192	1777.02
535.557	1793.06
535.923	1779.28
536.288	1815.88
536.653	1812.95
537.019	1819.95
537.384	1815.66
537.749	1836
538.114	1853.4
538.479	1848.65
538.845	1874.19
539.21	1881.87
539.575	1874.64
539.94	1884.81
540.305	1892.27
540.67	1893.4
541.034	1906.05
541.399	1907.86
541.764	1912.15
542.129	1955.09
542.494	1921.19
542.858	1953.51
543.223	1942.66
543.587	1996.44
543.952	1976.11
544.316	1946.28
544.681	1987.41
545.045	2005.48
545.41	2007.52
545.774	2050.23
546.138	2032.6
546.503	2007.74
546.867	2021.08
547.231	2026.73
547.595	2060.4
547.959	2068.08
548.324	2065.6
548.688	2033.73
549.052	2062.88
549.416	2043.68
549.779	2078.02
550.143	2064.47
550.507	2097.01
550.871	2103.33
551.235	2086.16
551.599	2111.02
551.962	2102.66
552.326	2093.17
552.689	2132.49
553.053	2094.97
553.417	2125.93
553.78	2162.32
554.143	2121.19
554.507	2159.83
554.87	2130
555.234	2140.62
555.597	2139.49
555.96	2146.05
556.323	2135.65
556.686	2148.31
557.05	2146.27
557.413	2163.9
557.776	2170.45
558.139	2167.97
558.502	2201.19
558.865	2198.02
559.228	2217.46
559.59	2189.43
559.953	2171.58
560.316	2237.57
560.679	2233.05
561.041	2221.07
561.404	2260.62
561.767	2241.86
562.129	2221.07
562.492	2282.99
562.854	2279.15
563.217	2253.16
563.579	2318.24
563.941	2339.71
564.304	2301.97
564.666	2333.84
565.028	2338.81
565.39	2338.81
565.753	2358.92
566.115	2370.22
566.477	2356.44
566.839	2426.72
567.201	2440.05
567.563	2414.51
567.925	2459.03
568.287	2447.28
568.648	2440.05
569.01	2451.35
569.372	2527.05
569.734	2499.71
570.095	2524.34
570.457	2520.05
570.819	2548.07
571.18	2562.31
571.542	2567.73
571.903	2551.91
572.265	2577.67
572.626	2617.22
572.987	2600.72
573.349	2617.67
573.71	2635.75
574.071	2631.68
574.432	2636.43
574.794	2666.26
575.155	2641.63
575.516	2661.96
575.877	2668.74
576.238	2672.59
576.599	2691.79
576.96	2709.19
577.32	2699.93
577.681	2690.66
578.042	2689.99
578.403	2699.48
578.763	2720.49
579.124	2732.24
579.485	2709.87
579.845	2707.61
580.206	2716.43
580.566	2736.54
580.927	2689.76
581.287	2747.84
581.648	2750.78
582.008	2741.51
582.368	2714.84
582.728	2742.87
583.089	2710.55
583.449	2732.47
583.809	2706.26
584.169	2705.8
584.529	2727.27
584.889	2750.55
585.249	2709.87
585.609	2708.97
585.969	2698.12
586.329	2687.5
586.688	2720.95
587.048	2671.46
587.408	2702.87
587.768	2674.17
588.127	2678.46
588.487	2702.87
588.846	2689.53
589.206	2638.46
589.565	2630.78
589.925	2657.9
590.284	2674.84
590.643	2642.08
591.003	2692.25
591.362	2687.05
591.721	2668.97
592.08	2646.15
592.44	2678.23
592.799	2667.16
593.158	2664.45
593.517	2639.37
593.876	2666.26
594.235	2622.64
594.593	2658.8
594.952	2627.39
595.311	2685.69
595.67	2666.48
596.029	2656.54
596.387	2693.38
596.746	2694.73
597.104	2694.05
597.463	2665.13
597.822	2697.9
598.18	2691.79
598.538	2693.83
598.897	2704.67
599.255	2682.53
599.613	2740.61
599.972	2715.52
600.33	2725.69
600.688	2725.47
601.046	2733.83
601.404	2747.61
601.762	2728.18
602.12	2740.61
602.478	2744.45
602.836	2775.18
603.194	2748.29
603.552	2759.36
603.91	2765.92
604.268	2756.2
604.625	2738.35
604.983	2803.2
605.341	2772.24
605.698	2830.77
606.056	2810.43
606.413	2838.23
606.771	2845.24
607.128	2825.12
607.485	2783.54
607.843	2845.24
608.2	2841.85
608.557	2845.91
608.914	2859.92
609.272	2882.98
609.629	2855.63
609.986	2897.21
610.343	2882.3
610.7	2888.17
611.057	2865.12
611.414	2867.38
611.771	2898.79
612.127	2906.03
612.484	2899.25
612.841	2871.22
613.198	2915.97
613.554	2862.18
613.911	2898.12
614.267	2880.04
614.624	2904.9
614.98	2875.29
615.337	2914.39
615.693	2919.36
616.05	2904.44
616.406	2907.61
616.762	2908.74
617.118	2919.36
617.475	2937.66
617.831	2886.59
618.187	2884.78
618.543	2879.59
618.899	2929.3
619.255	2861.96
619.611	2885.69
619.967	2906.03
620.323	2908.29
620.678	2893.14
621.034	2895.4
621.39	2926.14
621.746	2870.32
622.101	2889.75
622.457	2891.11
622.812	2918.23
623.168	2904.9
623.523	2923.88
623.879	2940.37
624.234	2852.47
624.589	2901.96
624.945	2864.67
625.3	2892.01
625.655	2872.35
626.01	2863.99
626.365	2887.95
626.72	2844.56
627.075	2861.73
627.43	2818.34
627.785	2865.8
628.14	2874.39
628.495	2811.11
628.85	2855.41
629.205	2853.6
629.559	2864.9
629.914	2835.07
630.269	2833.26
630.623	2873.26
630.978	2818.8
631.332	2836.87
631.687	2809.53
632.041	2850.66
632.396	2818.34
632.75	2810.21
633.104	2816.99
633.459	2849.08
633.813	2813.82
634.167	2847.95
634.521	2820.15
634.875	2805.91
635.229	2786.48
635.583	2780.15
635.937	2794.62
636.291	2795.07
636.645	2826.71
636.999	2828.97
637.352	2831.68
637.706	2773.37
638.06	2795.97
638.413	2800.72
638.767	2777.44
639.121	2783.32
639.474	2765.69
639.828	2769.98
640.181	2776.09
640.534	2765.01
640.888	2783.09
641.241	2745.8
641.594	2785.12
641.947	2760.04
642.301	2816.31
642.654	2815.18
643.007	2792.36
643.36	2767.72
643.713	2810.89
644.066	2791.45
644.419	2767.95
644.771	2734.5
645.124	2718.23
645.477	2738.12
645.83	2713.71
646.182	2738.8
646.535	2739.93
646.888	2724.11
647.24	2724.79
647.593	2732.92
647.945	2717.33
648.298	2697.22
648.65	2701.96
649.002	2697.44
649.355	2724.34
649.707	2745.35
650.059	2716.88
650.411	2739.7
650.763	2765.92
651.115	2821.51
651.467	2747.84
651.819	2761.62
652.171	2763.2
652.523	2755.29
652.875	2747.61
653.227	2699.7
653.578	2766.14
653.93	2700.38
654.282	2751.23
654.633	2725.47
654.985	2740.83
655.337	2733.83
655.688	2776.99
656.039	2791
656.391	2727.95
656.742	2748.97
657.094	2770.21
657.445	2728.18
657.796	2734.96
658.147	2710.1
658.498	2740.61
658.849	2730.21
659.2	2729.53
659.551	2683.66
659.902	2712.36
660.253	2674.62
660.604	2700.61
660.955	2702.64
661.306	2723.66
661.656	2703.54
662.007	2686.6
662.358	2701.06
662.708	2724.79
663.059	2694.96
663.409	2665.35
663.76	2689.31
664.11	2697.44
664.461	2687.05
664.811	2669.42
665.161	2710.32
665.511	2649.53
665.862	2640.95
666.212	2680.49
666.562	2667.84
666.912	2666.71
667.262	2634.62
667.612	2648.4
667.962	2650.21
668.312	2681.85
668.662	2693.6
669.011	2605.47
669.361	2632.13
669.711	2637.11
670.06	2638.24
670.41	2638.24
670.76	2623.09
671.109	2611.12
671.459	2656.54
671.808	2611.8
672.157	2645.92
672.507	2638.24
672.856	2638.46
673.205	2605.24
673.554	2623.77
673.904	2608.41
674.253	2618.12
674.602	2635.07
674.951	2622.64
675.3	2596.65
675.649	2653.83
675.998	2614.06
676.346	2615.64
676.695	2634.17
677.044	2604.34
677.393	2623.77
677.741	2638.01
678.09	2564.79
678.438	2593.49
678.787	2601.17
679.135	2625.81
679.484	2616.54
679.832	2608.41
680.181	2582.42
680.529	2620.16
680.877	2574.96
681.225	2614.28
681.573	2586.94
681.922	2620.84
682.27	2574.51
682.618	2571.12
682.966	2529.09
683.314	2568.41
683.661	2582.19
684.009	2575.86
684.357	2563.89
684.705	2548.52
685.053	2552.81
685.4	2539.93
685.748	2531.35
686.095	2547.39
686.443	2545.81
686.79	2532.93
687.138	2554.62
687.485	2511.23
687.832	2533.38
688.18	2534.28
688.527	2518.92
688.874	2520.5
689.221	2506.49
689.568	2481.18
689.915	2514.4
690.262	2504
690.609	2480.95
690.956	2487.96
691.303	2477.11
691.65	2464
691.997	2450.22
692.344	2457.68
692.69	2467.39
693.037	2452.03
693.383	2426.26
693.73	2478.24
694.077	2451.57
694.423	2429.2
694.769	2379.71
695.116	2415.19
695.462	2376.1
695.808	2428.98
696.155	2378.36
696.501	2421.52
696.847	2402.54
697.193	2377.68
697.539	2405.25
697.885	2371.8
698.231	2349.66
698.577	2386.72
698.923	2391.69
699.269	2322.54
699.614	2359.15
699.96	2337.23
700.306	2351.92
700.651	2333.16
700.997	2355.08
701.342	2318.7
701.688	2344.91
702.033	2330.67
702.379	2315.53
702.724	2332.03
703.069	2272.82
703.415	2277.57
703.76	2284.57
704.105	2278.25
704.45	2288.64
704.795	2254.74
705.14	2269.88
705.485	2277.57
705.83	2260.84
706.175	2254.07
706.52	2254.07
706.865	2245.48
707.209	2230.11
707.554	2248.42
707.899	2253.16
708.243	2233.95
708.588	2196.89
708.932	2232.14
709.277	2264.01
709.621	2199.83
709.966	2199.38
710.31	2189.66
710.654	2181.75
710.998	2145.59
711.342	2221.52
711.687	2146.95
712.031	2191.92
712.375	2180.39
712.719	2205.93
713.063	2181.07
713.407	2185.59
713.75	2188.98
714.094	2162.32
714.438	2164.12
714.782	2174.97
715.125	2163.45
715.469	2190.34
715.812	2153.5
716.156	2143.33
716.499	2148.53
716.843	2143.11
717.186	2145.82
717.53	2152.6
717.873	2124.58
718.216	2152.82
718.559	2158.7
718.902	2099.27
719.246	2124.8
719.589	2134.52
719.932	2106.27
720.275	2106.05
720.617	2116.22
720.96	2114.18
721.303	2089.78
721.646	2102.43
721.989	2108.76
722.331	2095.88
722.674	2091.13
723.016	2086.39
723.359	2100.62
723.701	2082.09
724.044	2076.22
724.386	2099.04
724.729	2070.34
725.071	2076.44
725.413	2066.5
725.755	2031.92
726.097	2077.57
726.439	2031.25
726.782	2041.19
727.124	2054.07
727.465	2052.26
727.807	2045.93
728.149	2042.77
728.491	2008.42
728.833	2073.28
729.175	2027.86
729.516	2039.38
729.858	2036.44
730.199	2038.03
730.541	2034.18
730.882	2009.78
731.224	2042.55
731.565	2022.43
731.906	2031.92
732.248	1989.67
732.589	1998.48
732.93	1976.56
733.271	2007.74
733.612	2006.61
733.953	2001.87
734.294	2011.59
734.635	1996.44
734.976	1996.22
735.317	1973.17
735.658	1991.02
735.999	2004.58
736.339	1988.08
736.68	2014.07
737.021	1968.2
737.361	1955.99
737.702	1953.73
738.042	1976.78
738.383	1959.38
738.723	1953.06
739.063	1934.53
739.404	1947.63
739.744	1952.6
740.084	1920.51
740.424	1955.09
740.764	1949.44
741.104	1969.78
741.444	1952.15
741.784	1930.23
742.124	1936.56
742.464	1948.31
742.804	1934.07
743.143	1930.46
743.483	1924.81
743.823	1923.23
744.162	1925.94
744.502	1940.17
744.841	1919.16
745.181	1932.04
745.52	1906.96
745.86	1906.28
746.199	1898.59
746.538	1891.36
746.877	1914.64
747.216	1891.14
747.556	1903.79
747.895	1872.38
748.234	1896.11
748.573	1879.39
748.911	1880.97
749.25	1906.73
749.589	1855.21
749.928	1890.01
750.267	1907.63
750.605	1871.02
750.944	1850.91
751.283	1832.83
751.621	1848.65
751.96	1851.82
752.298	1832.38
752.636	1853.4
752.975	1836.67
753.313	1848.43
753.651	1850.01
753.989	1817.69
754.327	1850.23
754.666	1824.92
755.004	1849.78
755.342	1836.67
755.679	1795.77
756.017	1803.91
756.355	1804.81
756.693	1784.25
757.031	1807.75
757.368	1783.57
757.706	1811.14
758.044	1807.52
758.381	1820.4
758.719	1790.12
759.056	1824.02
759.394	1766.39
759.731	1765.94
760.068	1759.39
760.405	1769.78
760.743	1753.51
761.08	1751.71
761.417	1765.49
761.754	1766.85
762.091	1770.69
762.428	1741.99
762.765	1737.92
763.102	1773.85
763.438	1714.64
763.775	1714.19
764.112	1730.91
764.449	1693.85
764.785	1729.79
765.122	1673.52
765.458	1711.03
765.795	1725.04
766.131	1706.96
766.467	1707.86
766.804	1690.69
767.14	1690.24
767.476	1679.16
767.812	1696.11
768.148	1667.19
768.485	1676
768.821	1668.09
769.157	1675.32
769.492	1658.37
769.828	1661.09
770.164	1630.8
770.5	1640.3
770.836	1667.64
771.171	1612.95
771.507	1620.41
771.842	1622.22
772.178	1648.66
772.513	1613.63
772.849	1628.09
773.184	1635.1
773.519	1605.95
773.855	1603.23
774.19	1597.36
774.525	1566.17
774.86	1582.22
775.195	1579.73
775.53	1579.28
775.865	1574.31
776.2	1563.01
776.535	1566.17
776.87	1568.43
777.205	1550.13
777.539	1585.38
777.874	1542.22
778.209	1583.12
778.543	1549.68
778.878	1532.28
779.212	1526.17
779.547	1536.8
779.881	1528.21
780.215	1511.94
780.55	1506.51
780.884	1526.85
781.218	1485.72
781.552	1510.81
781.886	1537.25
782.22	1509.45
782.554	1484.37
782.888	1516.46
783.222	1484.14
783.556	1476.23
783.889	1450.02
784.223	1463.13
784.557	1450.7
784.89	1470.58
785.224	1421.54
785.557	1455.89
785.891	1455.44
786.224	1425.16
786.558	1461.32
786.891	1428.1
787.224	1431.49
787.557	1424.03
787.891	1420.64
788.224	1444.14
788.557	1409.79
788.89	1394.2
789.223	1413.86
789.556	1435.78
789.888	1419.51
790.221	1420.64
790.554	1405.27
790.887	1399.85
791.219	1410.7
791.552	1415.44
791.884	1383.81
792.217	1382.45
792.549	1373.64
792.882	1392.84
793.214	1396.91
793.546	1367.76
793.879	1375.44
794.211	1387.87
794.543	1363.69
794.875	1358.04
795.207	1345.84
795.539	1350.59
795.871	1365.73
796.203	1367.99
796.535	1355.56
796.867	1371.6
797.198	1349.23
797.53	1346.97
797.862	1330.02
798.193	1309.68
798.525	1326.18
798.856	1328.67
799.188	1294.77
799.519	1304.26
799.85	1311.49
800.182	1335.67
800.513	1332.96
800.844	1309.46
801.175	1338.61
801.506	1323.02
801.837	1286.86
802.168	1326.86
802.499	1306.75
802.83	1293.19
803.161	1290.02
803.491	1298.16
803.822	1319.4
804.153	1290.47
804.483	1285.28
804.814	1273.75
805.145	1295.9
805.475	1292.51
805.805	1268.33
806.136	1266.52
806.466	1264.26
806.796	1264.49
807.126	1278.72
807.457	1240.53
807.787	1258.16
808.117	1267.2
808.447	1250.93
808.777	1233.07
809.107	1265.16
809.436	1242.57
809.766	1237.59
810.096	1244.37
810.426	1219.29
810.755	1243.47
811.085	1230.36
811.414	1248.44
811.744	1243.7
812.073	1236.69
812.403	1211.38
812.732	1210.48
813.061	1215.45
813.39	1217.26
813.719	1207.09
814.049	1214.77
814.378	1205.51
814.707	1200.31
815.036	1217.71
815.365	1201.21
815.693	1183.81
816.022	1192.17
816.351	1165.05
816.68	1179.07
817.008	1191.95
817.337	1173.87
817.665	1176.81
817.994	1198.27
818.322	1176.58
818.651	1186.3
818.979	1198.05
819.307	1161.66
819.636	1137.26
819.964	1160.99
820.292	1178.39
820.62	1156.69
820.948	1157.37
821.276	1141.55
821.604	1163.47
821.932	1136.81
822.259	1154.66
822.587	1149.69
822.915	1142.46
823.243	1142.91
823.57	1136.35
823.898	1163.25
824.225	1115.79
824.553	1150.14
824.88	1134.09
825.207	1137.26
825.535	1150.37
825.862	1155.34
826.189	1128.9
826.516	1170.7
826.843	1161.89
827.17	1141.33
827.497	1172.96
827.824	1146.3
828.151	1153.98
828.478	1150.14
828.805	1135.45
829.131	1142
829.458	1157.14
829.785	1145.62
830.111	1126.19
830.438	1153.98
830.764	1143.81
831.09	1130.93
831.417	1148.56
831.743	1130.25
832.069	1140.65
832.395	1147.88
832.722	1156.92
833.048	1163.92
833.374	1145.17
833.7	1125.06
834.026	1126.19
834.351	1123.02
834.677	1140.87
835.003	1099.52
835.329	1126.41
835.654	1127.54
835.98	1121.89
836.306	1115.34
836.631	1114.43
836.956	1109.46
837.282	1120.08
837.607	1123.7
837.932	1131.38
838.258	1127.09
838.583	1129.12
838.908	1097.49
839.233	1112.63
839.558	1117.15
839.883	1098.39
840.208	1122.12
840.533	1071.27
840.858	1095
841.182	1109.91
841.507	1105.17
841.832	1083.02
842.156	1097.49
842.481	1086.86
842.805	1094.1
843.13	1074.21
843.454	1077.82
843.778	1064.49
844.103	1085.96
844.427	1095.9
844.751	1069.24
845.075	1046.19
845.399	1081.44
845.723	1062.68
846.047	1075.34
846.371	1067.2
846.695	1064.72
847.019	1063.14
847.343	1053.19
847.666	1057.03
847.99	1055.23
848.313	1071.27
848.637	1062.68
848.96	1063.81
849.284	1066.53
849.607	1075.11
849.931	1062.91
850.254	1054.77
850.577	1047.32
850.9	1023.59
851.223	1034.21
851.546	1043.7
851.869	999.18
852.192	1006.19
852.515	1019.3
852.838	1028.11
853.161	1021.33
853.483	1031.72
853.806	1003.25
854.129	1034.21
854.451	991.27
854.774	1004.38
855.096	1023.14
855.419	988.11
855.741	1021.33
856.063	989.92
856.385	992.4
856.708	1007.77
857.03	999.41
857.352	999.41
857.674	1012.29
857.996	988.11
858.318	1000.99
858.64	975
858.961	971.84
859.283	973.65
859.605	999.86
859.926	997.6
860.248	974.32
860.57	991.5
860.891	967.32
861.212	977.49
861.534	995.57
861.855	981.56
862.176	966.19
862.498	975.91
862.819	962.12
863.14	987.43
863.461	977.49
863.782	979.52
864.103	986.3
864.424	979.3
864.745	998.05
865.065	979.97
865.386	983.36
865.707	982.46
866.027	981.78
866.348	1008.22
866.668	986.75
866.989	971.39
867.309	956.25
867.63	947.66
867.95	994.89
868.27	959.64
868.59	961.44
868.91	950.37
869.23	996.7
869.55	985.17
869.87	995.34
870.19	986.3
870.51	954.89
870.83	961.22
871.15	972.06
871.469	962.35
871.789	981.33
872.109	980.43
872.428	970.93
872.748	979.75
873.067	958.73
873.386	964.61
873.706	956.25
874.025	957.83
874.344	939.3
874.663	951.73
874.982	974.1
875.301	960.31
875.62	960.77
875.939	942.69
876.258	971.39
876.577	975.23
876.896	942.24
877.214	953.76
877.533	956.92
877.852	942.69
878.17	953.99
878.489	944.95
878.807	929.13
879.125	928.22
879.444	955.57
879.762	950.37
880.08	940.65
880.398	943.37
880.716	944.72
881.034	956.02
881.352	913.08
881.67	937.94
881.988	947.43
882.306	925.06
882.624	956.92
882.941	911.95
883.259	908.79
883.577	909.92
883.894	935.68
884.212	908.56
884.529	911.5
884.846	925.74
885.164	935
885.481	906.53
885.798	905.85
886.115	913.54
886.432	909.24
886.75	879.19
887.067	905.63
887.383	913.54
887.7	888.45
888.017	915.34
888.334	881.45
888.651	895
888.967	874.21
889.284	885.74
889.6	886.87
889.917	890.71
890.233	880.99
890.55	876.02
890.866	889.81
891.182	867.66
891.498	863.59
891.815	885.97
892.131	882.12
892.447	887.77
892.763	910.82
893.079	855.91
893.395	857.04
893.71	853.42
894.026	856.36
894.342	849.13
894.657	843.71
894.973	851.84
895.289	827.21
895.604	868.11
895.92	845.74
896.235	843.71
896.55	857.04
896.865	866.3
897.181	839.64
897.496	832.18
897.811	841.67
898.126	844.61
898.441	825.63
898.756	818.85
899.071	842.12
899.386	789.02
899.7	814.1
900.015	814.1
900.33	817.27
900.644	839.41
900.959	805.06
901.273	813.88
901.588	808.45
901.902	798.28
902.216	808.91
902.531	807.32
902.845	794.89
903.159	778.62
903.473	793.54
903.787	784.5
904.101	784.27
904.415	772.52
904.729	764.16
905.042	761.67
905.356	771.39
905.67	777.27
905.984	798.51
906.297	768.91
906.611	780.43
906.924	781.11
907.237	767.78
907.551	751.73
907.864	772.07
908.177	779.08
908.491	767.78
908.804	738.62
909.117	745.4
909.43	742.92
909.743	771.39
910.056	744.95
910.368	750.6
910.681	743.14
910.994	732.07
911.307	748.79
911.619	722.35
911.932	725.97
912.244	745.63
912.557	738.17
912.869	741.11
913.181	723.03
913.494	729.13
913.806	700.43
914.118	702.69
914.43	709.02
914.742	717.83
915.054	713.31
915.366	709.47
915.678	719.19
915.99	714.9
916.302	724.61
916.613	708.57
916.925	719.19
917.236	699.76
917.548	739.3
917.859	711.73
918.171	707.89
918.482	710.15
918.794	718.51
919.105	695.69
919.416	702.02
919.727	688.23
920.038	677.16
920.349	697.5
920.66	658.17
920.971	682.58
921.282	674.67
921.593	690.94
921.903	682.35
922.214	647.78
922.525	674.9
922.835	685.07
923.146	657.95
923.456	671.06
923.767	692.3
924.077	658.17
924.387	655.91
924.697	684.16
925.008	670.38
925.318	645.29
925.628	669.93
925.938	657.27
926.248	664.95
926.558	646.88
926.867	669.47
927.177	666.76
927.487	651.62
927.796	664.5
928.106	657.04
928.416	660.66
928.725	668.34
929.034	632.19
929.344	635.8
929.653	638.29
929.962	629.93
930.271	640.77
930.581	648.23
930.89	637.61
931.199	621.34
931.508	650.49
931.817	636.93
932.125	618.18
932.434	620.89
932.743	658.17
933.051	643.94
933.36	615.69
933.669	626.09
933.977	626.54
934.286	628.12
934.594	612.98
934.902	625.86
935.21	605.29
935.519	640.32
935.827	631.51
936.135	613.88
936.443	610.04
936.751	611.17
937.059	646.42
937.367	632.86
937.674	630.15
937.982	622.47
938.29	623.37
938.597	593.77
938.905	631.06
939.213	606.88
939.52	602.58
939.827	609.36
940.135	592.41
940.442	621.11
940.749	598.29
941.056	602.36
941.363	598.52
941.67	611.4
941.977	601.91
942.284	608.23
942.591	581.57
942.898	583.6
943.205	604.84
943.511	600.32
943.818	599.42
944.125	604.16
944.431	616.59
944.738	601.68
945.044	604.39
945.35	605.52
945.657	595.35
945.963	605.52
946.269	609.59
946.575	582.7
946.881	574.56
947.187	597.61
947.493	578.4
947.799	577.27
948.105	608.01
948.41	568.23
948.716	595.35
949.022	584.73
949.327	583.15
949.633	594.22
949.938	596.93
950.244	573.88
950.549	579.98
950.854	583.37
951.16	591.28
951.465	576.82
951.77	559.87
952.075	568.91
952.38	579.53
952.685	575.69
952.99	544.28
953.294	579.08
953.599	602.36
953.904	568.91
954.209	564.84
954.513	564.17
954.818	581.34
955.122	561.23
955.426	547.9
955.731	554.9
956.035	531.62
956.339	541.34
956.643	548.35
956.948	551.28
957.252	564.39
957.556	565.52
957.86	559.87
958.163	553.77
958.467	552.41
958.771	550.83
959.075	552.41
959.378	547.9
959.682	549.93
959.985	549.25
960.289	545.64
960.592	541.79
960.896	525.52
961.199	549.03
961.502	550.38
961.805	558.74
962.108	525.75
962.411	560.78
962.714	543.6
963.017	531.4
963.32	544.05
963.623	544.96
963.926	532.08
964.228	525.75
964.531	532.98
964.833	523.72
965.136	548.8
965.438	520.78
965.741	527.56
966.043	569.14
966.345	518.97
966.648	518.97
966.95	512.64
967.252	536.14
967.554	539.53
967.856	532.3
968.158	529.82
968.46	524.62
968.761	528.23
969.063	539.31
969.365	523.26
969.666	500.66
969.968	516.71
970.269	504.96
970.571	503.38
970.872	520.55
971.174	491.63
971.475	490.72
971.776	490.04
972.077	506.77
972.378	494.34
972.679	504.51
972.98	501.79
973.281	485.52
973.582	487.33
973.883	491.4
974.183	517.39
974.484	497.5
974.785	482.81
975.085	477.39
975.386	469.25
975.686	479.65
975.986	496.82
976.287	503.6
976.587	480.1
976.887	477.61
977.187	495.47
977.487	512.42
977.787	505.64
978.087	488.69
978.387	499.76
978.687	495.69
978.987	503.6
979.286	486.88
979.586	462.47
979.885	475.81
980.185	488.69
980.484	468.35
980.784	496.6
981.083	478.97
981.382	475.13
981.682	464.06
981.981	495.24
982.28	472.87
982.579	471.51
982.878	452.98
983.177	474.22
983.475	495.24
983.774	464.73
984.073	469.93
984.372	454.34
984.67	471.06
984.969	461.12
985.267	476.94
985.566	466.54
985.864	463.15
986.162	443.27
986.461	459.54
986.759	467.9
987.057	462.47
987.355	464.28
987.653	457.28
987.951	456.6
988.249	440.78
988.547	438.52
988.844	442.14
989.142	437.39
989.44	452.3
989.737	462.47
990.035	434.68
990.332	455.24
990.63	438.29
990.927	433.77
991.224	436.26
991.521	431.06
991.819	435.36
992.116	450.27
992.413	445.98
992.71	449.59
993.006	438.29
993.303	452.3
993.6	442.36
993.897	456.37
994.193	446.43
994.49	423.6
994.787	424.96
995.083	430.16
995.379	446.65
995.676	423.38
995.972	442.36
996.268	434.9
996.565	419.09
996.861	427.9
997.157	425.19
997.453	429.93
997.749	425.41
998.044	420.89
998.34	418.41
998.636	424.51
998.932	414.11
999.227	420.67
999.523	422.02
999.818	441.68
1000.114	434
1000.409	407.33
1000.704	418.18
1001	420.67
1001.295	398.52
1001.59	405.98
1001.885	429.03
1002.18	420.21
1002.475	407.33
1002.77	400.1
1003.065	416.6
1003.359	414.57
1003.654	421.57
1003.949	415.02
1004.243	390.84
1004.538	417.05
1004.832	415.24
1005.127	420.89
1005.421	410.95
1005.715	419.54
1006.009	431.06
1006.304	394.23
1006.598	400.78
1006.892	386.77
1007.186	387
1007.48	417.05
1007.773	418.41
1008.067	406.43
1008.361	422.93
1008.655	403.72
1008.948	401.91
1009.242	416.37
1009.535	400.1
1009.829	391.52
1010.122	414.34
1010.415	410.27
1010.708	407.11
1011.001	405.07
1011.295	399.42
1011.588	391.74
1011.881	402.14
1012.173	382.7
1012.466	389.48
1012.759	384.28
1013.052	406.66
1013.344	396.49
1013.637	396.49
1013.93	401.01
1014.222	385.64
1014.514	377.5
1014.807	388.35
1015.099	394.45
1015.391	372.08
1015.683	394.45
1015.976	373.89
1016.268	380.67
1016.56	398.52
1016.851	378.18
1017.143	383.61
1017.435	383.15
1017.727	363.49
1018.018	409.59
1018.31	384.96
1018.602	395.13
1018.893	374.79
1019.185	394
1019.476	370.72
1019.767	384.06
1020.058	386.54
1020.35	375.92
1020.641	363.95
1020.932	388.35
1021.223	393.77
1021.514	384.51
1021.804	363.49
1022.095	375.92
1022.386	351.97
1022.677	366.21
1022.967	372.53
1023.258	373.21
1023.548	362.82
1023.839	365.3
1024.129	357.39
1024.419	374.57
1024.709	362.14
1025	376.6
1025.29	371.18
1025.58	366.21
1025.87	380.67
1026.16	355.13
1026.449	372.76
1026.739	377.73
1027.029	361.01
1027.319	357.17
1027.608	363.72
1027.898	380.89
1028.187	372.53
1028.477	363.27
1028.766	354
1029.055	348.58
1029.344	366.43
1029.634	353.1
1029.923	337.51
1030.212	372.98
1030.501	353.1
1030.79	382.93
1031.078	371.63
1031.367	366.43
1031.656	357.84
1031.945	352.19
1032.233	346.77
1032.522	355.13
1032.81	354.68
1033.099	367.33
1033.387	359.88
1033.675	365.08
1033.963	365.3
1034.251	358.07
1034.54	355.36
1034.828	378.41
1035.116	367.33
1035.403	351.74
1035.691	343.15
1035.979	362.59
1036.267	362.36
1036.554	344.28
1036.842	351.29
1037.129	351.97
1037.417	344.06
1037.704	347.9
1037.992	365.98
1038.279	355.36
1038.566	355.58
1038.853	355.58
1039.14	355.58
