Data from foam1_polythene_foam_FLMS001491_00053.txt Node
Date: Wed Feb 08 10:55:03 GMT 2017
User: dcchb
Spectrometer: FLMS00149
Trigger mode: 0
Integration Time (sec): 2.000000E-2
Scans to average: 10
Electric dark correction enabled: true
Nonlinearity correction enabled: false
Boxcar width: 0
XAxis mode: Wavelengths
Number of Pixels in Spectrum: 2048
>>>>>Begin Spectral Data<<<<<
341.393	-8.9
341.776	-8.9
342.16	-8.9
342.543	-57.71
342.927	-64.04
343.31	-66.07
343.693	-54.09
344.077	-51.16
344.46	-73.98
344.843	-37.15
345.226	-43.25
345.61	-17.03
345.993	-15.9
346.376	-17.26
346.759	14.6
347.142	21.16
347.525	32
347.908	54.6
348.291	65.45
348.674	91.44
349.057	96.64
349.44	145.22
349.823	150.65
350.206	155.62
350.588	193.81
350.971	218.89
351.354	203.3
351.737	219.8
352.119	223.41
352.502	261.6
352.884	270.64
353.267	263.41
353.65	279.68
354.032	283.52
354.414	306.12
354.797	299.12
355.179	293.01
355.562	310.64
355.944	309.74
356.326	313.13
356.709	301.15
357.091	328.49
357.473	345.44
357.855	336.63
358.238	323.3
358.62	323.07
359.002	335.73
359.384	324.65
359.766	328.04
360.148	331.66
360.53	343.64
360.912	303.86
361.294	335.27
361.676	305.9
362.057	315.61
362.439	322.62
362.821	317.2
363.203	304.77
363.584	298.44
363.966	336.86
364.348	315.84
364.729	341.6
365.111	291.21
365.493	328.95
365.874	304.09
366.256	304.09
366.637	295.95
367.019	319.45
367.4	316.07
367.781	328.27
368.163	321.04
368.544	304.31
368.925	323.75
369.306	299.12
369.688	288.04
370.069	276.52
370.45	297.53
370.831	311.55
371.212	297.53
371.593	307.03
371.974	302.28
372.355	312.68
372.736	297.76
373.117	283.75
373.498	289.4
373.879	312.9
374.26	314.26
374.641	309.96
375.021	307.03
375.402	302.96
375.783	315.84
376.163	323.52
376.544	322.17
376.925	318.78
377.305	306.12
377.686	334.37
378.066	321.94
378.447	298.21
378.827	305.9
379.208	328.72
379.588	324.88
379.968	312.45
380.349	337.53
380.729	326.23
381.109	317.2
381.489	326.46
381.87	333.47
382.25	329.4
382.63	342.05
383.01	347.93
383.39	338.21
383.77	334.14
384.15	345.89
384.53	337.08
384.91	333.47
385.29	345.22
385.67	327.59
386.049	338.66
386.429	340.47
386.809	353.8
387.189	355.39
387.568	381.15
387.948	356.74
388.328	354.26
388.707	337.53
389.087	362.62
389.466	361.04
389.846	359.68
390.225	343.18
390.605	369.4
390.984	369.17
391.363	368.49
391.743	386.35
392.122	366.91
392.501	358.32
392.881	366.91
393.26	353.35
393.639	378.66
394.018	392.45
394.397	373.24
394.776	378.21
395.155	372.56
395.534	391.09
395.913	388.83
396.292	388.61
396.671	389.96
397.05	401.26
397.429	407.81
397.808	383.41
398.186	386.57
398.565	406.91
398.944	413.01
399.323	402.84
399.701	404.2
400.08	383.63
400.458	392.45
400.837	400.36
401.215	402.39
401.594	421.37
401.972	402.84
402.351	410.75
402.729	427.7
403.107	419.11
403.486	436.29
403.864	409.85
404.242	439.68
404.62	435.61
404.999	409.85
405.377	436.97
405.755	430.19
406.133	454.14
406.511	441.94
406.889	423.63
407.267	432.45
407.645	455.27
408.023	460.69
408.401	449.85
408.779	455.72
409.156	469.06
409.534	442.84
409.912	476.06
410.29	455.95
410.667	483.97
411.045	473.35
411.422	461.6
411.8	469.06
412.178	479
412.555	500.69
412.933	489.39
413.31	491.43
413.687	498.21
414.065	517.19
414.442	495.5
414.819	502.73
415.197	516.96
415.574	503.18
415.951	516.96
416.328	533.91
416.705	516.51
417.082	512.22
417.46	512.44
417.837	552.67
418.214	542.5
418.591	524.87
418.967	519.45
419.344	541.6
419.721	540.92
420.098	553.8
420.475	559
420.852	557.64
421.228	534.36
421.605	564.87
421.982	551.77
422.358	574.82
422.735	571.88
423.111	583.18
423.488	583.4
423.864	595.38
424.241	601.48
424.617	578.43
424.994	586.57
425.37	596.96
425.746	598.77
426.123	604.42
426.499	604.42
426.875	628.6
427.251	625.44
427.627	648.71
428.003	622.72
428.379	649.16
428.756	671.54
429.132	640.58
429.507	658.2
429.883	665.89
430.259	676.28
430.635	677.86
431.011	671.99
431.387	686.45
431.763	721.48
432.138	679.9
432.514	695.49
432.89	715.15
433.265	727.58
433.641	733.23
434.016	755.83
434.392	758.77
434.767	749.73
435.143	759.9
435.518	758.77
435.894	779.78
436.269	786.11
436.644	808.48
437.02	801.7
437.395	812.1
437.77	824.98
438.145	792.66
438.52	820.01
438.895	833.79
439.271	838.31
439.646	834.7
440.021	854.58
440.395	876.73
440.77	857.97
441.145	857.97
441.52	896.61
441.895	861.81
442.27	923.96
442.645	895.94
443.019	916.05
443.394	887.35
443.769	928.03
444.143	925.54
444.518	910.85
444.892	933
445.267	959.44
445.641	957.18
446.016	965.77
446.39	956.95
446.764	962.6
447.139	971.64
447.513	975.48
447.887	1021.36
448.262	986.78
448.636	1027.01
449.01	1027.68
449.384	1032.66
449.758	1056.84
450.132	1047.57
450.506	1037.85
450.88	1057.97
451.254	1068.14
451.628	1069.94
452.002	1102.03
452.376	1106.55
452.75	1105.2
453.123	1129.15
453.497	1116.95
453.871	1132.99
454.244	1151.98
454.618	1165.53
454.992	1179.32
455.365	1178.87
455.739	1179.32
456.112	1186.55
456.486	1189.49
456.859	1226.32
457.232	1267.45
457.606	1217.51
457.979	1242.59
458.352	1240.79
458.725	1265.42
459.099	1254.12
459.472	1290.73
459.845	1285.53
460.218	1297.51
460.591	1310.39
460.964	1303.16
461.337	1321.69
461.71	1357.39
462.083	1381.57
462.456	1346.32
462.829	1386.55
463.201	1385.19
463.574	1392.42
463.947	1398.75
464.32	1458.18
464.692	1429.93
465.065	1481.23
465.438	1436.94
465.81	1481.23
466.183	1511.06
466.555	1515.58
466.928	1515.13
467.3	1550.16
467.672	1519.88
468.045	1599.87
468.417	1590.61
468.789	1591.74
469.161	1599.65
469.534	1633.77
469.906	1700.89
470.278	1648.69
470.65	1706.99
471.022	1715.58
471.394	1739.3
471.766	1776.82
472.138	1750.15
472.51	1810.49
472.882	1825.18
473.253	1818.17
473.625	1872.18
473.997	1908.57
474.369	1877.61
474.74	1917.38
475.112	1952.63
475.484	1975.46
475.855	1990.37
476.227	2044.16
476.598	2031.05
476.97	2107.66
477.341	2153.53
477.713	2187.88
478.084	2170.71
478.455	2191.5
478.827	2212.06
479.198	2307.2
479.569	2297.71
479.94	2342.9
480.311	2390.36
480.682	2444.14
481.053	2479.17
481.424	2492.96
481.795	2525.5
482.166	2578.83
482.537	2610.92
482.908	2595.78
483.279	2663.8
483.65	2711.71
484.021	2753.74
484.391	2812.04
484.762	2811.82
485.133	2847.3
485.503	2837.58
485.874	2936.56
486.244	2957.13
486.615	3004.36
486.985	3053.85
487.356	3106.95
487.726	3123.67
488.097	3182.2
488.467	3177.46
488.837	3246.16
489.207	3311.01
489.578	3314.86
489.948	3337.91
490.318	3415.42
490.688	3454.06
491.058	3497.22
491.428	3510.56
491.798	3580.16
492.168	3625.58
492.538	3645.24
492.908	3680.27
493.278	3733.83
493.648	3746.71
494.017	3754.17
494.387	3814.73
494.757	3908.29
495.126	3889.08
495.496	3917.55
495.866	3957.55
496.235	3975.63
496.605	3996.87
496.974	4023.09
497.344	4059.24
497.713	4085.91
498.082	4180.82
498.452	4175.85
498.821	4210.2
499.19	4243.42
499.559	4297.66
499.928	4320.93
500.298	4331.78
500.667	4395.05
501.036	4393.47
501.405	4483.87
501.774	4426.01
502.143	4461.27
502.512	4497.2
502.88	4526.8
503.249	4515.95
503.618	4557.54
503.987	4632.34
504.356	4655.16
504.724	4689.96
505.093	4705.55
505.462	4734.93
505.83	4771.99
506.199	4805.89
506.567	4894.93
506.936	4879.56
507.304	4922.72
507.672	4971.08
508.041	4984.87
508.409	5042.95
508.777	5051.99
509.145	5126.56
509.514	5070.52
509.882	5164.53
510.25	5181.47
510.618	5208.37
510.986	5179.21
511.354	5310.28
511.722	5301.92
512.09	5360.68
512.458	5325.65
512.826	5424.18
513.193	5467.57
513.561	5512.09
513.929	5528.81
514.297	5585.98
514.664	5646.09
515.032	5663.27
515.4	5690.61
515.767	5734.91
516.135	5806.54
516.502	5761.8
516.869	5844.06
517.237	5906.65
517.604	5863.49
517.972	5938.52
518.339	6002.02
518.706	6027.55
519.073	6043.6
519.44	6091.73
519.808	6165.85
520.175	6209.92
520.542	6269.35
520.909	6306.64
521.276	6342.35
521.643	6377.6
522.009	6439.97
522.376	6474.1
522.743	6546.64
523.11	6590.48
523.477	6658.27
523.843	6682.68
524.21	6667.99
524.577	6802.45
524.943	6828.66
525.31	6874.76
525.676	6909.34
526.043	6968.09
526.409	6995.66
526.776	7034.98
527.142	7107.07
527.508	7187.97
527.874	7204.47
528.241	7263.23
528.607	7221.65
528.973	7322.66
529.339	7314.3
529.705	7428.87
530.071	7472.49
530.437	7514.75
530.803	7540.28
531.169	7641.07
531.535	7624.12
531.901	7694.85
532.267	7690.56
532.632	7722.88
532.998	7820.5
533.364	7831.57
533.73	7840.61
534.095	7943.21
534.461	7997.45
534.826	7982.76
535.192	8031.79
535.557	8109.98
535.923	8035.18
536.288	8133.94
536.653	8167.38
537.019	8175.52
537.384	8208.29
537.749	8235.18
538.114	8339.58
538.479	8331.9
538.845	8343.2
539.21	8309.98
539.575	8412.12
539.94	8403.99
540.305	8519.47
540.67	8459.35
541.034	8503.87
541.399	8547.26
541.764	8594.04
542.129	8608.05
542.494	8683.75
542.858	8692.57
543.223	8705.9
543.587	8759.23
543.952	8719.46
544.316	8730.76
544.681	8805.33
545.045	8855.73
545.41	8898.66
545.774	8892.11
546.138	8905.22
546.503	8969.17
546.867	9054.37
547.231	9060.92
547.595	9099.34
547.959	9056.85
548.324	9155.83
548.688	9147.25
549.052	9199.45
549.416	9229.96
549.779	9236.96
550.143	9194.25
550.507	9343.17
550.871	9319.67
551.235	9296.39
551.599	9410.06
551.962	9443.73
552.326	9420.91
552.689	9543.39
553.053	9455.03
553.417	9554.01
553.78	9627.46
554.143	9646.22
554.507	9734.57
554.87	9784.74
555.234	9804.86
555.597	9802.82
555.96	9796.72
556.323	9831.75
556.686	9859.77
557.05	9985.64
557.413	10052.31
557.776	10082.81
558.139	10124.39
558.502	10085.53
558.865	10145.86
559.228	10236.71
559.59	10185.64
559.953	10238.74
560.316	10385.63
560.679	10273.77
561.041	10463.59
561.404	10444.84
561.767	10488.45
562.129	10473.09
562.492	10731.84
562.854	10562.12
563.217	10607.32
563.579	10648
563.941	10737.26
564.304	10778.39
564.666	10840.53
565.028	10906.97
565.39	10973.41
565.753	10992.62
566.115	11147.87
566.477	11135.44
566.839	11144.93
567.201	11254.76
567.563	11203.24
567.925	11303.57
568.287	11327.98
568.648	11326.85
569.01	11352.84
569.372	11423.12
569.734	11461.99
570.095	11457.47
570.457	11564.58
570.819	11615.2
571.18	11664.92
571.542	11693.62
571.903	11723.45
572.265	11764.58
572.626	11770.68
572.987	11797.57
573.349	11814.29
573.71	11832.82
574.071	11865.59
574.432	11925.93
574.794	12045.02
575.155	11983.78
575.516	12004.35
575.877	12061.29
576.238	12060.84
576.599	12118.47
576.96	12185.58
577.32	12122.99
577.681	12272.81
578.042	12218.35
578.403	12186.49
578.763	12200.05
579.124	12191.01
579.485	12259.03
579.845	12362.98
580.206	12297.9
580.566	12394.17
580.927	12339.7
581.287	12455.41
581.648	12369.76
582.008	12439.36
582.368	12399.82
582.728	12418.12
583.089	12400.49
583.449	12442.53
583.809	12384.9
584.169	12405.92
584.529	12395.97
584.889	12515.07
585.249	12442.98
585.609	12477.33
585.969	12536.08
586.329	12474.16
586.688	12603.2
587.048	12539.25
587.408	12482.3
587.768	12451.11
588.127	12486.82
588.487	12483.43
588.846	12486.37
589.206	12389.65
589.565	12469.87
589.925	12508.96
590.284	12481.17
590.643	12455.41
591.003	12510.09
591.362	12653.59
591.721	12615.18
592.08	12600.04
592.44	12579.7
592.799	12617.21
593.158	12533.15
593.517	12506.93
593.876	12555.07
594.235	12513.26
594.593	12572.24
594.952	12630.32
595.311	12560.26
595.67	12595.29
596.029	12660.15
596.387	12800.03
596.746	12788.51
597.104	12645.23
597.463	12651.11
597.822	12732.46
598.18	12666.25
598.538	12595.97
598.897	12703.31
599.255	12611.11
599.613	12812.23
599.972	12724.33
600.33	12699.69
600.688	12726.81
601.046	12816.53
601.404	12943.08
601.762	12808.62
602.12	12884.77
602.478	12893.14
602.836	12764.33
603.194	12783.99
603.552	12766.36
603.91	12718.9
604.268	12825.79
604.625	12781.5
604.983	12882.06
605.341	12785.57
605.698	12948.95
606.056	13008.84
606.413	12923.64
606.771	12950.99
607.128	13047.03
607.485	12923.87
607.843	12949.18
608.2	12972.91
608.557	13047.48
608.914	12967.48
609.272	13001.16
609.629	13079.12
609.986	13164.54
610.343	13026.92
610.7	13094.49
611.057	13116.63
611.414	13059.91
611.771	13172.45
612.127	13195.05
612.484	13187.37
612.841	13179.46
613.198	13169.96
613.554	13200.92
613.911	13266.01
614.267	13264.65
614.624	13163.86
614.98	13250.19
615.337	13236.63
615.693	13215.16
616.05	13257.19
616.406	13422.39
616.762	13221.26
617.118	13313.46
617.475	13343.97
617.831	13447.02
618.187	13354.37
618.543	13374.7
618.899	13409.51
619.255	13406.79
619.611	13391.65
619.967	13333.35
620.323	13416.74
620.678	13363.18
621.034	13342.84
621.39	13336.74
621.746	13228.95
622.101	13536.73
622.457	13350.75
622.812	13458.32
623.168	13438.43
623.523	13425.1
623.879	13521.37
624.234	13385.55
624.589	13442.73
624.945	13402.95
625.3	13377.19
625.655	13376.74
626.01	13362.28
626.365	13455.15
626.72	13363.41
627.075	13334.48
627.43	13459.9
627.785	13346.91
628.14	13376.51
628.495	13377.42
628.85	13315.95
629.205	13266.23
629.559	13403.63
629.914	13284.31
630.269	13309.62
630.623	13272.33
630.978	13280.02
631.332	13298.1
631.687	13341.03
632.041	13289.28
632.396	13250.87
632.75	13221.04
633.104	13246.12
633.459	13223.3
633.813	13230.98
634.167	13175.16
634.521	13253.35
634.875	13235.73
635.229	13186.46
635.583	13181.04
635.937	13191.66
636.291	13062.17
636.645	13153.02
636.999	13079.57
637.352	13112.56
637.706	13042.96
638.06	13066.92
638.413	13001.16
638.767	12954.15
639.121	13083.87
639.474	12868.96
639.828	12911.21
640.181	13042.28
640.534	12834.83
640.888	12950.99
641.241	12835.51
641.594	12932.68
641.947	12957.09
642.301	12938.78
642.654	12922.97
643.007	12808.84
643.36	12883.42
643.713	12821.73
644.066	12759.58
644.419	12686.36
644.771	12702.63
645.124	12660.83
645.477	12573.14
645.83	12514.16
646.182	12487.72
646.535	12419.02
646.888	12378.8
647.24	12323.66
647.593	12411.11
647.945	12324.79
648.298	12240.95
648.65	12245.24
649.002	12217.9
649.355	12356.2
649.707	12264.9
650.059	12346.71
650.411	12461.51
650.763	12393.94
651.115	12540.15
651.467	12498.34
651.819	12488.4
652.171	12561.17
652.523	12395.52
652.875	12435.29
653.227	12414.5
653.578	12442.75
653.93	12403.88
654.282	12390.32
654.633	12368.86
654.985	12352.81
655.337	12365.69
655.688	12350.78
656.039	12284.56
656.391	12252.47
656.742	12334.51
657.094	12290.44
657.445	12361.62
657.796	12258.8
658.147	12264.23
658.498	12282.98
658.849	12357.33
659.2	12292.02
659.551	12288.18
659.902	12293.83
660.253	12324.56
660.604	12275.3
660.955	12271.23
661.306	12341.29
661.656	12229.2
662.007	12223.77
662.358	12207.05
662.708	12177.45
663.059	12188.52
663.409	12186.94
663.76	12136.32
664.11	12171.8
664.461	12167.5
664.811	12134.96
665.161	12118.01
665.511	12111.69
665.862	12245.69
666.212	12213.61
666.562	12219.03
666.912	12112.14
667.262	12112.14
667.612	12175.87
667.962	12211.35
668.312	12107.17
668.662	12186.94
669.011	12174.28
669.361	12078.92
669.711	12094.29
670.06	12085.25
670.41	12024.46
670.76	11989.88
671.109	12073.27
671.459	12022.88
671.808	11975.42
672.157	12033.72
672.507	11888.64
672.856	11963.67
673.205	12065.59
673.554	11987.62
673.904	12057
674.253	12074.17
674.602	12046.6
674.951	11784.01
675.3	11763.22
675.649	12056.1
675.998	11986.27
676.346	11924.12
676.695	11936.55
677.044	11865.82
677.393	11882.77
677.741	11890.45
678.09	11874.41
678.438	11811.81
678.787	11829.21
679.135	11897
679.484	11821.3
679.832	11890.22
680.181	11775.65
680.529	11815.88
680.877	11785.37
681.225	11798.25
681.573	11801.19
681.922	11757.57
682.27	11704.01
682.618	11748.08
682.966	11671.7
683.314	11679.38
683.661	11599.61
684.009	11564.58
684.357	11537.69
684.705	11593.28
685.053	11567.07
685.4	11470.12
685.748	11551.93
686.095	11473.29
686.443	11503.79
686.79	11360.29
687.138	11468.31
687.485	11405.49
687.832	11365.49
688.18	11384.25
688.527	11328.2
688.874	11312.84
689.221	11287.75
689.568	11299.05
689.915	11248.43
690.262	11256.12
690.609	11180.86
690.956	11125.5
691.303	11094.76
691.65	11037.59
691.997	11042.79
692.344	10973.41
692.69	11001.66
693.037	10965.5
693.383	10869.23
693.73	10949.68
694.077	10927.54
694.423	10882.57
694.769	10881.66
695.116	10844.38
695.462	10896.35
695.808	10818.39
696.155	10865.84
696.501	10793.76
696.847	10691.61
697.193	10658.17
697.539	10664.04
697.885	10586.53
698.231	10560.99
698.577	10447.78
698.923	10508.79
699.269	10468.11
699.614	10425.18
699.96	10368.91
700.306	10403.71
700.651	10328.01
700.997	10344.95
701.342	10363.26
701.688	10390.38
702.033	10277.61
702.379	10302.47
702.724	10257.95
703.069	10332.75
703.415	10143.15
703.76	10179.53
704.105	10157.16
704.45	10136.6
704.795	10124.85
705.14	9989.48
705.485	10023.61
705.83	9978.18
706.175	9944.51
706.52	9932.99
706.865	9929.6
707.209	9960.56
707.554	9972.99
707.899	10022.7
708.243	9948.35
708.588	9810.96
708.932	9880.33
709.277	9876.49
709.621	9771.18
709.966	9748.36
710.31	9779.32
710.654	9698.87
710.998	9720.34
711.342	9675.14
711.687	9636.72
712.031	9563.05
712.375	9525.77
712.719	9560.57
713.063	9527.12
713.407	9650.28
713.75	9554.47
714.094	9507.01
714.438	9480.34
714.782	9509.27
715.125	9474.47
715.469	9484.64
715.812	9471.53
716.156	9395.37
716.499	9430.4
716.843	9373
717.186	9373
717.53	9418.2
717.873	9388.37
718.216	9394.7
718.559	9292.1
718.902	9207.36
719.246	9255.72
719.589	9268.6
719.932	9216.85
720.275	9201.03
720.617	9135.04
720.96	9138.66
721.303	9163.52
721.646	9105.66
721.989	9071.99
722.331	9129.39
722.674	9107.7
723.016	9057.3
723.359	9098.43
723.701	9186.34
724.044	9020.47
724.386	8996.06
724.729	9073.57
725.071	9075.61
725.413	8968.49
725.755	8950.41
726.097	8915.16
726.439	8901.38
726.782	8896.86
727.124	8890.75
727.465	8837.87
727.807	8799.46
728.149	8793.81
728.491	8768.72
728.833	8832.9
729.175	8761.49
729.516	8744.54
729.858	8704.32
730.199	8767.59
730.541	8737.31
730.882	8758.56
731.224	8771.89
731.565	8710.19
731.906	8720.59
732.248	8781.15
732.589	8729.4
732.93	8687.37
733.271	8690.31
733.612	8651.21
733.953	8704.32
734.294	8650.54
734.635	8596.53
734.976	8595.85
735.317	8577.77
735.658	8542.97
735.999	8569.41
736.339	8503.87
736.68	8589.07
737.021	8517.66
737.361	8396.08
737.702	8519.47
738.042	8433.37
738.383	8509.3
738.723	8468.39
739.063	8480.82
739.404	8445.57
739.744	8456.19
740.084	8395.17
740.424	8411.9
740.764	8422.97
741.104	8439.24
741.444	8328.74
741.784	8381.84
742.124	8378.68
742.464	8321.73
742.804	8314.95
743.143	8258.23
743.483	8258.23
743.823	8226.59
744.162	8226.82
744.502	8219.36
744.841	8174.16
745.181	8231.79
745.52	8202.64
745.86	8143.88
746.199	8202.86
746.538	8214.16
746.877	8197.44
747.216	8209.19
747.556	8180.94
747.895	8194.95
748.234	8102.3
748.573	8103.66
748.911	8131.9
749.25	8115.63
749.589	8077.22
749.928	8035.86
750.267	8079.48
750.605	8060.72
750.944	8004.22
751.283	7997.45
751.621	7999.25
751.96	7913.61
752.298	7889.2
752.636	7904.11
752.975	7890.1
753.313	7831.35
753.651	7924.9
753.989	7808.52
754.327	7814.4
754.666	7784.8
755.004	7839.26
755.342	7885.81
755.679	7862.76
756.017	7744.12
756.355	7774.17
756.693	7757.9
757.031	7770.56
757.368	7706.38
757.706	7703.44
758.044	7725.36
758.381	7682.2
758.719	7617.79
759.056	7647.85
759.394	7548.19
759.731	7557.68
760.068	7565.37
760.405	7501.41
760.743	7397.01
761.08	7506.38
761.417	7437.46
761.754	7399.95
762.091	7439.04
762.428	7420.06
762.765	7409.66
763.102	7369.66
763.438	7311.36
763.775	7291.7
764.112	7352.72
764.449	7336.22
764.785	7271.81
765.122	7277.46
765.458	7249.67
765.795	7145.04
766.131	7153.63
766.467	7222.32
766.804	7137.81
767.14	7162.89
767.476	7079.5
767.812	7072.72
768.148	7102.55
768.485	6984.14
768.821	6941.65
769.157	6976.45
769.492	6992.05
769.828	6929.9
770.164	6877.02
770.5	6863.46
770.836	6861.66
771.171	6828.89
771.507	6849.9
771.842	6762.9
772.178	6758.83
772.513	6802.9
772.849	6725.61
773.184	6718.83
773.519	6683.36
773.855	6718.83
774.19	6647.2
774.525	6676.35
774.86	6653.53
775.195	6597.03
775.53	6575.11
775.865	6549.57
776.2	6498.5
776.535	6450.14
776.87	6491.5
777.205	6464.15
777.539	6435.23
777.874	6443.14
778.209	6386.87
778.543	6311.16
778.878	6280.65
779.212	6319.75
779.547	6258.06
779.881	6287.43
780.215	6229.36
780.55	6280.43
780.884	6267.77
781.218	6158.62
781.552	6159.75
781.886	6206.76
782.22	6154.78
782.554	6076.82
782.888	6055.58
783.222	6099.42
783.556	6021.23
783.889	5993.43
784.223	6005.63
784.557	6004.5
784.89	5981
785.224	5998.18
785.557	5912.3
785.891	5976.26
786.224	5917.95
786.558	5871.4
786.891	5892.19
787.224	5821.01
787.557	5790.72
787.891	5822.59
788.224	5730.84
788.557	5761.57
788.89	5755.92
789.223	5714.79
789.556	5672.99
789.888	5661.24
790.221	5640.9
790.554	5616.94
790.887	5602.71
791.219	5558.19
791.552	5543.27
791.884	5531.3
792.217	5567.68
792.549	5517.96
792.882	5501.01
793.214	5461.01
793.546	5497.17
793.879	5487.23
794.211	5390.28
794.543	5459.66
794.875	5398.64
795.207	5461.24
795.539	5410.39
795.871	5405.42
796.203	5363.39
796.535	5360.68
796.867	5341.47
797.198	5291.08
797.53	5309.61
797.862	5278.65
798.193	5295.6
798.525	5233.45
798.856	5160.23
799.188	5143.06
799.519	5206.78
799.85	5189.61
800.182	5153.45
800.513	5108.26
800.844	5083.85
801.175	5131.53
801.506	5113.91
801.837	5041.82
802.168	5071.65
802.499	5036.84
802.83	5008.82
803.161	5009.73
803.491	4958.43
803.822	5005.66
804.153	4971.08
804.483	4940.12
804.814	4980.8
805.145	4941.48
805.475	4959.11
805.805	4922.72
806.136	4886.79
806.466	4926.34
806.796	4906.23
807.126	4814.93
807.457	4853.8
807.787	4822.61
808.117	4809.51
808.447	4773.12
808.777	4785.78
809.107	4756.63
809.436	4763.63
809.766	4752.33
810.096	4744.88
810.426	4720.92
810.755	4718.89
811.085	4704.2
811.414	4710.75
811.744	4681.37
812.073	4657.65
812.403	4650.19
812.732	4646.35
813.061	4644.76
813.39	4603.41
813.719	4601.38
814.049	4652.9
814.378	4635.5
814.707	4631.66
815.036	4595.73
815.365	4627.82
815.693	4545.33
816.022	4541.72
816.351	4533.36
816.68	4479.12
817.008	4537.88
817.337	4498.55
817.665	4481.15
817.994	4472.79
818.322	4510.31
818.651	4407.03
818.979	4440.25
819.307	4405.45
819.636	4409.97
819.964	4370.87
820.292	4376.75
820.62	4411.1
820.948	4396.64
821.276	4373.81
821.604	4370.2
821.932	4430.31
822.259	4370.42
822.587	4431.21
822.915	4362.96
823.243	4380.37
823.57	4382.4
823.898	4430.53
824.225	4402.06
824.553	4397.77
824.88	4391.21
825.207	4414.49
825.535	4426.24
825.862	4348.5
826.189	4386.92
826.516	4389.63
826.843	4388.5
827.17	4369.97
827.497	4441.38
827.824	4367.71
828.151	4402.29
828.478	4402.51
828.805	4382.62
829.131	4351.44
829.458	4341.95
829.785	4377.43
830.111	4335.85
830.438	4333.59
830.764	4388.27
831.09	4320.25
831.417	4331.33
831.743	4364.77
832.069	4316.41
832.395	4331.1
832.722	4389.18
833.048	4347.37
833.374	4357.09
833.7	4342.63
834.026	4352.34
834.351	4353.7
834.677	4389.86
835.003	4390.99
835.329	4413.36
835.654	4383.75
835.98	4344.43
836.306	4377.2
836.631	4353.93
836.956	4296.3
837.282	4306.24
837.607	4278.67
837.932	4281.61
838.258	4309.86
838.583	4239.58
838.908	4238.67
839.233	4212.23
839.558	4240.71
839.883	4227.37
840.208	4210.88
840.533	4193.25
840.858	4197.54
841.182	4206.13
841.507	4198.67
841.832	4165.68
842.156	4208.62
842.481	4180.37
842.805	4172.91
843.13	4153.25
843.454	4167.26
843.778	4146.47
844.103	4157.09
844.427	4099.47
844.751	4170.65
845.075	4135.4
845.399	4168.17
845.723	4089.3
846.047	4150.99
846.371	4081.84
846.695	4104.67
847.019	4029.41
847.343	3982.41
847.666	3986.48
847.99	3967.95
848.313	3938.79
848.637	3939.92
848.96	3936.08
849.284	3910.32
849.607	3905.8
849.931	3849.53
850.254	3840.27
850.577	3848.63
850.9	3804.56
851.223	3831.23
851.546	3825.58
851.869	3781.06
852.192	3792.58
852.515	3781.74
852.838	3730.66
853.161	3791.45
853.483	3756.43
853.806	3756.43
854.129	3735.64
854.451	3713.04
854.774	3733.15
855.096	3696.32
855.419	3686.6
855.741	3697.67
856.063	3661.74
856.385	3659.25
856.708	3647.28
857.03	3621.97
857.352	3633.94
857.674	3624.68
857.996	3563.66
858.318	3569.31
858.64	3563.44
858.961	3543.55
859.283	3547.39
859.605	3529.99
859.926	3488.64
860.248	3472.37
860.57	3488.41
860.891	3495.64
861.212	3458.81
861.534	3493.38
861.855	3467.39
862.176	3489.77
862.498	3467.85
862.819	3470.56
863.14	3475.53
863.461	3487.28
863.782	3482.76
864.103	3456.77
864.424	3496.09
864.745	3474.85
865.065	3452.25
865.386	3457.23
865.707	3427.17
866.027	3470.56
866.348	3442.54
866.668	3458.58
866.989	3409.54
867.309	3400.28
867.63	3399.37
867.95	3412.25
868.27	3346.04
868.59	3389.88
868.91	3335.87
869.23	3392.82
869.55	3335.42
869.87	3346.95
870.19	3278.93
870.51	3316.66
870.83	3314.4
871.15	3261.3
871.469	3293.84
871.789	3316.89
872.109	3332.03
872.428	3315.76
872.748	3308.3
873.067	3320.51
873.386	3313.27
873.706	3336.78
874.025	3301.75
874.344	3308.3
874.663	3337.45
874.982	3298.59
875.301	3284.57
875.62	3285.93
875.939	3337
876.258	3305.59
876.577	3249.55
876.896	3307.4
877.214	3248.87
877.533	3222.88
877.852	3278.7
878.17	3297.68
878.489	3242.32
878.807	3221.98
879.125	3244.58
879.444	3198.93
879.762	3162.54
880.08	3179.49
880.398	3146.95
880.716	3157.57
881.034	3184.46
881.352	3167.06
881.67	3190.79
881.988	3132.71
882.306	3158.25
882.624	3146.27
882.941	3106.5
883.259	3151.47
883.577	3171.36
883.894	3151.92
884.212	3108.08
884.529	3142.21
884.846	3141.53
885.164	3120.51
885.481	3184.24
885.798	3128.42
886.115	3131.58
886.432	3103.34
886.75	3098.14
887.067	3091.59
887.383	3060.85
887.7	3071.25
888.017	3070.34
888.334	3075.54
888.651	3069.21
888.967	3070.12
889.284	3057.91
889.6	3047.97
889.917	2990.35
890.233	3015.66
890.55	3013.17
890.866	3009.1
891.182	2997.12
891.498	2964.36
891.815	2962.78
892.131	2966.16
892.447	2956.9
892.763	2915.32
893.079	2902.44
893.395	2933.85
893.71	2888.65
894.026	2880.74
894.342	2871.03
894.657	2855.89
894.973	2850.69
895.289	2864.02
895.604	2859.5
895.92	2840.97
896.235	2859.73
896.55	2833.51
896.865	2820.18
897.181	2843.68
897.496	2840.74
897.811	2834.64
898.126	2796.45
898.441	2800.07
898.756	2801.65
899.071	2801.2
899.386	2809.33
899.7	2780.63
900.015	2758.03
900.33	2720.07
900.644	2766.62
900.959	2751.71
901.273	2751.71
901.588	2726.62
901.902	2698.6
902.216	2677.81
902.531	2715.55
902.845	2667.42
903.159	2657.47
903.473	2666.06
903.787	2613.41
904.101	2611.82
904.415	2598.94
904.729	2583.58
905.042	2575.67
905.356	2601.65
905.67	2587.64
905.984	2583.8
906.297	2562.56
906.611	2539.06
906.924	2577.02
907.237	2540.87
907.551	2558.72
907.864	2559.62
908.177	2537.02
908.491	2542.22
908.804	2503.8
909.117	2483.47
909.43	2508.32
909.743	2484.6
910.056	2488.66
910.368	2480.75
910.681	2493.86
910.994	2483.69
911.307	2466.74
911.619	2490.47
911.932	2480.53
912.244	2438.95
912.557	2446.63
912.869	2420.42
913.181	2403.92
913.494	2402.11
913.806	2419.06
914.118	2399.63
914.43	2352.85
914.742	2387.2
915.054	2328.89
915.366	2353.75
915.678	2365.95
915.99	2289.57
916.302	2283.47
916.613	2289.57
916.925	2284.15
917.236	2284.37
917.548	2294.09
917.859	2270.36
918.171	2269.46
918.482	2259.29
918.794	2238.73
919.105	2218.61
919.416	2214.32
919.727	2233.75
920.038	2231.27
920.349	2187.88
920.66	2215.22
920.971	2208.22
921.282	2187.65
921.593	2177.03
921.903	2152.63
922.214	2142.46
922.525	2175
922.835	2146.53
923.146	2145.4
923.456	2135.68
923.767	2122.57
924.077	2114.89
924.387	2114.89
924.697	2111.5
925.008	2110.37
925.318	2127.54
925.628	2075.11
925.938	2097.94
926.248	2069.92
926.558	2034.89
926.867	2052.06
927.177	2052.29
927.487	2011.84
927.796	2017.26
928.106	2015.23
928.416	2017.49
928.725	2012.29
929.034	1956.7
929.344	1981.78
929.653	1996.7
929.962	1979.52
930.271	1939.53
930.581	1923.71
930.89	1963.71
931.199	1952.63
931.508	1937.49
931.817	1899.75
932.125	1928.68
932.434	1895.01
932.743	1862.01
933.051	1903.14
933.36	1916.02
933.669	1900.88
933.977	1896.59
934.286	1865.4
934.594	1864.5
934.902	1886.19
935.21	1866.08
935.519	1878.96
935.827	1852.52
936.135	1836.03
936.443	1851.62
936.751	1827.66
937.059	1833.54
937.367	1843.48
937.674	1800.77
937.982	1803.48
938.29	1825.86
938.597	1799.64
938.905	1784.95
939.213	1801.68
939.52	1783.82
939.827	1787.44
940.135	1759.87
940.442	1753.77
940.749	1743.15
941.056	1728.91
941.363	1723.71
941.67	1725.75
941.977	1711.51
942.284	1688.68
942.591	1709.7
942.898	1683.49
943.205	1686.65
943.511	1703.6
943.818	1681.23
944.125	1694.11
944.431	1650.04
944.738	1631.06
945.044	1642.58
945.35	1635.13
945.657	1672.41
945.963	1613.43
946.269	1634.9
946.575	1671.28
946.881	1615.69
947.187	1615.69
947.493	1610.04
947.799	1600.33
948.105	1603.04
948.41	1571.85
948.716	1595.81
949.022	1551.51
949.327	1583.15
949.633	1579.76
949.938	1576.37
950.244	1563.26
950.549	1554.45
950.854	1553.77
951.16	1530.27
951.465	1549.03
951.77	1568.91
952.075	1544.06
952.38	1546.99
952.685	1535.69
952.99	1485.98
953.294	1526.2
953.599	1484.85
953.904	1500.44
954.209	1487.33
954.513	1497.95
954.818	1478.97
955.122	1509.93
955.426	1493.44
955.731	1467.67
956.035	1476.26
956.339	1462.93
956.643	1467.22
956.948	1440.1
957.252	1412.53
957.556	1413.44
957.86	1430.61
958.163	1390.84
958.467	1411.86
958.771	1397.84
959.075	1397.84
959.378	1423.15
959.682	1392.87
959.985	1394.45
960.289	1378.86
960.592	1398.52
960.896	1411.63
961.199	1367.34
961.502	1368.92
961.805	1366.88
962.108	1354.23
962.411	1342.93
962.714	1367.56
963.017	1352.2
963.32	1361.01
963.623	1338.86
963.926	1341.8
964.228	1316.72
964.531	1314
964.833	1328.02
965.136	1311.52
965.438	1299.77
965.741	1351.74
966.043	1295.02
966.345	1298.64
966.648	1296.15
966.95	1291.86
967.252	1285.76
967.554	1278.3
967.856	1263.61
968.158	1274.01
968.46	1264.74
968.761	1263.38
969.063	1285.76
969.365	1232.43
969.666	1231.52
969.968	1231.3
970.269	1236.94
970.571	1215.48
970.872	1229.49
971.174	1220.9
971.475	1238.75
971.776	1227.45
972.077	1222.48
972.378	1216.15
972.679	1196.27
972.98	1201.69
973.281	1208.25
973.582	1176.16
973.883	1197.17
974.183	1181.35
974.484	1167.34
974.785	1169.83
975.085	1159.43
975.386	1155.14
975.686	1149.94
975.986	1165.08
976.287	1142.94
976.587	1151.07
976.887	1139.55
977.187	1144.74
977.487	1137.74
977.787	1121.69
978.087	1123.5
978.387	1128.02
978.687	1137.06
978.987	1092.99
979.286	1141.35
979.586	1118.76
979.885	1104.07
980.185	1108.13
980.484	1110.17
980.784	1106.33
981.083	1076.95
981.382	1098.64
981.682	1104.07
981.981	1080.79
982.28	1088.93
982.579	1069.72
982.878	1064.97
983.177	1072.88
983.475	1089.15
983.774	1064.97
984.073	1059.77
984.372	1073.33
984.67	1053.67
984.969	1041.24
985.267	1035.59
985.566	1053.9
985.864	1035.82
986.162	1019.1
986.461	1031.3
986.759	1017.74
987.057	1021.58
987.355	1018.42
987.653	1015.71
987.951	1008.7
988.249	1015.26
988.547	992.88
988.844	1025.43
989.142	998.08
989.44	1001.7
989.737	985.2
990.035	982.71
990.332	981.81
990.63	965.54
990.927	975.93
991.224	999.44
991.521	993.11
991.819	966.67
992.116	935.94
992.413	977.74
992.71	948.14
993.006	929.38
993.303	982.71
993.6	948.59
993.897	947.23
994.193	938.65
994.49	962.6
994.787	953.79
995.083	942.26
995.379	907.24
995.676	936.61
995.972	910.63
996.268	905.88
996.565	890.51
996.861	932.55
997.157	910.63
997.453	908.14
997.749	902.26
998.044	893.23
998.34	879.89
998.636	889.38
998.932	912.66
999.227	887.35
999.523	894.81
999.818	879.67
1000.114	866.56
1000.409	861.36
1000.704	844.64
1001	862.94
1001.295	840.12
1001.59	847.12
1001.885	874.92
1002.18	849.38
1002.475	841.7
1002.77	838.99
1003.065	842.6
1003.359	836.96
1003.654	829.72
1003.949	816.84
1004.243	810.52
1004.538	833.79
1004.832	804.87
1005.127	822.04
1005.421	827.24
1005.715	813.45
1006.009	808.26
1006.304	822.72
1006.598	787.01
1006.892	784.3
1007.186	809.39
1007.48	796.96
1007.773	782.95
1008.067	800.35
1008.361	795.37
1008.655	794.92
1008.948	773
1009.242	765.54
1009.535	768.48
1009.829	754.7
1010.122	776.84
1010.415	795.15
1010.708	761.03
1011.001	763.96
1011.295	738.43
1011.588	735.26
1011.881	741.59
1012.173	739.56
1012.466	746.56
1012.759	710.18
1013.052	751.99
1013.344	747.69
1013.637	732.1
1013.93	748.14
1014.222	711.99
1014.514	728.26
1014.807	748.82
1015.099	707.69
1015.391	711.31
1015.683	716.96
1015.976	733.46
1016.268	710.86
1016.56	714.25
1016.851	695.26
1017.143	713.34
1017.435	671.99
1017.727	697.3
1018.018	678.99
1018.31	700.01
1018.602	696.85
1018.893	694.81
1019.185	673.8
1019.476	688.71
1019.767	688.71
1020.058	663.4
1020.35	649.84
1020.641	662.72
1020.932	681.48
1021.223	656.17
1021.514	633.57
1021.804	646.23
1022.095	638.09
1022.386	660.46
1022.677	642.38
1022.967	639.22
1023.258	656.17
1023.548	632.67
1023.839	644.42
1024.129	642.16
1024.419	645.55
1024.709	623.85
1025	618.43
1025.29	643.74
1025.58	615.72
1025.87	602.16
1026.16	613.68
1026.449	610.29
1026.739	598.54
1027.029	615.94
1027.319	609.39
1027.608	604.42
1027.898	596.06
1028.187	603.06
1028.477	589.05
1028.766	570.3
1029.055	593.35
1029.344	589.73
1029.634	584.76
1029.923	590.63
1030.212	563.97
1030.501	561.03
1030.79	565.32
1031.078	573.01
1031.367	594.7
1031.656	574.14
1031.945	561.93
1032.233	556.96
1032.522	556.74
1032.81	570.97
1033.099	579.56
1033.387	574.14
1033.675	541.6
1033.963	559.22
1034.251	522.61
1034.54	541.14
1034.828	537.08
1035.116	542.5
1035.403	544.53
1035.691	539.11
1035.979	564.19
1036.267	521.71
1036.554	550.18
1036.842	533.69
1037.129	523.07
1037.417	542.5
1037.704	539.56
1037.992	538.66
1038.279	525.55
1038.566	530.52
1038.853	530.52
1039.14	530.52
