Data from foam_black_FLMS001491_00004.txt Node
Date: Wed Feb 08 10:43:25 GMT 2017
User: dcchb
Spectrometer: FLMS00149
Trigger mode: 0
Integration Time (sec): 2.000000E-2
Scans to average: 10
Electric dark correction enabled: true
Nonlinearity correction enabled: false
Boxcar width: 0
XAxis mode: Wavelengths
Number of Pixels in Spectrum: 2048
>>>>>Begin Spectral Data<<<<<
341.393	3.88
341.776	3.88
342.16	3.88
342.543	-51.71
342.927	-69.11
343.31	-71.82
343.693	-68.66
344.077	-59.39
344.46	-72.5
344.843	-70.69
345.226	-35.89
345.61	-23.46
345.993	1.62
346.376	-9.9
346.759	18.8
347.142	11.57
347.525	52.24
347.908	67.39
348.291	63.77
348.674	84.33
349.057	112.58
349.44	111
349.823	135.86
350.206	164.11
350.588	211.79
350.971	207.72
351.354	221.51
351.737	222.64
352.119	244.56
352.502	254.95
352.884	259.02
353.267	278.91
353.65	288.17
354.032	299.7
354.414	310.32
354.797	329.98
355.179	344.89
355.562	321.62
355.944	328.17
356.326	296.53
356.709	342.63
357.091	355.06
357.473	355.06
357.855	358.9
358.238	347.38
358.62	353.25
359.002	336.08
359.384	338.79
359.766	347.83
360.148	340.6
360.53	350.32
360.912	326.59
361.294	351.22
361.676	343.31
362.057	339.92
362.439	346.02
362.821	347.6
363.203	341.28
363.584	341.5
363.966	355.51
364.348	327.94
364.729	351.45
365.111	340.82
365.493	324.55
365.874	324.1
366.256	322.52
366.637	347.38
367.019	320.26
367.4	309.19
367.781	319.81
368.163	328.4
368.544	322.07
368.925	314.61
369.306	334.72
369.688	325.01
370.069	327.27
370.45	327.72
370.831	324.1
371.212	332.69
371.593	336.53
371.974	335.17
372.355	343.99
372.736	337.66
373.117	327.49
373.498	336.3
373.879	339.92
374.26	330.88
374.641	323.65
375.021	340.82
375.402	343.08
375.783	360.26
376.163	357.32
376.544	364.1
376.925	343.54
377.305	349.86
377.686	356.42
378.066	322.29
378.447	348.73
378.827	360.26
379.208	360.94
379.588	385.79
379.968	362.52
380.349	371.11
380.729	364.1
381.109	377.89
381.489	378.11
381.87	397.09
382.25	372.24
382.63	398.22
383.01	392.57
383.39	380.82
383.77	401.16
384.15	382.63
384.53	390.09
384.91	393.7
385.29	402.97
385.67	394.61
386.049	392.12
386.429	417.43
386.809	406.81
387.189	385.12
387.568	401.39
387.948	402.07
388.328	423.76
388.707	420.37
389.087	431.44
389.466	412.01
389.846	433.03
390.225	429.64
390.605	429.41
390.984	433.48
391.363	429.18
391.743	438.67
392.122	441.16
392.501	431.9
392.881	469.63
393.26	449.75
393.639	474.38
394.018	473.48
394.397	464.21
394.776	459.47
395.155	474.38
395.534	463.76
395.913	460.14
396.292	472.8
396.671	487.26
397.05	478
397.429	476.19
397.808	469.86
398.186	486.58
398.565	505.57
398.944	494.94
399.323	465.34
399.701	509.18
400.08	519.8
400.458	510.54
400.837	492.91
401.215	503.53
401.594	517.32
401.972	522.74
402.351	517.54
402.729	527.71
403.107	520.93
403.486	550.31
403.864	539.46
404.242	543.76
404.62	519.35
404.999	565.23
405.377	569.07
405.755	545.11
406.133	569.52
406.511	551.67
406.889	575.62
407.267	597.99
407.645	595.96
408.023	603.64
408.401	592.34
408.779	596.41
409.156	608.61
409.534	611.33
409.912	626.24
410.29	633.47
410.667	658.33
411.045	641.61
411.422	654.26
411.8	634.15
412.178	662.4
412.555	659.91
412.933	647.26
413.31	659.23
413.687	668.73
414.065	667.82
414.442	678.44
414.819	680.7
415.197	694.71
415.574	721.15
415.951	703.07
416.328	706.69
416.705	708.27
417.082	708.95
417.46	719.8
417.837	730.64
418.214	725.22
418.591	723.87
418.967	755.95
419.344	759.57
419.721	749.18
420.098	767.48
420.475	760.93
420.852	799.12
421.228	808.83
421.605	814.26
421.982	800.47
422.358	804.54
422.735	791.89
423.111	834.37
423.488	813.13
423.864	822.17
424.241	815.39
424.617	833.01
424.994	828.95
425.37	839.57
425.746	878.89
426.123	889.51
426.499	864.88
426.875	888.83
427.251	905.1
427.627	910.07
428.003	915.95
428.379	950.07
428.756	910.53
429.132	928.38
429.507	930.64
429.883	967.93
430.259	982.39
430.635	975.84
431.011	986.23
431.387	987.81
431.763	1004.54
432.138	1006.34
432.514	1050.64
432.89	1030.3
433.265	1052.9
433.641	1050.86
434.016	1080.69
434.392	1079.56
434.767	1091.77
435.143	1094.02
435.518	1112.78
435.894	1115.72
436.269	1139.22
436.644	1147.58
437.02	1162.72
437.395	1147.13
437.77	1195.27
438.145	1201.14
438.52	1212.21
438.895	1209.73
439.271	1205.89
439.646	1226
440.021	1251.08
440.395	1218.99
440.77	1228.71
441.145	1244.98
441.52	1266.22
441.895	1269.16
442.27	1280.46
442.645	1289.73
443.019	1336.96
443.394	1340.12
443.769	1285.43
444.143	1280.69
444.518	1327.24
444.892	1320.91
445.267	1335.37
445.641	1353.23
446.016	1325.66
446.39	1366.56
446.764	1388.25
447.139	1408.59
447.513	1389.38
447.887	1371.31
448.262	1391.64
448.636	1409.04
449.01	1410.85
449.384	1417.86
449.758	1460.34
450.132	1458.08
450.506	1450.4
450.88	1453.34
451.254	1480
451.628	1503.96
452.002	1498.76
452.376	1527.23
452.75	1544.86
453.123	1529.04
453.497	1581.24
453.871	1570.62
454.244	1601.36
454.618	1611.53
454.992	1661.92
455.365	1632.09
455.739	1651.07
456.112	1689.04
456.486	1693.11
456.859	1722.93
457.232	1740.56
457.606	1727.68
457.979	1748.7
458.352	1801.12
458.725	1828.47
459.099	1840.9
459.472	1821.01
459.845	1851.29
460.218	1864.85
460.591	1908.69
460.964	1900.56
461.337	1932.87
461.71	1962.48
462.083	1999.31
462.456	1968.58
462.829	2003.83
463.201	2013.77
463.574	2060.33
463.947	2044.28
464.32	2069.82
464.692	2121.79
465.065	2117.73
465.438	2165.64
465.81	2192.53
466.183	2215.35
466.555	2221.23
466.928	2273.2
467.3	2254.22
467.672	2318.85
468.045	2377.38
468.417	2341.45
468.789	2386.65
469.161	2367.66
469.534	2408.57
469.906	2451.28
470.278	2470.49
470.65	2527.66
471.022	2586.19
471.394	2608.11
471.766	2618.05
472.138	2648.11
472.51	2713.42
472.882	2755
473.253	2747.54
473.625	2834.54
473.997	2871.38
474.369	2896.01
474.74	2896.46
475.112	2975.78
475.484	2995.9
475.855	3018.04
476.227	3100.07
476.598	3161.77
476.97	3207.87
477.341	3263.23
477.713	3274.98
478.084	3331.25
478.455	3400.63
478.827	3430.91
479.198	3513.17
479.569	3533.96
479.94	3631.36
480.311	3676.1
480.682	3736.67
481.053	3797.68
481.424	3829.32
481.795	3855.99
482.166	3930.33
482.537	4003.55
482.908	4088.75
483.279	4116.32
483.65	4175.53
484.021	4243.32
484.391	4255.07
484.762	4333.26
485.133	4358.57
485.503	4481.51
485.874	4541.39
486.244	4518.12
486.615	4633.82
486.985	4707.04
487.356	4754.72
487.726	4800.14
488.097	4866.81
488.467	4858.67
488.837	5002.4
489.207	5092.11
489.578	5130.53
489.948	5192.45
490.318	5241.03
490.688	5203.52
491.058	5292.78
491.428	5453.01
491.798	5418.66
492.168	5572.1
492.538	5594.25
492.908	5615.49
493.278	5714.47
493.648	5659.33
494.017	5752.21
494.387	5822.94
494.757	5902.03
495.126	5909.04
495.496	5986.33
495.866	5999.21
496.235	6032.43
496.605	6103.61
496.974	6135.93
497.344	6214.57
497.713	6233.55
498.082	6255.25
498.452	6322.59
498.821	6367.33
499.19	6413.21
499.559	6429.93
499.928	6499.08
500.298	6558.74
500.667	6599.19
501.036	6603.26
501.405	6681.22
501.774	6742.24
502.143	6752.41
502.512	6808.68
502.88	6882.8
503.249	6888.22
503.618	6923.7
503.987	6934.78
504.356	7039.18
504.724	7015.45
505.093	7059.74
505.462	7110.59
505.83	7127.99
506.199	7176.12
506.567	7343.8
506.936	7271.94
507.304	7465.16
507.672	7423.58
508.041	7446.63
508.409	7549
508.777	7568.66
509.145	7642.33
509.514	7680.07
509.882	7695.66
510.25	7678.26
510.618	7848.2
510.986	7825.6
511.354	7982.21
511.722	7998.93
512.09	8033.96
512.458	8021.3
512.826	8061.98
513.193	8230.79
513.561	8209.32
513.929	8281.18
514.297	8322.99
514.664	8480.5
515.032	8401.63
515.4	8538.57
515.767	8509.65
516.135	8611.34
516.502	8573.83
516.869	8736.31
517.237	8739.93
517.604	8736.76
517.972	8901.28
518.339	8883.88
518.706	8962.29
519.073	9027.6
519.44	9118.9
519.808	9191.21
520.175	9189.63
520.542	9320.02
520.909	9327.71
521.276	9399.57
521.643	9482.96
522.009	9545.33
522.376	9663.74
522.743	9622.61
523.11	9736.28
523.477	9861.25
523.843	9917.07
524.21	10015.82
524.577	10103.05
524.943	10157.97
525.31	10211.3
525.676	10309.83
526.043	10306.44
526.409	10416.49
526.776	10468.24
527.142	10573.78
527.508	10614.68
527.874	10681.8
528.241	10765.41
528.607	10774.67
528.973	10978.96
529.339	10956.14
529.705	11052.86
530.071	11185.28
530.437	11189.8
530.803	11207.21
531.169	11332.63
531.535	11386.18
531.901	11360.65
532.267	11422.11
532.632	11552.51
532.998	11506.41
533.364	11705.95
533.73	11643.13
534.095	11848.77
534.461	11824.59
534.826	11920.18
535.192	12008.77
535.557	11983.46
535.923	12060.74
536.288	12051.48
536.653	12173.51
537.019	12154.75
537.384	12222.32
537.749	12191.81
538.114	12299.83
538.479	12283.34
538.845	12367.63
539.21	12390.9
539.575	12536.66
539.94	12500.96
540.305	12666.6
540.67	12597
541.034	12737.79
541.399	12784.56
541.764	12767.62
542.129	12765.36
542.494	12912.7
542.858	12907.05
543.223	12914.73
543.587	13026.14
543.952	13008.29
544.316	13119.25
544.681	13121.51
545.045	13088.74
545.41	13216.64
545.774	13260.71
546.138	13188.62
546.503	13367.6
546.867	13308.84
547.231	13543.64
547.595	13505.68
547.959	13553.81
548.324	13586.35
548.688	13579.35
549.052	13638.33
549.416	13644.66
549.779	13684.65
550.143	13782.05
550.507	13824.76
550.871	13930.07
551.235	13972.56
551.599	14037.87
551.962	14116.06
552.326	14093.23
552.689	14225.88
553.053	14183.85
553.417	14226.11
553.78	14389.04
554.143	14361.47
554.507	14448.25
554.87	14500
555.234	14643.27
555.597	14579.09
555.96	14662.03
556.323	14879.2
556.686	14797.62
557.05	14939.54
557.413	14952.19
557.776	14998.74
558.139	15149.7
558.502	15104.73
558.865	15098.63
559.228	15341.56
559.59	15383.14
559.953	15455.46
560.316	15594.43
560.679	15514.44
561.041	15600.31
561.404	15796.46
561.767	15840.3
562.129	15731.38
562.492	15948.55
562.854	16020.41
563.217	16026.29
563.579	16068.77
563.941	16164.59
564.304	16271.03
564.666	16327.75
565.028	16380.85
565.39	16389.67
565.753	16574.3
566.115	16654.29
566.477	16691.13
566.839	16719.83
567.201	16944.68
567.563	16847.73
567.925	17017
568.287	17011.57
568.648	17100.61
569.01	17159.82
569.372	17293.82
569.734	17185.35
570.095	17312.36
570.457	17454.5
570.819	17434.61
571.18	17520.94
571.542	17507.15
571.903	17559.13
572.265	17693.59
572.626	17672.12
572.987	17777.2
573.349	17872.57
573.71	17866.69
574.071	17922.51
574.432	17917.54
574.794	18081.6
575.155	18116.18
575.516	18067.36
575.877	18093.13
576.238	18163.86
576.599	18233.69
576.96	18314.36
577.32	18321.82
577.681	18361.59
578.042	18460.57
578.403	18362.05
578.763	18396.39
579.124	18404.53
579.485	18489.5
579.845	18513.91
580.206	18520.01
580.566	18546.22
580.927	18613.79
581.287	18632.55
581.648	18531.98
582.008	18692.43
582.368	18574.02
582.728	18658.08
583.089	18606.11
583.449	18579.44
583.809	18710.51
584.169	18641.36
584.529	18575.15
584.889	18801.36
585.249	18682.04
585.609	18742.37
585.969	18835.71
586.329	18776.72
586.688	18801.58
587.048	18741.02
587.408	18638.87
587.768	18739.21
588.127	18737.18
588.487	18707.8
588.846	18830.06
589.206	18750.06
589.565	18871.41
589.925	18903.73
590.284	18891.3
590.643	18801.58
591.003	18896.49
591.362	18963.84
591.721	18980.56
592.08	19042.93
592.44	19022.37
592.799	19003.61
593.158	19118.41
593.517	19010.84
593.876	19099.43
594.235	19099.2
594.593	19094
594.952	19171.06
595.311	19080.9
595.67	19185.3
596.029	19328.8
596.387	19168.35
596.746	19238.18
597.104	19305.3
597.463	19167.22
597.822	19351.17
598.18	19273.21
598.538	19296.26
598.897	19370.15
599.255	19234.34
599.613	19524.73
599.972	19483.6
600.33	19590.94
600.688	19383.71
601.046	19410.83
601.404	19490.15
601.762	19531.51
602.12	19633.42
602.478	19638.62
602.836	19549.81
603.194	19402.47
603.552	19474.11
603.91	19430.27
604.268	19628
604.625	19539.64
604.983	19690.15
605.341	19472.07
605.698	19686.98
606.056	19720.43
606.413	19631.16
606.771	19657.6
607.128	19715.46
607.485	19691.73
607.843	19645.85
608.2	19793.65
608.557	19806.75
608.914	19726.76
609.272	19851.5
609.629	19821.22
609.986	19898.73
610.343	19840.88
610.7	19883.81
611.057	19890.82
611.414	19901.21
611.771	19902.8
612.127	19986.64
612.484	19960.87
612.841	20001.1
613.198	19982.12
613.554	19877.26
613.911	20038.61
614.267	19993.87
614.624	20050.36
614.98	19953.19
615.337	20047.2
615.693	20055.79
616.05	20076.58
616.406	20183.01
616.762	20173.75
617.118	20142.11
617.475	20080.64
617.831	20178.04
618.187	20202.9
618.543	20141.89
618.899	20286.06
619.255	20162.68
619.611	20146.63
619.967	20202.68
620.323	20166.52
620.678	20281.99
621.034	20134.43
621.39	20100.53
621.746	20113.19
622.101	20329.68
622.457	20221.21
622.812	20121.77
623.168	20237.02
623.523	20290.81
623.879	20235.22
624.234	20078.61
624.589	20187.31
624.945	20225.73
625.3	20271.6
625.655	20204.71
626.01	20226.86
626.365	20226.4
626.72	20141.21
627.075	20153.41
627.43	20167.65
627.785	20159.96
628.14	20229.57
628.495	20196.57
628.85	20206.29
629.205	20080.64
629.559	20223.69
629.914	20052.62
630.269	20164.26
630.623	20071.15
630.978	20028.22
631.332	20135.33
631.687	20102.79
632.041	20074.99
632.396	20060.31
632.75	19997.48
633.104	20065.73
633.459	19952.06
633.813	19890.59
634.167	19895.34
634.521	19845.4
634.875	19918.16
635.229	19906.64
635.583	19749.13
635.937	19795.23
636.291	19783.7
636.645	19725.63
636.999	19812.85
637.352	19865.51
637.706	19621
638.06	19766.98
638.413	19676.81
638.767	19610.6
639.121	19586.19
639.474	19583.93
639.828	19535.8
640.181	19576.25
640.534	19510.26
640.888	19555.69
641.241	19490.6
641.594	19416.48
641.947	19528.79
642.301	19484.95
642.654	19559.53
643.007	19521.11
643.36	19416.71
643.713	19451.51
644.066	19636.36
644.419	19524.73
644.771	19311.85
645.124	19053.78
645.477	18994.8
645.83	18914.35
646.182	18797.74
646.535	18891.07
646.888	18887
647.24	18892.65
647.593	19056.72
647.945	19041.58
648.298	18891.52
648.65	18859.43
649.002	18715.48
649.355	18834.8
649.707	18742.15
650.059	18807.68
650.411	18993.89
650.763	19098.07
651.115	19317.73
651.467	19177.17
651.819	19202.02
652.171	19174.91
652.523	19165.41
652.875	19096.72
653.227	19057.17
653.578	19224.85
653.93	19140.78
654.282	19022.82
654.633	18963.61
654.985	19052.87
655.337	19066.21
655.688	19078.18
656.039	19137.62
656.391	18965.42
656.742	18933.33
657.094	18917.06
657.445	18950.5
657.796	18966.55
658.147	18859.43
658.498	18906.66
658.849	18986.66
659.2	18887.68
659.551	18879.32
659.902	18864.86
660.253	18799.77
660.604	18814.69
660.955	18680.68
661.306	18802.26
661.656	18771.53
662.007	18835.03
662.358	18755.03
662.708	18781.02
663.059	18692.21
663.409	18593.45
663.76	18799.55
664.11	18725.65
664.461	18757.06
664.811	18596.84
665.161	18633.45
665.511	18668.93
665.862	18619.67
666.212	18647.46
666.562	18713.22
666.912	18556.84
667.262	18547.35
667.612	18519.78
667.962	18650.85
668.312	18439.56
668.662	18535.15
669.011	18488.14
669.361	18451.53
669.711	18602.49
670.06	18364.31
670.41	18446.79
670.76	18381.25
671.109	18407.69
671.459	18434.59
671.808	18258.32
672.157	18343.29
672.507	18246.79
672.856	18202.28
673.205	18231.2
673.554	18235.95
673.904	18115.05
674.253	18270.97
674.602	18154.82
674.951	17912.34
675.3	17837.09
675.649	18096.06
675.998	18013.58
676.346	18106.01
676.695	18118.21
677.044	17964.77
677.393	18107.81
677.741	17948.27
678.09	17920.02
678.438	17982.39
678.787	17937.88
679.135	17962.73
679.484	17814.94
679.832	17946.69
680.181	17864.43
680.529	17744.43
680.877	17661.27
681.225	17672.12
681.573	17814.49
681.922	17646.81
682.27	17611.33
682.618	17647.49
682.966	17572.24
683.314	17510.77
683.661	17485.46
684.009	17490.43
684.357	17349.87
684.705	17334.5
685.053	17395.97
685.4	17461.96
685.748	17284.33
686.095	17302.19
686.443	17271.23
686.79	17120.04
687.138	17277.33
687.485	17215.86
687.832	17200.04
688.18	17179.03
688.527	17155.75
688.874	17111
689.221	17125.69
689.568	17030.33
689.915	16958.24
690.262	17021.06
690.609	16969.31
690.956	16954.17
691.303	16916.21
691.65	16769.09
691.997	16835.53
692.344	16676.44
692.69	16813.84
693.037	16679.15
693.383	16546.27
693.73	16673.5
694.077	16560.28
694.423	16534.3
694.769	16450.91
695.116	16414.53
695.462	16422.89
695.808	16386.05
696.155	16299.95
696.501	16321.65
696.847	16302.66
697.193	16252.72
697.539	16321.2
697.885	16173.63
698.231	16130.92
698.577	16109.68
698.923	16128.21
699.269	16031.94
699.614	15909.68
699.96	15985.16
700.306	15994.88
700.651	15839.85
700.997	15844.37
701.342	15755.56
701.688	15795.56
702.033	15719.4
702.379	15797.59
702.724	15679.63
703.069	15787.65
703.415	15498.84
703.76	15584.27
704.105	15572.29
704.45	15554.89
704.795	15344.27
705.14	15429.47
705.485	15370.03
705.83	15398.51
706.175	15349.92
706.52	15284.61
706.865	15178.63
707.209	15219.98
707.554	15148.12
707.899	15127.1
708.243	15153.99
708.588	15070.38
708.932	14964.62
709.277	14979.31
709.621	14922.14
709.966	14811.18
710.31	14921.23
710.654	14795.81
710.998	14898.86
711.342	14892.53
711.687	14759.43
712.031	14749.26
712.375	14629.94
712.719	14679.2
713.063	14618.64
713.407	14644.4
713.75	14628.13
714.094	14479.89
714.438	14523.05
714.782	14586.78
715.125	14486.67
715.469	14514.24
715.812	14396.27
716.156	14304.07
716.499	14344.07
716.843	14411.87
717.186	14246.22
717.53	14232.89
717.873	14266.79
718.216	14220.23
718.559	14231.31
718.902	14080.12
719.246	14079.67
719.589	14082.16
719.932	14066.34
720.275	14103.63
720.617	14006.68
720.96	13961.48
721.303	13927.59
721.646	14036.96
721.989	13827.48
722.331	13951.77
722.674	13858.89
723.016	13837.87
723.359	13813.01
723.701	13769.4
724.044	13717.65
724.386	13716.74
724.729	13781.15
725.071	13603.98
725.413	13704.31
725.755	13634.49
726.097	13595.17
726.439	13530.76
726.782	13532.12
727.124	13561.49
727.465	13490.76
727.807	13509.52
728.149	13495.51
728.491	13339.13
728.833	13419.8
729.175	13380.26
729.516	13315.85
729.858	13402.63
730.199	13317.43
730.541	13384.32
730.882	13329.64
731.224	13293.03
731.565	13184.55
731.906	13181.39
732.248	13177.32
732.589	13122.86
732.93	13108.4
733.271	13089.42
733.612	13068.63
733.953	13081.51
734.294	12971.9
734.635	12978.68
734.976	13030.66
735.317	12940.49
735.658	12936.43
735.999	12881.06
736.339	12847.16
736.68	12884.9
737.021	12909.99
737.361	12804.45
737.702	12848.29
738.042	12796.54
738.383	12744.11
738.723	12807.16
739.063	12687.39
739.404	12796.77
739.744	12681.97
740.084	12658.69
740.424	12679.48
740.764	12597.23
741.104	12682.42
741.444	12560.16
741.784	12494.4
742.124	12483.56
742.464	12497.34
742.804	12530.79
743.143	12447.62
743.483	12441.07
743.823	12312.94
744.162	12390.9
744.502	12385.93
744.841	12321.53
745.181	12425.25
745.52	12369.66
745.86	12363.11
746.199	12298.7
746.538	12251.02
746.877	12255.99
747.216	12211.47
747.556	12188.65
747.895	12156.11
748.234	12059.84
748.573	12100.52
748.911	12107.07
749.25	12041.76
749.589	12005.38
749.928	12090.8
750.267	12068.88
750.605	11962.21
750.944	11905.27
751.283	11920.41
751.621	11905.27
751.96	11790.24
752.298	11845.38
752.636	11831.37
752.975	11758.6
753.313	11783.46
753.651	11847.64
753.989	11697.36
754.327	11776.23
754.666	11663.24
755.004	11641.09
755.342	11651.94
755.679	11696.01
756.017	11573.75
756.355	11578.95
756.693	11444.49
757.031	11533.3
757.368	11477.03
757.706	11502.34
758.044	11400.87
758.381	11424.37
758.719	11436.13
759.056	11353.19
759.394	11243.14
759.731	11242.91
760.068	11190.71
760.405	11204.49
760.743	11108.68
761.08	11197.26
761.417	11076.36
761.754	11071.62
762.091	11076.59
762.428	11002.24
762.765	10936.93
763.102	11051.5
763.438	10910.72
763.775	10831.85
764.112	10900.09
764.449	10926.76
764.785	10892.86
765.122	10814.9
765.458	10744.84
765.795	10702.13
766.131	10656.94
766.467	10590.95
766.804	10683.38
767.14	10614.9
767.476	10634.79
767.812	10559.76
768.148	10575.81
768.485	10418.75
768.821	10443.16
769.157	10470.5
769.492	10461.91
769.828	10355.7
770.164	10393.22
770.5	10338.3
770.836	10335.14
771.171	10266.44
771.507	10292.88
771.842	10196.84
772.178	10165.88
772.513	10087.01
772.849	10136.72
773.184	10094.92
773.519	10055.82
773.855	9952.32
774.19	9942.83
774.525	9933.57
774.86	9913.68
775.195	9962.72
775.53	9854.25
775.865	9821.93
776.2	9809.28
776.535	9791.65
776.87	9762.95
777.205	9639.11
777.539	9684.08
777.874	9728.15
778.209	9625.55
778.543	9600.69
778.878	9606.12
779.212	9561.15
779.547	9511.66
779.881	9497.19
780.215	9428.72
780.55	9487.48
780.884	9420.13
781.218	9412.45
781.552	9388.72
781.886	9282.06
782.22	9249.97
782.554	9244.77
782.888	9182.63
783.222	9193.25
783.556	9136.07
783.889	9116.64
784.223	9063.31
784.557	9023.99
784.89	9070.76
785.224	9021.95
785.557	9013.36
785.891	8900.6
786.224	8953.25
786.558	8958.45
786.891	8813.14
787.224	8797.33
787.557	8885.46
787.891	8814.73
788.224	8780.38
788.557	8731.34
788.89	8747.38
789.223	8708.06
789.556	8685.46
789.888	8659.25
790.221	8604.79
790.554	8600.04
790.887	8597.33
791.219	8532.93
791.552	8429.65
791.884	8495.86
792.217	8507.39
792.549	8480.27
792.882	8411.12
793.214	8271.46
793.546	8363.44
793.879	8299.03
794.211	8252.93
794.543	8276.21
794.875	8207.74
795.207	8226.27
795.539	8120.05
795.871	8157.79
796.203	8085.03
796.535	8073.28
796.867	8116.44
797.198	7999.61
797.53	7991.24
797.862	7948.99
798.193	7927.74
798.525	7947.18
798.856	7890.68
799.188	7878.25
799.519	7807.75
799.85	7761.87
800.182	7754.41
800.513	7699.95
800.844	7649.11
801.175	7740.63
801.506	7698.15
801.837	7621.76
802.168	7581.09
802.499	7646.17
802.83	7602.55
803.161	7532.05
803.491	7588.09
803.822	7549.22
804.153	7491.82
804.483	7373.63
804.814	7400.98
805.145	7346.74
805.475	7412.5
805.805	7315.56
806.136	7346.97
806.466	7295.67
806.796	7283.92
807.126	7233.98
807.457	7236.24
807.787	7190.36
808.117	7170.48
808.447	7124.37
808.777	7169.35
809.107	7024.04
809.436	7105.17
809.766	7112.85
810.096	7017.71
810.426	7025.39
810.755	7029.91
811.085	6970.03
811.414	6937.94
811.744	6903.36
812.073	6903.14
812.403	6904.49
812.732	6852.97
813.061	6802.35
813.39	6817.04
813.719	6764.61
814.049	6778.85
814.378	6779.75
814.707	6784.04
815.036	6780.2
815.365	6713.99
815.693	6665.63
816.022	6673.31
816.351	6659.98
816.68	6614.56
817.008	6630.15
817.337	6577.72
817.665	6523.26
817.994	6584.28
818.322	6526.42
818.651	6502.02
818.979	6467.89
819.307	6497.72
819.636	6442.13
819.964	6394.45
820.292	6446.2
820.62	6450.49
820.948	6410.27
821.276	6414.56
821.604	6379.99
821.932	6407.33
822.259	6392.87
822.587	6377.28
822.915	6357.62
823.243	6414.34
823.57	6383.15
823.898	6346.32
824.225	6363.26
824.553	6394.22
824.88	6325.98
825.207	6375.92
825.535	6387.67
825.862	6378.41
826.189	6354.23
826.516	6356.03
826.843	6392.19
827.17	6381.34
827.497	6374.79
827.824	6339.31
828.151	6334.57
828.478	6341.8
828.805	6334.57
829.131	6299.54
829.458	6330.5
829.785	6309.71
830.111	6377.95
830.438	6382.25
830.764	6391.51
831.09	6378.86
831.417	6296.6
831.743	6384.06
832.069	6397.39
832.395	6303.83
832.722	6369.14
833.048	6308.35
833.374	6347.67
833.7	6330.05
834.026	6302.25
834.351	6307.45
834.677	6307.67
835.003	6358.97
835.329	6306.77
835.654	6280.78
835.98	6276.04
836.306	6295.92
836.631	6289.82
836.956	6283.04
837.282	6247.11
837.607	6265.19
837.932	6251.86
838.258	6250.5
838.583	6223.16
838.908	6251.18
839.233	6236.04
839.558	6187.22
839.883	6143.84
840.208	6204.85
840.533	6219.31
840.858	6189.71
841.182	6177.96
841.507	6179.09
841.832	6156.72
842.156	6176.15
842.481	6088.02
842.805	6056.83
843.13	6117.4
843.454	6068.36
843.778	6123.5
844.103	6031.07
844.427	6022.71
844.751	6047.79
845.075	6094.12
845.399	6012.54
845.723	6021.8
846.047	5989.49
846.371	5969.83
846.695	5977.74
847.019	5944.29
847.343	5939.1
847.666	5901.58
847.99	5865.65
848.313	5871.98
848.637	5806.22
848.96	5784.52
849.284	5856.84
849.607	5768.03
849.931	5790.85
850.254	5731.19
850.577	5697.52
850.9	5682.15
851.223	5656.62
851.546	5594.25
851.869	5579.56
852.192	5637.86
852.515	5557.86
852.838	5614.81
853.161	5540.69
853.483	5555.6
853.806	5573.68
854.129	5511.08
854.451	5497.52
854.774	5461.14
855.096	5348.38
855.419	5457.07
855.741	5472.67
856.063	5414.59
856.385	5425.89
856.708	5384.76
857.03	5415.72
857.352	5403.52
857.674	5389.96
857.996	5372.56
858.318	5331.65
858.64	5291.65
858.961	5345.21
859.283	5319.68
859.605	5294.82
859.926	5322.16
860.248	5248.94
860.57	5242.62
860.891	5299.11
861.212	5213.92
861.534	5184.09
861.855	5187.48
862.176	5267.93
862.498	5205.78
862.819	5233.8
863.14	5208.49
863.461	5177.99
863.782	5185.89
864.103	5224.76
864.424	5180.47
864.745	5153.81
865.065	5163.3
865.386	5103.41
865.707	5108.16
866.027	5089.63
866.348	5076.52
866.668	5146.35
866.989	5117.87
867.309	5040.81
867.63	5074.71
867.95	5065.9
868.27	5040.36
868.59	5041.27
868.91	5023.87
869.23	5060.25
869.55	4993.58
869.87	5087.37
870.19	5017.31
870.51	5032.68
870.83	5013.47
871.15	4965.11
871.469	4938.67
871.789	5003.53
872.109	4993.58
872.428	4935.05
872.748	4948.84
873.067	4937.54
873.386	4970.76
873.706	4940.93
874.025	4938.22
874.344	4906.35
874.663	4927.82
874.982	4904.09
875.301	4867.03
875.62	4871.1
875.939	4886.92
876.258	4890.54
876.577	4850.08
876.896	4892.12
877.214	4813.7
877.533	4820.71
877.852	4799.46
878.17	4827.49
878.489	4804.21
878.807	4835.4
879.125	4822.74
879.444	4827.26
879.762	4803.31
880.08	4754.49
880.398	4773.48
880.716	4761.95
881.034	4720.82
881.352	4738.9
881.67	4785.68
881.988	4753.36
882.306	4702.07
882.624	4685.57
882.941	4661.39
883.259	4651.9
883.577	4662.07
883.894	4607.83
884.212	4622.07
884.529	4627.94
884.846	4650.09
885.164	4625.46
885.481	4617.77
885.798	4590.2
886.115	4581.16
886.432	4579.13
886.75	4535.29
887.067	4569.19
887.383	4539.36
887.7	4448.74
888.017	4521.51
888.334	4507.95
888.651	4501.62
888.967	4493.71
889.284	4455.07
889.6	4455.07
889.917	4378.23
890.233	4388.85
890.55	4396.54
890.866	4372.36
891.182	4383.43
891.498	4396.31
891.815	4341.62
892.131	4326.71
892.447	4325.35
892.763	4322.64
893.079	4236.99
893.395	4297.33
893.71	4263.89
894.026	4244
894.342	4223.89
894.657	4185.7
894.973	4156.77
895.289	4189.31
895.604	4190.44
895.92	4160.38
896.235	4144.79
896.55	4075.64
896.865	4093.04
897.181	4072.7
897.496	4101.18
897.811	4061.63
898.126	4048.52
898.441	4065.92
898.756	4025.02
899.071	3980.5
899.386	3976.66
899.7	3978.47
900.015	3948.41
900.33	3945.93
900.644	3923.33
900.959	3947.51
901.273	3919.94
901.588	3875.42
901.902	3820.28
902.216	3826.83
902.531	3827.74
902.845	3809.89
903.159	3794.29
903.473	3821.64
903.787	3759.72
904.101	3752.26
904.415	3789.32
904.729	3776.21
905.042	3702.09
905.356	3720.4
905.67	3728.98
905.984	3711.58
906.297	3702.09
906.611	3626.39
906.924	3686.5
907.237	3607.41
907.551	3635.88
907.864	3595.65
908.177	3552.04
908.491	3557.69
908.804	3595.43
909.117	3537.8
909.43	3554.3
909.743	3503
910.056	3500.74
910.368	3442.21
910.681	3472.72
910.994	3458.26
911.307	3429.1
911.619	3416
911.932	3417.58
912.244	3409.22
912.557	3409.67
912.869	3367.86
913.181	3368.09
913.494	3364.7
913.806	3337.36
914.118	3339.62
914.43	3335.77
914.742	3322.67
915.054	3279.05
915.366	3304.14
915.678	3274.08
915.99	3247.41
916.302	3248.32
916.613	3240.64
916.925	3254.87
917.236	3178.94
917.548	3230.47
917.859	3165.83
918.171	3173.97
918.482	3133.52
918.794	3120.64
919.105	3115.67
919.416	3098.49
919.727	3083.58
920.038	3088.55
920.349	3073.41
920.66	3062.56
920.971	3063.69
921.282	3061.43
921.593	3058.94
921.903	2996.35
922.214	2999.51
922.525	2987.08
922.835	2970.59
923.146	2959.51
923.456	2966.52
923.767	2984.82
924.077	2951.83
924.387	2911.15
924.697	2885.16
925.008	2874.32
925.318	2888.55
925.628	2878.38
925.938	2887.88
926.248	2908.89
926.558	2881.55
926.867	2828.22
927.177	2809.46
927.487	2813.08
927.796	2746.41
928.106	2791.83
928.416	2794.32
928.725	2784.83
929.034	2723.36
929.344	2745.05
929.653	2732.4
929.962	2715.9
930.271	2702.34
930.581	2688.33
930.89	2650.59
931.199	2681.1
931.508	2664.38
931.817	2681.1
932.125	2665.51
932.434	2650.59
932.743	2628.9
933.051	2637.94
933.36	2607.66
933.669	2593.19
933.977	2607.21
934.286	2588
934.594	2540.77
934.902	2560.65
935.21	2559.07
935.519	2551.61
935.827	2537.83
936.135	2524.5
936.443	2514.55
936.751	2526.08
937.059	2536.92
937.367	2510.26
937.674	2510.26
937.982	2478.85
938.29	2447.21
938.597	2448.79
938.905	2447.44
939.213	2444.72
939.52	2416.25
939.827	2383.48
940.135	2408.79
940.442	2392.97
940.749	2417.83
941.056	2375.12
941.363	2347.33
941.67	2382.13
941.977	2325.63
942.284	2306.65
942.591	2341.68
942.898	2326.31
943.205	2329.25
943.511	2314.33
943.818	2329.47
944.125	2310.94
944.431	2290.38
944.738	2311.85
945.044	2294.22
945.35	2282.69
945.657	2224.16
945.963	2249.47
946.269	2216.26
946.575	2252.64
946.881	2238.18
947.187	2204.73
947.493	2214.9
947.799	2240.89
948.105	2175.58
948.41	2163.38
948.716	2178.97
949.022	2160.21
949.327	2190.27
949.633	2155.47
949.938	2173.32
950.244	2124.73
950.549	2138.97
950.854	2130.16
951.16	2124.51
951.465	2105.07
951.77	2098.29
952.075	2103.72
952.38	2064.85
952.685	2075.69
952.99	2058.97
953.294	2058.07
953.599	2061.23
953.904	2023.94
954.209	2040.67
954.513	2031.85
954.818	1996.83
955.122	2008.35
955.426	2012.87
955.731	1968.13
956.035	1985.53
956.339	1992.53
956.643	1973.1
956.948	2012.42
957.252	1968.8
957.556	1974.68
957.86	1920.9
958.163	1940.56
958.467	1946.66
958.771	1908.92
959.075	1927.9
959.378	1938.75
959.682	1934.68
959.985	1904.4
960.289	1916.6
960.592	1881.57
960.896	1858.98
961.199	1897.62
961.502	1866.43
961.805	1880.22
962.108	1847.9
962.411	1870.73
962.714	1860.78
963.017	1814.91
963.32	1800
963.623	1788.02
963.926	1821.01
964.228	1809.71
964.531	1794.8
964.833	1792.54
965.136	1760.67
965.438	1777.17
965.741	1772.88
966.043	1788.47
966.345	1783.27
966.648	1768.81
966.95	1744.4
967.252	1756.83
967.554	1731.07
967.856	1732.2
968.158	1728.36
968.46	1733.56
968.761	1695.14
969.063	1702.14
969.365	1698.3
969.666	1695.59
969.968	1696.72
970.269	1675.25
970.571	1691.3
970.872	1672.77
971.174	1650.39
971.475	1663.5
971.776	1682.71
972.077	1621.02
972.378	1637.51
972.679	1652.43
972.98	1657.4
973.281	1616.95
973.582	1616.72
973.883	1603.62
974.183	1601.81
974.484	1587.12
974.785	1602.49
975.085	1589.61
975.386	1603.39
975.686	1571.3
975.986	1603.39
976.287	1548.7
976.587	1563.17
976.887	1566.33
977.187	1569.27
977.487	1532.88
977.787	1557.29
978.087	1532.21
978.387	1527.46
978.687	1527.91
978.987	1515.03
979.286	1484.07
979.586	1481.59
979.885	1484.75
980.185	1484.52
980.484	1502.6
980.784	1457.18
981.083	1491.98
981.382	1472.55
981.682	1451.98
981.981	1448.37
982.28	1428.48
982.579	1453.11
982.878	1437.52
983.177	1429.84
983.475	1425.32
983.774	1425.54
984.073	1383.28
984.372	1432.1
984.67	1431.19
984.969	1399.1
985.267	1383.28
985.566	1400.01
985.864	1387.8
986.162	1406.56
986.461	1364.75
986.759	1368.37
987.057	1337.41
987.355	1337.63
987.653	1360.91
987.951	1350.52
988.249	1340.12
988.547	1345.09
988.844	1339.22
989.142	1341.02
989.44	1339.89
989.737	1315.94
990.035	1315.71
990.332	1273.68
990.63	1316.84
990.927	1289.27
991.224	1291.76
991.521	1266.22
991.819	1283.4
992.116	1278.88
992.413	1268.94
992.71	1250.63
993.006	1238.65
993.303	1273
993.6	1271.65
993.897	1245.43
994.193	1228.03
994.49	1240.01
994.787	1245.66
995.083	1224.19
995.379	1216.96
995.676	1219.22
995.972	1201.82
996.268	1166.57
996.565	1174.93
996.861	1182.38
997.157	1183.97
997.453	1201.82
997.749	1178.99
998.044	1166.79
998.34	1139.22
998.636	1142.16
998.932	1146.45
999.227	1133.12
999.523	1127.47
999.818	1130.18
1000.114	1129.96
1000.409	1106.23
1000.704	1112.78
1001	1127.92
1001.295	1091.99
1001.59	1084.76
1001.885	1089.51
1002.18	1096.06
1002.475	1049.96
1002.77	1056.29
1003.065	1066
1003.359	1073.69
1003.654	1057.19
1003.949	1045.44
1004.243	1028.72
1004.538	1027.59
1004.832	1041.37
1005.127	1057.64
1005.421	1033.46
1005.715	1049.05
1006.009	1032.78
1006.304	994.59
1006.598	1024.42
1006.892	987.36
1007.186	1006.12
1007.48	1002.95
1007.773	1001.6
1008.067	975.61
1008.361	997.3
1008.655	974.71
1008.948	970.19
1009.242	977.19
1009.535	954.59
1009.829	968.15
1010.122	962.5
1010.415	927.02
1010.708	926.12
1011.001	946.91
1011.295	954.37
1011.588	923.63
1011.881	938.55
1012.173	905.1
1012.466	920.92
1012.759	904.65
1013.052	902.62
1013.344	902.62
1013.637	889.51
1013.93	875.05
1014.222	896.29
1014.514	872.34
1014.807	882.28
1015.099	873.24
1015.391	872.56
1015.683	861.94
1015.976	880.02
1016.268	878.21
1016.56	836.18
1016.851	868.95
1017.143	849.96
1017.435	827.59
1017.727	842.05
1018.018	818.55
1018.31	820.36
1018.602	815.61
1018.893	818.33
1019.185	812
1019.476	796.41
1019.767	796.41
1020.058	804.54
1020.35	791.21
1020.641	780.81
1020.932	782.62
1021.223	781.26
1021.514	761.38
1021.804	781.49
1022.095	767.25
1022.386	774.49
1022.677	745.33
1022.967	758.21
1023.258	747.14
1023.548	744.43
1023.839	742.85
1024.129	745.79
1024.419	721.38
1024.709	733.81
1025	731.32
1025.29	725.45
1025.58	711.44
1025.87	715.05
1026.16	709.18
1026.449	730.87
1026.739	695.17
1027.029	684.77
1027.319	683.87
1027.608	699.46
1027.898	699.46
1028.187	717.76
1028.477	699.46
1028.766	692.23
1029.055	671.89
1029.344	691.78
1029.634	686.58
1029.923	695.39
1030.212	667.37
1030.501	681.38
1030.79	662.4
1031.078	682.28
1031.367	683.64
1031.656	673.25
1031.945	659.46
1032.233	654.71
1032.522	647.48
1032.81	644.77
1033.099	631.21
1033.387	643.42
1033.675	636.64
1033.963	617.88
1034.251	626.01
1034.54	623.98
1034.828	609.97
1035.116	618.11
1035.403	606.13
1035.691	602.74
1035.979	626.01
1036.267	601.38
1036.554	615.39
1036.842	619.24
1037.129	584.21
1037.417	582.4
1037.704	612.68
1037.992	586.92
1038.279	561.38
1038.566	597.77
1038.853	597.77
1039.14	597.77
