Data from foam_black_FLMS001491_00078.txt Node
Date: Wed Feb 08 10:44:37 GMT 2017
User: dcchb
Spectrometer: FLMS00149
Trigger mode: 0
Integration Time (sec): 2.000000E-2
Scans to average: 10
Electric dark correction enabled: true
Nonlinearity correction enabled: false
Boxcar width: 0
XAxis mode: Wavelengths
Number of Pixels in Spectrum: 2048
>>>>>Begin Spectral Data<<<<<
341.393	-19.21
341.776	-19.21
342.16	-19.21
342.543	-58.98
342.927	-68.25
343.31	-61.02
343.693	-66.21
344.077	-47.46
344.46	-65.99
344.843	-61.24
345.226	-40.9
345.61	-40.45
345.993	-9.72
346.376	-15.82
346.759	4.29
347.142	52.88
347.525	21.69
347.908	50.85
348.291	87
348.674	89.04
349.057	103.05
349.44	114.8
349.823	140.56
350.206	180.56
350.588	186.21
350.971	193.89
351.354	223.95
351.737	228.47
352.119	235.02
352.502	258.52
352.884	256.26
353.267	257.17
353.65	259.2
354.032	292.2
354.414	304.17
354.797	300.78
355.179	279.77
355.562	313.44
355.944	318.64
356.326	307.34
356.709	314.34
357.091	337.62
357.473	306.66
357.855	329.26
358.238	337.17
358.62	343.27
359.002	326.77
359.384	317.73
359.766	341.69
360.148	319.77
360.53	338.52
360.912	296.26
361.294	308.92
361.676	312.76
362.057	308.92
362.439	318.86
362.821	310.95
363.203	310.05
363.584	310.27
363.966	322.48
364.348	314.79
364.729	309.6
365.111	316.83
365.493	301.01
365.874	314.79
366.256	313.66
366.637	291.52
367.019	300.11
367.4	291.29
367.781	293.78
368.163	295.36
368.544	288.58
368.925	317.28
369.306	308.92
369.688	307.79
370.069	308.69
370.45	287
370.831	307.79
371.212	285.19
371.593	291.74
371.974	294.68
372.355	305.75
372.736	299.88
373.117	300.33
373.498	298.98
373.879	307.56
374.26	284.51
374.641	295.59
375.021	305.98
375.402	331.06
375.783	321.57
376.163	315.92
376.544	298.52
376.925	299.65
377.305	305.53
377.686	331.29
378.066	321.12
378.447	324.96
378.827	324.29
379.208	303.27
379.588	301.91
379.968	322.93
380.349	309.6
380.729	329.26
381.109	312.76
381.489	307.11
381.87	318.18
382.25	332.19
382.63	335.81
383.01	323.38
383.39	353.66
383.77	318.64
384.15	338.3
384.53	315.92
384.91	317.73
385.29	341.01
385.67	347.11
386.049	338.75
386.429	346.88
386.809	343.95
387.189	333.78
387.568	327.9
387.948	350.27
388.328	340.78
388.707	326.77
389.087	349.14
389.466	345.53
389.846	368.58
390.225	373.55
390.605	358.86
390.984	355.47
391.363	364.96
391.743	361.8
392.122	358.41
392.501	379.65
392.881	355.02
393.26	342.14
393.639	356.6
394.018	366.54
394.397	367.67
394.776	372.87
395.155	372.42
395.534	372.87
395.913	367
396.292	377.39
396.671	373.55
397.05	377.17
397.429	367.67
397.808	368.13
398.186	384.85
398.565	376.94
398.944	378.07
399.323	364.74
399.701	381.01
400.08	375.81
400.458	388.01
400.837	397.05
401.215	395.92
401.594	380.55
401.972	393.66
402.351	390.72
402.729	393.44
403.107	408.12
403.486	407.22
403.864	433.66
404.242	397.73
404.62	400.44
404.999	398.86
405.377	404.28
405.755	405.64
406.133	385.98
406.511	402.7
406.889	415.13
407.267	425.75
407.645	407.45
408.023	440.67
408.401	426.2
408.779	442.7
409.156	441.34
409.534	431.4
409.912	432.31
410.29	455.36
410.667	428.69
411.045	419.65
411.422	464.17
411.8	459.42
412.178	438.86
412.555	463.26
412.933	462.36
413.31	470.95
413.687	458.97
414.065	459.42
414.442	470.72
414.819	474.79
415.197	488.12
415.574	488.57
415.951	499.2
416.328	504.62
416.705	491.74
417.082	499.87
417.46	495.13
417.837	504.17
418.214	495.35
418.591	475.02
418.967	505.3
419.344	514.34
419.721	510.95
420.098	512.98
420.475	510.04
420.852	527.44
421.228	531.74
421.605	498.52
421.982	524.96
422.358	519.08
422.735	506.88
423.111	529.25
423.488	550.72
423.864	528.12
424.241	525.18
424.617	554.34
424.994	545.07
425.37	558.4
425.746	544.62
426.123	566.54
426.499	579.87
426.875	567.44
427.251	578.74
427.627	559.99
428.003	573.77
428.379	577.61
428.756	580.55
429.132	595.01
429.507	572.87
429.883	599.08
430.259	602.24
430.635	596.59
431.011	611.28
431.387	593.66
431.763	595.69
432.138	643.6
432.514	637.27
432.89	647.21
433.265	630.72
433.641	657.84
434.016	642.47
434.392	659.64
434.767	653.32
435.143	673.65
435.518	686.99
435.894	680.66
436.269	674.33
436.644	693.09
437.02	703.03
437.395	690.6
437.77	707.55
438.145	722.24
438.52	716.37
438.895	733.77
439.271	719.53
439.646	719.53
440.021	724.05
440.395	722.47
440.77	736.03
441.145	744.39
441.52	737.83
441.895	725.18
442.27	753.2
442.645	760.21
443.019	753.43
443.394	763.37
443.769	745.97
444.143	746.42
444.518	771.28
444.892	796.59
445.267	771.28
445.641	795.01
446.016	780.54
446.39	778.06
446.764	774.67
447.139	794.1
447.513	792.3
447.887	795.01
448.262	786.19
448.636	811.05
449.01	785.29
449.384	815.35
449.758	836.14
450.132	861.9
450.506	840.88
450.88	827.77
451.254	842.69
451.628	829.58
452.002	844.95
452.376	851.28
452.75	861.22
453.123	846.53
453.497	884.04
453.871	886.98
454.244	896.47
454.618	901.67
454.992	921.56
455.365	929.69
455.739	916.36
456.112	950.03
456.486	968.79
456.859	957.49
457.232	972.86
457.606	968.79
457.979	983.25
458.352	1018.05
458.725	1015.34
459.099	1007.21
459.472	1007.66
459.845	1016.47
460.218	1033.19
460.591	1044.04
460.964	1064.38
461.337	1045.62
461.71	1065.06
462.083	1093.3
462.456	1087.2
462.829	1086.53
463.201	1108.45
463.574	1096.24
463.947	1119.29
464.32	1148.9
464.692	1148.22
465.065	1143.02
465.438	1169.91
465.81	1199.52
466.183	1220.76
466.555	1223.02
466.928	1197.71
467.3	1228.89
467.672	1233.87
468.045	1238.61
468.417	1245.39
468.789	1284.71
469.161	1289.46
469.534	1303.69
469.906	1308.67
470.278	1303.02
470.65	1347.31
471.022	1371.04
471.394	1405.39
471.766	1354.99
472.138	1382.79
472.51	1388.21
472.882	1467.08
473.253	1455.55
473.625	1482.22
473.997	1508.43
474.369	1514.99
474.74	1506.63
475.112	1519.06
475.484	1559.28
475.855	1593.18
476.227	1593.86
476.598	1629.11
476.97	1654.42
477.341	1691.03
477.713	1710.24
478.084	1688.54
478.455	1745.04
478.827	1746.17
479.198	1791.59
479.569	1808.54
479.94	1828.65
480.311	1853.96
480.682	1902.32
481.053	1927.63
481.424	1953.39
481.795	1959.72
482.166	1993.39
482.537	2055.77
482.908	2081.75
483.279	2088.76
483.65	2103.9
484.021	2152.49
484.391	2156.1
484.762	2165.59
485.133	2204.01
485.503	2226.38
485.874	2260.51
486.244	2319.26
486.615	2356.77
486.985	2329.2
487.356	2381.41
487.726	2410.11
488.097	2432.25
488.467	2413.95
488.837	2492.82
489.207	2524.23
489.578	2551.8
489.948	2587.05
490.318	2610.78
490.688	2605.36
491.058	2635.86
491.428	2679.7
491.798	2704.79
492.168	2735.07
492.538	2773.71
492.908	2769.42
493.278	2805.35
493.648	2806.93
494.017	2874.95
494.387	2871.79
494.757	2898.23
495.126	2907.95
495.496	2944.33
495.866	2976.19
496.235	2962.63
496.605	3020.94
496.974	3020.94
497.344	3022.97
497.713	3086.92
498.082	3083.08
498.452	3097.55
498.821	3145.45
499.19	3136.19
499.559	3184.78
499.928	3222.51
500.298	3213.25
500.667	3283.08
501.036	3264.55
501.405	3271.55
501.774	3284.21
502.143	3351.1
502.512	3379.35
502.88	3393.81
503.249	3388.39
503.618	3420.7
503.987	3422.06
504.356	3464.32
504.724	3462.73
505.093	3507.7
505.462	3480.81
505.83	3510.87
506.199	3554.03
506.567	3613.01
506.936	3573.47
507.304	3623.63
507.672	3675.84
508.041	3654.37
508.409	3691.43
508.777	3766.45
509.145	3725.55
509.514	3749.96
509.882	3817.07
510.25	3828.83
510.618	3797.19
510.986	3826.57
511.354	3877.19
511.722	3930.97
512.09	3910.18
512.458	3950.18
512.826	3991.31
513.193	4013.68
513.561	4007.8
513.929	3972.55
514.297	4076.05
514.664	4088.25
515.032	4085.09
515.4	4146.78
515.767	4181.58
516.135	4192.88
516.502	4193.34
516.869	4204.41
517.237	4285.31
517.604	4250.96
517.972	4338.42
518.339	4328.25
518.706	4326.44
519.073	4382.26
519.44	4424.29
519.808	4496.15
520.175	4503.38
520.542	4504.06
520.909	4544.74
521.276	4558.52
521.643	4606.21
522.009	4660.44
522.376	4656.6
522.743	4677.39
523.11	4742.47
523.477	4811.4
523.843	4804.17
524.21	4824.51
524.577	4871.74
524.943	4934.79
525.31	4965.97
525.676	4924.84
526.043	5011.17
526.409	5080.09
526.776	5119.87
527.142	5071.05
527.508	5134.55
527.874	5177.94
528.241	5249.13
528.607	5217.72
528.973	5298.62
529.339	5271.27
529.705	5366.19
530.071	5404.15
530.437	5460.65
530.803	5421.1
531.169	5466.75
531.535	5506.97
531.901	5517.82
532.267	5578.84
532.632	5588.33
532.998	5612.96
533.364	5628.78
533.73	5601.43
534.095	5680.75
534.461	5713.07
534.826	5733.86
535.192	5735.22
535.557	5820.64
535.923	5804.37
536.288	5791.94
536.653	5786.97
537.019	5857.02
537.384	5923.46
537.749	5926.4
538.114	5965.27
538.479	5912.16
538.845	5966.17
539.21	5971.14
539.575	6033.06
539.94	6036.9
540.305	6004.36
540.67	6024.25
541.034	6094.53
541.399	6099.05
541.764	6125.04
542.129	6082.1
542.494	6160.97
542.858	6151.25
543.223	6172.72
543.587	6220.85
543.952	6286.39
544.316	6250.46
544.681	6230.12
545.045	6335.88
545.41	6307.63
545.774	6329.1
546.138	6338.59
546.503	6365.48
546.867	6352.38
547.231	6394.86
547.595	6391.47
547.959	6414.52
548.324	6432.15
548.688	6498.59
549.052	6466.04
549.416	6534.29
549.779	6502.88
550.143	6539.26
550.507	6621.29
550.871	6577.91
551.235	6563.22
551.599	6637.79
551.962	6647.06
552.326	6699.48
552.689	6742.2
553.053	6749.43
553.417	6739.48
553.78	6848.63
554.143	6815.64
554.507	6854.51
554.87	6856.09
555.234	6942.42
555.597	6965.92
555.96	6966.37
556.323	7035.07
556.686	7066.03
557.05	7058.8
557.413	7105.8
557.776	7143.99
558.139	7216.53
558.502	7267.38
558.865	7228.28
559.228	7260.37
559.59	7304.89
559.953	7317.77
560.316	7457.21
560.679	7422.63
561.041	7506.47
561.404	7524.1
561.767	7552.12
562.129	7593.25
562.492	7639.8
562.854	7684.09
563.217	7687.71
563.579	7713.47
563.941	7751.21
564.304	7761.6
564.666	7826.91
565.028	7843.18
565.39	7862.62
565.753	7941.26
566.115	7895.84
566.477	7966.12
566.839	7954.37
567.201	8022.84
567.563	8009.73
567.925	8099.67
568.287	8049.28
568.648	8089.5
569.01	8153.68
569.372	8187.36
569.734	8185.32
570.095	8248.37
570.457	8249.73
570.819	8368.14
571.18	8322.94
571.542	8385.32
571.903	8375.6
572.265	8461.02
572.626	8440.91
572.987	8423.06
573.349	8492.66
573.71	8458.08
574.071	8523.84
574.432	8642.94
574.794	8651.98
575.155	8635.71
575.516	8635.48
575.877	8669.83
576.238	8734.46
576.599	8731.3
576.96	8801.8
577.32	8740.79
577.681	8740.56
578.042	8835.7
578.403	8773.55
578.763	8853.33
579.124	8896.94
579.485	8877.51
579.845	8904.4
580.206	8872.76
580.566	8928.58
580.927	9007.67
581.287	9000.44
581.648	8951.63
582.008	8983.27
582.368	9037.28
582.728	8984.17
583.089	9025.98
583.449	9045.41
583.809	8952.31
584.169	9074.79
584.529	9041.57
584.889	9049.25
585.249	9042.47
585.609	8983.94
585.969	9063.72
586.329	9088.8
586.688	9117.27
587.048	9060.33
587.408	8989.59
587.768	8979.65
588.127	9031.4
588.487	9022.14
588.846	9037.28
589.206	8969.48
589.565	9056.49
589.925	9066.88
590.284	9029.14
590.643	9084.05
591.003	9079.31
591.362	9119.31
591.721	9097.39
592.08	9072.76
592.44	9006.54
592.799	9074.79
593.158	9069.37
593.517	9040.44
593.876	9081.8
594.235	9073.43
594.593	9049.71
594.952	9045.41
595.311	9053.55
595.67	9010.61
596.029	9065.07
596.387	9122.92
596.746	9113.21
597.104	9043.38
597.463	9016.26
597.822	9105.98
598.18	9053.77
598.538	9067.78
598.897	9063.94
599.255	9096.94
599.613	9177.84
599.972	9167.44
600.33	9112.3
600.688	9068.69
601.046	9169.7
601.404	9230.49
601.762	9193.66
602.12	9201.11
602.478	9192.75
602.836	9213.09
603.194	9139.19
603.552	9169.25
603.91	9184.17
604.268	9226.65
604.625	9210.15
604.983	9234.56
605.341	9203.37
605.698	9280.66
606.056	9268
606.413	9295.57
606.771	9313.2
607.128	9281.34
607.485	9315.24
607.843	9298.74
608.2	9278.85
608.557	9342.81
608.914	9318.63
609.272	9337.83
609.629	9347.78
609.986	9436.81
610.343	9372.18
610.7	9384.16
611.057	9356.14
611.414	9361.11
611.771	9378.74
612.127	9411.05
612.484	9386.65
612.841	9473.42
613.198	9414.67
613.554	9447.89
613.911	9451.5
614.267	9522.46
614.624	9465.97
614.98	9504.61
615.337	9553.42
615.693	9528.34
616.05	9470.26
616.406	9569.01
616.762	9514.33
617.118	9470.71
617.475	9458.73
617.831	9505.51
618.187	9527.43
618.543	9531.27
618.899	9559.3
619.255	9638.84
619.611	9548.22
619.967	9566.98
620.323	9597.71
620.678	9570.14
621.034	9529.69
621.39	9556.58
621.746	9537.6
622.101	9730.59
622.457	9607.88
622.812	9594.1
623.168	9646.53
623.523	9563.59
623.879	9630.48
624.234	9584.15
624.589	9552.74
624.945	9658.5
625.3	9592.06
625.655	9673.19
626.01	9664.6
626.365	9647.88
626.72	9715.9
627.075	9686.3
627.43	9639.75
627.785	9604.72
628.14	9646.75
628.495	9658.28
628.85	9748.67
629.205	9682.91
629.559	9748.9
629.914	9676.81
630.269	9707.54
630.623	9717.71
630.978	9617.37
631.332	9754.77
631.687	9770.82
632.041	9635.45
632.396	9683.36
632.75	9635.9
633.104	9722
633.459	9640.65
633.813	9576.92
634.167	9655.11
634.521	9648.79
634.875	9648.11
635.229	9640.42
635.583	9647.2
635.937	9599.52
636.291	9658.5
636.645	9636.13
636.999	9650.37
637.352	9622.12
637.706	9591.16
638.06	9563.36
638.413	9591.16
638.767	9492.41
639.121	9523.59
639.474	9520.88
639.828	9546.42
640.181	9584.38
640.534	9562.91
640.888	9497.83
641.241	9449.92
641.594	9482.01
641.947	9503.48
642.301	9402.24
642.654	9460.32
643.007	9439.07
643.36	9412.86
643.713	9331.51
644.066	9437.49
644.419	9359.98
644.771	9296.25
645.124	9183.71
645.477	9179.19
645.83	9114.56
646.182	9054
646.535	9020.55
646.888	9060.1
647.24	8989.82
647.593	9074.79
647.945	8992.53
648.298	9016.26
648.65	8963.61
649.002	8898.98
649.355	8986.88
649.707	8883.16
650.059	8912.53
650.411	9045.64
650.763	9064.39
651.115	9126.77
651.467	9085.86
651.819	9129.48
652.171	9106.65
652.523	9001.35
652.875	9060.33
653.227	8966.09
653.578	9017.62
653.93	9042.93
654.282	9001.35
654.633	9002.02
654.985	9040.21
655.337	8999.54
655.688	8954.11
656.039	9069.82
656.391	8995.47
656.742	9004.06
657.094	9048.35
657.445	9021.68
657.796	8981.91
658.147	9029.82
658.498	8948.92
658.849	8990.05
659.2	8999.54
659.551	8920.44
659.902	9002.48
660.253	8928.13
660.604	8933.55
660.955	8995.92
661.306	9028.92
661.656	8945.98
662.007	8944.85
662.358	8969.03
662.708	9028.92
663.059	8957.5
663.409	8903.27
663.76	9016.49
664.11	8967
664.461	8885.42
664.811	8961.8
665.161	8981.91
665.511	8996.37
665.862	8913.66
666.212	8914.57
666.562	8905.53
666.912	8871.63
667.262	8881.57
667.612	8908.92
667.962	8845.42
668.312	8868.47
668.662	8916.15
669.011	8878.86
669.361	8901.23
669.711	8857.17
670.06	8806.77
670.41	8856.04
670.76	8807.9
671.109	8812.2
671.459	8813.55
671.808	8778.07
672.157	8808.58
672.507	8770.39
672.856	8753.67
673.205	8734.46
673.554	8784.63
673.904	8714.35
674.253	8822.37
674.602	8699.43
674.951	8611.75
675.3	8522.04
675.649	8686.33
675.998	8639.77
676.346	8642.48
676.695	8625.31
677.044	8672.09
677.393	8661.24
677.741	8644.52
678.09	8639.32
678.438	8524.97
678.787	8628.02
679.135	8557.06
679.484	8529.49
679.832	8536.27
680.181	8532.88
680.529	8538.08
680.877	8480.68
681.225	8536.5
681.573	8559.77
681.922	8454.69
682.27	8486.78
682.618	8446.78
682.966	8443.85
683.314	8445.43
683.661	8453.56
684.009	8338.99
684.357	8336.96
684.705	8381.93
685.053	8364.3
685.4	8400.46
685.748	8354.36
686.095	8326.33
686.443	8249.95
686.79	8272.78
687.138	8266.45
687.485	8307.58
687.832	8291.53
688.18	8288.14
688.527	8206.79
688.874	8256.51
689.221	8261.03
689.568	8181.71
689.915	8199.11
690.262	8146.23
690.609	8159.33
690.956	8133.8
691.303	8110.07
691.65	8095.61
691.997	8153.91
692.344	8118.43
692.69	8062.61
693.037	8141.93
693.383	8079.79
693.73	8026.91
694.077	7991.2
694.423	7986.91
694.769	7922.73
695.116	7919.11
695.462	7974.71
695.808	7932.9
696.155	7947.36
696.501	7890.19
696.847	7865.56
697.193	7820.13
697.539	7889.96
697.885	7828.95
698.231	7791.66
698.577	7795.73
698.923	7779.23
699.269	7781.94
699.614	7747.37
699.96	7733.36
700.306	7719.12
700.651	7641.61
700.997	7611.78
701.342	7625.11
701.688	7590.53
702.033	7558.9
702.379	7620.36
702.724	7524.55
703.069	7587.15
703.415	7529.07
703.76	7506.92
704.105	7491.33
704.45	7442.06
704.795	7416.98
705.14	7328.39
705.485	7389.18
705.83	7320.94
706.175	7331.56
706.52	7324.55
706.865	7305.8
707.209	7313.71
707.554	7220.38
707.899	7235.06
708.243	7180.38
708.588	7206.59
708.932	7122.52
709.277	7116.2
709.621	7110.32
709.966	7086.59
710.31	7077.78
710.654	6985.81
710.998	7102.19
711.342	7115.75
711.687	7003.66
712.031	7035.52
712.375	6977.44
712.719	7014.73
713.063	6963.43
713.407	6989.87
713.75	6895.19
714.094	6910.1
714.438	6848.41
714.782	6881.85
715.125	6852.02
715.469	6795.08
715.812	6786.26
716.156	6781.06
716.499	6811.12
716.843	6778.13
717.186	6780.84
717.53	6733.16
717.873	6813.38
718.216	6790.1
718.559	6762.53
718.902	6703.55
719.246	6704.23
719.589	6662.65
719.932	6588.3
720.275	6655.87
720.617	6695.19
720.96	6627.85
721.303	6648.19
721.646	6626.72
721.989	6560.28
722.331	6589.43
722.674	6569.54
723.016	6580.17
723.359	6584.01
723.701	6529.55
724.044	6579.94
724.386	6569.32
724.729	6580.84
725.071	6567.74
725.413	6548.98
725.755	6519.38
726.097	6468.53
726.439	6510.56
726.782	6505.14
727.124	6534.97
727.465	6517.34
727.807	6519.6
728.149	6485.71
728.491	6441.64
728.833	6479.83
729.175	6383.79
729.516	6491.35
729.858	6450.45
730.199	6451.13
730.541	6538.59
730.882	6440.51
731.224	6412.26
731.565	6418.59
731.906	6506.27
732.248	6406.39
732.589	6462.2
732.93	6389.89
733.271	6416.1
733.612	6467.4
733.953	6442.32
734.294	6383.79
734.635	6388.08
734.976	6429.66
735.317	6366.39
735.658	6388.98
735.999	6374.75
736.339	6358.25
736.68	6367.52
737.021	6360.96
737.361	6328.42
737.702	6360.06
738.042	6391.92
738.383	6305.37
738.723	6302.21
739.063	6356.22
739.404	6322.77
739.744	6299.04
740.084	6300.63
740.424	6318.7
740.764	6298.37
741.104	6275.77
741.444	6241.19
741.784	6280.74
742.124	6259.5
742.464	6210.01
742.804	6235.99
743.143	6202.77
743.483	6250.01
743.823	6182.44
744.162	6147.41
744.502	6159.61
744.841	6143.12
745.181	6168.65
745.52	6137.92
745.86	6130.01
746.199	6124.13
746.538	6098.37
746.877	6111.7
747.216	6094.76
747.556	6027.86
747.895	6064.47
748.234	6040.29
748.573	6074.87
748.911	6053.4
749.25	6012.95
749.589	5996.23
749.928	6011.59
750.267	6007.07
750.605	6009.56
750.944	5954.87
751.283	5931.82
751.621	5909.22
751.96	5923.01
752.298	5918.94
752.636	5848.43
752.975	5876.91
753.313	5796.01
753.651	5863.12
753.989	5878.04
754.327	5833.29
754.666	5741.32
755.004	5775.22
755.342	5765.05
755.679	5721.21
756.017	5719.62
756.355	5723.47
756.693	5713.07
757.031	5702
757.368	5655.67
757.706	5659.96
758.044	5671.04
758.381	5688.21
758.719	5627.2
759.056	5620.64
759.394	5596.01
759.731	5536.8
760.068	5553.98
760.405	5493.19
760.743	5515.79
761.08	5546.75
761.417	5487.99
761.754	5536.8
762.091	5449.12
762.428	5450.93
762.765	5425.39
763.102	5450.48
763.438	5395.56
763.775	5385.17
764.112	5391.95
764.449	5410.03
764.785	5388.33
765.122	5346.07
765.458	5375
765.795	5330.93
766.131	5329.35
766.467	5318.5
766.804	5322.35
767.14	5280.31
767.476	5239.86
767.812	5212.74
768.148	5215.91
768.485	5143.37
768.821	5236.7
769.157	5157.15
769.492	5138.4
769.828	5179.07
770.164	5129.13
770.5	5086.42
770.836	5086.65
771.171	5079.19
771.507	5073.99
771.842	5052.52
772.178	5058.85
772.513	5020.21
772.849	4957.84
773.184	5002.35
773.519	4938.18
773.855	4938.18
774.19	4919.19
774.525	4896.82
774.86	4944.95
775.195	4928.01
775.53	4904.05
775.865	4875.13
776.2	4834.68
776.535	4762.36
776.87	4801.23
777.205	4817.27
777.539	4797.16
777.874	4739.31
778.209	4747.22
778.543	4749.03
778.878	4684.4
779.212	4729.59
779.547	4710.84
779.881	4678.3
780.215	4653.21
780.55	4660.22
780.884	4657.73
781.218	4622.48
781.552	4628.13
781.886	4622.93
782.22	4533.67
782.554	4534.8
782.888	4463.61
783.222	4505.87
783.556	4476.49
783.889	4446.21
784.223	4438.98
784.557	4434.91
784.89	4433.78
785.224	4375.03
785.557	4364.63
785.891	4326.89
786.224	4391.07
786.558	4327.12
786.891	4297.06
787.224	4283.05
787.557	4249.83
787.891	4257.52
788.224	4250.51
788.557	4186.56
788.89	4193.34
789.223	4186.1
789.556	4135.71
789.888	4172.77
790.221	4146.56
790.554	4128.93
790.887	4139.55
791.219	4117.63
791.552	4098.88
791.884	4050.51
792.217	4055.26
792.549	4062.49
792.882	4004.64
793.214	3996.05
793.546	3987.01
793.879	3946.56
794.211	3947.47
794.543	3907.69
794.875	3944.3
795.207	3963.06
795.539	3886.45
795.871	3951.99
796.203	3883.74
796.535	3855.49
796.867	3858.2
797.198	3806.23
797.53	3789.05
797.862	3820.01
798.193	3784.99
798.525	3800.58
798.856	3801.26
799.188	3778.43
799.519	3756.29
799.85	3713.57
800.182	3722.16
800.513	3684.42
800.844	3692.56
801.175	3722.61
801.506	3674.71
801.837	3653.46
802.168	3679.9
802.499	3703.63
802.83	3667.25
803.161	3627.48
803.491	3605.55
803.822	3616.4
804.153	3610.07
804.483	3578.44
804.814	3589.51
805.145	3559
805.475	3541.15
805.805	3585.67
806.136	3535.05
806.466	3529.17
806.796	3533.01
807.126	3536.63
807.457	3476.29
807.787	3521.72
808.117	3510.19
808.447	3491.89
808.777	3475.84
809.107	3522.39
809.436	3466.35
809.766	3472
810.096	3489.85
810.426	3434.03
810.755	3488.72
811.085	3467.25
811.414	3459.12
811.744	3443.53
812.073	3443.75
812.403	3431.32
812.732	3391.78
813.061	3416.18
813.39	3401.49
813.719	3422.51
814.049	3433.36
814.378	3442.4
814.707	3389.29
815.036	3401.49
815.365	3367.37
815.693	3353.36
816.022	3370.53
816.351	3319.69
816.68	3323.08
817.008	3361.49
817.337	3314.72
817.665	3319.46
817.994	3321.95
818.322	3293.92
818.651	3323.98
818.979	3330.08
819.307	3331.89
819.636	3321.27
819.964	3286.47
820.292	3312
820.62	3279.46
820.948	3280.82
821.276	3255.51
821.604	3283.3
821.932	3282.85
822.259	3287.37
822.587	3287.6
822.915	3301.38
823.243	3291.44
823.57	3282.4
823.898	3269.52
824.225	3277.65
824.553	3289.41
824.88	3318.33
825.207	3273.81
825.535	3293.92
825.862	3269.97
826.189	3304.32
826.516	3329.18
826.843	3280.82
827.17	3284.66
827.497	3283.53
827.824	3238.56
828.151	3318.1
828.478	3294.83
828.805	3267.48
829.131	3276.98
829.458	3288.73
829.785	3290.53
830.111	3296.64
830.438	3291.21
830.764	3283.3
831.09	3298.67
831.417	3303.19
831.743	3259.35
832.069	3260.48
832.395	3237.65
832.722	3310.65
833.048	3246.02
833.374	3273.36
833.7	3250.08
834.026	3246.92
834.351	3221.38
834.677	3210.76
835.003	3248.5
835.329	3202.63
835.654	3248.28
835.98	3224.77
836.306	3232.46
836.631	3217.77
836.956	3246.02
837.282	3215.51
837.607	3176.64
837.932	3189.52
838.258	3212.8
838.583	3155.85
838.908	3192.68
839.233	3168.05
839.558	3138.9
839.883	3162.18
840.208	3159.69
840.533	3137.54
840.858	3182.29
841.182	3199.01
841.507	3168.73
841.832	3153.36
842.156	3078.11
842.481	3137.32
842.805	3113.14
843.13	3102.52
843.454	3133.02
843.778	3135.06
844.103	3104.55
844.427	3097.09
844.751	3107.26
845.075	3072.01
845.399	3098.68
845.723	3076.98
846.047	3078.34
846.371	3041.73
846.695	3056.42
847.019	3000.83
847.343	3015.74
847.666	3024.55
847.99	2988.62
848.313	2983.42
848.637	2972.13
848.96	2964.44
849.284	2956.98
849.607	2933.93
849.931	2967.15
850.254	2905.23
850.577	2927.61
850.9	2898.23
851.223	2910.43
851.546	2900.94
851.869	2906.36
852.192	2869.98
852.515	2839.47
852.838	2852.81
853.161	2887.16
853.483	2869.53
853.806	2840.38
854.129	2846.25
854.451	2805.58
854.774	2801.96
855.096	2762.87
855.419	2769.87
855.741	2793.6
856.063	2803.32
856.385	2754.05
856.708	2786.14
857.03	2745.69
857.352	2795.18
857.674	2774.62
857.996	2787.05
858.318	2800.15
858.64	2736.65
858.961	2739.36
859.283	2731.45
859.605	2693.71
859.926	2716.99
860.248	2714.05
860.57	2687.61
860.891	2712.47
861.212	2674.05
861.534	2688.52
861.855	2677.9
862.176	2701.62
862.498	2722.64
862.819	2670.44
863.14	2688.97
863.461	2667.05
863.782	2623.89
864.103	2664.56
864.424	2634.51
864.745	2637.44
865.065	2624.79
865.386	2637.67
865.707	2647.61
866.027	2631.12
866.348	2648.97
866.668	2602.87
866.989	2627.95
867.309	2608.97
867.63	2617.11
867.95	2616.88
868.27	2614.85
868.59	2593.38
868.91	2662.3
869.23	2586.6
869.55	2602.19
869.87	2614.39
870.19	2593.38
870.51	2596.09
870.83	2603.77
871.15	2580.72
871.469	2570.33
871.789	2561.74
872.109	2535.98
872.428	2538.69
872.748	2528.07
873.067	2549.54
873.386	2561.29
873.706	2512.02
874.025	2493.04
874.344	2510.44
874.663	2525.36
874.982	2502.76
875.301	2517
875.62	2509.99
875.939	2488.75
876.258	2497.34
876.577	2486.04
876.896	2500.27
877.214	2469.09
877.533	2459.37
877.852	2470.22
878.17	2507.05
878.489	2484.91
878.807	2503.89
879.125	2493.95
879.444	2470.9
879.762	2450.33
880.08	2444.68
880.398	2404.46
880.716	2443.55
881.034	2418.47
881.352	2451.69
881.67	2435.87
881.988	2431.35
882.306	2421.86
882.624	2422.99
882.941	2367.85
883.259	2379.37
883.577	2387.28
883.894	2380.73
884.212	2364.01
884.529	2357
884.846	2365.36
885.164	2329.88
885.481	2338.7
885.798	2320.62
886.115	2348.41
886.432	2307.74
886.75	2317.45
887.067	2338.02
887.383	2310.9
887.7	2302.76
888.017	2306.83
888.334	2280.84
888.651	2291.92
888.967	2295.31
889.284	2282.43
889.6	2254.63
889.917	2249.66
890.233	2221.86
890.55	2215.53
890.866	2219.83
891.182	2230
891.498	2217.34
891.815	2212.37
892.131	2192.71
892.447	2192.71
892.763	2218.7
893.079	2230.45
893.395	2197.23
893.71	2166.72
894.026	2187.06
894.342	2199.26
894.657	2153.84
894.973	2138.25
895.289	2154.29
895.604	2158.14
895.92	2124.92
896.235	2130.79
896.55	2108.19
896.865	2145.03
897.181	2078.59
897.496	2098.25
897.811	2111.13
898.126	2098.93
898.441	2078.14
898.756	2083.34
899.071	2055.31
899.386	2090.11
899.7	2069.55
900.015	2030.46
900.33	2038.82
900.644	2032.49
900.959	2008.99
901.273	2034.97
901.588	2027.29
901.902	2041.98
902.216	2004.24
902.531	2039.49
902.845	1979.83
903.159	1999.95
903.473	1977.58
903.787	1993.39
904.101	1972.15
904.415	1946.16
904.729	1967.86
905.042	1971.47
905.356	1941.42
905.67	1926.05
905.984	1951.36
906.297	1940.97
906.611	1939.16
906.924	1932.6
907.237	1916.56
907.551	1915.88
907.864	1931.93
908.177	1894.41
908.491	1898.93
908.804	1878.37
909.117	1846.73
909.43	1854.41
909.743	1875.88
910.056	1836.56
910.368	1848.54
910.681	1875.2
910.994	1836.56
911.307	1834.75
911.619	1798.14
911.932	1813.06
912.244	1796.79
912.557	1798.6
912.869	1829.78
913.181	1796.56
913.494	1786.62
913.806	1806.73
914.118	1768.09
914.43	1796.34
914.742	1743.91
915.054	1759.05
915.366	1745.72
915.678	1779.61
915.99	1731.71
916.302	1748.43
916.613	1739.39
916.925	1715.89
917.236	1726.06
917.548	1706.85
917.859	1727.41
918.171	1687.41
918.482	1749.33
918.794	1707.07
919.105	1706.17
919.416	1657.36
919.727	1677.7
920.038	1702.33
920.349	1702.78
920.66	1623.01
920.971	1702.55
921.282	1670.24
921.593	1656
921.903	1654.65
922.214	1627.08
922.525	1601.77
922.835	1654.87
923.146	1662.78
923.456	1632.5
923.767	1614.87
924.077	1613.29
924.387	1623.91
924.697	1587.08
925.008	1591.14
925.318	1580.07
925.628	1586.85
925.938	1583.91
926.248	1564.48
926.558	1591.37
926.867	1559.51
927.177	1550.02
927.487	1568.77
927.796	1545.95
928.106	1556.57
928.416	1556.57
928.725	1530.36
929.034	1533.74
929.344	1543.46
929.653	1554.08
929.962	1500.98
930.271	1475.67
930.581	1498.94
930.89	1498.94
931.199	1472.5
931.508	1474.54
931.817	1499.62
932.125	1508.21
932.434	1475.89
932.743	1468.89
933.051	1446.97
933.36	1465.72
933.669	1452.17
933.977	1465.72
934.286	1420.53
934.594	1424.6
934.902	1459.62
935.21	1455.33
935.519	1448.32
935.827	1406.29
936.135	1415.56
936.443	1418.49
936.751	1383.24
937.059	1394.77
937.367	1418.72
937.674	1415.78
937.982	1396.12
938.29	1360.87
938.597	1374.65
938.905	1369.46
939.213	1349.12
939.52	1370.36
939.827	1338.5
940.135	1334.88
940.442	1343.69
940.749	1316.35
941.056	1346.41
941.363	1319.29
941.67	1300.98
941.977	1306.63
942.284	1293.75
942.591	1318.38
942.898	1308.44
943.205	1314.32
943.511	1309.34
943.818	1295.79
944.125	1288.33
944.431	1281.32
944.738	1286.75
945.044	1274.09
945.35	1288.55
945.657	1283.58
945.963	1287.65
946.269	1275.22
946.575	1251.27
946.881	1235.45
947.187	1259.18
947.493	1251.94
947.799	1232.28
948.105	1257.37
948.41	1237.48
948.716	1226.63
949.022	1228.22
949.327	1199.74
949.633	1223.02
949.938	1229.57
950.244	1225.73
950.549	1185.05
950.854	1193.87
951.16	1193.19
951.465	1196.35
951.77	1180.31
952.075	1176.01
952.38	1163.36
952.685	1164.26
952.99	1177.14
953.294	1166.3
953.599	1157.26
953.904	1175.79
954.209	1140.08
954.513	1153.87
954.818	1169.23
955.122	1141.66
955.426	1156.81
955.731	1126.07
956.035	1144.6
956.339	1119.52
956.643	1105.96
956.948	1126.98
957.252	1127.2
957.556	1129.01
957.86	1106.86
958.163	1097.82
958.467	1124.04
958.771	1090.59
959.075	1110.48
959.378	1070.48
959.682	1074.1
959.985	1100.76
960.289	1063.25
960.592	1077.49
960.896	1088.33
961.199	1034.32
961.502	1060.99
961.805	1060.09
962.108	1077.71
962.411	1065.96
962.714	1056.02
963.017	1061.89
963.32	1053.76
963.623	1049.01
963.926	1055.34
964.228	1039.07
964.531	1049.69
964.833	1040.42
965.136	1028.67
965.438	1011.05
965.741	995.23
966.043	1026.64
966.345	1009.01
966.648	1013.98
966.95	996.58
967.252	1011.27
967.554	1017.15
967.856	1003.36
968.158	1003.14
968.46	1023.02
968.761	1005.62
969.063	995.68
969.365	981.22
969.666	987.09
969.968	982.12
970.269	961.1
970.571	983.25
970.872	969.69
971.174	973.76
971.475	973.53
971.776	962.23
972.077	953.42
972.378	970.82
972.679	999.07
972.98	938.05
973.281	937.6
973.582	962.46
973.883	931.5
974.183	946.87
974.484	935.57
974.785	950.03
975.085	893.08
975.386	963.59
975.686	913.65
975.986	918.62
976.287	913.87
976.587	896.7
976.887	924.95
977.187	929.47
977.487	892.86
977.787	905.29
978.087	905.51
978.387	908.68
978.687	884.04
978.987	900.77
979.286	918.62
979.586	887.66
979.885	894.67
980.185	882.24
980.484	881.56
980.784	868
981.083	890.15
981.382	867.32
981.682	867.32
981.981	866.42
982.28	863.93
982.579	864.84
982.878	855.12
983.177	841.79
983.475	855.57
983.774	845.85
984.073	849.92
984.372	849.92
984.67	843.82
984.969	838.4
985.267	845.18
985.566	845.4
985.864	854.67
986.162	818.96
986.461	856.25
986.759	809.7
987.057	839.98
987.355	821.22
987.653	834.1
987.951	818.28
988.249	804.27
988.547	814.22
988.844	815.57
989.142	850.83
989.44	807.66
989.737	829.36
990.035	793.88
990.332	789.81
990.63	802.24
990.927	788.91
991.224	808.34
991.521	763.6
991.819	773.99
992.116	773.54
992.413	769.25
992.71	785.06
993.006	778.74
993.303	779.87
993.6	791.17
993.897	766.76
994.193	771.96
994.49	770.15
994.787	753.65
995.083	753.43
995.379	748.91
995.676	743.03
995.972	750.94
996.268	766.76
996.565	760.21
996.861	733.77
997.157	748.45
997.453	734.44
997.749	714.56
998.044	743.26
998.34	722.24
998.636	729.02
998.932	703.48
999.227	721.56
999.523	733.31
999.818	706.2
1000.114	703.48
1000.409	705.74
1000.704	715.69
1001	702.13
1001.295	717.72
1001.59	700.55
1001.885	698.29
1002.18	693.09
1002.475	685.86
1002.77	706.2
1003.065	693.77
1003.359	697.38
1003.654	658.29
1003.949	704.16
1004.243	684.95
1004.538	689.93
1004.832	678.85
1005.127	658.97
1005.421	658.06
1005.715	638.85
1006.009	669.13
1006.304	687.44
1006.598	639.08
1006.892	675.69
1007.186	650.83
1007.48	660.77
1007.773	651.96
1008.067	650.15
1008.361	632.53
1008.655	632.98
1008.948	643.37
1009.242	646.08
1009.535	635.69
1009.829	665.97
1010.122	616.03
1010.415	633.66
1010.708	650.6
1011.001	609.25
1011.295	639.98
1011.588	612.19
1011.881	610.83
1012.173	637.95
1012.466	590.94
1012.759	623.71
1013.052	596.82
1013.344	613.09
1013.637	582.13
1013.93	602.92
1014.222	592.3
1014.514	595.92
1014.807	590.94
1015.099	586.65
1015.391	592.07
1015.683	599.31
1015.976	585.3
1016.268	593.43
1016.56	599.53
1016.851	579.19
1017.143	565.41
1017.435	569.48
1017.727	566.31
1018.018	576.71
1018.31	592.3
1018.602	561.12
1018.893	561.79
1019.185	566.99
1019.476	556.37
1019.767	554.56
1020.058	565.41
1020.35	557.95
1020.641	560.89
1020.932	551.62
1021.223	559.76
1021.514	543.94
1021.804	543.94
1022.095	560.66
1022.386	553.21
1022.677	541.45
1022.967	534.9
1023.258	520.89
1023.548	517.95
1023.839	540.78
1024.129	537.16
1024.419	519.31
1024.709	534.45
1025	527.22
1025.29	517.05
1025.58	532.87
1025.87	517.73
1026.16	504.85
1026.449	486.09
1026.739	512.75
1027.029	513.88
1027.319	518.63
1027.608	501.23
1027.898	512.3
1028.187	495.81
1028.477	482.25
1028.766	491.06
1029.055	502.36
1029.344	495.81
1029.634	497.84
1029.923	476.82
1030.212	503.49
1030.501	498.97
1030.79	503.49
1031.078	499.87
1031.367	486.77
1031.656	498.97
1031.945	496.03
1032.233	482.7
1032.522	479.99
1032.81	473.43
1033.099	488.12
1033.387	490.38
1033.675	473.66
1033.963	442.25
1034.251	459.87
1034.54	490.16
1034.828	466.88
1035.116	465.07
1035.403	474.34
1035.691	465.07
1035.979	451.51
1036.267	473.43
1036.554	459.65
1036.842	458.07
1037.129	465.52
1037.417	451.97
1037.704	450.61
1037.992	460.1
1038.279	462.13
1038.566	438.86
1038.853	438.86
1039.14	438.86
