Data from foam1_polythene_foam_FLMS001491_00075.txt Node
Date: Wed Feb 08 10:55:22 GMT 2017
User: dcchb
Spectrometer: FLMS00149
Trigger mode: 0
Integration Time (sec): 2.000000E-2
Scans to average: 10
Electric dark correction enabled: true
Nonlinearity correction enabled: false
Boxcar width: 0
XAxis mode: Wavelengths
Number of Pixels in Spectrum: 2048
>>>>>Begin Spectral Data<<<<<
341.393	-14.35
341.776	-14.35
342.16	-14.35
342.543	-43.95
342.927	-62.03
343.31	-26.33
343.693	-59.55
344.077	-90.73
344.46	-62.48
344.843	-46.44
345.226	-32.2
345.61	-35.59
345.993	-11.41
346.376	-14.12
346.759	15.03
347.142	31.75
347.525	37.4
347.908	58.64
348.291	65.2
348.674	76.72
349.057	94.12
349.44	108.13
349.823	132.99
350.206	158.53
350.588	176.15
350.971	186.1
351.354	215.93
351.737	232.2
352.119	243.04
352.502	270.16
352.884	279.43
353.267	269.48
353.65	279.65
354.032	289.14
354.414	309.94
354.797	302.93
355.179	311.52
355.562	304.96
355.944	324.62
356.326	318.52
356.709	322.82
357.091	337.73
357.473	351.52
357.855	333.66
358.238	339.77
358.62	336.15
359.002	341.12
359.384	328.01
359.766	299.77
360.148	351.29
360.53	344.51
360.912	314.23
361.294	324.85
361.676	311.74
362.057	332.76
362.439	329.37
362.821	303.61
363.203	328.47
363.584	337.51
363.966	316.49
364.348	305.64
364.729	326.66
365.111	307.68
365.493	331.4
365.874	322.36
366.256	294.79
366.637	309.03
367.019	292.53
367.4	312.2
367.781	309.26
368.163	320.33
368.544	314.91
368.925	317.17
369.306	316.04
369.688	310.39
370.069	314.91
370.45	305.64
370.831	314.23
371.212	309.71
371.593	326.21
371.974	325.08
372.355	307.22
372.736	328.01
373.117	317.84
373.498	310.39
373.879	314.23
374.26	306.32
374.641	321.69
375.021	320.78
375.402	316.49
375.783	316.26
376.163	340.22
376.544	332.99
376.925	330.95
377.305	321.69
377.686	325.75
378.066	321.01
378.447	324.17
378.827	340.89
379.208	339.31
379.588	338.86
379.968	347.45
380.349	348.58
380.729	332.99
381.109	324.17
381.489	336.38
381.87	351.29
382.25	345.64
382.63	350.61
383.01	354.91
383.39	366.88
383.77	378.18
384.15	364.4
384.53	335.47
384.91	370.5
385.29	352.87
385.67	370.72
386.049	377.96
386.429	369.82
386.809	351.97
387.189	378.63
387.568	378.18
387.948	396.26
388.328	380.44
388.707	382.25
389.087	370.72
389.466	386.77
389.846	391.06
390.225	380.89
390.605	376.83
390.984	402.59
391.363	370.27
391.743	389.71
392.122	397.39
392.501	380.67
392.881	420.21
393.26	401.01
393.639	389.48
394.018	405.53
394.397	402.59
394.776	426.99
395.155	414.79
395.534	418.41
395.913	407.11
396.292	434.9
396.671	436.71
397.05	400.55
397.429	438.29
397.808	418.63
398.186	430.61
398.565	431.97
398.944	417.73
399.323	436.03
399.701	437.84
400.08	447.33
400.458	473.55
400.837	452.98
401.215	454.11
401.594	451.17
401.972	426.09
402.351	453.21
402.729	472.19
403.107	474.68
403.486	473.55
403.864	467.45
404.242	490.04
404.62	475.35
404.999	445.53
405.377	446.88
405.755	498.86
406.133	489.14
406.511	483.04
406.889	480.55
407.267	484.17
407.645	497.73
408.023	501.79
408.401	506.09
408.779	511.74
409.156	526.88
409.534	508.57
409.912	515.13
410.29	505.18
410.667	541.57
411.045	541.34
411.422	532.75
411.8	535.69
412.178	536.37
412.555	568.23
412.933	571.85
413.31	572.08
413.687	554.45
414.065	572.3
414.442	563.49
414.819	565.52
415.197	577.95
415.574	575.92
415.951	572.53
416.328	612.98
416.705	620.44
417.082	601.68
417.46	610.49
417.837	595.13
418.214	629.47
418.591	625.18
418.967	627.44
419.344	640.55
419.721	650.94
420.098	655.46
420.475	644.16
420.852	624.5
421.228	657.27
421.605	663.15
421.982	681.9
422.358	669.47
422.735	667.21
423.111	671.06
423.488	691.39
423.864	723.48
424.241	692.3
424.617	709.02
424.994	699.08
425.37	701.79
425.746	730.26
426.123	727.78
426.499	749.7
426.875	721.68
427.251	745.18
427.627	753.31
428.003	764.84
428.379	761.67
428.756	758.51
429.132	792.18
429.507	796.93
429.883	817.27
430.259	813.2
430.635	849.81
431.011	819.98
431.387	843.03
431.763	846.87
432.138	862.24
432.514	868.79
432.89	895
433.265	895.46
433.641	907.66
434.016	919.86
434.392	913.31
434.767	922.12
435.143	938.85
435.518	939.98
435.894	947.88
436.269	953.53
436.644	966.64
437.02	988.79
437.395	961.67
437.77	1010.26
438.145	1000.31
438.52	1002.35
438.895	1031.95
439.271	1060.42
439.646	1069.46
440.021	1090.93
440.395	1085.06
440.77	1072.63
441.145	1082.34
441.52	1085.51
441.895	1082.57
442.27	1111.04
442.645	1145.62
443.019	1136.35
443.394	1138.16
443.769	1140.42
444.143	1165.28
444.518	1181.32
444.892	1190.14
445.267	1186.75
445.641	1192.4
446.016	1199.86
446.39	1225.62
446.764	1228.56
447.139	1204.15
447.513	1227.2
447.887	1240.08
448.262	1268.55
448.636	1264.94
449.01	1273.3
449.384	1320.3
449.758	1295.45
450.132	1311.72
450.506	1337.25
450.88	1310.36
451.254	1325.28
451.628	1335.22
452.002	1372.51
452.376	1386.74
452.75	1401.43
453.123	1393.97
453.497	1435.78
453.871	1406.4
454.244	1429.91
454.618	1474.88
454.992	1479.85
455.365	1445.27
455.739	1499.96
456.112	1491.83
456.486	1510.81
456.859	1550.13
457.232	1556
457.606	1549.68
457.979	1560.98
458.352	1580.18
458.725	1610.69
459.099	1617.25
459.472	1657.02
459.845	1678.94
460.218	1675.32
460.591	1657.02
460.964	1688.43
461.337	1727.3
461.71	1737.24
462.083	1760.97
462.456	1733.17
462.829	1762.1
463.201	1809.56
463.574	1804.81
463.947	1838.48
464.32	1880.97
464.692	1869.44
465.065	1911.93
465.438	1937.24
465.81	1944.92
466.183	1969.33
466.555	2006.61
466.928	2000.51
467.3	2015.2
467.672	2044.35
468.045	2080.06
468.417	2057.69
468.789	2100.85
469.161	2121.64
469.534	2186.72
469.906	2200.06
470.278	2182.43
470.65	2223.78
471.022	2259.94
471.394	2284.12
471.766	2334.29
472.138	2374.74
472.51	2408.64
472.882	2419.03
473.253	2447.73
473.625	2460.39
473.997	2508.07
474.369	2544.68
474.74	2574.73
475.112	2611.57
475.484	2661.51
475.855	2685.01
476.227	2709.19
476.598	2786.03
476.97	2812.69
477.341	2853.37
477.713	2939.47
478.084	2912.35
478.455	2969.3
478.827	3040.03
479.198	3091.33
479.569	3114.61
479.94	3165
480.311	3237.54
480.682	3288.39
481.053	3333.58
481.424	3383.75
481.795	3419.91
482.166	3440.93
482.537	3500.36
482.908	3622.16
483.279	3713.01
483.65	3706
484.021	3761.82
484.391	3842.72
484.762	3822.16
485.133	3849.73
485.503	3873.01
485.874	4012.89
486.244	4024.19
486.615	4121.36
486.985	4143.51
487.356	4213.79
487.726	4277.29
488.097	4345.54
488.467	4402.94
488.837	4481.13
489.207	4498.07
489.578	4532.2
489.948	4614.68
490.318	4697.62
490.688	4723.6
491.058	4784.85
491.428	4815.81
491.798	4926.99
492.168	4951.4
492.538	5024.61
492.908	5011.96
493.278	5148.23
493.648	5127.21
494.017	5269.58
494.387	5296.7
494.757	5282.91
495.126	5366.75
495.496	5385.51
495.866	5446.3
496.235	5480.65
496.605	5493.08
496.974	5543.02
497.344	5619.63
497.713	5687.2
498.082	5715.89
498.452	5750.7
498.821	5776.01
499.19	5879.05
499.559	5880.86
499.928	5907.75
500.298	5921.09
500.667	6030.24
501.036	6014.87
501.405	6105.04
501.774	6107.07
502.143	6241.76
502.512	6165.6
502.88	6265.48
503.249	6284.69
503.618	6279.04
503.987	6346.39
504.356	6342.09
504.724	6447.4
505.093	6467.74
505.462	6510
505.83	6525.82
506.199	6636.55
506.567	6780.5
506.936	6697.56
507.304	6753.83
507.672	6769.2
508.041	6835.41
508.409	6884
508.777	7053.26
509.145	7070.21
509.514	7082.41
509.882	7120.83
510.25	7185.46
510.618	7227.49
510.986	7296.87
511.354	7330.54
511.722	7354.95
512.09	7424.55
512.458	7456.19
512.826	7527.37
513.193	7566.69
513.561	7616.41
513.929	7695.5
514.297	7762.39
514.664	7840.58
515.032	7758.1
515.4	7891.66
515.767	7943.86
516.135	8029.28
516.502	8030.18
516.869	8141.59
517.237	8132.1
517.604	8182.5
517.972	8291.65
518.339	8375.49
518.706	8426.56
519.073	8353.57
519.44	8434.69
519.808	8492.09
520.175	8515.37
520.542	8696.83
520.909	8701.58
521.276	8729.15
521.643	8869.26
522.009	8952.65
522.376	9040.78
522.743	9070.61
523.11	9054.11
523.477	9244.16
523.843	9278.74
524.21	9356.25
524.577	9438.28
524.943	9478.96
525.31	9537.26
525.676	9663.14
526.043	9698.84
526.409	9786.3
526.776	9907.2
527.142	9863.81
527.508	9932.96
527.874	10004.37
528.241	10069.45
528.607	10049.57
528.973	10166.4
529.339	10240.3
529.705	10338.6
530.071	10416.79
530.437	10512.6
530.803	10534.3
531.169	10688.42
531.535	10597.35
531.901	10663.56
532.267	10740.85
532.632	10786.04
532.998	10755.99
533.364	10833.5
533.73	10933.84
534.095	11008.41
534.461	11056.55
534.826	11157.33
535.192	11098.13
535.557	11317.56
535.923	11236.43
536.288	11294.28
536.653	11322.75
537.019	11289.08
537.384	11344.45
537.749	11461.73
538.114	11554.16
538.479	11473.48
538.845	11610.2
539.21	11589.86
539.575	11683.65
539.94	11699.24
540.305	11778.79
540.67	11849.52
541.034	11799.8
541.399	11854.26
541.764	11941.49
542.129	11973.81
542.494	11931.78
542.858	12075.05
543.223	12066.91
543.587	12171.32
543.952	12159.34
544.316	12197.31
544.681	12246.34
545.045	12241.37
545.41	12288.15
545.774	12350.75
546.138	12300.58
546.503	12400.01
546.867	12397.3
547.231	12548.94
547.595	12552.55
547.959	12644.3
548.324	12576.51
548.688	12694.47
549.052	12684.75
549.416	12765.88
549.779	12798.19
550.143	12750.96
550.507	12970.85
550.871	13011.07
551.235	13012.2
551.599	13045.65
551.962	13088.81
552.326	13114.57
552.689	13222.36
553.053	13224.4
553.417	13335.81
553.78	13400.44
554.143	13428.46
554.507	13447.22
554.87	13516.14
555.234	13648.79
555.597	13499.65
555.96	13624.84
556.323	13694.22
556.686	13816.25
557.05	13816.47
557.413	13820.31
557.776	13867.09
558.139	13995
558.502	14008.11
558.865	14059.86
559.228	14069.8
559.59	14246.29
559.953	14252.85
560.316	14376.01
560.679	14351.83
561.041	14460.3
561.404	14559.96
561.767	14610.35
562.129	14514.76
562.492	14562.67
562.854	14608.54
563.217	14681.99
563.579	14767.18
563.941	14888.99
564.304	14959.49
564.666	15039.49
565.028	15037.91
565.39	15146.38
565.753	15253.27
566.115	15258.02
566.477	15429.54
566.839	15338.69
567.201	15485.13
567.563	15492.59
567.925	15688.74
568.287	15531.68
568.648	15689.87
569.01	15729.87
569.372	15826.14
569.734	15892.12
570.095	16010.77
570.457	15979.81
570.819	15992.01
571.18	15976.64
571.542	16161.27
571.903	16138.22
572.265	16083.76
572.626	16163.53
572.987	16268.84
573.349	16282.4
573.71	16409.63
574.071	16448.49
574.432	16398.1
574.794	16594.93
575.155	16540.92
575.516	16579.79
575.877	16601.03
576.238	16634.7
576.599	16703.18
576.96	16818.65
577.32	16795.38
577.681	16683.29
578.042	16790.41
578.403	16771.65
578.763	16828.15
579.124	16913.79
579.485	17055.71
579.845	17034.47
580.206	17070.4
580.566	17027.01
580.927	16994.02
581.287	17073.34
581.648	17011.42
582.008	17085.09
582.368	17013.45
582.728	17063.62
583.089	17080.12
583.449	17173.9
583.809	17067.46
584.169	17209.83
584.529	17198.76
584.889	17254.12
585.249	17182.71
585.609	17056.39
585.969	17236.95
586.329	17260.45
586.688	17247.34
587.048	17175.25
587.408	17064.3
587.768	17109.95
588.127	17047.57
588.487	17106.33
588.846	17316.49
589.206	17175.48
589.565	17173.22
589.925	17197.63
590.284	17255.48
590.643	17228.36
591.003	17258.42
591.362	17279.66
591.721	17269.94
592.08	17263.39
592.44	17196.95
592.799	17263.84
593.158	17244.86
593.517	17185.65
593.876	17258.42
594.235	17238.98
594.593	17292.09
594.952	17358.53
595.311	17315.36
595.67	17258.42
596.029	17439.43
596.387	17378.64
596.746	17498.86
597.104	17350.17
597.463	17371.41
597.822	17385.87
598.18	17246.67
598.538	17199.21
598.897	17503.16
599.255	17258.64
599.613	17511.06
599.972	17512.42
600.33	17537.73
600.688	17458.86
601.046	17512.42
601.404	17463.16
601.762	17500.67
602.12	17644.39
602.478	17615.24
602.836	17607.11
603.194	17449.6
603.552	17538.41
603.91	17511.97
604.268	17567.56
604.625	17519.65
604.983	17657.73
605.341	17568.92
605.698	17599.2
606.056	17730.27
606.413	17595.13
606.771	17684.39
607.128	17702.02
607.485	17626.32
607.843	17744.96
608.2	17824.5
608.557	17843.49
608.914	17817.05
609.272	17918.74
609.629	17871.96
609.986	17995.57
610.343	17892.75
610.7	17944.73
611.057	17966.65
611.414	17853.65
611.771	17951.96
612.127	18034.44
612.484	17940.21
612.841	18084.84
613.198	17983.37
613.554	17995.12
613.911	18112.41
614.267	18052.07
614.624	18094.78
614.98	18120.99
615.337	18178.17
615.693	18109.92
616.05	18007.78
616.406	18206.41
616.762	18178.84
617.118	18116.92
617.475	18123.93
617.831	18151.5
618.187	18285.06
618.543	18299.74
618.899	18324.15
619.255	18225.4
619.611	18267.66
619.967	18377.93
620.323	18384.04
620.678	18365.28
621.034	18386.52
621.39	18255.23
621.746	18274.89
622.101	18552.85
622.457	18294.1
622.812	18296.58
623.168	18446.18
623.523	18285.96
623.879	18408.44
624.234	18271.05
624.589	18352.4
624.945	18325.28
625.3	18411.15
625.655	18359.18
626.01	18372.96
626.365	18368.44
626.72	18336.81
627.075	18345.85
627.43	18222.01
627.785	18271.27
628.14	18305.17
628.495	18355.79
628.85	18245.06
629.205	18311.5
629.559	18330.48
629.914	18227.88
630.269	18186.75
630.623	18165.96
630.978	18147.43
631.332	18252.29
631.687	18321.67
632.041	18195.11
632.396	18218.39
632.75	18170.03
633.104	18203.93
633.459	17986.98
633.813	18003.93
634.167	18058.62
634.521	17952.41
634.875	18047.55
635.229	17922.81
635.583	17837.84
635.937	17796.26
636.291	17909.25
636.645	17914.67
636.999	17983.82
637.352	17862.24
637.706	17799.42
638.06	17882.58
638.413	17710.38
638.767	17821.11
639.121	17822.92
639.474	17621.57
639.828	17657.28
640.181	17662.47
640.534	17629.71
640.888	17589.48
641.241	17437.39
641.594	17528.47
641.947	17518.07
642.301	17538.41
642.654	17393.78
643.007	17525.3
643.36	17493.66
643.713	17422.93
644.066	17465.87
644.419	17441.91
644.771	17393.55
645.124	17187.01
645.477	17184.29
645.83	16991.76
646.182	16920.35
646.535	16847.13
646.888	16816.85
647.24	16681.48
647.593	16686.91
647.945	16820.01
648.298	16500.02
648.65	16608.94
649.002	16636.06
649.355	16606.23
649.707	16695.72
650.059	16924.19
650.411	16958.31
650.763	16981.81
651.115	17183.39
651.467	17039.44
651.819	17047.12
652.171	17038.99
652.523	16864.3
652.875	16905.43
653.227	16860.69
653.578	16849.84
653.93	16755.83
654.282	16801.48
654.633	16699.33
654.985	16796.28
655.337	16737.53
655.688	16787.02
656.039	16856.39
656.391	16782.72
656.742	16753.57
657.094	16763.51
657.445	16778.43
657.796	16747.47
658.147	16739.56
658.498	16662.27
658.849	16653.01
659.2	16641.26
659.551	16622.73
659.902	16547.7
660.253	16556.29
660.604	16520.13
660.955	16489.85
661.306	16610.3
661.656	16604.42
662.007	16625.21
662.358	16568.72
662.708	16537.76
663.059	16559.9
663.409	16448.95
663.76	16570.52
664.11	16565.55
664.461	16533.01
664.811	16505.22
665.161	16455.05
665.511	16491.2
665.862	16496.85
666.212	16507.25
666.562	16472
666.912	16347.03
667.262	16382.73
667.612	16280.81
667.962	16419.12
668.312	16362.17
668.662	16427.7
669.011	16389.96
669.361	16494.37
669.711	16342.96
670.06	16361.26
670.41	16360.13
670.76	16328.05
671.109	16471.09
671.459	16403.98
671.808	16270.65
672.157	16288.95
672.507	16250.31
672.856	16148.61
673.205	16135.51
673.554	16272.45
673.904	16193.36
674.253	16248.05
674.602	16210.08
674.951	15895.06
675.3	15888.51
675.649	16180.25
675.998	16143.19
676.346	16122.17
676.695	16177.09
677.044	16084.89
677.393	16123.76
677.741	16177.99
678.09	16123.08
678.438	15997.88
678.787	16111.78
679.135	16123.98
679.484	15983.42
679.832	16006.02
680.181	15872.24
680.529	15985.68
680.877	15897.32
681.225	15754.73
681.573	15895.74
681.922	15728.06
682.27	15733.94
682.618	15739.36
682.966	15724.22
683.314	15763.77
683.661	15705.01
684.009	15625.46
684.357	15656.65
684.705	15566.26
685.053	15632.47
685.4	15601.51
685.748	15519.03
686.095	15472.02
686.443	15561.96
686.79	15435.19
687.138	15545.92
687.485	15380.5
687.832	15367.39
688.18	15314.06
688.527	15185.02
688.874	15243.55
689.221	15187.96
689.568	15046.27
689.915	15010.34
690.262	15116.55
690.609	15020.51
690.956	15040.17
691.303	15056.89
691.65	14990.68
691.997	14948.87
692.344	14874.75
692.69	14963.11
693.037	14935.77
693.383	14857.8
693.73	14771.7
694.077	14750.69
694.423	14677.92
694.769	14673.4
695.116	14597.02
695.462	14621.2
695.808	14464.82
696.155	14551.37
696.501	14389.79
696.847	14267.31
697.193	14235.22
697.539	14290.81
697.885	14190.47
698.231	14195.9
698.577	14279.96
698.923	14185.5
699.269	14144.37
699.614	14106.41
699.96	14088.78
700.306	14151.61
700.651	14040.87
700.997	14081.78
701.342	14016.69
701.688	13924.04
702.033	13901.67
702.379	13887.88
702.724	13733.09
703.069	13822.8
703.415	13611.28
703.76	13719.07
704.105	13593.88
704.45	13543.26
704.795	13424.62
705.14	13454.22
705.485	13479.08
705.83	13382.81
706.175	13433.43
706.52	13334
706.865	13398.18
707.209	13340.78
707.554	13458.29
707.899	13372.87
708.243	13301.01
708.588	13262.82
708.932	13215.81
709.277	13204.06
709.621	13173.33
709.966	13086.77
710.31	13040
710.654	13015.14
710.998	12970.62
711.342	12885.2
711.687	12858.31
712.031	12716.84
712.375	12715.03
712.719	12763.17
713.063	12697.18
713.407	12789.16
713.75	12649.72
714.094	12672.77
714.438	12602.72
714.782	12679.1
715.125	12624.41
715.469	12680.01
715.812	12645.2
716.156	12542.83
716.499	12654.92
716.843	12628.71
717.186	12541.25
717.53	12559.56
717.873	12580.57
718.216	12556.17
718.559	12419.67
718.902	12332.22
719.246	12288.6
719.589	12249.06
719.932	12160.02
720.275	12106.69
720.617	12198.44
720.96	12208.61
721.303	12189.62
721.646	12256.97
721.989	12115.73
722.331	12143.07
722.674	12088.38
723.016	12140.36
723.359	12106.01
723.701	12163.18
724.044	12150.98
724.386	12117.99
724.729	12104.43
725.071	12100.59
725.413	12058.78
725.755	12041.38
726.097	11906.47
726.439	11834.6
726.782	11966.8
727.124	11902.4
727.465	11812.23
727.807	11744.66
728.149	11734.49
728.491	11666.92
728.833	11755.96
729.175	11655.63
729.516	11671.44
729.858	11630.99
730.199	11731.78
730.541	11736.98
730.882	11657.66
731.224	11662.86
731.565	11550.32
731.906	11668.73
732.248	11661.28
732.589	11572.92
732.93	11567.27
733.271	11580.15
733.612	11590.09
733.953	11529.3
734.294	11554.61
734.635	11440.72
734.976	11431.45
735.317	11289.99
735.658	11324.79
735.999	11349.65
736.339	11252.25
736.68	11360.04
737.021	11222.87
737.361	11228.07
737.702	11211.34
738.042	11193.49
738.383	11171.34
738.723	11284.56
739.063	11258.12
739.404	11355.97
739.744	11260.61
740.084	11182.64
740.424	11161.18
740.764	11121.4
741.104	11184
741.444	11144.23
741.784	11076.66
742.124	11191.01
742.464	11012.03
742.804	10984.46
743.143	11046.83
743.483	11035.3
743.823	10873.73
744.162	10817
744.502	10847.06
744.841	10851.13
745.181	10849.55
745.52	10793.5
745.86	10854.74
746.199	10839.6
746.538	10835.53
746.877	10795.99
747.216	10834.18
747.556	10708.53
747.895	10747.85
748.234	10688.65
748.573	10745.59
748.911	10771.13
749.25	10807.51
749.589	10722.77
749.928	10698.81
750.267	10729.77
750.605	10671.47
750.944	10632.38
751.283	10541.76
751.621	10570
751.96	10512.15
752.298	10493.4
752.636	10492.49
752.975	10420.86
753.313	10389.9
753.651	10361.87
753.989	10294.08
754.327	10247.08
754.666	10273.74
755.004	10277.36
755.342	10309.22
755.679	10276
756.017	10257.02
756.355	10264.93
756.693	10217.7
757.031	10219.73
757.368	10148.55
757.706	10213.18
758.044	10141.09
758.381	10119.17
758.719	10086.63
759.056	10044.82
759.394	10136.8
759.731	9975.44
760.068	9903.36
760.405	9918.04
760.743	9815.9
761.08	9887.31
761.417	9834.2
761.754	9739.52
762.091	9768.44
762.428	9703.81
762.765	9672.4
763.102	9677.15
763.438	9523.03
763.775	9556.92
764.112	9622.01
764.449	9693.19
764.785	9555.34
765.122	9498.17
765.458	9491.39
765.795	9464.27
766.131	9467.43
766.467	9464.27
766.804	9419.53
767.14	9361.67
767.476	9324.16
767.812	9277.61
768.148	9273.09
768.485	9214.11
768.821	9197.84
769.157	9114
769.492	9193.09
769.828	9140.89
770.164	8967.33
770.5	9029.93
770.836	8960.78
771.171	8940.22
771.507	8892.08
771.842	8850.73
772.178	8842.59
772.513	8866.77
772.849	8892.31
773.184	8766.66
773.519	8783.16
773.855	8761.92
774.19	8770.96
774.525	8769.15
774.86	8717.17
775.195	8743.39
775.53	8653.9
775.865	8600.79
776.2	8521.7
776.535	8553.56
776.87	8474.24
777.205	8446.44
777.539	8407.35
777.874	8414.81
778.209	8345.88
778.543	8311.76
778.878	8264.3
779.212	8230.63
779.547	8216.39
779.881	8210.52
780.215	8108.37
780.55	8115.61
780.884	8088.49
781.218	8094.59
781.552	8128.49
781.886	8088.94
782.22	8018.43
782.554	8012.56
782.888	7950.19
783.222	7916.52
783.556	7886.69
783.889	7971.43
784.223	7877.87
784.557	7859.12
784.89	7875.39
785.224	7808.5
785.557	7784.99
785.891	7741.15
786.224	7758.1
786.558	7710.19
786.891	7652.79
787.224	7596.3
787.557	7572.12
787.891	7486.02
788.224	7474.72
788.557	7480.37
788.89	7414.83
789.223	7395.62
789.556	7370.54
789.888	7338.45
790.221	7283.54
790.554	7216.42
790.887	7269.3
791.219	7247.83
791.552	7232.69
791.884	7193.6
792.217	7193.82
792.549	7172.13
792.882	7148.85
793.214	7176.42
793.546	7158.12
793.879	7134.61
794.211	7072.7
794.543	7140.72
794.875	7079.93
795.207	7062.07
795.539	7011.91
795.871	7029.98
796.203	6902.3
796.535	6875.41
796.867	6891.23
797.198	6834.28
797.53	6837.45
797.862	6796.32
798.193	6805.36
798.525	6752.03
798.856	6761.07
799.188	6651.01
799.519	6638.81
799.85	6636.32
800.182	6585.7
800.513	6622.54
800.844	6539.6
801.175	6660.5
801.506	6629.32
801.837	6590.9
802.168	6568.08
802.499	6547.96
802.83	6508.87
803.161	6461.64
803.491	6512.71
803.822	6510.22
804.153	6499.38
804.483	6434.97
804.814	6387.74
805.145	6384.58
805.475	6413.96
805.805	6385.48
806.136	6352.04
806.466	6298.03
806.796	6301.19
807.126	6319.95
807.457	6265.94
807.787	6305.48
808.117	6203.79
808.447	6155.66
808.777	6227.29
809.107	6133.06
809.436	6119.95
809.766	6105.26
810.096	6161.53
810.426	6093.74
810.755	6084.47
811.085	6103
811.414	6055.77
811.744	6001.31
812.073	6037.92
812.403	6009.45
812.732	5977.13
813.061	6014.42
813.39	5948.88
813.719	5968.09
814.049	5985.72
814.378	5937.13
814.707	5957.92
815.036	5913.4
815.365	5887.87
815.693	5867.08
816.022	5854.42
816.351	5786.85
816.68	5791.15
817.008	5845.38
817.337	5764.93
817.665	5740.98
817.994	5717.48
818.322	5795.89
818.651	5739.62
818.979	5702.56
819.307	5772.62
819.636	5674.31
819.964	5669.34
820.292	5704.82
820.62	5697.59
820.948	5632.96
821.276	5644.48
821.604	5644.71
821.932	5667.53
822.259	5664.14
822.587	5640.19
822.915	5591.83
823.243	5698.27
823.57	5604.71
823.898	5622.56
824.225	5630.7
824.553	5644.94
824.88	5683.58
825.207	5651.49
825.535	5667.53
825.862	5690.36
826.189	5720.64
826.516	5685.16
826.843	5696.01
827.17	5681.55
827.497	5642.45
827.824	5628.21
828.151	5658.95
828.478	5653.98
828.805	5687.65
829.131	5687.42
829.458	5631.38
829.785	5578.72
830.111	5572.62
830.438	5626.41
830.764	5592.51
831.09	5576.92
831.417	5559.51
831.743	5572.4
832.069	5616.69
832.395	5534.88
832.722	5550.7
833.048	5547.99
833.374	5537.14
833.7	5582.79
834.026	5543.24
834.351	5578.05
834.677	5564.49
835.003	5583.24
835.329	5580.53
835.654	5592.51
835.98	5553.64
836.306	5544.37
836.631	5529.46
836.956	5523.13
837.282	5504.15
837.607	5486.52
837.932	5500.76
838.258	5492.17
838.583	5552.96
838.908	5468.22
839.233	5449.01
839.558	5427.09
839.883	5416.47
840.208	5400.65
840.533	5362.23
840.858	5356.81
841.182	5365.17
841.507	5376.47
841.832	5384.6
842.156	5310.93
842.481	5318.62
842.805	5376.24
843.13	5262.57
843.454	5239.3
843.778	5245.4
844.103	5253.08
844.427	5262.35
844.751	5246.08
845.075	5277.49
845.399	5200.2
845.723	5229.35
846.047	5257.83
846.371	5193.87
846.695	5171.28
847.019	5152.75
847.343	5168.34
847.666	5129.24
847.99	5115.91
848.313	5116.59
848.637	5087.66
848.96	5079.53
849.284	5041.79
849.607	5022.81
849.931	5050.6
850.254	4966.76
850.577	4957.5
850.9	4908.68
851.223	4948.23
851.546	4906.65
851.869	4808.8
852.192	4802.25
852.515	4780.78
852.838	4767.9
853.161	4748.24
853.483	4755.24
853.806	4695.36
854.129	4697.62
854.451	4750.5
854.774	4664.85
855.096	4665.08
855.419	4694
855.741	4655.36
856.063	4637.51
856.385	4640.67
856.708	4600.9
857.03	4567.68
857.352	4609.71
857.674	4630.73
857.996	4557.28
858.318	4626.43
858.64	4545.3
858.961	4534.68
859.283	4538.75
859.605	4538.52
859.926	4533.1
860.248	4512.76
860.57	4449.49
860.891	4494.68
861.212	4469.15
861.534	4464.4
861.855	4460.33
862.176	4448.36
862.498	4480.9
862.819	4441.58
863.14	4438.87
863.461	4362.48
863.782	4380.79
864.103	4377.17
864.424	4361.81
864.745	4401.35
865.065	4335.37
865.386	4351.19
865.707	4354.8
866.027	4354.35
866.348	4325.42
866.668	4323.16
866.989	4303.05
867.309	4251.07
867.63	4265.31
867.95	4280.23
868.27	4242.49
868.59	4249.49
868.91	4301.02
869.23	4287.01
869.55	4261.02
869.87	4279.55
870.19	4266.22
870.51	4257.63
870.83	4307.57
871.15	4218.53
871.469	4248.81
871.789	4253.33
872.109	4280
872.428	4209.49
872.748	4202.49
873.067	4253.11
873.386	4253.56
873.706	4253.11
874.025	4229.38
874.344	4191.87
874.663	4191.64
874.982	4182.83
875.301	4151.42
875.62	4162.26
875.939	4137.41
876.258	4160.68
876.577	4107.8
876.896	4096.05
877.214	4106.22
877.533	4066.67
877.852	4093.11
878.17	4100.12
878.489	4076.62
878.807	4044.75
879.125	4075.03
879.444	3995.04
879.762	4036.39
880.08	4038.65
880.398	4054.02
880.716	3991.42
881.034	4004.75
881.352	4006.11
881.67	3986.9
881.988	4018.99
882.306	3979.44
882.624	3988.71
882.941	3959.56
883.259	3971.76
883.577	3958.2
883.894	3965.88
884.212	4000.23
884.529	3956.17
884.846	3953.68
885.164	3955.49
885.481	3901.03
885.798	3911.42
886.115	3919.78
886.432	3942.83
886.75	3876.4
887.067	3888.15
887.383	3884.08
887.7	3881.82
888.017	3842.27
888.334	3813.35
888.651	3840.46
888.967	3815.83
889.284	3811.54
889.6	3823.74
889.917	3761.14
890.233	3753.69
890.55	3768.83
890.866	3774.48
891.182	3729.73
891.498	3739.45
891.815	3717.98
892.131	3671.43
892.447	3679.11
892.763	3663.97
893.079	3648.83
893.395	3662.62
893.71	3704.65
894.026	3663.75
894.342	3642.05
894.657	3638.44
894.973	3621.03
895.289	3645.89
895.604	3622.39
895.92	3620.13
896.235	3553.92
896.55	3611.32
896.865	3563.41
897.181	3571.54
897.496	3586.69
897.811	3578.55
898.126	3542.17
898.441	3496.97
898.756	3519.57
899.071	3480.7
899.386	3541.94
899.7	3467.37
900.015	3459.91
900.33	3420.81
900.644	3395.28
900.959	3409.29
901.273	3442.96
901.588	3393.7
901.902	3370.65
902.216	3349.4
902.531	3380.14
902.845	3361.83
903.159	3335.39
903.473	3315.96
903.787	3321.83
904.101	3287.71
904.415	3294.72
904.729	3272.12
905.042	3260.14
905.356	3277.99
905.67	3235.51
905.984	3267.37
906.297	3240.48
906.611	3201.16
906.924	3208.16
907.237	3204.1
907.551	3176.75
907.864	3164.78
908.177	3150.76
908.491	3197.09
908.804	3127.04
909.117	3133.59
909.43	3171.56
909.743	3125.23
910.056	3107.38
910.368	3048.62
910.681	3123.42
910.994	3102.18
911.307	3106.92
911.619	3050.88
911.932	3067.6
912.244	3082.52
912.557	3048.62
912.869	3031.45
913.181	2988.06
913.494	3031.9
913.806	3014.72
914.118	2960.26
914.43	2951.9
914.742	2937.89
915.054	2939.24
915.366	2916.19
915.678	2921.39
915.99	2827.61
916.302	2855.41
916.613	2870.55
916.925	2841.17
917.236	2841.17
917.548	2828.06
917.859	2818.34
918.171	2773.83
918.482	2772.7
918.794	2806.14
919.105	2767.05
919.416	2772.02
919.727	2756.65
920.038	2772.02
920.349	2710.55
920.66	2709.65
920.971	2693.6
921.282	2734.96
921.593	2706.48
921.903	2693.15
922.214	2678.91
922.525	2659.25
922.835	2645.92
923.146	2633.04
923.456	2636.2
923.767	2636.88
924.077	2641.17
924.387	2650.44
924.697	2620.38
925.008	2585.81
925.318	2632.59
925.628	2602.98
925.938	2603.43
926.248	2546.26
926.558	2539.03
926.867	2557.79
927.177	2518.92
927.487	2537.9
927.796	2492.02
928.106	2448.41
928.416	2489.54
928.725	2506.71
929.034	2465.13
929.344	2479.82
929.653	2424.23
929.962	2443.21
930.271	2407.73
930.581	2406.83
930.89	2351.24
931.199	2422.42
931.508	2369.99
931.817	2336.55
932.125	2363.21
932.434	2327.51
932.743	2308.75
933.051	2283.44
933.36	2355.53
933.669	2339.94
933.977	2305.82
934.286	2273.27
934.594	2306.27
934.902	2259.49
935.21	2267.17
935.519	2274.18
935.827	2290.67
936.135	2251.58
936.443	2237.12
936.751	2234.86
937.059	2277.34
937.367	2228.08
937.674	2219.49
937.982	2191.92
938.29	2200.96
938.597	2207.74
938.905	2178.13
939.213	2174.97
939.52	2189.21
939.827	2151.24
940.135	2154.18
940.442	2154.18
940.749	2153.95
941.056	2134.75
941.363	2091.13
941.67	2136.33
941.977	2077.57
942.284	2088.65
942.591	2075.54
942.898	2074.86
943.205	2071.02
943.511	2053.17
943.818	2066.95
944.125	2032.15
944.431	2074.63
944.738	2012.26
945.044	2002.32
945.35	2008.2
945.657	1982.21
945.963	2020.17
946.269	1967.07
946.575	1985.82
946.881	1979.27
947.187	1948.76
947.493	1948.08
947.799	1991.02
948.105	1972.26
948.41	1931.81
948.716	1921.19
949.022	1946.05
949.327	1897.69
949.633	1895.66
949.938	1910.12
950.244	1923.9
950.549	1915.77
950.854	1854.98
951.16	1889.1
951.465	1890.23
951.77	1847.3
952.075	1893.4
952.38	1827.18
952.685	1839.84
952.99	1833.29
953.294	1816.56
953.599	1802.78
953.904	1811.82
954.209	1808.65
954.513	1796.68
954.818	1777.24
955.122	1817.92
955.426	1793.29
955.731	1809.78
956.035	1805.04
956.339	1777.92
956.643	1761.2
956.948	1775.89
957.252	1736.79
957.556	1730.24
957.86	1739.73
958.163	1730.91
958.467	1718.49
958.771	1720.07
959.075	1683.91
959.378	1705.6
959.682	1721.2
959.985	1722.33
960.289	1675.1
960.592	1683.91
960.896	1679.84
961.199	1646.85
961.502	1656.34
961.805	1650.47
962.108	1656.79
962.411	1633.06
962.714	1618.83
963.017	1599.17
963.32	1651.82
963.623	1618.38
963.926	1604.59
964.228	1604.82
964.531	1586.96
964.833	1570.69
965.136	1589.22
965.438	1585.83
965.741	1591.03
966.043	1554.2
966.345	1567.76
966.648	1566.63
966.95	1523.01
967.252	1513.07
967.554	1535.89
967.856	1532.5
968.158	1512.84
968.46	1539.06
968.761	1533.63
969.063	1515.78
969.365	1497.02
969.666	1493.18
969.968	1477.81
970.269	1485.72
970.571	1475.33
970.872	1462.67
971.174	1493.18
971.475	1478.04
971.776	1476.91
972.077	1464.26
972.378	1438.72
972.679	1446.18
972.98	1452.73
973.281	1423.8
973.582	1441.43
973.883	1413.41
974.183	1434.2
974.484	1401.66
974.785	1427.19
975.085	1403.47
975.386	1414.54
975.686	1394.2
975.986	1365.05
976.287	1396.46
976.587	1412.96
976.887	1375.9
977.187	1374.77
977.487	1348.55
977.787	1354.43
978.087	1332.51
978.387	1325.95
978.687	1335.22
978.987	1319.4
979.286	1321.21
979.586	1318.72
979.885	1294.54
980.185	1281.66
980.484	1307.65
980.784	1277.37
981.083	1293.19
981.382	1292.06
981.682	1285.05
981.981	1271.72
982.28	1293.19
982.579	1250.25
982.878	1257.03
983.177	1272.17
983.475	1265.62
983.774	1242.11
984.073	1261.32
984.372	1233.75
984.67	1250.93
984.969	1248.89
985.267	1264.03
985.566	1231.27
985.864	1253.19
986.162	1233.3
986.461	1252.51
986.759	1236.46
987.057	1199.4
987.355	1203.25
987.653	1222.91
987.951	1198.5
988.249	1198.73
988.547	1204.38
988.844	1190.82
989.142	1196.47
989.44	1168.22
989.737	1208.89
990.035	1170.7
990.332	1164.83
990.63	1129.12
990.927	1129.8
991.224	1130.25
991.521	1129.35
991.819	1116.02
992.116	1117.6
992.413	1107.65
992.71	1134.55
993.006	1111.5
993.303	1111.5
993.6	1105.17
993.897	1099.29
994.193	1119.18
994.49	1091.16
994.787	1088.45
995.083	1088.45
995.379	1068.56
995.676	1055
995.972	1085.28
996.268	1046.41
996.565	1062.68
996.861	1072.85
997.157	1084.6
997.453	1028.11
997.749	1073.31
998.044	1053.42
998.34	1042.12
998.636	1069.46
998.932	1044.61
999.227	1017.04
999.523	1019.52
999.818	1029.01
1000.114	1024.27
1000.409	997.6
1000.704	1014.32
1001	1009.8
1001.295	1013.87
1001.59	1016.58
1001.885	1012.06
1002.18	1009.35
1002.475	1010.71
1002.77	995.34
1003.065	994.89
1003.359	983.82
1003.654	964.83
1003.949	955.34
1004.243	953.76
1004.538	971.84
1004.832	981.33
1005.127	964.83
1005.421	945.4
1005.715	932.29
1006.009	922.35
1006.304	927.77
1006.598	937.49
1006.892	925.06
1007.186	908.34
1007.48	933.87
1007.773	922.12
1008.067	908.56
1008.361	919.41
1008.655	905.85
1008.948	896.81
1009.242	887.77
1009.535	885.51
1009.829	864.05
1010.122	888
1010.415	867.66
1010.708	867.66
1011.001	860.88
1011.295	845.51
1011.588	866.76
1011.881	855.91
1012.173	872.63
1012.466	839.86
1012.759	856.14
1013.052	840.99
1013.344	817.72
1013.637	832.18
1013.93	824.5
1014.222	845.06
1014.514	822.92
1014.807	828.11
1015.099	833.09
1015.391	836.7
1015.683	807.78
1015.976	810.94
1016.268	804.84
1016.56	791.28
1016.851	818.4
1017.143	800.09
1017.435	813.65
1017.727	810.04
1018.018	802.8
1018.31	798.28
1018.602	792.86
1018.893	773.2
1019.185	795.8
1019.476	768
1019.767	752.64
1020.058	761.22
1020.35	768.68
1020.641	770.04
1020.932	756.93
1021.223	758.51
1021.514	758.29
1021.804	752.86
1022.095	733.65
1022.386	747.21
1022.677	720.32
1022.967	736.59
1023.258	707.21
1023.548	699.53
1023.839	698.63
1024.129	693.65
1024.419	706.99
1024.709	706.99
1025	703.82
1025.29	711.73
1025.58	712.18
1025.87	711.05
1026.16	671.06
1026.449	692.75
1026.739	670.15
1027.029	690.94
1027.319	692.75
1027.608	651.17
1027.898	652.3
1028.187	669.47
1028.477	677.61
1028.766	667.89
1029.055	653.66
1029.344	677.84
1029.634	645.75
1029.923	647.78
1030.212	644.62
1030.501	640.1
1030.79	656.14
1031.078	644.39
1031.367	628.12
1031.656	610.49
1031.945	631.73
1032.233	617.5
1032.522	621.11
1032.81	622.92
1033.099	633.09
1033.387	617.95
1033.675	612.07
1033.963	632.86
1034.251	613.66
1034.54	627.67
1034.828	606.42
1035.116	577.5
1035.403	589.02
1035.691	606.42
1035.979	611.17
1036.267	603.03
1036.554	616.82
1036.842	573.43
1037.129	594.67
1037.417	577.95
1037.704	585.18
1037.992	562.81
1038.279	581.34
1038.566	582.02
1038.853	582.02
1039.14	582.02
