Data from foam2_polystyrene_foam_FLMS001491_00038.txt Node
Date: Wed Feb 08 10:57:53 GMT 2017
User: dcchb
Spectrometer: FLMS00149
Trigger mode: 0
Integration Time (sec): 2.000000E-2
Scans to average: 10
Electric dark correction enabled: true
Nonlinearity correction enabled: false
Boxcar width: 0
XAxis mode: Wavelengths
Number of Pixels in Spectrum: 2048
>>>>>Begin Spectral Data<<<<<
341.393	-25.14
341.776	-25.14
342.16	-25.14
342.543	-55.87
342.927	-69.89
343.31	-61.52
343.693	-84.57
344.077	-61.07
344.46	-57.91
344.843	-55.42
345.226	-50.9
345.61	-37.57
345.993	-20.39
346.376	-0.06
346.759	31.58
347.142	41.07
347.525	30
347.908	59.15
348.291	67.06
348.674	104.35
349.057	96.21
349.44	128.98
349.823	123.33
350.206	173.95
350.588	201.75
350.971	209.43
351.354	218.69
351.737	245.36
352.119	257.11
352.502	281.07
352.884	281.29
353.267	266.6
353.65	309.09
354.032	287.62
354.414	293.27
354.797	312.25
355.179	316.55
355.562	324.68
355.944	339.82
356.326	349.54
356.709	322.19
357.091	337.11
357.473	338.69
357.855	349.99
358.238	339.14
358.62	335.53
359.002	359.03
359.384	338.92
359.766	334.62
360.148	353.38
360.53	341.18
360.912	354.06
361.294	344.34
361.676	338.24
362.057	356.32
362.439	342.76
362.821	359.48
363.203	351.35
363.584	342.76
363.966	347.5
364.348	335.08
364.729	350.89
365.111	330.33
365.493	332.36
365.874	325.13
366.256	336.66
366.637	308.64
367.019	323.32
367.4	313.38
367.781	346.15
368.163	352.7
368.544	331.23
368.925	349.99
369.306	342.76
369.688	342.31
370.069	344.34
370.45	342.31
370.831	329.88
371.212	324.23
371.593	347.28
371.974	335.53
372.355	342.53
372.736	332.82
373.117	336.43
373.498	349.54
373.879	346.38
374.26	346.38
374.641	327.84
375.021	343.89
375.402	329.2
375.783	366.49
376.163	353.15
376.544	361.29
376.925	359.26
377.305	358.8
377.686	368.52
378.066	377.33
378.447	352.48
378.827	375.3
379.208	370.1
379.588	374.17
379.968	372.59
380.349	372.82
380.729	389.09
381.109	379.37
381.489	389.31
381.87	379.14
382.25	382.98
382.63	399.71
383.01	379.37
383.39	402.19
383.77	384.34
384.15	411.23
384.53	405.36
384.91	409.2
385.29	406.49
385.67	407.62
386.049	418.69
386.429	407.39
386.809	421.4
387.189	414.62
387.568	402.42
387.948	412.36
388.328	433.6
388.707	425.02
389.087	427.28
389.466	434.96
389.846	437.45
390.225	448.97
390.605	455.75
390.984	451.68
391.363	465.92
391.743	457.33
392.122	465.24
392.501	495.3
392.881	463.89
393.26	472.47
393.639	468.18
394.018	459.37
394.397	498.24
394.776	524
395.155	488.07
395.534	503.21
395.913	503.66
396.292	509.08
396.671	491
397.05	515.41
397.429	508.63
397.808	510.44
398.186	520.61
398.565	509.53
398.944	520.83
399.323	528.29
399.701	497.56
400.08	511.12
400.458	528.97
400.837	561.06
401.215	538.23
401.594	544.34
401.972	535.75
402.351	554.73
402.729	560.61
403.107	554.05
403.486	571.23
403.864	575.52
404.242	585.92
404.62	555.41
404.999	590.44
405.377	586.37
405.755	587.27
406.133	605.8
406.511	599.7
406.889	618.01
407.267	630.21
407.645	632.47
408.023	630.89
408.401	656.2
408.779	653.94
409.156	648.97
409.534	656.88
409.912	676.76
410.29	672.24
410.667	674.28
411.045	697.1
411.422	723.99
411.8	708.17
412.178	707.95
412.555	713.6
412.933	715.18
413.31	726.48
413.687	762.64
414.065	759.25
414.442	748.62
414.819	775.52
415.197	764.44
415.574	789.3
415.951	785.46
416.328	819.81
416.705	797.66
417.082	803.09
417.46	825.46
417.837	834.72
418.214	830.66
418.591	837.44
418.967	846.02
419.344	825.46
419.721	864.55
420.098	880.6
420.475	851.67
420.852	886.02
421.228	878.56
421.605	878.34
421.982	893.93
422.358	900.71
422.735	921.73
423.111	909.3
423.488	952.69
423.864	921.73
424.241	945.68
424.617	961.73
424.994	959.47
425.37	989.97
425.746	964.44
426.123	957.43
426.499	1008.96
426.875	1014.15
427.251	1016.19
427.627	1039.46
428.003	1049.18
428.379	1064.77
428.756	1062.74
429.132	1098.22
429.507	1098.67
429.883	1126.47
430.259	1159.24
430.635	1173.92
431.011	1169.4
431.387	1193.36
431.763	1190.65
432.138	1205.56
432.514	1222.96
432.89	1222.28
433.265	1224.32
433.641	1254.83
434.016	1257.54
434.392	1290.76
434.767	1302.73
435.143	1338.44
435.518	1332.11
435.894	1330.98
436.269	1346.8
436.644	1390.19
437.02	1407.82
437.395	1422.28
437.77	1421.15
438.145	1449.62
438.52	1451.43
438.895	1470.19
439.271	1458.21
439.646	1490.53
440.021	1509.73
440.395	1534.14
440.77	1494.59
441.145	1481.26
441.52	1544.76
441.895	1565.1
442.27	1581.14
442.645	1605.55
443.019	1623.63
443.394	1616.85
443.769	1617.98
444.143	1638.77
444.518	1658.2
444.892	1668.6
445.267	1681.93
445.641	1698.2
446.016	1708.83
446.39	1702.95
446.764	1721.93
447.139	1738.2
447.513	1762.38
447.887	1751.76
448.262	1751.31
448.636	1783.63
449.01	1827.47
449.384	1824.75
449.758	1830.4
450.132	1868.14
450.506	1885.77
450.88	1893.23
451.254	1919.89
451.628	1897.52
452.002	1960.12
452.376	1975.48
452.75	1946.56
453.123	1991.08
453.497	2049.61
453.871	2041.47
454.244	2055.26
454.618	2092.54
454.992	2102.49
455.365	2126.67
455.739	2210.96
456.112	2166.44
456.486	2190.39
456.859	2188.13
457.232	2266.1
457.606	2276.04
457.979	2293.67
458.352	2325.53
458.725	2352.65
459.099	2343.16
459.472	2385.42
459.845	2432.2
460.218	2449.37
460.591	2474.68
460.964	2492.08
461.337	2530.95
461.71	2569.59
462.083	2604.85
462.456	2594.9
462.829	2629.25
463.201	2671.74
463.574	2695.24
463.947	2732.75
464.32	2782.24
464.692	2784.73
465.065	2813.43
465.438	2866.31
465.81	2850.94
466.183	2906.53
466.555	2929.58
466.928	2963.03
467.3	2966.19
467.672	3054.78
468.045	3084.83
468.417	3121.9
468.789	3108.56
469.161	3171.84
469.534	3212.97
469.906	3255.23
470.278	3278.05
470.65	3351.72
471.022	3420.19
471.394	3460.42
471.766	3473.52
472.138	3523.24
472.51	3572.28
472.882	3646.63
473.253	3722.78
473.625	3724.82
473.997	3791.03
474.369	3806.17
474.74	3881.65
475.112	3933.63
475.484	4008.65
475.855	4077.8
476.227	4118.71
476.598	4255.2
476.97	4242.32
477.341	4359.15
477.713	4390.34
478.084	4453.61
478.455	4529.77
478.827	4607.96
479.198	4715.07
479.569	4715.3
479.94	4865.35
480.311	4899.93
480.682	4992.35
481.053	5149.86
481.424	5167.72
481.795	5226.47
482.166	5317.32
482.537	5328.62
482.908	5464.43
483.279	5541.94
483.65	5646.57
484.021	5765.89
484.391	5786.01
484.762	5903.97
485.133	5931.31
485.503	6053.34
485.874	6103.51
486.244	6190.06
486.615	6327.01
486.985	6374.47
487.356	6491.98
487.726	6590.5
488.097	6653.78
488.467	6730.39
488.837	6898.52
489.207	6889.25
489.578	7000.89
489.948	7130.38
490.318	7222.35
490.688	7210.38
491.058	7390.03
491.428	7409.24
491.798	7492.63
492.168	7653.3
492.538	7665.96
492.908	7807.2
493.278	7944.37
493.648	7930.13
494.017	8044.03
494.387	8097.36
494.757	8208.09
495.126	8300.74
495.496	8302.78
495.866	8357.92
496.235	8496.22
496.605	8533.96
496.974	8569.21
497.344	8712.26
497.713	8688.53
498.082	8861.86
498.452	8920.16
498.821	8882.87
499.19	9044.23
499.559	9165.8
499.928	9229.53
500.298	9192.02
500.667	9298
501.036	9314.27
501.405	9400.6
501.774	9420.71
502.143	9551.1
502.512	9552.23
502.88	9701.16
503.249	9760.82
503.618	9832.91
503.987	9786.8
504.356	9886.24
504.724	9961.26
505.093	10027.7
505.462	10141.82
505.83	10201.94
506.199	10212.1
506.567	10428.37
506.936	10407.58
507.304	10494.13
507.672	10565.99
508.041	10572.09
508.409	10750.17
508.777	10801.47
509.145	10928.92
509.514	10826.33
509.882	11032.87
510.25	11068.35
510.618	11124.17
510.986	11251.17
511.354	11267.67
511.722	11368.01
512.09	11499.75
512.458	11536.82
512.826	11626.08
513.193	11709.24
513.561	11728
513.929	11875.34
514.297	11980.42
514.664	12068.1
515.032	12096.57
515.4	12161.66
515.767	12288.89
516.135	12349.22
516.502	12383.35
516.869	12616.79
517.237	12691.59
517.604	12630.12
517.972	12817.46
518.339	12820.4
518.706	12947.63
519.073	12981.98
519.44	13062.42
519.808	13238.92
520.175	13250.89
520.542	13399.82
520.909	13550.1
521.276	13593.71
521.643	13757.1
522.009	13757.77
522.376	13958.22
522.743	14091.78
523.11	14060.14
523.477	14257.42
523.843	14425.78
524.21	14541.26
524.577	14626.9
524.943	14676.17
525.31	14811.31
525.676	14949.83
526.043	15017.18
526.409	15106.21
526.776	15297.62
527.142	15336.26
527.508	15463.94
527.874	15608.57
528.241	15680.21
528.607	15759.98
528.973	15924.5
529.339	15889.7
529.705	16064.61
530.071	16144.6
530.437	16292.4
530.803	16347.54
531.169	16532.16
531.535	16434.99
531.901	16572.39
532.267	16645.83
532.632	16765.15
532.998	16788.88
533.364	16907.97
533.73	16996.56
534.095	17104.13
534.461	17144.8
534.826	17308.41
535.192	17364.23
535.557	17420.95
535.923	17338.47
536.288	17559.03
536.653	17625.92
537.019	17554.06
537.384	17738.69
537.749	17842.41
538.114	17912.47
538.479	17976.65
538.845	18012.8
539.21	17977.32
539.575	18092.12
539.94	18220.48
540.305	18311.33
540.67	18310.87
541.034	18469.29
541.399	18587.25
541.764	18460.25
542.129	18718.1
542.494	18766.68
542.858	18820.92
543.223	18780.01
543.587	18905.89
543.952	18928.26
544.316	19024.3
544.681	18940.91
545.045	19097.07
545.41	19179.1
545.774	19301.36
546.138	19300
546.503	19355.37
546.867	19427.91
547.231	19608.47
547.595	19659.54
547.959	19779.76
548.324	19781.8
548.688	19794
549.052	19814.56
549.416	19923.04
549.779	20032.86
550.143	19997.61
550.507	20214.33
550.871	20278.96
551.235	20280.31
551.599	20368.9
551.962	20502.46
552.326	20440.08
552.689	20592.85
553.053	20610.02
553.417	20667.42
553.78	20975.21
554.143	20863.8
554.507	20993.06
554.87	21110.12
555.234	21287.97
555.597	21148.54
555.96	21172.27
556.323	21353.51
556.686	21448.87
557.05	21554.86
557.413	21610.67
557.776	21655.42
558.139	21828.75
558.502	21827.62
558.865	21861.06
559.228	22060.38
559.59	22181.28
559.953	22262.86
560.316	22420.14
560.679	22454.49
561.041	22617.43
561.404	22734.49
561.767	22849.74
562.129	22784.88
562.492	23021.71
562.854	22939.91
563.217	23109.39
563.579	23261.48
563.941	23405.43
564.304	23386.67
564.666	23595.26
565.028	23614.24
565.39	23722.03
565.753	23898.3
566.115	23939.88
566.477	24098.97
566.839	24115.69
567.201	24303.49
567.563	24312.52
567.925	24483.59
568.287	24430.26
568.648	24585.06
569.01	24716.13
569.372	24877.03
569.734	24793.42
570.095	25026.63
570.457	25119.28
570.819	25221.43
571.18	25158.38
571.542	25247.64
571.903	25311.14
572.265	25433.4
572.626	25488.09
572.987	25605.82
573.349	25644.69
573.71	25755.2
574.071	25767.85
574.432	25908.64
574.794	26066.38
575.155	25931.01
575.516	25996.1
575.877	26144.11
576.238	26226.15
576.599	26393.6
576.96	26336.43
577.32	26340.49
577.681	26475.41
578.042	26430.21
578.403	26497.1
578.763	26481.73
579.124	26603.54
579.485	26677.89
579.845	26639.7
580.206	26645.12
580.566	26680.15
580.927	26681.95
581.287	26939.35
581.648	26684.21
582.008	26912.23
582.368	26869.97
582.728	26951.1
583.089	26954.94
583.449	26940.25
583.809	26968.95
584.169	27025.9
584.529	26939.8
584.889	27123.75
585.249	26955.39
585.609	26875.85
585.969	26990.42
586.329	26928.5
586.688	27021.38
587.048	26980.93
587.408	26828.39
587.768	26958.33
588.127	26982.06
588.487	26924.66
588.846	27000.36
589.206	26926.47
589.565	27057.09
589.925	27109.29
590.284	27150.42
590.643	27181.15
591.003	27193.8
591.362	27229.96
591.721	27094.82
592.08	27122.62
592.44	27192.67
592.799	27171.21
593.158	27068.84
593.517	27047.82
593.876	27068.38
594.235	27162.62
594.593	27186.8
594.952	27246.91
595.311	27089.85
595.67	27177.08
596.029	27439.67
596.387	27356.74
596.746	27454.36
597.104	27179.12
597.463	27215.27
597.822	27407.81
598.18	27314.48
598.538	27220.47
598.897	27428.6
599.255	27251.88
599.613	27623.85
599.972	27466.79
600.33	27483.51
600.688	27418.21
601.046	27524.42
601.404	27544.53
601.762	27585.21
602.12	27755.15
602.478	27671.98
602.836	27669.05
603.194	27648.71
603.552	27652.55
603.91	27607.35
604.268	27725.77
604.625	27718.08
604.983	27747.46
605.341	27706.56
605.698	27882.83
606.056	27928.7
606.413	27944.97
606.771	28029.71
607.128	27908.36
607.485	27883.96
607.843	27892.09
608.2	28134.34
608.557	28136.38
608.914	28014.12
609.272	28127.34
609.629	28314.23
609.986	28178.19
610.343	28215.92
610.7	28362.59
611.057	28273.1
611.414	28292.76
611.771	28340.89
612.127	28538.85
612.484	28460.44
612.841	28518.29
613.198	28418.18
613.554	28429.03
613.911	28649.81
614.267	28602.58
614.624	28518.74
614.98	28522.81
615.337	28700.43
615.693	28589.93
616.05	28635.35
616.406	28786.53
616.762	28579.31
617.118	28571.85
617.475	28541.11
617.831	28638.96
618.187	28650.72
618.543	28827.43
618.899	28859.98
619.255	28825.63
619.611	28906.08
619.967	29071.95
620.323	29196.69
620.678	28969.58
621.034	28917.83
621.39	28932.06
621.746	28762.35
622.101	29099.52
622.457	28960.99
622.812	28953.98
623.168	29033.3
623.523	28983.14
623.879	29151.49
624.234	28862.91
624.589	28976.36
624.945	28917.15
625.3	28999.63
625.655	29056.13
626.01	28993.08
626.365	28908.11
626.72	28869.01
627.075	28859.98
627.43	28946.3
627.785	28759.64
628.14	28883.03
628.495	28970.03
628.85	28792.18
629.205	28808.68
629.559	28809.58
629.914	28693.2
630.269	28861.33
630.623	28651.17
630.978	28769.81
631.332	28752.41
631.687	28861.33
632.041	28595.58
632.396	28586.99
632.75	28547.44
633.104	28524.84
633.459	28292.08
633.813	28445.07
634.167	28398.29
634.521	28481.23
634.875	28439.87
635.229	28358.97
635.583	28281.01
635.937	28285.53
636.291	28241.91
636.645	28262.48
636.999	28144.74
637.352	28222.7
637.706	27981.81
638.06	28133.44
638.413	28078.75
638.767	28079.21
639.121	28032.43
639.474	27974.12
639.828	27904.75
640.181	27998.98
640.534	27905.65
640.888	27727.58
641.241	27735.26
641.594	27666.11
641.947	27695.71
642.301	27635.38
642.654	27648.03
643.007	27616.62
643.36	27631.53
643.713	27647.58
644.066	27698.42
644.419	27371.2
644.771	27356.06
645.124	27081.27
645.477	27025.9
645.83	26891.21
646.182	26637.89
646.535	26624.78
646.888	26568.74
647.24	26418.23
647.593	26625.46
647.945	26521.96
648.298	26438.57
648.65	26344.34
649.002	26247.84
649.355	26281.96
649.707	26290.33
650.059	26465.91
650.411	26785.91
650.763	26703.2
651.115	26982.28
651.467	26923.3
651.819	26808.5
652.171	26847.37
652.523	26897.09
652.875	26825.9
653.227	26628.17
653.578	26861.16
653.93	26924.66
654.282	26564.22
654.633	26659.58
654.985	26723.08
655.337	26696.19
655.688	26614.84
656.039	26687.38
656.391	26462.75
656.742	26550.21
657.094	26439.47
657.445	26507.72
657.796	26377.56
658.147	26464.56
658.498	26421.85
658.849	26547.95
659.2	26383.2
659.551	26457.78
659.902	26534.39
660.253	26470.89
660.604	26440.38
660.955	26283.32
661.306	26348.18
661.656	26340.95
662.007	26313.38
662.358	26346.6
662.708	26369.19
663.059	26284.68
663.409	26045.13
663.76	26280.61
664.11	26265.47
664.461	26284.22
664.811	26174.17
665.161	26280.38
665.511	26152.25
665.862	26099.6
666.212	26314.51
666.562	26296.88
666.912	26128.75
667.262	26012.82
667.612	26087.62
667.962	26152.7
668.312	26036.32
668.662	26210.33
669.011	26064.34
669.361	26032.93
669.711	26010.56
670.06	25965.36
670.41	25855.08
670.76	25939.15
671.109	26065.02
671.459	26094.85
671.808	25872.26
672.157	25955.65
672.507	25790.45
672.856	25838.59
673.205	25762.2
673.554	25936.66
673.904	25764.24
674.253	25876.55
674.602	25757.01
674.951	25497.58
675.3	25202.67
675.649	25754.52
675.998	25596.78
676.346	25662.55
676.695	25762.88
677.044	25490.35
677.393	25608.08
677.741	25700.74
678.09	25501.19
678.438	25418.71
678.787	25471.36
679.135	25541.42
679.484	25223.91
679.832	25455.32
680.181	25233.63
680.529	25390.91
680.877	25362.21
681.225	25300.07
681.573	25400.86
681.922	25181.43
682.27	25012.62
682.618	25082
682.966	24833.41
683.314	24941.21
683.661	24875.67
684.009	24666.87
684.357	24708.45
684.705	24689.01
685.053	24684.49
685.4	24647.88
685.748	24658.5
686.095	24513.88
686.443	24467.1
686.79	24397.72
687.138	24512.97
687.485	24535.34
687.832	24391.84
688.18	24345.07
688.527	24152.3
688.874	24117.95
689.221	24131.51
689.568	24039.76
689.915	23966.54
690.262	24008.35
690.609	23891.97
690.956	23802.48
691.303	23819.43
691.65	23691.52
691.997	23698.98
692.344	23534.47
692.69	23507.8
693.037	23475.26
693.383	23383.28
693.73	23483.17
694.077	23301.7
694.423	23186.9
694.769	23177.87
695.116	23246.11
695.462	23309.84
695.808	22993.69
696.155	23052.44
696.501	22866.91
696.847	22744.66
697.193	22742.62
697.539	22791.89
697.885	22603.64
698.231	22438.9
698.577	22548.28
698.923	22442.52
699.269	22401.61
699.614	22259.02
699.96	22251.11
700.306	22201.85
700.651	22194.39
700.997	22050.44
701.342	21941.51
701.688	21965.24
702.033	21973.15
702.379	21909.88
702.724	21872.59
703.069	21883.89
703.415	21737.68
703.76	21753.5
704.105	21783.1
704.45	21700.39
704.795	21564.12
705.14	21464.01
705.485	21500.62
705.83	21393.05
706.175	21457.68
706.52	21365.26
706.865	21223.79
707.209	21294.07
707.554	21122.1
707.899	21137.24
708.243	21022.89
708.588	20852.5
708.932	20804.59
709.277	20786.52
709.621	20774.76
709.966	20540.19
710.31	20729.12
710.654	20583.36
710.998	20575.45
711.342	20568.44
711.687	20461.55
712.031	20493.87
712.375	20361.22
712.719	20344.95
713.063	20341.78
713.407	20448.67
713.75	20316.47
714.094	20333.42
714.438	20196.47
714.782	20195.8
715.125	20100.43
715.469	20248
715.812	19978.85
716.156	19906.76
716.499	19931.85
716.843	19953.54
717.186	19878.97
717.53	19897.95
717.873	19851.85
718.216	19833.55
718.559	19724.4
718.902	19562.82
719.246	19613.89
719.589	19551.97
719.932	19504.06
720.275	19444.63
720.617	19419.09
720.96	19377.97
721.303	19408.02
721.646	19368.93
721.989	19230.4
722.331	19241.25
722.674	19264.97
723.016	19297.74
723.359	19241.25
723.701	19208.03
724.044	19085.54
724.386	18994.47
724.729	19099.1
725.071	19036.05
725.413	18998.54
725.755	18931.88
726.097	18893.23
726.439	18862.27
726.782	18844.87
727.124	18975.72
727.465	18658.21
727.807	18749.73
728.149	18716.97
728.491	18730.52
728.833	18745.89
729.175	18607.59
729.516	18528.27
729.858	18526.24
730.199	18489.17
730.541	18361.27
730.882	18407.82
731.224	18457.54
731.565	18353.81
731.906	18397.88
732.248	18294.83
732.589	18322.17
732.93	18260.93
733.271	18273.14
733.612	18215.28
733.953	18197.43
734.294	18154.04
734.635	18102.07
734.976	18133.25
735.317	18073.14
735.658	17838.12
735.999	17939.58
736.339	17881.06
736.68	18011.45
737.021	17951.56
737.361	17749.76
737.702	17969.41
738.042	17843.99
738.383	17803.54
738.723	17798.57
739.063	17794.28
739.404	17797.67
739.744	17753.38
740.084	17686.03
740.424	17761.96
740.764	17680.16
741.104	17669.99
741.444	17621.63
741.784	17496.43
742.124	17570.1
742.464	17543.66
742.804	17404.91
743.143	17436.1
743.483	17411.01
743.823	17363.33
744.162	17420.5
744.502	17376.21
744.841	17229.77
745.181	17348.87
745.52	17281.52
745.86	17292.37
746.199	17220.06
746.538	17145.48
746.877	17091.25
747.216	17155.42
747.556	17051.25
747.895	17017.12
748.234	16981.42
748.573	16974.86
748.911	16920.63
749.25	16986.62
749.589	16843.12
749.928	16888.54
750.267	16879.05
750.605	16939.16
750.944	16751.59
751.283	16695.78
751.621	16700.52
751.96	16649.22
752.298	16587.53
752.636	16654.87
752.975	16574.42
753.313	16508.89
753.651	16553.86
753.989	16525.38
754.327	16399.74
754.666	16407.87
755.004	16363.81
755.342	16325.62
755.679	16398.38
756.017	16183.25
756.355	16194.32
756.693	16091.27
757.031	16109.35
757.368	16062.12
757.706	15966.3
758.044	15929.92
758.381	15974.89
758.719	15909.58
759.056	15945.51
759.394	15918.62
759.731	15734.22
760.068	15696.48
760.405	15611.28
760.743	15630.04
761.08	15564.28
761.417	15643.37
761.754	15565.18
762.091	15472.31
762.428	15431.4
762.765	15312.76
763.102	15390.5
763.438	15330.16
763.775	15282.71
764.112	15274.57
764.449	15200
764.785	15193.22
765.122	15025.99
765.458	15012.66
765.795	14995.48
766.131	14993
766.467	14885.43
766.804	14785.09
767.14	14709.84
767.476	14758.65
767.812	14579.22
768.148	14627.81
768.485	14554.14
768.821	14482.05
769.157	14371.99
769.492	14409.51
769.828	14338.32
770.164	14243.18
770.5	14212.68
770.836	14272.34
771.171	14160.93
771.507	14161.38
771.842	13972.68
772.178	14018.78
772.513	13991.21
772.849	13970.2
773.184	13850.43
773.519	13849.3
773.855	13812.01
774.19	13818.34
774.525	13708.96
774.86	13759.58
775.195	13672.8
775.53	13599.59
775.865	13500.15
776.2	13457.89
776.535	13411.79
776.87	13341.74
777.205	13293.83
777.539	13266.26
777.874	13205.47
778.209	13114.4
778.543	13154.63
778.878	12987.62
779.212	13028.08
779.547	12996.66
779.881	12966.83
780.215	12852.49
780.55	12874.63
780.884	12803.9
781.218	12762.32
781.552	12808.42
781.886	12694.75
782.22	12637.13
782.554	12614.98
782.888	12481.2
783.222	12398.49
783.556	12462.44
783.889	12444.81
784.223	12258.15
784.557	12307.19
784.89	12284.14
785.224	12184.03
785.557	12153.97
785.891	12140.42
786.224	12115.11
786.558	12090.25
786.891	11918.73
787.224	11942.45
787.557	11860.42
787.891	11915.34
788.224	11859.07
788.557	11797.15
788.89	11755.57
789.223	11700.88
789.556	11672.63
789.888	11581.79
790.221	11676.02
790.554	11483.26
790.887	11491.17
791.219	11399.42
791.552	11383.6
791.884	11383.6
792.217	11347.89
792.549	11291.17
792.882	11190.84
793.214	11222.02
793.546	11240.33
793.879	11163.72
794.211	11114.23
794.543	11144.74
794.875	11013.89
795.207	11050.05
795.539	10996.72
795.871	10991.97
796.203	10951.07
796.535	10821.58
796.867	10828.13
797.198	10791.52
797.53	10811.64
797.862	10739.32
798.193	10732.77
798.525	10674.69
798.856	10639.66
799.188	10563.51
799.519	10493
799.85	10541.59
800.182	10503.17
800.513	10471.53
800.844	10299.79
801.175	10468.14
801.506	10437.18
801.837	10379.33
802.168	10309.28
802.499	10315.38
802.83	10263.18
803.161	10212.56
803.491	10197.42
803.822	10122.16
804.153	10084.2
804.483	10046.46
804.814	10024.76
805.145	9982.96
805.475	9980.92
805.805	9967.82
806.136	9868.61
806.466	9917.42
806.796	9895.5
807.126	9802.4
807.457	9822.06
807.787	9799.46
808.117	9806.47
808.447	9780.03
808.777	9759.01
809.107	9700.25
809.436	9692.34
809.766	9678.79
810.096	9678.56
810.426	9602.18
810.755	9601.72
811.085	9542.52
811.414	9607.15
811.744	9515.85
812.073	9464.55
812.403	9460.26
812.732	9432.24
813.061	9490.54
813.39	9368.96
813.719	9322.18
814.049	9407.38
814.378	9370.09
814.707	9313.82
815.036	9285.12
815.365	9227.05
815.693	9109.53
816.022	9144.56
816.351	9114.51
816.68	9067.5
817.008	9084.45
817.337	8994.28
817.665	8974.17
817.994	8973.27
818.322	8967.17
818.651	8960.39
818.979	8920.61
819.307	8933.95
819.636	8896.66
819.964	8840.62
820.292	8877.45
820.62	8860.5
820.948	8845.81
821.276	8865.47
821.604	8818.24
821.932	8895.98
822.259	8891.01
822.587	8937.56
822.915	8840.16
823.243	8895.3
823.57	8830.22
823.898	8875.42
824.225	8809.43
824.553	8807.17
824.88	8834.51
825.207	8905.25
825.535	8865.02
825.862	8893.27
826.189	8827.73
826.516	8872.48
826.843	8895.3
827.17	8871.35
827.497	8832.03
827.824	8856.43
828.151	8881.07
828.478	8814.63
828.805	8860.73
829.131	8785.93
829.458	8807.4
829.785	8706.83
830.111	8769.88
830.438	8770.79
830.764	8797.45
831.09	8801.29
831.417	8728.98
831.743	8781.86
832.069	8813.27
832.395	8772.37
832.722	8780.5
833.048	8752.48
833.374	8759.04
833.7	8771.24
834.026	8802.88
834.351	8773.5
834.677	8747.74
835.003	8761.97
835.329	8834.51
835.654	8684.46
835.98	8705.25
836.306	8719.26
836.631	8692.37
836.956	8700.28
837.282	8717.45
837.607	8639.94
837.932	8671.35
838.258	8630.23
838.583	8679.49
838.908	8550.23
839.233	8569.66
839.558	8550.91
839.883	8557.68
840.208	8492.83
840.533	8502.32
840.858	8497.8
841.182	8454.41
841.507	8515.2
841.832	8406.28
842.156	8391.59
842.481	8442.43
842.805	8428.42
843.13	8286.73
843.454	8397.69
843.778	8267.75
844.103	8334.87
844.427	8372.83
844.751	8356.11
845.075	8302.78
845.399	8232.72
845.723	8292.15
846.047	8259.39
846.371	8147.75
846.695	8214.42
847.019	8107.75
847.343	8074.53
847.666	8016.46
847.99	7952.73
848.313	7953.86
848.637	7931.03
848.96	7988.89
849.284	7870.7
849.607	7812.85
849.931	7847.65
850.254	7804.26
850.577	7717.03
850.9	7706.86
851.223	7624.15
851.546	7664.6
851.869	7592.51
852.192	7614.43
852.515	7482.01
852.838	7483.59
853.161	7522.23
853.483	7454.89
853.806	7432.29
854.129	7412.63
854.451	7356.36
854.774	7307.55
855.096	7280.43
855.419	7349.58
855.741	7342.35
856.063	7332.41
856.385	7256.02
856.708	7243.14
857.03	7219.19
857.352	7159.3
857.674	7170.6
857.996	7131.96
858.318	7111.17
858.64	7081.57
858.961	7085.18
859.283	7045.63
859.605	7063.94
859.926	7096.03
860.248	7052.64
860.57	7001.12
860.891	6995.47
861.212	6897.84
861.534	6912.08
861.855	6946.88
862.176	6975.13
862.498	6903.49
862.819	6916.6
863.14	6864.17
863.461	6865.07
863.782	6792.08
864.103	6808.35
864.424	6816.71
864.745	6800.22
865.065	6771.06
865.386	6808.35
865.707	6731.74
866.027	6730.61
866.348	6712.76
866.668	6703.72
866.989	6693.33
867.309	6632.54
867.63	6663.05
867.95	6676.38
868.27	6673.67
868.59	6676.15
868.91	6621.24
869.23	6655.81
869.55	6641.8
869.87	6637.28
870.19	6581.92
870.51	6565.87
870.83	6627.57
871.15	6602.71
871.469	6515.25
871.789	6557.29
872.109	6581.92
872.428	6563.84
872.748	6544.4
873.067	6487
873.386	6497.85
873.706	6536.95
874.025	6512.77
874.344	6416.5
874.663	6509.83
874.982	6383.96
875.301	6442.03
875.62	6441.13
875.939	6411.3
876.258	6388.48
876.577	6352.09
876.896	6417.85
877.214	6368.59
877.533	6351.64
877.852	6316.61
878.17	6310.06
878.489	6332.21
878.807	6322.94
879.125	6258.08
879.444	6284.07
879.762	6226.67
880.08	6320
880.398	6208.82
880.716	6289.95
881.034	6253.11
881.352	6233.23
881.67	6191.65
881.988	6234.58
882.306	6153.45
882.624	6203.85
882.941	6087.92
883.259	6156.62
883.577	6125.66
883.894	6088.37
884.212	6086.34
884.529	6094.47
884.846	6071.42
885.164	6075.72
885.481	6050.18
885.798	6033.01
886.115	6042.04
886.432	6041.82
886.75	6063.74
887.067	6026.68
887.383	6044.53
887.7	5979.67
888.017	5996.85
888.334	5988.26
888.651	5949.17
888.967	5982.39
889.284	5941.48
889.6	5891.54
889.917	5829.85
890.233	5877.08
890.55	5843.18
890.866	5850.41
891.182	5821.71
891.498	5786.23
891.815	5763.86
892.131	5756.18
892.447	5755.95
892.763	5736.52
893.079	5691.55
893.395	5677.08
893.71	5689.51
894.026	5639.34
894.342	5654.26
894.657	5586.01
894.973	5591.43
895.289	5621.04
895.604	5556.41
895.92	5485.22
896.235	5488.61
896.55	5484.55
896.865	5525.22
897.181	5509.4
897.496	5483.42
897.811	5390.08
898.126	5428.05
898.441	5401.16
898.756	5351.22
899.071	5372.68
899.386	5350.99
899.7	5367.49
900.015	5322.97
900.33	5290.65
900.644	5295.85
900.959	5278.9
901.273	5254.49
901.588	5221.73
901.902	5250.2
902.216	5212.91
902.531	5204.78
902.845	5144.44
903.159	5130.88
903.473	5136.76
903.787	5121.62
904.101	5062.18
904.415	5101.28
904.729	5054.05
905.042	4964.11
905.356	4979.47
905.67	4980.83
905.984	4976.54
906.297	4968.63
906.611	4927.5
906.924	4921.17
907.237	4898.8
907.551	4866.71
907.864	4882.98
908.177	4866.48
908.491	4847.05
908.804	4746.03
909.117	4845.24
909.43	4752.36
909.743	4758.46
910.056	4777.67
910.368	4708.97
910.681	4670.1
910.994	4673.94
911.307	4669.2
911.619	4662.87
911.932	4690.67
912.244	4609.99
912.557	4605.7
912.869	4622.19
913.181	4588.52
913.494	4612.48
913.806	4564.8
914.118	4514.18
914.43	4495.19
914.742	4499.26
915.054	4445.02
915.366	4432.82
915.678	4424.46
915.99	4398.7
916.302	4364.12
916.613	4403.9
916.925	4424.69
917.236	4316.89
917.548	4326.61
917.859	4316.21
918.171	4284.8
918.482	4283.45
918.794	4270.34
919.105	4263.56
919.416	4220.85
919.727	4219.04
920.038	4200.96
920.349	4211.13
920.66	4170.46
920.971	4143.11
921.282	4132.26
921.593	4099.5
921.903	4091.36
922.214	4057.92
922.525	4022.44
922.835	4047.75
923.146	3966.17
923.456	3980.86
923.767	4002.1
924.077	4021.08
924.387	3998.71
924.697	3887.52
925.008	3910.58
925.318	3939.73
925.628	3886.39
925.938	3881.2
926.248	3865.15
926.558	3847.07
926.867	3791.03
927.177	3791.03
927.487	3803.23
927.796	3775.89
928.106	3772.5
928.416	3746.51
928.725	3757.58
929.034	3738.15
929.344	3715.55
929.653	3730.47
929.962	3645.27
930.271	3666.06
930.581	3657.02
930.89	3627.42
931.199	3664.48
931.508	3614.76
931.817	3593.07
932.125	3554.2
932.434	3544.71
932.743	3549.45
933.051	3528.21
933.36	3509.23
933.669	3501.77
933.977	3480.3
934.286	3451.38
934.594	3466.52
934.902	3421.55
935.21	3405.96
935.519	3412.28
935.827	3406.63
936.135	3395.11
936.443	3391.72
936.751	3371.61
937.059	3348.1
937.367	3324.15
937.674	3286.18
937.982	3318.73
938.29	3300.2
938.597	3272.4
938.905	3263.36
939.213	3207.77
939.52	3226.98
939.827	3211.16
940.135	3233.3
940.442	3212.51
940.749	3212.29
941.056	3222.23
941.363	3146.3
941.67	3152.63
941.977	3140.65
942.284	3128.22
942.591	3129.13
942.898	3109.69
943.205	3117.6
943.511	3118.96
943.818	3073.99
944.125	3063.82
944.431	3042.8
944.738	3013.42
945.044	3035.57
945.35	3025.85
945.657	3015.91
945.963	2997.83
946.269	2928.23
946.575	2959.87
946.881	2916.93
947.187	2961.45
947.493	2922.8
947.799	2901.11
948.105	2903.37
948.41	2875.57
948.716	2842.35
949.022	2863.82
949.327	2853.43
949.633	2819.3
949.938	2829.7
950.244	2839.64
950.549	2816.37
950.854	2772.53
951.16	2774.11
951.465	2775.69
951.77	2733.43
952.075	2760.55
952.38	2761.9
952.685	2713.54
952.99	2678.07
953.294	2704.73
953.599	2694.79
953.904	2645.3
954.209	2640.55
954.513	2650.04
954.818	2657.5
955.122	2609.14
955.426	2616.15
955.731	2615.02
956.035	2612.08
956.339	2603.04
956.643	2597.84
956.948	2558.52
957.252	2580.21
957.556	2570.27
957.86	2535.24
958.163	2540.22
958.467	2531.4
958.771	2505.87
959.075	2515.13
959.378	2488.24
959.682	2515.58
959.985	2445.98
960.289	2445.53
960.592	2436.49
960.896	2452.53
961.199	2401.91
961.502	2418.19
961.805	2405.76
962.108	2388.81
962.411	2405.53
962.714	2380.45
963.017	2364.85
963.32	2376.15
963.623	2342.93
963.926	2345.64
964.228	2338.19
964.531	2342.48
964.833	2333.44
965.136	2264.52
965.438	2307.91
965.741	2288.7
966.043	2277.4
966.345	2235.82
966.648	2290.73
966.95	2224.97
967.252	2235.59
967.554	2222.26
967.856	2237.17
968.158	2213.22
968.46	2216.38
968.761	2234.69
969.063	2205.76
969.365	2217.51
969.666	2191.3
969.968	2165.99
970.269	2143.84
970.571	2159.43
970.872	2141.58
971.174	2140.68
971.475	2128.02
971.776	2093.22
972.077	2124.18
972.378	2094.58
972.679	2068.14
972.98	2107.91
973.281	2065.43
973.582	2041.7
973.883	2054.13
974.183	2036.5
974.484	2024.98
974.785	2031.08
975.085	2041.25
975.386	1990.85
975.686	1988.14
975.986	1966.45
976.287	1996.95
976.587	1961.25
976.887	1952.66
977.187	1965.99
977.487	1989.72
977.787	1940.91
978.087	1950.63
978.387	1951.76
978.687	1901.36
978.987	1901.59
979.286	1918.54
979.586	1878.99
979.885	1918.54
980.185	1908.14
980.484	1873.11
980.784	1863.62
981.083	1817.07
981.382	1853.68
981.682	1855.26
981.981	1852.1
982.28	1823.4
982.579	1799.22
982.878	1793.34
983.177	1782.5
983.475	1807.35
983.774	1787.92
984.073	1789.5
984.372	1808.94
984.67	1740.24
984.969	1773.23
985.267	1764.42
985.566	1733.68
985.864	1724.19
986.162	1724.64
986.461	1735.49
986.759	1709.5
987.057	1678.77
987.355	1686.68
987.653	1678.09
987.951	1704.53
988.249	1685.32
988.547	1646
988.844	1661.59
989.142	1652.1
989.44	1636.74
989.737	1662.72
990.035	1635.38
990.332	1625.89
990.63	1649.62
990.927	1640.13
991.224	1589.96
991.521	1633.12
991.819	1613.46
992.116	1625.66
992.413	1580.92
992.71	1566.23
993.006	1576.63
993.303	1570.52
993.6	1531.2
993.897	1553.57
994.193	1546.57
994.49	1557.19
994.787	1518.77
995.083	1543.18
995.379	1537.76
995.676	1502.28
995.972	1508.15
996.268	1495.5
996.565	1506.12
996.861	1498.44
997.157	1499.34
997.453	1485.1
997.749	1454.82
998.044	1457.53
998.34	1440.13
998.636	1457.76
998.932	1457.98
999.227	1439
999.523	1422.73
999.818	1446.46
1000.114	1417.76
1000.409	1402.62
1000.704	1408.95
1001	1398.32
1001.295	1384.54
1001.59	1382.51
1001.885	1380.47
1002.18	1385.67
1002.475	1359.46
1002.77	1348.61
1003.065	1331.43
1003.359	1342.73
1003.654	1355.84
1003.949	1356.29
1004.243	1307.93
1004.538	1318.33
1004.832	1316.52
1005.127	1280.81
1005.421	1294.15
1005.715	1299.34
1006.009	1278.55
1006.304	1283.07
1006.598	1270.19
1006.892	1288.05
1007.186	1287.82
1007.48	1239.01
1007.773	1227.71
1008.067	1204.88
1008.361	1231.55
1008.655	1208.05
1008.948	1231.32
1009.242	1242.4
1009.535	1224.09
1009.829	1206.92
1010.122	1182.96
1010.415	1181.61
1010.708	1206.01
1011.001	1184.77
1011.295	1181.16
1011.588	1168.95
1011.881	1179.57
1012.173	1135.96
1012.466	1135.51
1012.759	1126.24
1013.052	1148.39
1013.344	1136.86
1013.637	1115.85
1013.93	1095.73
1014.222	1109.52
1014.514	1090.54
1014.807	1120.82
1015.099	1102.74
1015.391	1092.8
1015.683	1100.71
1015.976	1095.51
1016.268	1065.45
1016.56	1082.4
1016.851	1074.04
1017.143	1043.31
1017.435	1083.98
1017.727	1058.22
1018.018	1046.02
1018.31	1040.37
1018.602	1060.48
1018.893	1013.48
1019.185	1025.68
1019.476	1039.46
1019.767	1026.58
1020.058	1033.81
1020.35	973.93
1020.641	995.17
1020.932	986.81
1021.223	978.45
1021.514	990.43
1021.804	975.96
1022.095	960.82
1022.386	968.28
1022.677	951.78
1022.967	910.2
1023.258	955.4
1023.548	939.35
1023.839	952.23
1024.129	932.57
1024.419	927.15
1024.709	950.43
1025	946.59
1025.29	915.85
1025.58	921.5
1025.87	873.14
1026.16	857.1
1026.449	897.77
1026.739	889.19
1027.029	893.48
1027.319	884.67
1027.608	891.45
1027.898	853.71
1028.187	867.04
1028.477	862.07
1028.766	852.12
1029.055	859.58
1029.344	853.03
1029.634	833.37
1029.923	831.56
1030.212	812.8
1030.501	837.89
1030.79	818.23
1031.078	808.28
1031.367	782.97
1031.656	795.63
1031.945	792.92
1032.233	797.66
1032.522	787.04
1032.81	799.92
1033.099	797.21
1033.387	795.4
1033.675	789.3
1033.963	773.03
1034.251	770.77
1034.54	752.69
1034.828	787.49
1035.116	748.85
1035.403	725.35
1035.691	737.33
1035.979	729.87
1036.267	726.48
1036.554	745.46
1036.842	732.35
1037.129	729.42
1037.417	710.21
1037.704	709.98
1037.992	717.89
1038.279	730.55
1038.566	709.98
1038.853	709.98
1039.14	709.98
