Data from foam2_polystyrene_foam_FLMS001491_00005.txt Node
Date: Wed Feb 08 10:57:26 GMT 2017
User: dcchb
Spectrometer: FLMS00149
Trigger mode: 0
Integration Time (sec): 2.000000E-2
Scans to average: 10
Electric dark correction enabled: true
Nonlinearity correction enabled: false
Boxcar width: 0
XAxis mode: Wavelengths
Number of Pixels in Spectrum: 2048
>>>>>Begin Spectral Data<<<<<
341.393	2.67
341.776	2.67
342.16	2.67
342.543	-68.52
342.927	-57.67
343.31	-43.21
343.693	-79.14
344.077	-50.66
344.46	-45.69
344.843	-51.57
345.226	-39.59
345.61	-34.39
345.993	-28.74
346.376	-24.45
346.759	14.65
347.142	21.2
347.525	37.24
347.908	49.67
348.291	76.79
348.674	85.15
349.057	112.72
349.44	121.54
349.823	148.65
350.206	179.61
350.588	209.44
350.971	223.23
351.354	243.12
351.737	242.89
352.119	253.96
352.502	280.63
352.884	281.08
353.267	300.74
353.65	280.63
354.032	312.04
354.414	316.79
354.797	344.36
355.179	332.15
355.562	334.86
355.944	346.16
356.326	342.1
356.709	356.78
357.091	350.91
357.473	361.98
357.855	342.77
358.238	357.01
358.62	362.21
359.002	355.65
359.384	361.3
359.766	347.97
360.148	351.81
360.53	375.31
360.912	348.2
361.294	347.07
361.676	360.63
362.057	343.68
362.439	354.3
362.821	338.03
363.203	354.52
363.584	346.62
363.966	338.71
364.348	352.72
364.729	355.43
365.111	360.17
365.493	333.96
365.874	341.42
366.256	356.78
366.637	347.97
367.019	353.85
367.4	337.58
367.781	364.69
368.163	347.07
368.544	338.48
368.925	346.84
369.306	353.85
369.688	365.6
370.069	357.46
370.45	334.19
370.831	351.81
371.212	352.26
371.593	353.17
371.974	353.17
372.355	359.27
372.736	337.8
373.117	351.59
373.498	338.03
373.879	361.53
374.26	345.49
374.641	362.43
375.021	345.49
375.402	385.03
375.783	387.74
376.163	370.34
376.544	386.61
376.925	383.45
377.305	368.31
377.686	389.78
378.066	391.13
378.447	377.35
378.827	385.94
379.208	390.46
379.588	393.17
379.968	399.72
380.349	394.75
380.729	403.56
381.109	397.46
381.489	390
381.87	404.69
382.25	392.72
382.63	413.96
383.01	411.47
383.39	406.73
383.77	446.5
384.15	426.84
384.53	433.17
384.91	427.97
385.29	445.6
385.67	427.97
386.049	430
386.429	440.85
386.809	426.84
387.189	413.05
387.568	456.44
387.948	441.75
388.328	457.8
388.707	453.28
389.087	467.97
389.466	464.8
389.846	474.07
390.225	474.52
390.605	476.78
390.984	473.39
391.363	487.4
391.743	514.97
392.122	502.77
392.501	478.36
392.881	496.22
393.26	499.61
393.639	496.67
394.018	506.61
394.397	510.68
394.776	526.05
395.155	535.54
395.534	527.4
395.913	527.4
396.292	537.57
396.671	524.92
397.05	553.84
397.429	560.62
397.808	548.19
398.186	550.68
398.565	568.98
398.944	570.34
399.323	569.89
399.701	574.41
400.08	583.9
400.458	594.52
400.837	557.01
401.215	581.64
401.594	585.93
401.972	612.82
402.351	594.52
402.729	625.03
403.107	634.74
403.486	625.25
403.864	636.1
404.242	615.31
404.62	614.63
404.999	653.95
405.377	639.49
405.755	663.22
406.133	674.74
406.511	665.48
406.889	689.66
407.267	667.28
407.645	687.4
408.023	711.58
408.401	698.02
408.779	698.24
409.156	717.23
409.534	728.3
409.912	731.92
410.29	735.76
410.667	749.77
411.045	750.67
411.422	756.55
411.8	759.03
412.178	789.99
412.555	790.67
412.933	789.99
413.31	816.66
413.687	822.53
414.065	833.83
414.442	841.74
414.819	827.96
415.197	859.6
415.574	878.58
415.951	860.5
416.328	845.59
416.705	870.67
417.082	854.85
417.46	905.7
417.837	913.61
418.214	893.95
418.591	932.14
418.967	924.68
419.344	930.55
419.721	947.05
420.098	955.41
420.475	966.03
420.852	991.12
421.228	974.4
421.605	981.85
421.982	1001.97
422.358	992.25
422.735	1029.99
423.111	1018.46
423.488	1025.69
423.864	1046.71
424.241	1052.81
424.617	1061.85
424.994	1079.7
425.37	1074.28
425.746	1085.8
426.123	1089.42
426.499	1132.58
426.875	1115.41
427.251	1139.81
427.627	1145.01
428.003	1182.53
428.379	1197.89
428.756	1197.21
429.132	1222.07
429.507	1229.53
429.883	1240.38
430.259	1264.78
430.635	1262.3
431.011	1301.62
431.387	1316.08
431.763	1313.6
432.138	1329.41
432.514	1331.67
432.89	1358.79
433.265	1360.6
433.641	1403.31
434.016	1427.94
434.392	1455.29
434.767	1468.17
435.143	1468.85
435.518	1484.66
435.894	1491.9
436.269	1517.21
436.644	1524.89
437.02	1526.25
437.395	1552.46
437.77	1566.24
438.145	1570.99
438.52	1595.85
438.895	1628.39
439.271	1633.36
439.646	1691.66
440.021	1693.02
440.395	1640.14
440.77	1688.05
441.145	1712.68
441.52	1692.34
441.895	1739.12
442.27	1811.66
442.645	1755.39
443.019	1750.87
443.394	1780.25
443.769	1788.16
444.143	1818.67
444.518	1862.28
444.892	1878.1
445.267	1857.31
445.641	1896.63
446.016	1880.13
446.39	1897.08
446.764	1925.56
447.139	1895.05
447.513	1940.92
447.887	1944.09
448.262	1949.06
448.636	2034.03
449.01	2023.18
449.384	2027.93
449.758	2065.89
450.132	2085.55
450.506	2114.03
450.88	2102.95
451.254	2069.28
451.628	2131.88
452.002	2174.36
452.376	2193.57
452.75	2212.78
453.123	2241.93
453.497	2263.4
453.871	2254.14
454.244	2304.53
454.618	2327.35
454.992	2357.18
455.365	2363.96
455.739	2418.2
456.112	2427.69
456.486	2445.54
456.859	2520.8
457.232	2542.49
457.606	2524.19
457.979	2536.39
458.352	2585.43
458.725	2651.19
459.099	2613.45
459.472	2685.76
459.845	2717.63
460.218	2722.82
460.591	2734.12
460.964	2780.22
461.337	2829.71
461.71	2838.75
462.083	2913.78
462.456	2897.96
462.829	2911.07
463.201	2989.94
463.574	2990.16
463.947	3035.13
464.32	3076.26
464.692	3113.55
465.065	3139.08
465.438	3222.25
465.81	3204.62
466.183	3211.17
466.555	3313.09
466.928	3359.19
467.3	3353.99
467.672	3408
468.045	3447.32
468.417	3468.57
468.789	3531.39
469.161	3574.1
469.534	3591.28
469.906	3694.32
470.278	3748.56
470.65	3736.58
471.022	3799.41
471.394	3858.39
471.766	3943.13
472.138	3952.85
472.51	4051.15
472.882	4084.14
473.253	4145.61
473.625	4234.2
473.997	4312.61
474.369	4321.65
474.74	4353.97
475.112	4471.48
475.484	4506.28
475.855	4565.49
476.227	4654.07
476.598	4755.99
476.97	4786.05
477.341	4894.29
477.713	4943.56
478.084	4983.78
478.455	5122.76
478.827	5137.9
479.198	5342.64
479.569	5299.03
479.94	5492.02
480.311	5549.19
480.682	5696.08
481.053	5764.1
481.424	5817.21
481.795	5930.88
482.166	6020.59
482.537	6075.73
482.908	6235.95
483.279	6287.7
483.65	6441.37
484.021	6508.94
484.391	6555.49
484.762	6630.29
485.133	6677.07
485.503	6787.58
485.874	6950.51
486.244	7044.29
486.615	7159.09
486.985	7289.94
487.356	7392.53
487.726	7435.47
488.097	7568.12
488.467	7679.98
488.837	7781
489.207	7868.9
489.578	8021.22
489.948	8051.27
490.318	8240.64
490.688	8222.34
491.058	8340.76
491.428	8474.99
491.798	8556.34
492.168	8688.77
492.538	8722.44
492.908	8838.82
493.278	8969.89
493.648	8952.04
494.017	9072.26
494.387	9156.78
494.757	9225.25
495.126	9343.67
495.496	9382.31
495.866	9493.49
496.235	9637.67
496.605	9665.47
496.974	9738.91
497.344	9807.61
497.713	9890.55
498.082	9971.9
498.452	10062.07
498.821	10070.43
499.19	10166.47
499.559	10211.67
499.928	10337.54
500.298	10347.93
500.667	10542.51
501.036	10430.19
501.405	10629.96
501.774	10662.95
502.143	10770.3
502.512	10859.79
502.88	10929.84
503.249	10914.92
503.618	11053.45
503.987	11075.82
504.356	11075.37
504.724	11245.76
505.093	11274.46
505.462	11388.36
505.83	11437.62
506.199	11505.19
506.567	11652.76
506.936	11662.25
507.304	11867.67
507.672	11885.52
508.041	11909.93
508.409	11996.93
508.777	12081.67
509.145	12292.29
509.514	12163.03
509.882	12330.48
510.25	12353.98
510.618	12552.4
510.986	12627.87
511.354	12702.67
511.722	12814.54
512.09	12902.44
512.458	12927.3
512.826	13033.74
513.193	13160.74
513.561	13173.85
513.929	13280.06
514.297	13341.08
514.664	13440.73
515.032	13574.97
515.4	13687.51
515.767	13748.97
516.135	13881.85
516.502	13773.38
516.869	14082.53
517.237	14200.94
517.604	14128.4
517.972	14255.4
518.339	14441.61
518.706	14443.87
519.073	14529.52
519.44	14682.96
519.808	14769.96
520.175	14875.05
520.542	14990.98
520.909	15076.85
521.276	15237.07
521.643	15277.75
522.009	15468.25
522.376	15541.02
522.743	15747.79
523.11	15830.05
523.477	15914.57
523.843	16102.36
524.21	16181
524.577	16372.63
524.943	16399.75
525.31	16437.72
525.676	16809.01
526.043	16823.92
526.409	16852.85
526.776	17102.11
527.142	17169.22
527.508	17321.76
527.874	17396.11
528.241	17599.04
528.607	17622.09
528.973	17853.27
529.339	17834.29
529.705	17934.4
530.071	18127.62
530.437	18226.82
530.803	18428.17
531.169	18387.72
531.535	18426.14
531.901	18545.91
532.267	18579.36
532.632	18752.46
532.998	18844.43
533.364	19023.86
533.73	19074.71
534.095	19162.39
534.461	19207.59
534.826	19349.51
535.192	19414.36
535.557	19512.66
535.923	19525.77
536.288	19632.66
536.653	19731.42
537.019	19698.87
537.384	19773.9
537.749	19977.06
538.114	20121.69
538.479	20135.02
538.845	20087.11
539.21	20146.77
539.575	20301.12
539.94	20361
540.305	20504.05
540.67	20501.79
541.034	20623.14
541.399	20690.49
541.764	20714.22
542.129	20876.24
542.494	20874.89
542.858	20946.53
543.223	21077.37
543.587	21149.01
543.952	21116.46
544.316	21260.64
544.681	21201.43
545.045	21260.19
545.41	21430.81
545.774	21507.19
546.138	21607.53
546.503	21609.56
546.867	21642.78
547.231	21892.26
547.595	21824.92
547.959	21912.38
548.324	21936.56
548.688	22147.85
549.052	22170.9
549.416	22276.43
549.779	22303.78
550.143	22418.58
550.507	22580.83
550.871	22551.91
551.235	22712.35
551.599	22922.74
551.962	22946.92
552.326	22973.82
552.689	23137.2
553.053	23010.65
553.417	23096.75
553.78	23439.34
554.143	23355.28
554.507	23441.15
554.87	23572.9
555.234	23793.46
555.597	23630.97
555.96	23718.2
556.323	23955.26
556.686	23982.15
557.05	24075.48
557.413	24177.18
557.776	24414.46
558.139	24415.36
558.502	24467.11
558.865	24679.31
559.228	24842.92
559.59	24894.22
559.953	24872.75
560.316	25321.33
560.679	25200.2
561.041	25505.05
561.404	25533.07
561.767	25711.82
562.129	25578.95
562.492	25878.83
562.854	25959.5
563.217	25935.09
563.579	26099.38
563.941	26168.31
564.304	26305.93
564.666	26494.4
565.028	26693.49
565.39	26694.17
565.753	26825.02
566.115	26910.21
566.477	27037.89
566.839	27148.4
567.201	27297.54
567.563	27378.9
567.925	27572.79
568.287	27436.52
568.648	27608.95
569.01	27839.9
569.372	27875.83
569.734	27952.89
570.095	28123.51
570.457	28123.29
570.819	28215.49
571.18	28280.57
571.542	28425.2
571.903	28433.33
572.265	28595.82
572.626	28658.41
572.987	28711.29
573.349	28842.36
573.71	28861.12
574.071	28964.17
574.432	29131.85
574.794	29288.68
575.155	29328.23
575.516	29354.67
575.877	29335.46
576.238	29358.28
576.599	29424.49
576.96	29545.17
577.32	29614.77
577.681	29665.84
578.042	29765.5
578.403	29826.07
578.763	29829
579.124	29886.63
579.485	30037.81
579.845	30169.79
580.206	30085.49
580.566	29967.76
580.927	30063.57
581.287	30091.82
581.648	30014.08
582.008	30184.93
582.368	30066.96
582.728	30171.14
583.089	30165.49
583.449	30174.76
583.809	30276.68
584.169	30337.24
584.529	30312.38
584.889	30576.1
585.249	30373.4
585.609	30315.32
585.969	30531.58
586.329	30303.79
586.688	30360.06
587.048	30419.27
587.408	30351.7
587.768	30423.34
588.127	30417.91
588.487	30290.46
588.846	30573.39
589.206	30266.96
589.565	30400.51
589.925	30440.74
590.284	30283.68
590.643	30504.01
591.003	30513.28
591.362	30588.98
591.721	30464.24
592.08	30448.2
592.44	30555.09
592.799	30647.29
593.158	30514.18
593.517	30530.23
593.876	30553.73
594.235	30547.18
594.593	30736.1
594.952	30651.81
595.311	30619.04
595.67	30720.73
596.029	30870.33
596.387	30903.1
596.746	30823.78
597.104	30790.33
597.463	30753.05
597.822	30974.96
598.18	30760.96
598.538	30805.25
598.897	30922.08
599.255	30665.82
599.613	31067.84
599.972	30873.95
600.33	30946.71
600.688	30790.79
601.046	31001.85
601.404	31212.47
601.762	31061.06
602.12	31230.55
602.478	31266.48
602.836	31268.06
603.194	31071.46
603.552	31168.18
603.91	31114.62
604.268	31291.34
604.625	31164.56
604.983	31195.75
605.341	31232.81
605.698	31335.63
606.056	31289.3
606.413	31338.79
606.771	31285.24
607.128	31457.21
607.485	31164.56
607.843	31237.1
608.2	31463.99
608.557	31580.37
608.914	31450.2
609.272	31726.81
609.629	31650.42
609.986	31830.76
610.343	31639.35
610.7	31905.33
611.057	31658.56
611.414	31741.04
611.771	31871.21
612.127	31901.94
612.484	31970.42
612.841	31992.79
613.198	31803.87
613.554	31847.26
613.911	32096.97
614.267	32106.23
614.624	32056.52
614.98	32115.27
615.337	32310.97
615.693	32204.31
616.05	32160.24
616.406	32388.03
616.762	32236.4
617.118	32340.35
617.475	32331.08
617.831	32408.82
618.187	32446.11
618.543	32393
618.899	32622.15
619.255	32551.19
619.611	32502.61
619.967	32527.46
620.323	32625.54
620.678	32516.84
621.034	32475.71
621.39	32403.63
621.746	32479.1
622.101	32719.78
622.457	32610.85
622.812	32629.61
623.168	32746.89
623.523	32720.68
623.879	32907.11
624.234	32582.6
624.589	32621.25
624.945	32666.67
625.3	32714.35
625.655	32716.39
626.01	32755.48
626.365	32701.7
626.72	32677.74
627.075	32715.48
627.43	32694.69
627.785	32355.27
628.14	32550.97
628.495	32698.31
628.85	32581.25
629.205	32429.16
629.559	32703.28
629.914	32449.05
630.269	32463.28
630.623	32397.07
630.978	32272.78
631.332	32365.43
631.687	32457.64
632.041	32200.24
632.396	32369.95
632.75	32223.52
633.104	32155.5
633.459	32027.59
633.813	32084.99
634.167	31960.47
634.521	32035.73
634.875	32033.47
635.229	31989.17
635.583	31813.81
635.937	31964.54
636.291	31833.47
636.645	31851.55
636.999	31671.44
637.352	31884.99
637.706	31668.28
638.06	31732.46
638.413	31581.5
638.767	31654.94
639.121	31723.42
639.474	31517.1
639.828	31572.91
640.181	31588.05
640.534	31512.12
640.888	31474.16
641.241	31258.34
641.594	31363.65
641.947	31345.57
642.301	31317.78
642.654	31136.54
643.007	31312.58
643.36	31340.38
643.713	31228.06
644.066	31235.75
644.419	31126.82
644.771	30892.7
645.124	30578.81
645.477	30697.46
645.83	30373.62
646.182	30311.48
646.535	30168.2
646.888	30233.06
647.24	30079.62
647.593	30180.86
647.945	30079.62
648.298	30086.17
648.65	29847.76
649.002	29821.55
649.355	29823.81
649.707	30057.92
650.059	30203.91
650.411	30442.1
650.763	30477.12
651.115	30784.91
651.467	30548.31
651.819	30669.21
652.171	30518.93
652.523	30437.8
652.875	30410.46
653.227	30210.91
653.578	30569.55
653.93	30433.96
654.282	30195.1
654.633	30160.75
654.985	30241.65
655.337	30158.94
655.688	30164.14
656.039	30314.64
656.391	30047.3
656.742	30138.15
657.094	30099.05
657.445	30161.2
657.796	30055.44
658.147	30119.62
658.498	30028.09
658.849	30248.2
659.2	30079.39
659.551	29994.88
659.902	30023.12
660.253	30079.62
660.604	29935.44
660.955	29864.48
661.306	30061.99
661.656	29921.2
662.007	29992.62
662.358	29875.33
662.708	29926.85
663.059	29784.71
663.409	29610.93
663.76	29942.22
664.11	29751.27
664.461	29923.69
664.811	29844.37
665.161	29888.66
665.511	29703.81
665.862	29749.68
666.212	29809.34
666.562	29751.04
666.912	29734.09
667.262	29605.96
667.612	29653.64
667.962	29715.33
668.312	29705.84
668.662	29829.91
669.011	29787.42
669.361	29645.28
669.711	29585.62
670.06	29647.31
670.41	29435.57
670.76	29504.94
671.109	29729.57
671.459	29605.28
671.808	29440.31
672.157	29586.3
672.507	29420.2
672.856	29347.66
673.205	29439.64
673.554	29420.2
673.904	29333.42
674.253	29408.9
674.602	29295.01
674.951	28952.64
675.3	28819.54
675.649	29218.17
675.998	29190.83
676.346	29307.89
676.695	29305.4
677.044	29082.81
677.393	29091.17
677.741	29181.34
678.09	29002.81
678.438	28878.75
678.787	28964.39
679.135	28986.31
679.484	28786.32
679.832	29037.61
680.181	28868.35
680.529	28909.71
680.877	28822.25
681.225	28802.14
681.573	28968.69
681.922	28709.03
682.27	28665.64
682.618	28697.96
682.966	28519.66
683.314	28562.6
683.661	28403.5
684.009	28315.6
684.357	28182.95
684.705	28295.03
685.053	28114.47
685.4	28078.77
685.748	28116.96
686.095	27900.01
686.443	27709.29
686.79	27714.94
687.138	27797.19
687.485	27792.9
687.832	27669.96
688.18	27758.1
688.527	27521.49
688.874	27591.1
689.221	27466.81
689.568	27309.52
689.915	27289.41
690.262	27227.04
690.609	27266.81
690.956	27139.36
691.303	27044.22
691.65	26937.1
691.997	27061.62
692.344	26780.95
692.69	26821.63
693.037	26852.58
693.383	26622.76
693.73	26794.28
694.077	26442.65
694.423	26585.02
694.769	26505.48
695.116	26257.57
695.462	26384.8
695.808	26212.15
696.155	26383.44
696.501	26048.54
696.847	25995.21
697.193	25915.89
697.539	25983.91
697.885	25815.32
698.231	25832.5
698.577	25751.37
698.923	25741.65
699.269	25668.89
699.614	25376.24
699.96	25340.76
700.306	25358.39
700.651	25319.97
700.997	25177.37
701.342	25033.42
701.688	24988.91
702.033	24952.52
702.379	24844.73
702.724	24815.58
703.069	24809.47
703.415	24590.27
703.76	24553.89
704.105	24608.8
704.45	24616.49
704.795	24389.37
705.14	24275.7
705.485	24224.63
705.83	24100.11
706.175	24244.29
706.52	23995.03
706.865	24067.35
707.209	24017.18
707.554	23976.05
707.899	23989.16
708.243	23751.65
708.588	23874.13
708.932	23666
709.277	23621.03
709.621	23801.37
709.966	23500.36
710.31	23553.24
710.654	23361.15
710.998	23505.1
711.342	23413.35
711.687	23388.04
712.031	23275.96
712.375	23169.29
712.719	23115.51
713.063	23023.31
713.407	23167.48
713.75	23007.71
714.094	23039.13
714.438	22817.44
714.782	22842.75
715.125	22684.33
715.469	22813.6
715.812	22577.44
716.156	22529.99
716.499	22601.62
716.843	22727.27
717.186	22520.27
717.53	22527.27
717.873	22475.98
718.216	22338.58
718.559	22370.89
718.902	22175.65
719.246	22308.07
719.589	22151.47
719.932	22057.91
720.275	22057
720.617	22057.46
720.96	22044.35
721.303	21988.53
721.646	21982.43
721.989	21713.74
722.331	21886.61
722.674	21821.98
723.016	21768.88
723.359	21709.9
723.701	21750.35
724.044	21640.29
724.386	21490.47
724.729	21569.56
725.071	21460.64
725.413	21540.41
725.755	21469.45
726.097	21288.66
726.439	21332.28
726.782	21244.6
727.124	21403.24
727.465	21236.91
727.807	21222.9
728.149	21100.65
728.491	21120.53
728.833	21090.02
729.175	21011.16
729.516	20984.72
729.858	20979.29
730.199	20978.16
730.541	20900.88
730.882	20829.92
731.224	20932.74
731.565	20818.85
731.906	20752.41
732.248	20776.59
732.589	20705.85
732.93	20530.94
733.271	20625.86
733.612	20537.72
733.953	20511.96
734.294	20502.02
734.635	20543.6
734.976	20544.73
735.317	20394.22
735.658	20385.86
735.999	20449.59
736.339	20368.01
736.68	20466.99
737.021	20435.58
737.361	20232.42
737.702	20312.87
738.042	20261.57
738.383	20195.58
738.723	20278.75
739.063	20197.84
739.404	20168.47
739.744	20102.93
740.084	19975.7
740.424	19987.91
740.764	19900.45
741.104	20011.86
741.444	19903.84
741.784	19818.87
742.124	19853.22
742.464	19698.87
742.804	19711.53
743.143	19724.86
743.483	19692.1
743.823	19479.45
744.162	19589.05
744.502	19611.42
744.841	19508.82
745.181	19558.54
745.52	19428.83
745.86	19418.66
746.199	19419.56
746.538	19375.49
746.877	19405.32
747.216	19347.47
747.556	19328.71
747.895	19358.54
748.234	19258.89
748.573	19215.95
748.911	19204.65
749.25	19173.24
749.589	18940.25
749.928	19103.18
750.267	19062.06
750.605	18969.18
750.944	18993.58
751.283	18945.45
751.621	18960.82
751.96	18794.94
752.298	18797.43
752.636	18959.01
752.975	18729.63
753.313	18692.35
753.651	18695.51
753.989	18530.32
754.327	18516.53
754.666	18467.27
755.004	18514.27
755.342	18557.21
755.679	18444.44
756.017	18316.31
756.355	18382.75
756.693	18225.47
757.031	18411.45
757.368	18188.86
757.706	18159.71
758.044	18094.62
758.381	18087.62
758.719	17974.4
759.056	17990.9
759.394	17956.1
759.731	17761.3
760.068	17712.26
760.405	17793.84
760.743	17601.75
761.08	17776.44
761.417	17599.27
761.754	17540.51
762.091	17488.99
762.428	17462.55
762.765	17328.09
763.102	17323.8
763.438	17357.02
763.775	17249.45
764.112	17248.77
764.449	17166.06
764.785	17121.54
765.122	16942.79
765.458	16933.07
765.795	16882.9
766.131	16875.67
766.467	16775.56
766.804	16689.91
767.14	16676.58
767.476	16562.23
767.812	16511.39
768.148	16445.85
768.485	16406.08
768.821	16322.24
769.157	16345.29
769.492	16239.76
769.828	16271.17
770.164	16126.77
770.5	16109.36
770.836	16177.61
771.171	15959.09
771.507	15981.23
771.842	15805.64
772.178	15779.2
772.513	15761.13
772.849	15745.98
773.184	15722.26
773.519	15788.47
773.855	15656.95
774.19	15666.21
774.525	15539.89
774.86	15490.4
775.195	15404.52
775.53	15360.91
775.865	15309.39
776.2	15157.53
776.535	15148.49
776.87	15045.66
777.205	15017.64
777.539	14985.33
777.874	14993.01
778.209	14869.4
778.543	14792.56
778.878	14768.38
779.212	14739.23
779.547	14645.22
779.881	14736.52
780.215	14531.33
780.55	14571.1
780.884	14435.74
781.218	14490.2
781.552	14467.15
781.886	14428.73
782.22	14348.05
782.554	14284.55
782.888	14124.56
783.222	14140.6
783.556	14049.76
783.889	13982.64
784.223	13934.96
784.557	13845.47
784.89	13920.72
785.224	13864.9
785.557	13777.45
785.891	13759.14
786.224	13748.07
786.558	13591.69
786.891	13563.67
787.224	13501.52
787.557	13461.52
787.891	13479.6
788.224	13499.26
788.557	13344.01
788.89	13289.33
789.223	13329.78
789.556	13218.14
789.888	13261.76
790.221	13213.4
790.554	13046.17
790.887	13083
791.219	13020.86
791.552	13033.97
791.884	12921.43
792.217	12892.5
792.549	12778.6
792.882	12703.35
793.214	12731.37
793.546	12706.06
793.879	12611.38
794.211	12573.19
794.543	12634.65
794.875	12489.35
795.207	12565.28
795.539	12484.83
795.871	12452.29
796.203	12389.01
796.535	12273.76
796.867	12183.59
797.198	12283.25
797.53	12277.6
797.862	12114.44
798.193	12142.46
798.525	12081.67
798.856	12151.73
799.188	11955.8
799.519	11933.88
799.85	11871.96
800.182	11891.62
800.513	11873.09
800.844	11846.43
801.175	11819.31
801.506	11786.54
801.837	11730.5
802.168	11756.26
802.499	11664.28
802.83	11613.66
803.161	11484.63
803.491	11520.78
803.822	11582.7
804.153	11492.54
804.483	11353.56
804.814	11404.4
805.145	11370.73
805.475	11371.86
805.805	11330.28
806.136	11276.5
806.466	11305.65
806.796	11230.62
807.126	11130.74
807.457	11147.01
807.787	11119.67
808.117	11067.24
808.447	11009.61
808.777	11025.2
809.107	11026.11
809.436	10959.22
809.766	10942.95
810.096	10967.8
810.426	10851.42
810.755	10843.06
811.085	10893.68
811.414	10844.42
811.744	10747.02
812.073	10730.52
812.403	10694.37
812.732	10603.07
813.061	10643.97
813.39	10617.08
813.719	10521.71
814.049	10595.84
814.378	10569.17
814.707	10530.08
815.036	10526.69
815.365	10449.4
815.693	10380.48
816.022	10395.84
816.351	10315.39
816.68	10353.58
817.008	10328.5
817.337	10198.79
817.665	10297.54
817.994	10312.68
818.322	10184.77
818.651	10196.75
818.979	10123.53
819.307	10109.75
819.636	10172.12
819.964	10135.74
820.292	10086.92
820.62	10144.1
820.948	10077.21
821.276	10102.29
821.604	10150.43
821.932	10130.31
822.259	10118.79
822.587	10082.63
822.915	10052.35
823.243	10120.37
823.57	9982.07
823.898	10099.58
824.225	10041.05
824.553	10082.63
824.88	10056.42
825.207	10113.82
825.535	10044.21
825.862	10068.62
826.189	10053.93
826.516	10114.72
826.843	10097.32
827.17	10071.78
827.497	10069.75
827.824	10042.86
828.151	10095.96
828.478	10078.56
828.805	10076.3
829.131	10015.51
829.458	9987.94
829.785	10011.67
830.111	10009.64
830.438	10077.43
830.764	9963.99
831.09	10001.05
831.417	9895.29
831.743	10006.02
832.069	10042.18
832.395	9942.07
832.722	9998.56
833.048	10002.18
833.374	9941.84
833.7	9908.62
834.026	9905.69
834.351	9921.5
834.677	9916.53
835.003	9892.13
835.329	9879.92
835.654	9834.73
835.98	9788.85
836.306	9912.24
836.631	9843.31
836.956	9898.23
837.282	9811.9
837.607	9800.15
837.932	9752.47
838.258	9754.96
838.583	9766.71
838.908	9687.61
839.233	9704.79
839.558	9761.96
839.883	9682.41
840.208	9649.87
840.533	9603.32
840.858	9662.75
841.182	9657.56
841.507	9660.49
841.832	9573.04
842.156	9584.11
842.481	9505.92
842.805	9520.84
843.13	9496.66
843.454	9458.69
843.778	9448.97
844.103	9415.53
844.427	9414.17
844.751	9351.12
845.075	9377.34
845.399	9358.13
845.723	9293.5
846.047	9269.32
846.371	9210.34
846.695	9128.31
847.019	9154.97
847.343	9140.96
847.666	9095.09
847.99	9062.32
848.313	9046.73
848.637	8987.29
848.96	8957.01
849.284	8921.76
849.607	8819.84
849.931	8856.22
850.254	8773.96
850.577	8731.03
850.9	8690.12
851.223	8634.31
851.546	8560.64
851.869	8579.62
852.192	8600.41
852.515	8522.9
852.838	8483.35
853.161	8520.19
853.483	8438.38
853.806	8418.72
854.129	8380.08
854.451	8393.86
854.774	8400.19
855.096	8339.85
855.419	8309.8
855.741	8281.77
856.063	8231.83
856.385	8261.89
856.708	8228.44
857.03	8182.12
857.352	8207.88
857.674	8164.26
857.996	8150.25
858.318	8097.15
858.64	8087.2
858.961	8119.52
859.283	8014.89
859.605	8055.79
859.926	8032.97
860.248	7980.76
860.57	7930.37
860.891	7978.28
861.212	7919.98
861.534	7983.48
861.855	7910.48
862.176	7929.01
862.498	7849.02
862.819	7915
863.14	7857.6
863.461	7858.06
863.782	7781.22
864.103	7839.07
864.424	7762.01
864.745	7815.12
865.065	7769.24
865.386	7762.69
865.707	7676.14
866.027	7724.27
866.348	7661.9
866.668	7671.17
866.989	7670.26
867.309	7580.78
867.63	7638.63
867.95	7575.58
868.27	7579.42
868.59	7567.67
868.91	7536.26
869.23	7568.35
869.55	7444.28
869.87	7519.99
870.19	7529.93
870.51	7512.3
870.83	7528.57
871.15	7480.66
871.469	7429.37
871.789	7449.03
872.109	7437.05
872.428	7369.71
872.748	7456.03
873.067	7411.74
873.386	7421.46
873.706	7341.46
874.025	7317.73
874.344	7312.76
874.663	7363.61
874.982	7312.31
875.301	7307.11
875.62	7283.16
875.939	7282.25
876.258	7308.69
876.577	7252.87
876.896	7232.99
877.214	7204.97
877.533	7233.67
877.852	7239.32
878.17	7218.52
878.489	7237.73
878.807	7172.88
879.125	7156.83
879.444	7207.68
879.762	7122.03
880.08	7216.27
880.398	7103.5
880.716	7164.52
881.034	7120.45
881.352	7113.44
881.67	7061.24
881.988	7109.15
882.306	7035.25
882.624	7040.45
882.941	7063.73
883.259	6980.57
883.577	6923.84
883.894	6971.75
884.212	6995.48
884.529	6962.94
884.846	6940.57
885.164	6948.25
885.481	6930.62
885.798	6892.21
886.115	6910.06
886.432	6906.89
886.75	6847.69
887.067	6804.3
887.383	6800.68
887.7	6787.8
888.017	6851.98
888.334	6763.85
888.651	6714.81
888.967	6750.29
889.284	6702.83
889.6	6626.9
889.917	6669.16
890.233	6715.49
890.55	6627.35
890.866	6674.13
891.182	6621.48
891.498	6609.5
891.815	6575.38
892.131	6557.07
892.447	6496.51
892.763	6489.96
893.079	6505.1
893.395	6509.62
893.71	6485.66
894.026	6476.85
894.342	6417.19
894.657	6344.2
894.973	6395.27
895.289	6366.34
895.604	6372.22
895.92	6300.58
896.235	6276.63
896.55	6272.79
896.865	6316.63
897.181	6268.04
897.496	6262.62
897.811	6197.53
898.126	6147.82
898.441	6162.51
898.756	6167.48
899.071	6092.9
899.386	6160.47
899.7	6160.93
900.015	6051.1
900.33	6051.1
900.644	6040.48
900.959	6008.84
901.273	5997.99
901.588	6006.35
901.902	5927.94
902.216	5934.72
902.531	5915.96
902.845	5880.03
903.159	5876.87
903.473	5857.2
903.787	5798.22
904.101	5740.6
904.415	5792.35
904.729	5733.14
905.042	5697.66
905.356	5685.68
905.67	5655.4
905.984	5715.06
906.297	5641.84
906.611	5642.75
906.924	5631
907.237	5625.8
907.551	5536.99
907.864	5524.78
908.177	5498.57
908.491	5515.74
908.804	5502.86
909.117	5457.22
909.43	5427.84
909.743	5346.94
910.056	5366.82
910.368	5368.18
910.681	5333.83
910.994	5273.94
911.307	5283.43
911.619	5284.56
911.932	5266.49
912.244	5244.79
912.557	5242.53
912.869	5211.57
913.181	5140.84
913.494	5175.19
913.806	5171.12
914.118	5119.37
914.43	5127.73
914.742	5148.07
915.054	5098.13
915.366	5094.29
915.678	5030.79
915.99	4994.18
916.302	4995.53
916.613	4996.21
916.925	4958.25
917.236	4923.44
917.548	4879.6
917.859	4887.96
918.171	4853.62
918.482	4890.9
918.794	4815.2
919.105	4835.99
919.416	4777.01
919.727	4755.99
920.038	4741.75
920.349	4705.14
920.66	4721.19
920.971	4680.51
921.282	4655.88
921.593	4669.44
921.903	4643.68
922.214	4617.92
922.525	4581.08
922.835	4566.84
923.146	4594.19
923.456	4541.31
923.767	4496.11
924.077	4517.35
924.387	4503.12
924.697	4454.08
925.008	4450.91
925.318	4371.14
925.628	4424.02
925.938	4419.5
926.248	4364.36
926.558	4310.13
926.867	4334.76
927.177	4278.04
927.487	4335.89
927.796	4290.92
928.106	4248.66
928.416	4237.59
928.725	4224.93
929.034	4215.21
929.344	4194.65
929.653	4200.75
929.962	4193.75
930.271	4166.85
930.581	4089.79
930.89	4101.77
931.199	4087.53
931.508	4074.65
931.817	4051.6
932.125	4055.67
932.434	4037.82
932.743	4005.73
933.051	3979.74
933.36	3949.91
933.669	3956.46
933.977	3906.52
934.286	3903.81
934.594	3875.34
934.902	3871.27
935.21	3900.87
935.519	3825.17
935.827	3840.08
936.135	3832.4
936.443	3813.64
936.751	3803.7
937.059	3794.21
937.367	3752.18
937.674	3737.26
937.982	3753.98
938.29	3716.92
938.597	3721.22
938.905	3702.46
939.213	3621.11
939.52	3676.25
939.827	3662.91
940.135	3594.44
940.442	3629.92
940.749	3637.6
941.056	3564.84
941.363	3564.61
941.67	3582.91
941.977	3528.9
942.284	3530.49
942.591	3544.5
942.898	3482.8
943.205	3488.68
943.511	3450.71
943.818	3429.47
944.125	3424.27
944.431	3435.12
944.738	3401.68
945.044	3384.95
945.35	3391.51
945.657	3379.53
945.963	3368.23
946.269	3314.22
946.575	3325.97
946.881	3293.66
947.187	3314.22
947.493	3262.92
947.799	3306.99
948.105	3262.7
948.41	3230.83
948.716	3290.72
949.022	3233.77
949.327	3189.7
949.633	3161.23
949.938	3159.65
950.244	3188.12
950.549	3166.65
950.854	3137.5
951.16	3115.81
951.465	3114.9
951.77	3090.72
952.075	3079.2
952.38	3086.66
952.685	3050.05
952.99	3018.86
953.294	3025.41
953.599	3024.28
953.904	3031.97
954.209	2993.78
954.513	2953.55
954.818	2967.79
955.122	2968.24
955.426	2926.21
955.731	2897.73
956.035	2936.6
956.339	2903.84
956.643	2877.85
956.948	2887.57
957.252	2862.48
957.556	2853.89
957.86	2827.68
958.163	2831.52
958.467	2860.45
958.771	2814.12
959.075	2790.84
959.378	2795.59
959.682	2836.49
959.985	2748.81
960.289	2761.24
960.592	2720.11
960.896	2721.47
961.199	2715.82
961.502	2715.59
961.805	2693.67
962.108	2677.85
962.411	2711.52
962.714	2674.01
963.017	2670.62
963.32	2657.74
963.623	2656.16
963.926	2657.51
964.228	2617.97
964.531	2633.11
964.833	2589.72
965.136	2592.43
965.438	2574.13
965.741	2563.73
966.043	2584.75
966.345	2559.89
966.648	2506.78
966.95	2501.81
967.252	2532.77
967.554	2515.6
967.856	2498.42
968.158	2463.85
968.46	2455.03
968.761	2458.42
969.063	2488.25
969.365	2413.45
969.666	2466.11
969.968	2424.07
970.269	2389.5
970.571	2420.01
970.872	2359.44
971.174	2376.17
971.475	2325.09
971.776	2370.52
972.077	2344.75
972.378	2309.05
972.679	2342.27
972.98	2285.55
973.281	2283.06
973.582	2278.32
973.883	2284.42
974.183	2301.82
974.484	2279.22
974.785	2256.62
975.085	2250.52
975.386	2238.54
975.686	2205.78
975.986	2206.68
976.287	2210.75
976.587	2203.97
976.887	2240.58
977.187	2217.98
977.487	2168.71
977.787	2171.2
978.087	2159.22
978.387	2132.78
978.687	2176.17
978.987	2130.98
979.286	2107.47
979.586	2151.99
979.885	2122.39
980.185	2106.12
980.484	2111.54
980.784	2048.72
981.083	2074.25
981.382	2089.39
981.682	2064.54
981.981	2074.71
982.28	2056.85
982.579	2025.89
982.878	2030.19
983.177	2027.25
983.475	2018.21
983.774	1973.47
984.073	2004.2
984.372	1983.63
984.67	1978.89
984.969	2010.3
985.267	1975.72
985.566	1955.16
985.864	1914.26
986.162	1953.35
986.461	1888.95
986.759	1934.6
987.057	1916.74
987.355	1883.98
987.653	1917.2
987.951	1888.5
988.249	1883.98
988.547	1892.56
988.844	1868.16
989.142	1857.99
989.44	1858.44
989.737	1857.08
990.035	1826.12
990.332	1820.02
990.63	1821.6
990.927	1813.7
991.224	1773.24
991.521	1794.26
991.819	1801.04
992.116	1785.67
992.413	1753.58
992.71	1722.4
993.006	1740.48
993.303	1755.17
993.6	1752.45
993.897	1702.74
994.193	1726.47
994.49	1712
994.787	1704.55
995.083	1671.78
995.379	1675.17
995.676	1675.39
995.972	1706.13
996.268	1671.78
996.565	1656.41
996.861	1649.86
997.157	1629.75
997.453	1612.12
997.749	1641.5
998.044	1601.72
998.34	1589.29
998.636	1595.85
998.932	1604.66
999.227	1583.42
999.523	1576.64
999.818	1563.76
1000.114	1570.09
1000.409	1546.58
1000.704	1551.56
1001	1541.16
1001.295	1528.28
1001.59	1530.54
1001.885	1523.99
1002.18	1522.63
1002.475	1522.4
1002.77	1485.57
1003.065	1485.34
1003.359	1487.83
1003.654	1483.08
1003.949	1469.98
1004.243	1451.67
1004.538	1439.69
1004.832	1474.27
1005.127	1443.76
1005.421	1410.54
1005.715	1418
1006.009	1459.35
1006.304	1401.95
1006.598	1383.42
1006.892	1389.3
1007.186	1388.62
1007.48	1380.94
1007.773	1335.52
1008.067	1376.19
1008.361	1377.77
1008.655	1343.65
1008.948	1356.08
1009.242	1344.78
1009.535	1340.49
1009.829	1307.95
1010.122	1312.92
1010.415	1323.99
1010.708	1285.57
1011.001	1293.26
1011.295	1302.07
1011.588	1295.29
1011.881	1283.09
1012.173	1251
1012.466	1275.4
1012.759	1229.08
1013.052	1248.74
1013.344	1251.68
1013.637	1236.08
1013.93	1233.37
1014.222	1238.57
1014.514	1213.03
1014.807	1184.33
1015.099	1205.58
1015.391	1199.47
1015.683	1197.44
1015.976	1194.28
1016.268	1178.23
1016.56	1162.86
1016.851	1182.3
1017.143	1153.83
1017.435	1176.42
1017.727	1165.12
1018.018	1124.45
1018.31	1129.42
1018.602	1116.54
1018.893	1128.74
1019.185	1140.27
1019.476	1073.15
1019.767	1108.63
1020.058	1114.5
1020.35	1085.8
1020.641	1070.89
1020.932	1047.39
1021.223	1068.86
1021.514	1047.84
1021.804	1064.11
1022.095	1049.2
1022.386	1051.91
1022.677	1050.1
1022.967	1046.71
1023.258	1026.82
1023.548	1026.15
1023.839	1003.1
1024.129	999.03
1024.419	1004.9
1024.709	987.73
1025	996.99
1025.29	992.47
1025.58	982.76
1025.87	971.01
1026.16	983.89
1026.449	955.64
1026.739	963.32
1027.029	966.26
1027.319	936.88
1027.608	958.58
1027.898	914.51
1028.187	906.83
1028.477	934.62
1028.766	919.03
1029.055	907.28
1029.344	934.17
1029.634	884.91
1029.923	910.44
1030.212	902.53
1030.501	905.7
1030.79	908.63
1031.078	896.43
1031.367	868.18
1031.656	875.41
1031.945	870.67
1032.233	851.91
1032.522	854.85
1032.81	840.84
1033.099	861.18
1033.387	842.65
1033.675	836.09
1033.963	830.67
1034.251	849.65
1034.54	817.11
1034.828	827.28
1035.116	831.8
1035.403	833.61
1035.691	814.63
1035.979	816.21
1036.267	789.32
1036.554	788.86
1036.842	795.64
1037.129	759.94
1037.417	778.69
1037.704	760.39
1037.992	776.89
1038.279	770.33
1038.566	760.84
1038.853	760.84
1039.14	760.84
