Data from foam_black_FLMS001491_00067.txt Node
Date: Wed Feb 08 10:44:25 GMT 2017
User: dcchb
Spectrometer: FLMS00149
Trigger mode: 0
Integration Time (sec): 2.000000E-2
Scans to average: 10
Electric dark correction enabled: true
Nonlinearity correction enabled: false
Boxcar width: 0
XAxis mode: Wavelengths
Number of Pixels in Spectrum: 2048
>>>>>Begin Spectral Data<<<<<
341.393	-4.72
341.776	-4.72
342.16	-4.72
342.543	-63.47
342.927	-47.2
343.31	-71.38
343.693	-67.54
344.077	-74.55
344.46	-50.82
344.843	-47.43
345.226	-53.08
345.61	-29.12
345.993	-7.43
346.376	9.97
346.759	-3.36
347.142	23.98
347.525	28.5
347.908	43.19
348.291	84.09
348.674	103.75
349.057	111.21
349.44	130.19
349.823	154.83
350.206	149.63
350.588	187.59
350.971	208.84
351.354	222.4
351.737	216.07
352.119	222.85
352.502	252.45
352.884	261.04
353.267	237.99
353.65	266.91
354.032	277.08
354.414	276.41
354.797	285.44
355.179	296.97
355.562	307.59
355.944	313.24
356.326	325.9
356.709	327.7
357.091	311.21
357.473	319.79
357.855	324.54
358.238	300.59
358.62	322.73
359.002	326.8
359.384	347.82
359.766	327.7
360.148	323.64
360.53	340.81
360.912	331.09
361.294	305.78
361.676	316.63
362.057	301.94
362.439	317.53
362.821	300.13
363.203	300.13
363.584	302.85
363.966	280.25
364.348	324.31
364.729	300.59
365.111	297.65
365.493	301.26
365.874	303.52
366.256	281.15
366.637	326.12
367.019	283.64
367.4	298.33
367.781	278.21
368.163	282.51
368.544	294.71
368.925	295.84
369.306	299
369.688	298.55
370.069	294.03
370.45	293.58
370.831	315.05
371.212	312.56
371.593	290.64
371.974	315.73
372.355	287.03
372.736	290.87
373.117	296.97
373.498	296.74
373.879	288.83
374.26	298.55
374.641	294.94
375.021	284.77
375.402	307.82
375.783	300.13
376.163	312.79
376.544	296.29
376.925	292
377.305	319.57
377.686	294.94
378.066	305.78
378.447	292.45
378.827	307.82
379.208	310.3
379.588	322.28
379.968	298.55
380.349	334.71
380.729	292.68
381.109	330.19
381.489	302.62
381.87	327.93
382.25	312.56
382.63	332.45
383.01	330.87
383.39	324.09
383.77	322.96
384.15	324.31
384.53	324.54
384.91	321.6
385.29	322.73
385.67	344.43
386.049	332.67
386.429	339.68
386.809	318.21
387.189	319.79
387.568	335.84
387.948	354.82
388.328	324.77
388.707	365.67
389.087	341.49
389.466	341.26
389.846	332.67
390.225	324.99
390.605	356.63
390.984	332.67
391.363	355.05
391.743	347.82
392.122	353.01
392.501	360.47
392.881	358.44
393.26	352.11
393.639	349.62
394.018	351.21
394.397	332.45
394.776	360.92
395.155	357.53
395.534	368.61
395.913	362.28
396.292	358.89
396.671	383.3
397.05	363.86
397.429	363.18
397.808	366.8
398.186	375.16
398.565	347.82
398.944	371.54
399.323	371.54
399.701	369.51
400.08	371.32
400.458	374.26
400.837	370.64
401.215	373.13
401.594	401.83
401.972	371.09
402.351	366.57
402.729	391.66
403.107	381.49
403.486	400.02
403.864	380.58
404.242	400.02
404.62	400.47
404.999	377.19
405.377	386.68
405.755	407.02
406.133	405.67
406.511	414.03
406.889	384.2
407.267	394.82
407.645	385.55
408.023	416.74
408.401	408.38
408.779	401.83
409.156	403.86
409.534	425.78
409.912	402.28
410.29	415.84
410.667	400.24
411.045	424.65
411.422	451.99
411.8	408.61
412.178	436.85
412.555	428.04
412.933	440.24
413.31	434.59
413.687	430.07
414.065	443.18
414.442	437.98
414.819	453.12
415.197	458.1
415.574	405.89
415.951	471.43
416.328	451.99
416.705	450.64
417.082	458.77
417.46	469.39
417.837	451.77
418.214	461.94
418.591	475.72
418.967	460.36
419.344	465.78
419.721	449.28
420.098	476.63
420.475	483.18
420.852	462.39
421.228	489.96
421.605	481.37
421.982	460.36
422.358	479.79
422.735	470.3
423.111	488.15
423.488	499.45
423.864	491.77
424.241	505.55
424.617	492.44
424.994	513.46
425.37	505.78
425.746	500.58
426.123	511.43
426.499	504.42
426.875	524.31
427.251	494.48
427.627	527.25
428.003	530.86
428.379	546.45
428.756	550.3
429.132	523.86
429.507	518.66
429.883	541.48
430.259	544.87
430.635	529.96
431.011	534.03
431.387	548.49
431.763	575.61
432.138	543.97
432.514	555.27
432.89	577.87
433.265	582.16
433.641	566.57
434.016	561.82
434.392	562.95
434.767	568.15
435.143	587.81
435.518	594.59
435.894	600.46
436.269	598.66
436.644	602.05
437.02	613.8
437.395	594.59
437.77	609.05
438.145	631.65
438.52	614.93
438.895	624.64
439.271	617.64
439.646	634.59
440.021	628.71
440.395	627.36
440.77	642.27
441.145	629.62
441.52	651.99
441.895	657.64
442.27	633.01
442.645	645.66
443.019	649.73
443.394	671.87
443.769	671.2
444.143	649.28
444.518	683.4
444.892	673.23
445.267	675.04
445.641	667.13
446.016	680.46
446.39	682.72
446.764	673.91
447.139	670.52
447.513	685.66
447.887	678.65
448.262	685.66
448.636	685.43
449.01	696.06
449.384	679.33
449.758	700.8
450.132	702.83
450.506	703.96
450.88	698.77
451.254	716.17
451.628	737.64
452.002	698.99
452.376	730.4
452.75	703.06
453.123	724.75
453.497	764.3
453.871	780.12
454.244	762.49
454.618	777.41
454.992	760.69
455.365	787.8
455.739	767.69
456.112	788.03
456.486	760.46
456.859	793.91
457.232	808.82
457.606	818.99
457.979	790.52
458.352	815.37
458.725	820.57
459.099	822.38
459.472	829.61
459.845	860.8
460.218	854.02
460.591	854.02
460.964	887.91
461.337	878.2
461.71	894.02
462.083	905.99
462.456	910.06
462.829	896.28
463.201	898.54
463.574	906.22
463.947	929.5
464.32	923.62
464.692	941.7
465.065	932.43
465.438	947.35
465.81	952.09
466.183	967.91
466.555	981.92
466.928	980.12
467.3	992.77
467.672	995.93
468.045	995.71
468.417	1003.39
468.789	990.28
469.161	1047.68
469.534	1042.49
469.906	1051.53
470.278	1037.29
470.65	1073.22
471.022	1090.17
471.394	1099.43
471.766	1092.65
472.138	1125.65
472.51	1124.74
472.882	1161.81
473.253	1140.11
473.625	1159.09
473.997	1182.37
474.369	1193.9
474.74	1194.35
475.112	1180.56
475.484	1245.65
475.855	1256.04
476.227	1236.83
476.598	1284.74
476.97	1272.99
477.341	1311.63
477.713	1329.48
478.084	1364.29
478.455	1371.74
478.827	1374.46
479.198	1392.76
479.569	1398.64
479.94	1430.5
480.311	1418.52
480.682	1476.6
481.053	1455.81
481.424	1514.11
481.795	1547.56
482.166	1524.73
482.537	1539.87
482.908	1587.78
483.279	1611.29
483.65	1621
484.021	1628.69
484.391	1649.93
484.762	1677.05
485.133	1674.79
485.503	1704.16
485.874	1736.93
486.244	1768.12
486.615	1753.2
486.985	1779.64
487.356	1811.96
487.726	1803.6
488.097	1844.05
488.467	1863.48
488.837	1868.23
489.207	1905.97
489.578	1918.4
489.948	1930.82
490.318	1974.44
490.688	1948.9
491.058	1990.94
491.428	1971.28
491.798	1995.23
492.168	2063.02
492.538	2086.53
492.908	2069.13
493.278	2091.27
493.648	2086.75
494.017	2115.45
494.387	2161.55
494.757	2153.42
495.126	2193.64
495.496	2187.99
495.866	2199.07
496.235	2221.21
496.605	2221.44
496.974	2239.52
497.344	2269.8
497.713	2295.34
498.082	2296.24
498.452	2288.1
498.821	2327.88
499.19	2299.63
499.559	2331.72
499.928	2335.56
500.298	2350.02
500.667	2386.86
501.036	2403.81
501.405	2439.96
501.774	2427.76
502.143	2428.21
502.512	2428.66
502.88	2490.58
503.249	2452.85
503.618	2487.42
503.987	2518.38
504.356	2512.96
504.724	2519.28
505.093	2505.95
505.462	2559.73
505.83	2567.42
506.199	2567.87
506.567	2601.77
506.936	2601.54
507.304	2619.85
507.672	2655.55
508.041	2669.34
508.409	2669.56
508.777	2712.73
509.145	2690.58
509.514	2714.53
509.882	2720.63
510.25	2757.02
510.618	2757.02
510.986	2748.88
511.354	2794.31
511.722	2863.68
512.09	2832.72
512.458	2849.22
512.826	2889.67
513.193	2905.04
513.561	2919.05
513.929	2889.67
514.297	2943.68
514.664	2932.83
515.032	3011.7
515.4	2993.85
515.767	3013.28
516.135	3005.6
516.502	3016.9
516.869	3065.03
517.237	3083.34
517.604	3051.47
517.972	3107.52
518.339	3161.98
518.706	3120.4
519.073	3163.11
519.44	3150.45
519.808	3176.44
520.175	3205.59
520.542	3245.82
520.909	3300.51
521.276	3250.56
521.643	3270.68
522.009	3310.68
522.376	3327.62
522.743	3324.91
523.11	3393.39
523.477	3426.83
523.843	3435.42
524.21	3497.11
524.577	3461.18
524.943	3515.64
525.31	3509.09
525.676	3573.95
526.043	3572.36
526.409	3608.97
526.776	3602.87
527.142	3632.93
527.508	3683.77
527.874	3699.82
528.241	3740.04
528.607	3708.41
528.973	3784.56
529.339	3734.39
529.705	3797.44
530.071	3816.2
530.437	3791.34
530.803	3805.13
531.169	3847.61
531.535	3878.57
531.901	3839.25
532.267	3916.99
532.632	3880.15
532.998	3917.89
533.364	3967.61
533.73	3948.62
534.095	4032.24
534.461	4011.22
534.826	4013.93
535.192	4030.2
535.557	4053.48
535.923	4054.38
536.288	4132.8
536.653	4083.31
537.019	4049.41
537.384	4101.39
537.749	4201.95
538.114	4215.96
538.479	4206.47
538.845	4164.44
539.21	4192.69
539.575	4223.19
539.94	4251.44
540.305	4256.87
540.67	4257.77
541.034	4323.08
541.399	4342.96
541.764	4297.54
542.129	4348.39
542.494	4344.09
542.858	4354.94
543.223	4339.58
543.587	4376.64
543.952	4370.31
544.316	4375.51
544.681	4407.14
545.045	4405.34
545.41	4417.31
545.774	4451.66
546.138	4449.85
546.503	4425.9
546.867	4490.31
547.231	4503.19
547.595	4550.87
547.959	4534.82
548.324	4579.79
548.688	4610.75
549.052	4587.7
549.416	4603.97
549.779	4661.15
550.143	4670.64
550.507	4673.13
550.871	4683.29
551.235	4669.51
551.599	4724.42
551.962	4734.37
552.326	4730.98
552.689	4785.67
553.053	4784.31
553.417	4771.2
553.78	4820.92
554.143	4864.76
554.507	4877.19
554.87	4862.5
555.234	4932.33
555.597	4903.63
555.96	4890.52
556.323	4967.81
556.686	4984.98
557.05	4989.73
557.413	4985.89
557.776	5046.45
558.139	5021.59
558.502	4967.58
558.865	5052.1
559.228	5134.58
559.59	5135.94
559.953	5129.38
560.316	5135.26
560.679	5120.57
561.041	5189.72
561.404	5190.4
561.767	5241.92
562.129	5226.11
562.492	5301.36
562.854	5284.41
563.217	5346.1
563.579	5329.83
563.941	5354.46
564.304	5458.64
564.666	5423.16
565.028	5437.85
565.39	5489.6
565.753	5487.79
566.115	5545.87
566.477	5525.53
566.839	5577.96
567.201	5589.49
567.563	5646.66
567.925	5643.27
568.287	5629.48
568.648	5697.05
569.01	5632.65
569.372	5764.4
569.734	5695.92
570.095	5823.83
570.457	5771.4
570.819	5778.41
571.18	5786.77
571.542	5831.74
571.903	5837.16
572.265	5859.31
572.626	5852.76
572.987	5866.77
573.349	5892.53
573.71	5893.21
574.071	5958.29
574.432	5990.15
574.794	6004.62
575.155	5990.15
575.516	5974.11
575.877	5977.5
576.238	6009.59
576.599	6055.24
576.96	6003.71
577.32	6022.24
577.681	6075.12
578.042	6044.62
578.403	6060.21
578.763	6072.86
579.124	6123.71
579.485	6123.94
579.845	6100.21
580.206	6165.06
580.566	6170.94
580.927	6151.05
581.287	6213.42
581.648	6156.48
582.008	6241.45
582.368	6202.35
582.728	6233.76
583.089	6233.76
583.449	6225.63
583.809	6219.07
584.169	6255.68
584.529	6210.71
584.889	6311.27
585.249	6261.11
585.609	6228.57
585.969	6273.08
586.329	6252.07
586.688	6281.45
587.048	6266.53
587.408	6250.26
587.768	6222.46
588.127	6299.75
588.487	6210.03
588.846	6271.28
589.206	6230.37
589.565	6247.1
589.925	6276.47
590.284	6183.59
590.643	6233.08
591.003	6218.62
591.362	6233.76
591.721	6228.79
592.08	6225.18
592.44	6273.76
592.799	6224.5
593.158	6238.51
593.517	6261.78
593.876	6228.79
594.235	6206.87
594.593	6193.31
594.952	6257.26
595.311	6269.69
595.67	6238.73
596.029	6255.91
596.387	6285.51
596.746	6341.1
597.104	6306.98
597.463	6268.34
597.822	6330.48
598.18	6284.38
598.538	6312.18
598.897	6348.34
599.255	6293.65
599.613	6363.48
599.972	6328.22
600.33	6341.33
600.688	6302.01
601.046	6376.58
601.404	6400.99
601.762	6358.05
602.12	6392.18
602.478	6342.69
602.836	6331.16
603.194	6331.16
603.552	6278.51
603.91	6328.45
604.268	6349.69
604.625	6341.78
604.983	6326.64
605.341	6337.49
605.698	6334.1
606.056	6383.59
606.413	6334.32
606.771	6417.71
607.128	6397.83
607.485	6365.28
607.843	6376.13
608.2	6390.14
608.557	6454.55
608.914	6383.14
609.272	6414.32
609.629	6426.98
609.986	6515.79
610.343	6491.61
610.7	6517.6
611.057	6480.31
611.414	6455.9
611.771	6495.22
612.127	6512.85
612.484	6524.15
612.841	6509.24
613.198	6496.58
613.554	6470.37
613.911	6573.87
614.267	6532.29
614.624	6525.05
614.98	6504.04
615.337	6550.59
615.693	6523.25
616.05	6589.69
616.406	6584.04
616.762	6536.13
617.118	6593.53
617.475	6588.78
617.831	6631.94
618.187	6536.81
618.543	6592.62
618.899	6623.81
619.255	6591.95
619.611	6634.66
619.967	6597.82
620.323	6634.43
620.678	6583.81
621.034	6589.23
621.39	6602.34
621.746	6613.64
622.101	6674.66
622.457	6638.5
622.812	6651.83
623.168	6661.77
623.523	6615.45
623.879	6687.08
624.234	6604.6
624.589	6624.71
624.945	6621.55
625.3	6643.7
625.655	6603.24
626.01	6625.62
626.365	6620.65
626.72	6613.64
627.075	6622.23
627.43	6591.95
627.785	6582.23
628.14	6625.84
628.495	6640.53
628.85	6677.37
629.205	6561.66
629.559	6680.98
629.914	6639.85
630.269	6649.34
630.623	6568.67
630.978	6578.16
631.332	6634.88
631.687	6633.98
632.041	6611.15
632.396	6645.05
632.75	6600.98
633.104	6571.83
633.459	6553.3
633.813	6604.15
634.167	6535.45
634.521	6545.84
634.875	6567.31
635.229	6518.05
635.583	6506.75
635.937	6493.42
636.291	6424.49
636.645	6504.94
636.999	6443.25
637.352	6427.66
637.706	6436.02
638.06	6446.86
638.413	6419.97
638.767	6419.52
639.121	6396.7
639.474	6337.26
639.828	6340.2
640.181	6413.19
640.534	6406.19
640.888	6414.32
641.241	6334.78
641.594	6335.23
641.947	6332.29
642.301	6357.15
642.654	6376.13
643.007	6389.24
643.36	6313.31
643.713	6370.26
644.066	6368.67
644.419	6303.14
644.771	6233.99
645.124	6142.69
645.477	6212.97
645.83	6080.77
646.182	6122.81
646.535	6132.97
646.888	6174.78
647.24	6169.36
647.593	6168.68
647.945	6092.3
648.298	6077.38
648.65	6106.08
649.002	6085.52
649.355	6116.03
649.707	6100.88
650.059	6151.96
650.411	6169.13
650.763	6149.47
651.115	6287.32
651.467	6205.97
651.819	6198.96
652.171	6196.7
652.523	6177.72
652.875	6149.92
653.227	6139.3
653.578	6195.12
653.93	6138.62
654.282	6129.58
654.633	6096.59
654.985	6177.94
655.337	6147.21
655.688	6086.87
656.039	6116.25
656.391	6108.12
656.742	6096.59
657.094	6129.36
657.445	6102.24
657.796	6101.56
658.147	6128.91
658.498	6033.54
658.849	6112.18
659.2	6066.54
659.551	6028.57
659.902	6031.28
660.253	6029.47
660.604	6083.26
660.955	6006.2
661.306	6048
661.656	6084.84
662.007	6036.25
662.358	6002.13
662.708	6087.55
663.059	6019.76
663.409	5961.23
663.76	6001.9
664.11	6052.52
664.461	6065.63
664.811	6041
665.161	5999.42
665.511	6048.23
665.862	6069.02
666.212	6096.14
666.562	6063.82
666.912	6015.69
667.262	5993.54
667.612	6012.98
667.962	6041.45
668.312	5992.64
668.662	6038.51
669.011	5967.33
669.361	6010.94
669.711	5969.81
670.06	5958.97
670.41	5996.25
670.76	5944.96
671.109	5999.19
671.459	5942.7
671.808	5930.49
672.157	5902.7
672.507	5930.04
672.856	5968.01
673.205	5968.01
673.554	5927.1
673.904	5946.99
674.253	5942.7
674.602	5916.26
674.951	5848.01
675.3	5794.9
675.649	5905.41
675.998	5892.75
676.346	5859.54
676.695	5848.46
677.044	5781.8
677.393	5867.9
677.741	5832.87
678.09	5845.07
678.438	5828.58
678.787	5879.65
679.135	5818.41
679.484	5824.51
679.832	5785.41
680.181	5820.89
680.529	5791.06
680.877	5727.11
681.225	5799.42
681.573	5764.62
681.922	5724.62
682.27	5774.34
682.618	5749.93
682.966	5741.35
683.314	5752.19
683.661	5772.98
684.009	5701.12
684.357	5675.36
684.705	5685.98
685.053	5720.78
685.4	5704.96
685.748	5688.92
686.095	5696.15
686.443	5673.33
686.79	5661.35
687.138	5710.16
687.485	5702.7
687.832	5674.23
688.18	5687.11
688.527	5587.23
688.874	5673.33
689.221	5652.99
689.568	5637.17
689.915	5618.19
690.262	5606.43
690.609	5591.29
690.956	5634.68
691.303	5507.68
691.65	5511.3
691.997	5569.15
692.344	5501.58
692.69	5516.49
693.037	5571.63
693.383	5456.83
693.73	5452.31
694.077	5415.93
694.423	5394.24
694.769	5332.77
695.116	5333.22
695.462	5361.47
695.808	5324.18
696.155	5326.67
696.501	5305.65
696.847	5253.45
697.193	5282.38
697.539	5275.82
697.885	5198.99
698.231	5171.19
698.577	5157.63
698.923	5191.08
699.269	5113.11
699.614	5106.79
699.96	5147.24
700.306	5153.11
700.651	5118.76
700.997	5100.46
701.342	5075.15
701.688	5034.7
702.033	5055.49
702.379	5038.77
702.724	5013.23
703.069	5000.8
703.415	4984.76
703.76	5008.48
704.105	4993.57
704.45	4958.32
704.795	4933.68
705.14	4992.89
705.485	4956.06
705.83	4936.85
706.175	4941.14
706.52	4950.18
706.865	4891.88
707.209	4926.23
707.554	4900.24
707.899	4923.97
708.243	4895.04
708.588	4876.96
708.932	4905.44
709.277	4859.11
709.621	4857.53
709.966	4836.29
710.31	4853.91
710.654	4827.02
710.998	4827.25
711.342	4800.58
711.687	4819.34
712.031	4832.22
712.375	4815.95
712.719	4820.92
713.063	4744.76
713.407	4774.14
713.75	4759
714.094	4744.76
714.438	4706.12
714.782	4722.62
715.125	4660.47
715.469	4669.74
715.812	4667.93
716.156	4635.61
716.499	4679.23
716.843	4701.15
717.186	4590.19
717.53	4636.74
717.873	4622.05
718.216	4554.71
718.559	4568.5
718.902	4527.37
719.246	4513.36
719.589	4538.67
719.932	4485.33
720.275	4480.14
720.617	4488.72
720.96	4475.16
721.303	4518.78
721.646	4457.31
721.989	4489.18
722.331	4461.15
722.674	4485.56
723.016	4470.65
723.359	4400.82
723.701	4466.8
724.044	4391.33
724.386	4384.77
724.729	4411.44
725.071	4408.05
725.413	4405.34
725.755	4381.16
726.097	4379.57
726.439	4336.86
726.782	4380.7
727.124	4401.27
727.465	4366.47
727.807	4359.46
728.149	4361.72
728.491	4358.11
728.833	4386.13
729.175	4360.82
729.516	4332.12
729.858	4332.8
730.199	4368.5
730.541	4300.93
730.882	4345.9
731.224	4302.97
731.565	4275.85
731.906	4339.12
732.248	4325.56
732.589	4328.5
732.93	4324.66
733.271	4333.02
733.612	4262.06
733.953	4283.98
734.294	4296.41
734.635	4225.45
734.976	4258.67
735.317	4263.42
735.658	4290.31
735.999	4242.4
736.339	4229.52
736.68	4245.34
737.021	4267.26
737.361	4182.52
737.702	4195.62
738.042	4192.01
738.383	4202.4
738.723	4236.3
739.063	4260.03
739.404	4215.96
739.744	4161.73
740.084	4176.42
740.424	4197.88
740.764	4117.21
741.104	4199.24
741.444	4172.57
741.784	4104.78
742.124	4151.33
742.464	4078.57
742.804	4122.41
743.143	4119.92
743.483	4127.83
743.823	4058.23
744.162	4096.87
744.502	4067.27
744.841	4059.58
745.181	4079.47
745.52	4053.03
745.86	4090.77
746.199	4039.24
746.538	4033.59
746.877	4018
747.216	4024.78
747.556	3999.92
747.895	4023.43
748.234	3996.08
748.573	3975.74
748.911	3943.43
749.25	4004.22
749.589	3914.5
749.928	3967.83
750.267	3960.6
750.605	3896.65
750.944	3917.67
751.283	3915.86
751.621	3934.39
751.96	3869.31
752.298	3874.28
752.636	3884.9
752.975	3916.99
753.313	3822.3
753.651	3868.85
753.989	3859.36
754.327	3875.18
754.666	3838.12
755.004	3859.14
755.342	3844.45
755.679	3846.03
756.017	3833.83
756.355	3832.7
756.693	3815.07
757.031	3807.16
757.368	3828.63
757.706	3844.22
758.044	3819.81
758.381	3797.44
758.719	3783.88
759.056	3811.68
759.394	3787.5
759.731	3734.62
760.068	3781.4
760.405	3788.63
760.743	3768.06
761.08	3747.5
761.417	3748.4
761.754	3717.9
762.091	3711.12
762.428	3708.63
762.765	3693.94
763.102	3692.36
763.438	3718.35
763.775	3669.99
764.112	3656.66
764.449	3653.72
764.785	3658.69
765.122	3586.6
765.458	3606.71
765.795	3629.76
766.131	3596.09
766.467	3609.88
766.804	3565.58
767.14	3528.98
767.476	3548.41
767.812	3495.3
768.148	3528.98
768.485	3472.03
768.821	3469.77
769.157	3490.11
769.492	3457.34
769.828	3432.71
770.164	3438.13
770.5	3419.37
770.836	3443.78
771.171	3413.27
771.507	3407.85
771.842	3348.64
772.178	3367.17
772.513	3337.79
772.849	3323.33
773.184	3300.73
773.519	3304.8
773.855	3302.09
774.19	3253.73
774.525	3285.14
774.86	3303.9
775.195	3243.56
775.53	3272.26
775.865	3243.33
776.2	3288.3
776.535	3171.92
776.87	3202.43
777.205	3214.86
777.539	3186.84
777.874	3158.82
778.209	3144.58
778.543	3165.59
778.878	3146.39
779.212	3126.95
779.547	3150.23
779.881	3136.67
780.215	3119.95
780.55	3101.87
780.884	3122.66
781.218	3119.49
781.552	3078.82
781.886	3096.67
782.22	3102.32
782.554	3040.17
782.888	3039.72
783.222	3061.19
783.556	3007.41
783.889	3009.21
784.223	3003.11
784.557	3009.89
784.89	3017.8
785.224	2976.45
785.557	2998.14
785.891	3003.34
786.224	2997.24
786.558	2955.43
786.891	2939.61
787.224	2946.62
787.557	2929.89
787.891	2923.79
788.224	2911.59
788.557	2952.27
788.89	2932.38
789.223	2897.35
789.556	2865.04
789.888	2848.99
790.221	2874.53
790.554	2851.03
790.887	2863.91
791.219	2852.16
791.552	2806.51
791.884	2858.94
792.217	2806.73
792.549	2803.57
792.882	2817.13
793.214	2767.41
793.546	2758.83
793.879	2768.54
794.211	2778.71
794.543	2731.26
794.875	2716.57
795.207	2750.69
795.539	2719.28
795.871	2698.94
796.203	2685.16
796.535	2692.61
796.867	2682.44
797.198	2643.35
797.53	2649.68
797.862	2621.43
798.193	2643.12
798.525	2618.04
798.856	2644.25
799.188	2639.51
799.519	2617.59
799.85	2613.07
800.182	2580.07
800.513	2562.67
800.844	2560.41
801.175	2605.38
801.506	2550.02
801.837	2542.79
802.168	2507.08
802.499	2522.45
802.83	2519.96
803.161	2480.87
803.491	2479.51
803.822	2504.82
804.153	2498.72
804.483	2481.09
804.814	2471.83
805.145	2460.98
805.475	2468.44
805.805	2460.98
806.136	2454.43
806.466	2474.09
806.796	2452.39
807.126	2459.62
807.457	2449.46
807.787	2448.1
808.117	2427.31
808.447	2436.57
808.777	2423.02
809.107	2448.33
809.436	2399.74
809.766	2448.78
810.096	2421.89
810.426	2407.2
810.755	2387.76
811.085	2425.5
811.414	2463.92
811.744	2350.47
812.073	2388.21
812.403	2396.12
812.732	2355.67
813.061	2380.98
813.39	2348.22
813.719	2382.56
814.049	2384.15
814.378	2393.86
814.707	2392.51
815.036	2329.23
815.365	2360.42
815.693	2295.79
816.022	2349.12
816.351	2357.71
816.68	2336.46
817.008	2342.11
817.337	2327.42
817.665	2364.94
817.994	2324.03
818.322	2322.68
818.651	2307.99
818.979	2308.44
819.307	2303.47
819.636	2305.05
819.964	2317.48
820.292	2305.05
820.62	2297.37
820.948	2272.74
821.276	2229.12
821.604	2290.59
821.932	2283.36
822.259	2275
822.587	2278.84
822.915	2257.14
823.243	2264.38
823.57	2241.33
823.898	2248.1
824.225	2270.03
824.553	2231.83
824.88	2251.72
825.207	2258.5
825.535	2271.83
825.862	2223.7
826.189	2218.5
826.516	2254.66
826.843	2252.4
827.17	2234.09
827.497	2234.32
827.824	2214.21
828.151	2227.77
828.478	2214.21
828.805	2222.79
829.131	2269.57
829.458	2218.95
829.785	2236.81
830.111	2239.07
830.438	2219.4
830.764	2221.89
831.09	2222.34
831.417	2215.79
831.743	2226.86
832.069	2248.56
832.395	2186.86
832.722	2214.89
833.048	2205.17
833.374	2211.27
833.7	2201.1
834.026	2192.29
834.351	2204.94
834.677	2211.95
835.003	2190.03
835.329	2195.68
835.654	2195.45
835.98	2198.84
836.306	2211.27
836.631	2203.59
836.956	2179.86
837.282	2227.09
837.607	2194.32
837.932	2192.51
838.258	2208.33
838.583	2208.33
838.908	2169.91
839.233	2175.79
839.558	2192.06
839.883	2202.23
840.208	2187.09
840.533	2210.59
840.858	2184.6
841.182	2187.32
841.507	2165.4
841.832	2140.54
842.156	2150.03
842.481	2163.36
842.805	2161.55
843.13	2176.92
843.454	2170.59
843.778	2126.07
844.103	2152.74
844.427	2148.67
844.751	2164.72
845.075	2151.38
845.399	2144.38
845.723	2133.76
846.047	2159.97
846.371	2129.69
846.695	2135.11
847.019	2121.33
847.343	2080.88
847.666	2086.3
847.99	2079.52
848.313	2077.49
848.637	2027.55
848.96	2083.36
849.284	2037.26
849.607	2038.17
849.931	2052.63
850.254	2052.18
850.577	2020.31
850.9	2040.43
851.223	2018.73
851.546	2009.24
851.869	2001.56
852.192	1995
852.515	1990.26
852.838	1966.3
853.161	1992.74
853.483	1978.06
853.806	1961.11
854.129	1952.75
854.451	1942.12
854.774	1915.46
855.096	1946.42
855.419	1942.8
855.741	1924.05
856.063	1926.98
856.385	1918.62
856.708	1930.15
857.03	1929.47
857.352	1871.17
857.674	1886.76
857.996	1883.82
858.318	1891.96
858.64	1897.61
858.961	1886.98
859.283	1883.59
859.605	1859.87
859.926	1857.15
860.248	1871.17
860.57	1821
860.891	1874.56
861.212	1836.14
861.534	1839.75
861.855	1811.05
862.176	1843.14
862.498	1851.96
862.819	1844.95
863.14	1812.41
863.461	1803.6
863.782	1805.4
864.103	1792.3
864.424	1788
864.745	1800.21
865.065	1785.74
865.386	1785.74
865.707	1782.13
866.027	1795.69
866.348	1764.28
866.668	1788.68
866.989	1788.46
867.309	1777.38
867.63	1744.16
867.95	1766.54
868.27	1754.33
868.59	1781.45
868.91	1769.7
869.23	1737.16
869.55	1756.82
869.87	1751.39
870.19	1731.96
870.51	1716.59
870.83	1755.69
871.15	1716.37
871.469	1717.72
871.789	1736.25
872.109	1718.18
872.428	1716.14
872.748	1731.06
873.067	1722.02
873.386	1730.83
873.706	1711.85
874.025	1725.63
874.344	1746.87
874.663	1742.58
874.982	1732.64
875.301	1750.49
875.62	1718.18
875.939	1724.73
876.258	1712.07
876.577	1707.78
876.896	1730.83
877.214	1724.05
877.533	1719.76
877.852	1728.12
878.17	1729.47
878.489	1713.2
878.807	1733.32
879.125	1720.21
879.444	1689.25
879.762	1684.28
880.08	1682.92
880.398	1710.49
880.716	1716.37
881.034	1727.89
881.352	1732.64
881.67	1690.83
881.988	1704.16
882.306	1701.23
882.624	1689.02
882.941	1669.81
883.259	1668.23
883.577	1668.23
883.894	1654.9
884.212	1681.11
884.529	1718.18
884.846	1664.17
885.164	1670.94
885.481	1684.73
885.798	1676.59
886.115	1654.9
886.432	1636.14
886.75	1672.07
887.067	1663.04
887.383	1640.66
887.7	1654.22
888.017	1638.63
888.334	1637.5
888.651	1634.11
888.967	1624.17
889.284	1642.24
889.6	1650.61
889.917	1635.69
890.233	1595.01
890.55	1585.98
890.866	1620.32
891.182	1588.91
891.498	1607.44
891.815	1613.32
892.131	1602.92
892.447	1595.92
892.763	1579.42
893.079	1606.99
893.395	1561.34
893.71	1590.04
894.026	1552.53
894.342	1559.31
894.657	1560.89
894.973	1582.81
895.289	1507.79
895.604	1545.98
895.92	1525.86
896.235	1523.83
896.55	1519.31
896.865	1499.42
897.181	1516.15
897.496	1511.4
897.811	1490.61
898.126	1459.2
898.441	1475.47
898.756	1466.88
899.071	1457.62
899.386	1462.36
899.7	1472.53
900.015	1452.19
900.33	1444.28
900.644	1438.41
900.959	1446.54
901.273	1437.05
901.588	1444.28
901.902	1403.38
902.216	1422.36
902.531	1431.86
902.845	1399.31
903.159	1403.61
903.473	1409.71
903.787	1391.4
904.101	1411.97
904.415	1437.05
904.729	1392.76
905.042	1393.44
905.356	1377.85
905.67	1367.9
905.984	1384.62
906.297	1385.75
906.611	1370.61
906.924	1392.99
907.237	1319.32
907.551	1362.03
907.864	1362.03
908.177	1343.27
908.491	1321.12
908.804	1357.05
909.117	1346.66
909.43	1334.46
909.743	1321.58
910.056	1344.4
910.368	1325.64
910.681	1355.7
910.994	1332.65
911.307	1319.54
911.619	1289.49
911.932	1300.33
912.244	1282.71
912.557	1287.68
912.869	1305.98
913.181	1262.59
913.494	1277.73
913.806	1258.53
914.118	1282.71
914.43	1303.04
914.742	1296.94
915.054	1263.72
915.366	1257.17
915.678	1251.52
915.99	1263.95
916.302	1271.18
916.613	1244.06
916.925	1262.82
917.236	1272.09
917.548	1243.16
917.859	1232.99
918.171	1226.89
918.482	1240.9
918.794	1220.56
919.105	1214.69
919.416	1222.59
919.727	1237.74
920.038	1217.85
920.349	1215.82
920.66	1201.35
920.971	1212.43
921.282	1198.19
921.593	1212.65
921.903	1184.18
922.214	1207
922.525	1201.13
922.835	1176.72
923.146	1181.01
923.456	1161.35
923.767	1189.38
924.077	1178.3
924.387	1188.25
924.697	1150.28
925.008	1143.5
925.318	1158.42
925.628	1167.23
925.938	1168.81
926.248	1140.56
926.558	1127.68
926.867	1126.33
927.177	1117.29
927.487	1145.08
927.796	1134.01
928.106	1115.48
928.416	1118.64
928.725	1121.13
929.034	1106.67
929.344	1100.79
929.653	1103.95
929.962	1120.22
930.271	1110.96
930.581	1078.42
930.89	1087.01
931.199	1084.07
931.508	1102.6
931.817	1075.25
932.125	1063.05
932.434	1072.77
932.743	1043.62
933.051	1061.02
933.36	1070.96
933.669	1040
933.977	1039.32
934.286	1045.2
934.594	1024.63
934.902	1024.63
935.21	1033.9
935.519	1020.79
935.827	1017.63
936.135	1014.46
936.443	1016.95
936.751	1005.65
937.059	991.41
937.367	986.89
937.674	995.93
937.982	987.8
938.29	991.41
938.597	983.05
938.905	966.1
939.213	974.47
939.52	990.74
939.827	971.53
940.135	965.43
940.442	955.94
940.749	957.29
941.056	944.64
941.363	955.48
941.67	967.91
941.977	918.87
942.284	915.48
942.591	921.81
942.898	943.73
943.205	963.39
943.511	928.14
943.818	928.82
944.125	935.37
944.431	925.88
944.738	909.83
945.044	913
945.35	907.8
945.657	895.82
945.963	896.95
946.269	911.19
946.575	907.12
946.881	900.34
947.187	890.4
947.493	868.03
947.799	893.11
948.105	902.6
948.41	898.31
948.716	880.46
949.022	861.7
949.327	888.59
949.633	861.02
949.938	875.49
950.244	870.06
950.549	875.03
950.854	887.69
951.16	871.87
951.465	866.45
951.77	886.11
952.075	863.28
952.38	863.73
952.685	863.96
952.99	836.39
953.294	856.05
953.599	832.77
953.904	834.81
954.209	844.07
954.513	864.64
954.818	860.57
955.122	849.72
955.426	846.11
955.731	842.72
956.035	829.61
956.339	810.4
956.643	819.22
956.948	842.04
957.252	843.4
957.556	828.48
957.86	810.4
958.163	831.19
958.467	828.26
958.771	828.03
959.075	817.18
959.378	817.18
959.682	792.1
959.985	837.97
960.289	837.07
960.592	789.39
960.896	817.41
961.199	789.39
961.502	798.65
961.805	776.73
962.108	803.17
962.411	790.29
962.714	775.38
963.017	767.47
963.32	775.6
963.623	789.39
963.926	757.52
964.228	779.89
964.531	790.97
964.833	776.05
965.136	758.2
965.438	763.4
965.741	782.38
966.043	780.8
966.345	742.83
966.648	744.42
966.95	758.43
967.252	744.87
967.554	751.87
967.856	736.96
968.158	755.49
968.46	726.34
968.761	734.25
969.063	729.27
969.365	724.98
969.666	733.57
969.968	738.31
970.269	721.82
970.571	751.65
970.872	731.08
971.174	699.9
971.475	716.85
971.776	706.9
972.077	700.57
972.378	730.86
972.679	701.03
972.98	681.37
973.281	695.15
973.582	697.19
973.883	713.46
974.183	723.85
974.484	701.25
974.785	713.46
975.085	689.95
975.386	691.54
975.686	706.45
975.986	685.21
976.287	681.37
976.587	685.21
976.887	673.46
977.187	665.32
977.487	690.63
977.787	659.67
978.087	678.88
978.387	659.67
978.687	683.63
978.987	679.78
979.286	687.92
979.586	682.27
979.885	670.75
980.185	655.6
980.484	647.24
980.784	657.86
981.083	655.38
981.382	654.93
981.682	649.95
981.981	625.32
982.28	647.02
982.579	636.62
982.878	642.5
983.177	607.47
983.475	612.89
983.774	637.53
984.073	638.2
984.372	635.72
984.67	625.1
984.969	644.76
985.267	631.42
985.566	620.12
985.864	623.51
986.162	612.44
986.461	629.16
986.759	627.13
987.057	624.87
987.355	600.92
987.653	626.23
987.951	619.67
988.249	620.35
988.547	599.11
988.844	619.45
989.142	609.96
989.44	626
989.737	606.79
990.035	613.57
990.332	613.35
990.63	584.87
990.927	600.46
991.224	607.24
991.521	589.62
991.819	589.62
992.116	584.42
992.413	587.58
992.71	592.1
993.006	593.91
993.303	588.04
993.6	594.59
993.897	595.49
994.193	588.94
994.49	573.8
994.787	579.45
995.083	573.12
995.379	574.25
995.676	596.62
995.972	592.78
996.268	585.32
996.565	588.49
996.861	555.95
997.157	570.63
997.453	572.67
997.749	557.53
998.044	568.83
998.34	565.89
998.636	570.18
998.932	540.8
999.227	546.68
999.523	559.11
999.818	574.02
1000.114	552.1
1000.409	549.39
1000.704	534.7
1001	550.97
1001.295	560.69
1001.59	534.7
1001.885	558.21
1002.18	548.26
1002.475	547.13
1002.77	557.08
1003.065	553.23
1003.359	549.39
1003.654	539
1003.949	529.28
1004.243	554.36
1004.538	550.07
1004.832	547.36
1005.127	555.95
1005.421	548.71
1005.715	532.22
1006.009	532.67
1006.304	535.38
1006.598	533.35
1006.892	523.63
1007.186	508.94
1007.48	521.82
1007.773	531.99
1008.067	511.65
1008.361	508.04
1008.655	516.85
1008.948	511.88
1009.242	494.7
1009.535	519.79
1009.829	526.12
1010.122	506.68
1010.415	514.82
1010.708	522.5
1011.001	513.69
1011.295	512.11
1011.588	504.65
1011.881	511.2
1012.173	503.74
1012.466	498.77
1012.759	499.22
1013.052	501.48
1013.344	498.09
1013.637	481.6
1013.93	501.48
1014.222	494.7
1014.514	475.95
1014.807	482.05
1015.099	497.87
1015.391	492.9
1015.683	495.61
1015.976	478.89
1016.268	496.51
1016.56	479.34
1016.851	476.85
1017.143	477.76
1017.435	481.15
1017.727	473.69
1018.018	478.43
1018.31	466.23
1018.602	474.37
1018.893	475.95
1019.185	471.2
1019.476	448.83
1019.767	459.9
1020.058	483.63
1020.35	461.94
1020.641	444.99
1020.932	457.19
1021.223	446.12
1021.514	462.84
1021.804	440.02
1022.095	442.5
1022.386	433.92
1022.677	460.58
1022.967	449.28
1023.258	458.1
1023.548	458.55
1023.839	459.23
1024.129	471.43
1024.419	449.51
1024.709	450.64
1025	447.7
1025.29	459.45
1025.58	449.73
1025.87	411.99
1026.16	431.43
1026.449	452.67
1026.739	423.97
1027.029	443.41
1027.319	411.99
1027.608	441.15
1027.898	446.8
1028.187	456.97
1028.477	419
1028.766	449.28
1029.055	421.49
1029.344	411.32
1029.634	404.76
1029.923	427.36
1030.212	414.48
1030.501	430.53
1030.79	406.8
1031.078	438.89
1031.367	408.83
1031.656	411.32
1031.945	428.04
1032.233	439.79
1032.522	418.55
1032.81	402.96
1033.099	395.27
1033.387	421.03
1033.675	419.9
1033.963	420.36
1034.251	411.09
1034.54	419.68
1034.828	413.58
1035.116	405.67
1035.403	417.42
1035.691	400.02
1035.979	419.23
1036.267	415.38
1036.554	383.75
1036.842	408.61
1037.129	407.02
1037.417	406.35
1037.704	407.25
1037.992	390.53
1038.279	402.28
1038.566	407.93
1038.853	407.93
1039.14	407.93
