Data from foam1_polythene_foam_FLMS001491_00050.txt Node
Date: Wed Feb 08 10:54:54 GMT 2017
User: dcchb
Spectrometer: FLMS00149
Trigger mode: 0
Integration Time (sec): 2.000000E-2
Scans to average: 10
Electric dark correction enabled: true
Nonlinearity correction enabled: false
Boxcar width: 0
XAxis mode: Wavelengths
Number of Pixels in Spectrum: 2048
>>>>>Begin Spectral Data<<<<<
341.393	-6.33
341.776	-6.33
342.16	-6.33
342.543	-54.24
342.927	-39.77
343.31	-70.73
343.693	-72.54
344.077	-66.66
344.46	-43.61
344.843	-46.1
345.226	-68.7
345.61	-20.34
345.993	-14.91
346.376	3.84
346.759	-4.75
347.142	39.55
347.525	30.96
347.908	65.54
348.291	77.29
348.674	98.75
349.057	92.43
349.44	146.89
349.823	157.74
350.206	160
350.588	198.86
350.971	209.71
351.354	231.41
351.737	214.23
352.119	244.74
352.502	251.97
352.884	265.3
353.267	261.46
353.65	287.22
354.032	289.48
354.414	284.29
354.797	307.56
355.179	316.15
355.562	313.89
355.944	319.54
356.326	319.77
356.709	312.53
357.091	329.48
357.473	356.37
357.855	334.45
358.238	330.16
358.62	322.03
359.002	334.91
359.384	336.71
359.766	319.99
360.148	339.88
360.53	321.12
360.912	322.03
361.294	317.73
361.676	329.03
362.057	341.69
362.439	315.7
362.821	303.04
363.203	301.01
363.584	303.27
363.966	328.35
364.348	324.74
364.729	319.99
365.111	310.5
365.493	313.66
365.874	326.77
366.256	306.21
366.637	300.78
367.019	305.53
367.4	309.6
367.781	312.53
368.163	308.92
368.544	315.02
368.925	289.48
369.306	308.92
369.688	304.62
370.069	324.29
370.45	315.25
370.831	292.65
371.212	319.31
371.593	309.6
371.974	304.85
372.355	293.33
372.736	320.67
373.117	285.64
373.498	307.11
373.879	294.46
374.26	310.95
374.641	327.9
375.021	300.78
375.402	314.57
375.783	331.06
376.163	325.42
376.544	317.96
376.925	331.74
377.305	329.48
377.686	327.68
378.066	323.61
378.447	319.54
378.827	332.19
379.208	318.86
379.588	315.02
379.968	325.19
380.349	319.54
380.729	340.56
381.109	334.23
381.489	351.4
381.87	330.61
382.25	336.26
382.63	349.37
383.01	325.42
383.39	345.3
383.77	367
384.15	354.34
384.53	354.11
384.91	348.24
385.29	357.73
385.67	354.34
386.049	365.87
386.429	348.47
386.809	362.93
387.189	357.96
387.568	369.48
387.948	354.79
388.328	358.63
388.707	354.57
389.087	372.65
389.466	372.87
389.846	374.45
390.225	361.57
390.605	378.52
390.984	363.15
391.363	367.67
391.743	393.21
392.122	374.68
392.501	382.36
392.881	398.86
393.26	386.2
393.639	384.85
394.018	381.23
394.397	397.28
394.776	388.01
395.155	391.4
395.534	381.68
395.913	383.04
396.292	404.51
396.671	418.75
397.05	400.89
397.429	416.94
397.808	393.89
398.186	376.49
398.565	401.12
398.944	390.27
399.323	408.12
399.701	403.83
400.08	401.57
400.458	423.72
400.837	392.08
401.215	402.93
401.594	440.89
401.972	403.83
402.351	436.15
402.729	430.05
403.107	438.41
403.486	438.18
403.864	426.88
404.242	444.73
404.62	436.15
404.999	443.38
405.377	423.27
405.755	430.5
406.133	446.54
406.511	463.26
406.889	446.99
407.267	445.64
407.645	456.94
408.023	453.77
408.401	456.03
408.779	466.2
409.156	469.59
409.534	489.93
409.912	471.4
410.29	497.61
410.667	488.35
411.045	517.05
411.422	479.31
411.8	504.62
412.178	503.94
412.555	507.56
412.933	518.63
413.31	536.26
413.687	521.79
414.065	524.05
414.442	525.64
414.819	543.04
415.197	510.95
415.574	530.61
415.951	536.94
416.328	535.58
416.705	551.85
417.082	545.3
417.46	555.92
417.837	558.18
418.214	549.36
418.591	553.21
418.967	553.88
419.344	580.32
419.721	547.56
420.098	561.79
420.475	579.42
420.852	588.23
421.228	595.24
421.605	585.97
421.982	595.92
422.358	595.69
422.735	611.28
423.111	608.35
423.488	599.76
423.864	614.67
424.241	618.06
424.617	614
424.994	622.81
425.37	649.7
425.746	640.89
426.123	637.72
426.499	663.03
426.875	652.19
427.251	656.93
427.627	648.8
428.003	670.49
428.379	684.05
428.756	680.21
429.132	705.07
429.507	709.59
429.883	699.42
430.259	719.98
430.635	701
431.011	741.68
431.387	740.55
431.763	754.78
432.138	746.87
432.514	759.53
432.89	758.17
433.265	763.82
433.641	769.7
434.016	783.48
434.392	785.06
434.767	806.53
435.143	804.95
435.518	804.72
435.894	824.61
436.269	825.52
436.644	867.77
437.02	846.76
437.395	858.96
437.77	858.96
438.145	892.41
438.52	863.71
438.895	907.09
439.271	896.93
439.646	920.43
440.021	921.56
440.395	930.37
440.77	935.57
441.145	920.43
441.52	971.5
441.895	949.81
442.27	953.65
442.645	975.79
443.019	956.13
443.394	990.03
443.769	996.36
444.143	998.39
444.518	1014.44
444.892	993.65
445.267	1016.92
445.641	1051.72
446.016	1046.07
446.39	1028.22
446.764	1040.2
447.139	1056.47
447.513	1073.87
447.887	1093.98
448.262	1078.84
448.636	1101.89
449.01	1093.98
449.384	1120.65
449.758	1100.54
450.132	1129.69
450.506	1142.79
450.88	1131.5
451.254	1155.68
451.628	1174.88
452.002	1190.25
452.376	1194.77
452.75	1203.58
453.123	1231.61
453.497	1208.1
453.871	1227.76
454.244	1252.85
454.618	1263.7
454.992	1255.79
455.365	1237.48
455.739	1275.9
456.112	1316.58
456.486	1317.25
456.859	1315.67
457.232	1310.25
457.606	1348.89
457.979	1360.42
458.352	1385.73
458.725	1387.08
459.099	1422.56
459.472	1415.33
459.845	1421.88
460.218	1431.83
460.591	1444.71
460.964	1451.04
461.337	1458.72
461.71	1482.67
462.083	1505.72
462.456	1505.05
462.829	1508.21
463.201	1523.58
463.574	1546.17
463.947	1560.64
464.32	1578.04
464.692	1571.26
465.065	1595.44
465.438	1630.69
465.81	1638.83
466.183	1640.18
466.555	1689
466.928	1692.38
467.3	1705.04
467.672	1714.53
468.045	1785.26
468.417	1776
468.789	1776.22
469.161	1814.87
469.534	1796.34
469.906	1870.69
470.278	1890.57
470.65	1892.61
471.022	1943.68
471.394	1984.81
471.766	1965.15
472.138	2020.29
472.51	2038.59
472.882	2067.97
473.253	2049.66
473.625	2091.92
473.997	2124.92
474.369	2149.1
474.74	2169.89
475.112	2207.17
475.484	2218.47
475.855	2254.63
476.227	2303.44
476.598	2356.1
476.97	2386.6
477.341	2391.12
477.713	2427.05
478.084	2441.97
478.455	2517.67
478.827	2534.17
479.198	2606.71
479.569	2583.66
479.94	2659.59
480.311	2671.34
480.682	2744.33
481.053	2766.71
481.424	2871.79
481.795	2848.29
482.166	2925.57
482.537	2954.5
482.908	3015.74
483.279	3029.98
483.65	3069.52
484.021	3127.38
484.391	3183.19
484.762	3222.29
485.133	3267.71
485.503	3257.32
485.874	3358.1
486.244	3377.76
486.615	3430.87
486.985	3452.56
487.356	3572.56
487.726	3584.99
488.097	3657.98
488.467	3666.34
488.837	3730.3
489.207	3778.88
489.578	3815.72
489.948	3899.11
490.318	3943.17
490.688	3944.3
491.058	3987.47
491.428	4035.6
491.798	4043.51
492.168	4178.87
492.538	4158.08
492.908	4198.31
493.278	4297.06
493.648	4340.22
494.017	4396.49
494.387	4405.99
494.757	4463.16
495.126	4497.96
495.496	4502.93
495.866	4524.17
496.235	4612.99
496.605	4603.49
496.974	4654.57
497.344	4684.4
497.713	4752.19
498.082	4781.57
498.452	4890.04
498.821	4881
499.19	4902.7
499.559	4914.45
499.928	4995.35
500.298	5004.39
500.667	5027.21
501.036	5061.34
501.405	5082.58
501.774	5124.39
502.143	5172.52
502.512	5175.46
502.88	5306.98
503.249	5253.42
503.618	5323.48
503.987	5351.27
504.356	5411.61
504.724	5391.27
505.093	5427.43
505.462	5483.7
505.83	5513.53
506.199	5554.2
506.567	5620.64
506.936	5650.92
507.304	5767.98
507.672	5757.59
508.041	5785.16
508.409	5853.86
508.777	5913.74
509.145	5937.92
509.514	5973.18
509.882	5989.9
510.25	6006.17
510.618	6057.47
510.986	6081.2
511.354	6213.17
511.722	6217.01
512.09	6225.83
512.458	6282.77
512.826	6304.02
513.193	6346.27
513.561	6385.59
513.929	6407.29
514.297	6470.11
514.664	6567.06
515.032	6631.24
515.4	6696.32
515.767	6682.76
516.135	6692.71
516.502	6719.37
516.869	6824.45
517.237	6866.71
517.604	6893.38
517.972	6909.42
518.339	6977.44
518.706	7068.06
519.073	7094.05
519.44	7123.43
519.808	7258.57
520.175	7225.57
520.542	7316.87
520.909	7382.18
521.276	7369.98
521.643	7470.76
522.009	7535.4
522.376	7634.6
522.743	7596.86
523.11	7662.85
523.477	7773.13
523.843	7767.03
524.21	7884.09
524.577	8024.65
524.943	8051.09
525.31	8057.64
525.676	8155.72
526.043	8160.24
526.409	8254.7
526.776	8303.28
527.142	8363.4
527.508	8370.4
527.874	8458.31
528.241	8532.21
528.607	8579.21
528.973	8688.36
529.339	8701.01
529.705	8755.7
530.071	8840.45
530.437	8875.47
530.803	8901.01
531.169	8942.14
531.535	8976.71
531.901	9013.32
532.267	9107.33
532.632	9094.68
532.998	9211.74
533.364	9180.78
533.73	9295.57
534.095	9333.77
534.461	9288.34
534.826	9388.45
535.192	9429.13
535.557	9479.52
535.923	9517.04
536.288	9591.84
536.653	9663.02
537.019	9640.42
537.384	9669.12
537.749	9701.67
538.114	9753.64
538.479	9776.47
538.845	9833.64
539.21	9852.4
539.575	9824.83
539.94	9914.09
540.305	9976.91
540.67	9969.91
541.034	9953.64
541.399	10048.78
541.764	10135.1
542.129	10108.21
542.494	10095.1
542.858	10214.65
543.223	10164.7
543.587	10326.06
543.952	10314.53
544.316	10360.86
544.681	10366.28
545.045	10440.4
545.41	10485.15
545.774	10470.46
546.138	10507.52
546.503	10550.91
546.867	10557.91
547.231	10577.12
547.595	10694.41
547.959	10725.14
548.324	10708.64
548.688	10768.08
549.052	10763.33
549.416	10778.47
549.779	10906.61
550.143	10877.45
550.507	10984.8
550.871	10979.15
551.235	10995.42
551.599	11134.17
551.962	11098.92
552.326	11133.27
552.689	11216.43
553.053	11260.49
553.417	11220.5
553.78	11361.28
554.143	11383.88
554.507	11437.67
554.87	11367.16
555.234	11508.85
555.597	11441.73
555.96	11506.59
556.323	11576.19
556.686	11583.42
557.05	11652.35
557.413	11657.77
557.776	11773.48
558.139	11832.23
558.502	11848.05
558.865	11923.98
559.228	12081.94
559.59	12064.09
559.953	12119.91
560.316	12278.1
560.679	12246.91
561.041	12256.17
561.404	12375.27
561.767	12392.22
562.129	12421.82
562.492	12503.85
562.854	12517.64
563.217	12493.91
563.579	12623.85
563.941	12735.26
564.304	12803.73
564.666	12817.97
565.028	12817.06
565.39	12883.5
565.753	12959.89
566.115	12986.33
566.477	12940.68
566.839	13107
567.201	13157.85
567.563	13224.51
567.925	13299.76
568.287	13252.98
568.648	13287.56
569.01	13377.05
569.372	13481.23
569.734	13523.03
570.095	13562.81
570.457	13655.46
570.819	13642.81
571.18	13662.24
571.542	13633.31
571.903	13716.48
572.265	13780.2
572.626	13761.22
572.987	13821.11
573.349	13899.07
573.71	13922.35
574.071	13968.67
574.432	14060.42
574.794	14132.28
575.155	14043.7
575.516	14032.17
575.877	14184.26
576.238	14278.72
576.599	14186.97
576.96	14245.05
577.32	14257.7
577.681	14268.55
578.042	14277.59
578.403	14348.32
578.763	14443.46
579.124	14353.97
579.485	14418.6
579.845	14525.27
580.206	14432.16
580.566	14481.43
580.927	14473.07
581.287	14544.25
581.648	14457.7
582.008	14640.74
582.368	14539.28
582.728	14627.64
583.089	14595.32
583.449	14658.37
583.809	14559.17
584.169	14683.91
584.529	14643
584.889	14689.56
585.249	14642.1
585.609	14662.89
585.969	14760.74
586.329	14727.97
586.688	14678.94
587.048	14724.13
587.408	14645.26
587.768	14646.39
588.127	14593.97
588.487	14673.06
588.846	14761.42
589.206	14628.32
589.565	14648.88
589.925	14697.92
590.284	14701.99
590.643	14618.37
591.003	14645.72
591.362	14732.49
591.721	14753.28
592.08	14708.31
592.44	14808.2
592.799	14795.32
593.158	14812.94
593.517	14770.23
593.876	14828.31
594.235	14766.62
594.593	14784.02
594.952	14808.65
595.311	14720.06
595.67	14756.22
596.029	14908.99
596.387	14963.9
596.746	14871.25
597.104	14824.47
597.463	14906.95
597.822	14861.76
598.18	14810.46
598.538	14818.82
598.897	14908.76
599.255	14747.41
599.613	15081.86
599.972	14999.15
600.33	14947.18
600.688	14929.78
601.046	14963
601.404	15040.96
601.762	14927.07
602.12	15066.04
602.478	14954.41
602.836	15019.04
603.194	15069.43
603.552	15036.21
603.91	15037.34
604.268	14988.76
604.625	15000.51
604.983	15039.15
605.341	14990.34
605.698	15138.13
606.056	15153.95
606.413	15163.9
606.771	15208.64
607.128	15204.35
607.485	15190.56
607.843	15198.24
608.2	15172.48
608.557	15224.23
608.914	15230.33
609.272	15334.51
609.629	15349.65
609.986	15407.05
610.343	15325.47
610.7	15399.14
611.057	15319.15
611.414	15381.74
611.771	15373.83
612.127	15355.75
612.484	15519.14
612.841	15521.85
613.198	15428.97
613.554	15469.65
613.911	15535.41
614.267	15492.02
614.624	15517.78
614.98	15610.21
615.337	15619.48
615.693	15581.06
616.05	15486.82
616.406	15597.56
616.762	15592.36
617.118	15624.22
617.475	15656.31
617.831	15664.22
618.187	15696.76
618.543	15702.86
618.899	15740.38
619.255	15723.65
619.611	15735.63
619.967	15647.95
620.323	15827.83
620.678	15797.32
621.034	15754.61
621.39	15724.11
621.746	15700.83
622.101	15874.16
622.457	15682.98
622.812	15783.77
623.168	15741.51
623.523	15739.7
623.879	15805.69
624.234	15715.52
624.589	15744.22
624.945	15845.91
625.3	15812.92
625.655	15778.57
626.01	15744.44
626.365	15695.86
626.72	15786.48
627.075	15687.5
627.43	15719.59
627.785	15696.08
628.14	15741.73
628.495	15762.07
628.85	15696.76
629.205	15729.08
629.559	15801.84
629.914	15667.16
630.269	15689.08
630.623	15586.71
630.978	15644.11
631.332	15597.1
631.687	15797.78
632.041	15616.99
632.396	15706.71
632.75	15619.48
633.104	15693.37
633.459	15562.53
633.813	15541.06
634.167	15455.86
634.521	15442.53
634.875	15504.68
635.229	15368.41
635.583	15407.5
635.937	15402.53
636.291	15423.32
636.645	15401.4
636.999	15443.66
637.352	15434.17
637.706	15312.82
638.06	15344.46
638.413	15327.05
638.767	15267.4
639.121	15250.9
639.474	15189.21
639.828	15203.22
640.181	15214.74
640.534	15218.36
640.888	15144.91
641.241	15124.12
641.594	15104.46
641.947	15196.66
642.301	15122.09
642.654	15173.61
643.007	15137
643.36	15096.78
643.713	15134.07
644.066	15115.76
644.419	15084.58
644.771	14933.84
645.124	14979.49
645.477	14828.08
645.83	14680.97
646.182	14631.93
646.535	14602.33
646.888	14504.03
647.24	14346.74
647.593	14422.22
647.945	14387.42
648.298	14367.31
648.65	14344.93
649.002	14309.91
649.355	14336.8
649.707	14403.92
650.059	14442.78
650.411	14647.75
650.763	14609.33
651.115	14707.86
651.467	14665.15
651.819	14682.55
652.171	14646.85
652.523	14650.91
652.875	14687.75
653.227	14557.58
653.578	14750.57
653.93	14633.29
654.282	14551.71
654.633	14426.51
654.985	14585.38
655.337	14490.69
655.688	14634.19
656.039	14547.64
656.391	14397.36
656.742	14419.28
657.094	14580.63
657.445	14580.18
657.796	14467.42
658.147	14473.29
658.498	14485.27
658.849	14497.92
659.2	14439.17
659.551	14433.97
659.902	14449.79
660.253	14380.41
660.604	14313.97
660.955	14262
661.306	14376.8
661.656	14285.05
662.007	14276.69
662.358	14387.87
662.708	14297.03
663.059	14360.75
663.409	14279.62
663.76	14282.79
664.11	14339.28
664.461	14358.72
664.811	14278.49
665.161	14297.7
665.511	14231.26
665.862	14266.52
666.212	14294.31
666.562	14266.07
666.912	14303.58
667.262	14210.47
667.612	14258.38
667.962	14250.02
668.312	14294.09
668.662	14275.56
669.011	14233.3
669.361	14145.16
669.711	14185.16
670.06	14241.21
670.41	14208.67
670.76	14168.22
671.109	14236.69
671.459	14151.27
671.808	14098.84
672.157	14174.09
672.507	14025.62
672.856	14072.85
673.205	14073.3
673.554	14129.57
673.904	14132.74
674.253	14048.44
674.602	14025.39
674.951	13892.29
675.3	13834.21
675.649	14003.93
675.998	14050.7
676.346	13961.67
676.695	14031.27
677.044	13999.86
677.393	14008.22
677.741	13960.08
678.09	14003.47
678.438	13905.85
678.787	13869.01
679.135	13963.02
679.484	13889.13
679.832	13847.09
680.181	13813.87
680.529	13866.08
680.877	13883.48
681.225	13811.61
681.573	13836.7
681.922	13786.3
682.27	13722.35
682.618	13722.13
682.966	13699.07
683.314	13633.31
683.661	13650.04
684.009	13536.82
684.357	13588.57
684.705	13547.44
685.053	13570.72
685.4	13530.72
685.748	13488.91
686.095	13444.39
686.443	13468.35
686.79	13414.56
687.138	13489.36
687.485	13364.85
687.832	13477.16
688.18	13380.89
688.527	13271.29
688.874	13321.23
689.221	13263.83
689.568	13184.74
689.915	13217.96
690.262	13203.04
690.609	13185.64
690.956	13107.9
691.303	13073.33
691.65	13060
691.997	13051.86
692.344	12854.35
692.69	12926.67
693.037	12992.65
693.383	12694.13
693.73	12827.01
694.077	12818.19
694.423	12816.61
694.769	12817.97
695.116	12705.65
695.462	12666.11
695.808	12622.94
696.155	12642.83
696.501	12595.83
696.847	12494.59
697.193	12496.17
697.539	12530.52
697.885	12454.59
698.231	12424.08
698.577	12381.37
698.923	12477.86
699.269	12363.52
699.614	12285.33
699.96	12265.21
700.306	12289.39
700.651	12179.11
700.997	12169.85
701.342	12199.68
701.688	12205.78
702.033	12098.66
702.379	12127.59
702.724	12170.98
703.069	12125.33
703.415	11964.66
703.76	11926.92
704.105	11901.83
704.45	11941.38
704.795	11812.8
705.14	11774.83
705.485	11835.4
705.83	11816.86
706.175	11826.13
706.52	11691.22
706.865	11620.94
707.209	11673.14
707.554	11601.73
707.899	11628.17
708.243	11515.63
708.588	11515.63
708.932	11441.28
709.277	11451
709.621	11508.17
709.966	11392.47
710.31	11406.25
710.654	11323.54
710.998	11372.58
711.342	11363.32
711.687	11296.2
712.031	11274.96
712.375	11175.53
712.719	11264.79
713.063	11234.28
713.407	11285.58
713.75	11168.75
714.094	11205.58
714.438	11100.05
714.782	11137.11
715.125	11032.93
715.469	11177.11
715.812	11091.91
716.156	11027.28
716.499	10969.43
716.843	10974.17
717.186	10976.66
717.53	10976.89
717.873	10930.33
718.216	10933.27
718.559	10910.9
718.902	10825.03
719.246	10822.54
719.589	10799.72
719.932	10794.97
720.275	10771.02
720.617	10760.4
720.96	10655.31
721.303	10699.61
721.646	10735.31
721.989	10616.44
722.331	10682.2
722.674	10633.39
723.016	10601.08
723.359	10581.87
723.701	10631.81
724.044	10509.33
724.386	10490.8
724.729	10547.52
725.071	10528.31
725.413	10441.31
725.755	10458.03
726.097	10473.85
726.439	10441.31
726.782	10417.35
727.124	10462.1
727.465	10355.21
727.807	10406.96
728.149	10270.01
728.491	10334.19
728.833	10335.1
729.175	10323.57
729.516	10311.14
729.858	10293.29
730.199	10325.83
730.541	10240.18
730.882	10291.71
731.224	10280.63
731.565	10176.91
731.906	10201.99
732.248	10299.62
732.589	10147.98
732.93	10072.73
733.271	10175.1
733.612	10160.41
733.953	10114.54
734.294	10110.92
734.635	10090.13
734.976	10028.44
735.317	10021.43
735.658	10037.7
735.999	10062.79
736.339	10029.57
736.68	10004.03
737.021	9993.41
737.361	9955.67
737.702	9931.49
738.042	9945.05
738.383	9907.76
738.723	9894.43
739.063	9818.5
739.404	9917.71
739.744	9867.76
740.084	9746.64
740.424	9742.57
740.764	9790.7
741.104	9811.95
741.444	9729.69
741.784	9728.11
742.124	9757.71
742.464	9703.93
742.804	9728.11
743.143	9668.9
743.483	9635.9
743.823	9652.18
744.162	9577.38
744.502	9651.95
744.841	9543.93
745.181	9547.55
745.52	9592.52
745.86	9588.9
746.199	9517.49
746.538	9478.17
746.877	9552.74
747.216	9550.48
747.556	9543.25
747.895	9580.54
748.234	9467.55
748.573	9419.64
748.911	9449.92
749.25	9382.58
749.589	9413.09
749.928	9482.69
750.267	9417.61
750.605	9373.54
750.944	9375.35
751.283	9316.37
751.621	9364.05
751.96	9303.48
752.298	9303.48
752.636	9339.87
752.975	9298.51
753.313	9199.98
753.651	9262.81
753.989	9249.02
754.327	9183.49
754.666	9143.26
755.004	9178.06
755.342	9241.11
755.679	9084.73
756.017	9094.68
756.355	9031.17
756.693	9057.84
757.031	9058.52
757.368	8936.94
757.706	8877.73
758.044	8913.89
758.381	8912.99
758.719	8924.06
759.056	8872.54
759.394	8843.16
759.731	8779.66
760.068	8790.96
760.405	8771.75
760.743	8698.08
761.08	8701.92
761.417	8652.65
761.754	8602.03
762.091	8627.34
762.428	8544.41
762.765	8561.36
763.102	8559.55
763.438	8605.2
763.775	8485.43
764.112	8509.38
764.449	8566.1
764.785	8557.29
765.122	8440.23
765.458	8405.2
765.795	8406.11
766.131	8312.78
766.467	8390.51
766.804	8402.72
767.14	8294.25
767.476	8242.72
767.812	8251.99
768.148	8251.76
768.485	8184.19
768.821	8175.38
769.157	8158.66
769.492	8146.23
769.828	8155.04
770.164	8065.32
770.5	8026.91
770.836	8071.43
771.171	8023.74
771.507	7956.4
771.842	7924.99
772.178	7944.65
772.513	7900.81
772.849	7876.4
773.184	7850.42
773.519	7772
773.855	7795.28
774.19	7708.05
774.525	7687.48
774.86	7739.91
775.195	7691.78
775.53	7654.94
775.865	7623.08
776.2	7560.71
776.535	7502.18
776.87	7519.8
777.205	7483.65
777.539	7444.55
777.874	7473.25
778.209	7327.72
778.543	7347.15
778.878	7275.29
779.212	7264.44
779.547	7316.87
779.881	7199.36
780.215	7192.35
780.55	7220.38
780.884	7167.27
781.218	7179.25
781.552	7170.88
781.886	7191.22
782.22	7157.1
782.554	7118
782.888	7049.31
783.222	7036.88
783.556	6971.57
783.889	7014.96
784.223	6918.01
784.557	6936.54
784.89	6906.26
785.224	6874.4
785.557	6772.7
785.891	6831.23
786.224	6812.48
786.558	6715.3
786.891	6730.67
787.224	6693.16
787.557	6777
787.891	6706.04
788.224	6696.77
788.557	6657.9
788.89	6637.79
789.223	6645.7
789.556	6562.99
789.888	6645.7
790.221	6484.8
790.554	6535.87
790.887	6537.68
791.219	6477.12
791.552	6486.61
791.884	6470.56
792.217	6363.9
792.549	6387.4
792.882	6345.82
793.214	6278.7
793.546	6300.4
793.879	6247.07
794.211	6294.3
794.543	6254.3
794.875	6250.91
795.207	6290.23
795.539	6283.22
795.871	6221.08
796.203	6204.13
796.535	6155.77
796.867	6082.55
797.198	6109.9
797.53	6075.77
797.862	6047.3
798.193	6053.63
798.525	6037.81
798.856	6049.56
799.188	5958.49
799.519	5973.85
799.85	5964.36
800.182	5918.04
800.513	5935.89
800.844	5844.59
801.175	5896.57
801.506	5926.85
801.837	5820.86
802.168	5862.22
802.499	5801.88
802.83	5784.25
803.161	5726.4
803.491	5779.96
803.822	5781.54
804.153	5702.67
804.483	5695.44
804.814	5657.7
805.145	5630.13
805.475	5649.34
805.805	5657.25
806.136	5559.18
806.466	5662.45
806.796	5607.76
807.126	5577.93
807.457	5577.48
807.787	5577.71
808.117	5589.46
808.447	5514.66
808.777	5539.29
809.107	5482.57
809.436	5573.64
809.766	5476.69
810.096	5453.42
810.426	5446.86
810.755	5412.97
811.085	5394.21
811.414	5398.95
811.744	5395.56
812.073	5403.25
812.403	5358.73
812.732	5377.49
813.061	5332.29
813.39	5357.15
813.719	5299.3
814.049	5329.35
814.378	5344.27
814.707	5304.72
815.036	5378.62
815.365	5285.06
815.693	5228.79
816.022	5200.77
816.351	5214.1
816.68	5176.59
817.008	5238.05
817.337	5181.56
817.665	5137.27
817.994	5135.23
818.322	5157.83
818.651	5146.53
818.979	5103.37
819.307	5113.54
819.636	5121.67
819.964	5060.66
820.292	5122.58
820.62	5125.97
820.948	5123.48
821.276	5091.17
821.604	5098.85
821.932	5060.21
822.259	5038.06
822.587	5076.48
822.915	4992.86
823.243	5004.39
823.57	4995.57
823.898	5038.74
824.225	5013.88
824.553	4994.67
824.88	4996.03
825.207	5022.01
825.535	5023.37
825.862	4985.86
826.189	5017.95
826.516	5077.38
826.843	5067.44
827.17	5050.94
827.497	5091.84
827.824	5058.62
828.151	5028.57
828.478	5047.78
828.805	5096.82
829.131	5067.44
829.458	5023.37
829.785	5021.11
830.111	4992.86
830.438	5063.6
830.764	5040.77
831.09	5050.94
831.417	5016.37
831.743	5023.14
832.069	5044.61
832.395	4982.92
832.722	5058.17
833.048	5026.53
833.374	5085.52
833.7	5005.74
834.026	5023.82
834.351	5029.92
834.677	5072.86
835.003	5017.04
835.329	5027.89
835.654	4958.29
835.98	4970.04
836.306	4980.21
836.631	4918.74
836.956	4984.05
837.282	4946.31
837.607	4948.12
837.932	4941.11
838.258	4931.62
838.583	4958.29
838.908	4893.43
839.233	4944.05
839.558	4895.24
839.883	4858.4
840.208	4849.59
840.533	4854.56
840.858	4837.84
841.182	4827.44
841.507	4823.38
841.832	4843.94
842.156	4856.37
842.481	4837.61
842.805	4801.46
843.13	4775.47
843.454	4782.47
843.778	4725.53
844.103	4727.11
844.427	4709.48
844.751	4742.93
845.075	4682.36
845.399	4708.8
845.723	4660.89
846.047	4661.8
846.371	4616.15
846.695	4678.97
847.019	4606.21
847.343	4615.47
847.666	4570.28
847.99	4579.54
848.313	4593.78
848.637	4525.98
848.96	4551.52
849.284	4497.96
849.607	4543.38
849.931	4475.36
850.254	4470.39
850.577	4412.09
850.9	4404.86
851.223	4380.45
851.546	4389.26
851.869	4337.29
852.192	4323.95
852.515	4301.58
852.838	4331.41
853.161	4281.24
853.483	4259.77
853.806	4246.67
854.129	4254.35
854.451	4289.38
854.774	4271.75
855.096	4235.37
855.419	4248.02
855.741	4201.02
856.063	4207.35
856.385	4171.64
856.708	4125.77
857.03	4142.94
857.352	4111.53
857.674	4136.16
857.996	4097.97
858.318	4083.96
858.64	4114.02
858.961	4106.33
859.283	4081.25
859.605	4074.92
859.926	4042.38
860.248	4066.56
860.57	4026.33
860.891	4074.7
861.212	4049.39
861.534	4016.39
861.855	3991.99
862.176	4003.51
862.498	3986.56
862.819	3975.26
863.14	4004.41
863.461	4011.19
863.782	3966.68
864.103	3979.78
864.424	3951.08
864.745	3922.16
865.065	3956.73
865.386	3952.44
865.707	3903.63
866.027	3934.13
866.348	3912.67
866.668	3907.47
866.989	3914.25
867.309	3879.45
867.63	3902.04
867.95	3907.92
868.27	3881.03
868.59	3853.91
868.91	3890.97
869.23	3888.94
869.55	3867.02
869.87	3871.54
870.19	3888.71
870.51	3857.75
870.83	3864.31
871.15	3862.72
871.469	3853.46
871.789	3818.88
872.109	3796.06
872.428	3791.99
872.748	3827.24
873.067	3803.29
873.386	3829.96
873.706	3813.91
874.025	3785.21
874.344	3731.2
874.663	3750.41
874.982	3781.6
875.301	3754.7
875.62	3717.19
875.939	3744.31
876.258	3746.12
876.577	3736.4
876.896	3693.91
877.214	3724.87
877.533	3710.86
877.852	3691.65
878.17	3720.81
878.489	3721.71
878.807	3667.47
879.125	3668.38
879.444	3697.53
879.762	3700.02
880.08	3636.97
880.398	3646.46
880.716	3653.46
881.034	3602.62
881.352	3592.45
881.67	3640.36
881.988	3652.33
882.306	3591.32
882.624	3653.92
882.941	3589.28
883.259	3577.76
883.577	3596.52
883.894	3599.23
884.212	3583.63
884.529	3528.72
884.846	3570.08
885.164	3588.15
885.481	3542.51
885.798	3576.63
886.115	3527.14
886.432	3556.29
886.75	3533.47
887.067	3528.27
887.383	3486.91
887.7	3531.66
888.017	3524.43
888.334	3495.28
888.651	3499.57
888.967	3509.06
889.284	3501.6
889.6	3448.95
889.917	3433.36
890.233	3477.87
890.55	3453.92
890.866	3460.25
891.182	3417.76
891.498	3438.55
891.815	3389.52
892.131	3417.31
892.447	3399.91
892.763	3379.12
893.079	3402.4
893.395	3353.36
893.71	3335.28
894.026	3343.87
894.342	3364.21
894.657	3300.7
894.973	3317.65
895.289	3297.77
895.604	3343.19
895.92	3225.68
896.235	3224.77
896.55	3230.65
896.865	3223.19
897.181	3221.38
897.496	3208.96
897.811	3197.88
898.126	3216.64
898.441	3176.41
898.756	3212.34
899.071	3152.91
899.386	3143.19
899.7	3148.84
900.015	3145.23
900.33	3119.92
900.644	3107.71
900.959	3155.85
901.273	3108.62
901.588	3053.25
901.902	3071.11
902.216	3055.74
902.531	3053.93
902.845	3080.82
903.159	3027.49
903.473	3068.85
903.787	3022.52
904.101	2968.74
904.415	2957.66
904.729	2972.58
905.042	2980.49
905.356	2961.73
905.67	2967.61
905.984	2946.82
906.297	2985.01
906.611	2903.2
906.924	2958.11
907.237	2947.95
907.551	2901.17
907.864	2916.31
908.177	2869.53
908.491	2910.43
908.804	2873.82
909.117	2859.59
909.43	2839.93
909.743	2844.44
910.056	2839.93
910.368	2810.77
910.681	2827.04
910.994	2798.57
911.307	2828.85
911.619	2809.64
911.932	2774.62
912.244	2780.49
912.557	2783.66
912.869	2724.22
913.181	2736.88
913.494	2739.59
913.806	2724.45
914.118	2736.2
914.43	2677.22
914.742	2696.65
915.054	2720.15
915.366	2693.94
915.678	2676.09
915.99	2639.03
916.302	2659.37
916.613	2629.99
916.925	2657.33
917.236	2611.68
917.548	2628.41
917.859	2582.76
918.171	2548.18
918.482	2570.1
918.794	2531.91
919.105	2595.64
919.416	2540.72
919.727	2538.01
920.038	2524
920.349	2507.28
920.66	2524.45
920.971	2500.95
921.282	2481.29
921.593	2492.36
921.903	2424.12
922.214	2427.96
922.525	2460.27
922.835	2427.73
923.146	2449.88
923.456	2437.9
923.767	2394.74
924.077	2414.17
924.387	2410.56
924.697	2392.71
925.008	2417.79
925.318	2414.4
925.628	2372.59
925.938	2368.3
926.248	2332.59
926.558	2366.72
926.867	2349.99
927.177	2314.06
927.487	2308.19
927.796	2282.43
928.106	2296.21
928.416	2259.38
928.725	2258.47
929.034	2208.76
929.344	2250.79
929.653	2226.83
929.962	2208.98
930.271	2223.44
930.581	2234.07
930.89	2247.62
931.199	2226.16
931.508	2195.87
931.817	2195.2
932.125	2175.99
932.434	2195.42
932.743	2172.82
933.051	2139.15
933.36	2132.37
933.669	2160.62
933.977	2130.11
934.286	2139.38
934.594	2145.71
934.902	2155.65
935.21	2102.54
935.519	2106.61
935.827	2092.37
936.135	2088.08
936.443	2058.25
936.751	2077.46
937.059	2020.96
937.367	2024.81
937.674	2063.9
937.982	2063.67
938.29	2033.62
938.597	2021.64
938.905	2005.82
939.213	2008.08
939.52	2017.35
939.827	1986.61
940.135	1967.63
940.442	1957.01
940.749	1959.27
941.056	1999.72
941.363	1950.68
941.67	1972.6
941.977	1940.06
942.284	1926.05
942.591	1941.19
942.898	1933.51
943.205	1910.01
943.511	1915.43
943.818	1910.68
944.125	1881.53
944.431	1879.27
944.738	1845.6
945.044	1874.08
945.35	1877.69
945.657	1858.03
945.963	1828.88
946.269	1819.84
946.575	1826.62
946.881	1791.82
947.187	1831.14
947.493	1818.03
947.799	1808.31
948.105	1816.9
948.41	1802.66
948.716	1792.04
949.022	1794.53
949.327	1778.71
949.633	1728.54
949.938	1760.63
950.244	1752.27
950.549	1744.81
950.854	1730.58
951.16	1733.29
951.465	1739.62
951.77	1721.31
952.075	1720.86
952.38	1740.75
952.685	1741.88
952.99	1712.95
953.294	1693.74
953.599	1693.51
953.904	1661.88
954.209	1663.69
954.513	1699.62
954.818	1666.17
955.122	1666.4
955.426	1655.55
955.731	1626.85
956.035	1638.38
956.339	1644.02
956.643	1641.09
956.948	1632.73
957.252	1648.77
957.556	1588.88
957.86	1613.06
958.163	1585.27
958.467	1595.66
958.771	1574.87
959.075	1589.79
959.378	1554.08
959.682	1562.67
959.985	1556.12
960.289	1577.36
960.592	1552.5
960.896	1555.44
961.199	1521.99
961.502	1527.42
961.805	1535.78
962.108	1512.05
962.411	1500.53
962.714	1490.58
963.017	1482.22
963.32	1483.12
963.623	1467.76
963.926	1476.8
964.228	1484.03
964.531	1490.36
964.833	1456.46
965.136	1444.48
965.438	1445.16
965.741	1474.76
966.043	1430.02
966.345	1449
966.648	1431.15
966.95	1451.49
967.252	1405.39
967.554	1435.22
967.856	1428.44
968.158	1376.01
968.46	1411.71
968.761	1415.56
969.063	1392.28
969.365	1394.31
969.666	1384.37
969.968	1354.77
970.269	1386.86
970.571	1375.33
970.872	1328.33
971.174	1375.78
971.475	1362.68
971.776	1353.86
972.077	1337.82
972.378	1342.11
972.679	1340.08
972.98	1370.59
973.281	1337.14
973.582	1337.14
973.883	1340.3
974.183	1318.38
974.484	1310.7
974.785	1350.92
975.085	1320.19
975.386	1328.55
975.686	1296.69
975.986	1273.86
976.287	1294.43
976.587	1298.5
976.887	1301.43
977.187	1285.39
977.487	1310.93
977.787	1310.47
978.087	1274.09
978.387	1244.49
978.687	1272.28
978.987	1257.14
979.286	1260.76
979.586	1223.7
979.885	1227.09
980.185	1243.58
980.484	1259.63
980.784	1228.67
981.083	1225.96
981.382	1207.88
981.682	1209.01
981.981	1213.3
982.28	1190.03
982.579	1220.98
982.878	1196.58
983.177	1195.45
983.475	1198.61
983.774	1210.82
984.073	1186.18
984.372	1183.7
984.67	1195
984.969	1176.92
985.267	1166.75
985.566	1169.46
985.864	1171.49
986.162	1154.09
986.461	1121.1
986.759	1151.16
987.057	1152.29
987.355	1135.56
987.653	1166.52
987.951	1142.79
988.249	1124.72
988.547	1140.76
988.844	1112.97
989.142	1111.61
989.44	1090.14
989.737	1099.63
990.035	1096.69
990.332	1087.66
990.63	1091.72
990.927	1089.24
991.224	1078.84
991.521	1076.36
991.819	1087.2
992.116	1056.92
992.413	1085.17
992.71	1070.71
993.006	1047.66
993.303	1030.03
993.6	1055.34
993.897	1063.93
994.193	1029.13
994.49	1024.61
994.787	1042.23
995.083	1017.83
995.379	1008.34
995.676	1023.7
995.972	1026.41
996.268	1006.3
996.565	1022.8
996.861	1008.11
997.157	995.91
997.453	991.39
997.749	999.52
998.044	965.4
998.34	985.51
998.636	986.87
998.932	969.24
999.227	950.71
999.523	958.84
999.818	982.12
1000.114	961.33
1000.409	967.66
1000.704	972.18
1001	947.77
1001.295	927.89
1001.59	938.73
1001.885	950.94
1002.18	952.74
1002.475	942.8
1002.77	929.47
1003.065	916.59
1003.359	916.81
1003.654	921.11
1003.949	910.48
1004.243	945.51
1004.538	938.51
1004.832	912.97
1005.127	927.89
1005.421	903.25
1005.715	897.15
1006.009	908.9
1006.304	899.64
1006.598	891.5
1006.892	884.72
1007.186	870.94
1007.48	879.98
1007.773	854.67
1008.067	872.75
1008.361	863.71
1008.655	847.44
1008.948	854.21
1009.242	827.77
1009.535	823.93
1009.829	858.06
1010.122	841.79
1010.415	851.73
1010.708	851.73
1011.001	821
1011.295	846.31
1011.588	820.77
1011.881	824.39
1012.173	824.84
1012.466	835.68
1012.759	834.78
1013.052	810.15
1013.344	803.82
1013.637	797.49
1013.93	813.76
1014.222	796.14
1014.514	780.54
1014.807	765.18
1015.099	790.94
1015.391	787.32
1015.683	759.53
1015.976	782.35
1016.268	783.03
1016.56	759.75
1016.851	748.68
1017.143	770.15
1017.435	757.95
1017.727	758.85
1018.018	722.92
1018.31	761.34
1018.602	746.42
1018.893	734.44
1019.185	734.9
1019.476	737.83
1019.767	738.74
1020.058	724.27
1020.35	709.59
1020.641	702.35
1020.932	716.59
1021.223	717.04
1021.514	723.82
1021.804	710.49
1022.095	703.94
1022.386	693.32
1022.677	705.74
1022.967	677.72
1023.258	692.64
1023.548	680.43
1023.839	685.63
1024.129	709.81
1024.419	682.24
1024.709	665.97
1025	670.49
1025.29	679.53
1025.58	642.47
1025.87	659.42
1026.16	651.96
1026.449	664.16
1026.739	656.93
1027.029	664.62
1027.319	667.1
1027.608	655.58
1027.898	656.48
1028.187	651.96
1028.477	640.44
1028.766	631.17
1029.055	643.37
1029.344	642.69
1029.634	640.21
1029.923	638.18
1030.212	641.57
1030.501	616.93
1030.79	624.62
1031.078	625.75
1031.367	621.45
1031.656	620.55
1031.945	605.18
1032.233	621.68
1032.522	617.38
1032.81	607.44
1033.099	598.18
1033.387	613.32
1033.675	582.81
1033.963	602.47
1034.251	588.46
1034.54	600.89
1034.828	603.6
1035.116	604.73
1035.403	564.05
1035.691	580.32
1035.979	611.51
1036.267	596.37
1036.554	586.43
1036.842	569.25
1037.129	559.53
1037.417	557.27
1037.704	559.08
1037.992	569.48
1038.279	564.73
1038.566	550.72
1038.853	550.72
1039.14	550.72
