Data from foam1_polythene_foam_FLMS001491_00072.txt Node
Date: Wed Feb 08 10:55:21 GMT 2017
User: dcchb
Spectrometer: FLMS00149
Trigger mode: 0
Integration Time (sec): 2.000000E-2
Scans to average: 10
Electric dark correction enabled: true
Nonlinearity correction enabled: false
Boxcar width: 0
XAxis mode: Wavelengths
Number of Pixels in Spectrum: 2048
>>>>>Begin Spectral Data<<<<<
341.393	-3.5
341.776	-3.5
342.16	-3.5
342.543	-55.7
342.927	-63.16
343.31	-57.06
343.693	-65.65
344.077	-67.91
344.46	-66.55
344.843	-65.2
345.226	-40.34
345.61	-12.77
345.993	-10.06
346.376	3.73
346.759	-0.34
347.142	20.9
347.525	35.14
347.908	62.48
348.291	65.87
348.674	97.51
349.057	100.22
349.44	123.73
349.823	145.65
350.206	142.03
350.588	183.16
350.971	208.92
351.354	225.87
351.737	224.29
352.119	226.32
352.502	240.56
352.884	257.96
353.267	257.51
353.65	252.08
354.032	297.73
354.414	295.92
354.797	312.87
355.179	330.05
355.562	299.31
355.944	294.79
356.326	302.7
356.709	306.09
357.091	318.52
357.473	330.05
357.855	328.01
358.238	330.5
358.62	349.93
359.002	325.08
359.384	321.23
359.766	330.95
360.148	323.04
360.53	330.95
360.912	319.65
361.294	344.06
361.676	333.89
362.057	319.65
362.439	293.21
362.821	313.1
363.203	307
363.584	307
363.966	322.36
364.348	302.7
364.729	335.02
365.111	311.74
365.493	312.42
365.874	324.62
366.256	313.33
366.637	312.42
367.019	322.59
367.4	299.77
367.781	292.99
368.163	284.17
368.544	315.58
368.925	311.52
369.306	314.46
369.688	302.48
370.069	326.88
370.45	299.09
370.831	296.15
371.212	284.17
371.593	306.32
371.974	316.94
372.355	321.91
372.736	310.61
373.117	318.97
373.498	298.41
373.879	317.39
374.26	314
374.641	299.77
375.021	311.29
375.402	324.62
375.783	310.39
376.163	327.11
376.544	317.17
376.925	315.81
377.305	311.29
377.686	325.3
378.066	332.99
378.447	317.17
378.827	342.02
379.208	310.84
379.588	334.57
379.968	331.18
380.349	329.37
380.729	332.76
381.109	346.32
381.489	343.61
381.87	344.28
382.25	331.18
382.63	350.61
383.01	325.3
383.39	326.88
383.77	340.44
384.15	361.23
384.53	351.06
384.91	358.07
385.29	348.35
385.67	351.52
386.049	373.66
386.429	360.1
386.809	344.74
387.189	356.04
387.568	359.2
387.948	377.5
388.328	349.71
388.707	341.57
389.087	363.72
389.466	363.95
389.846	381.12
390.225	375.24
390.605	387.9
390.984	378.86
391.363	350.61
391.743	372.08
392.122	384.74
392.501	405.07
392.881	384.28
393.26	395.81
393.639	417.73
394.018	409.37
394.397	425.41
394.776	430.16
395.155	413.89
395.534	386.77
395.913	396.71
396.292	399.65
396.671	412.08
397.05	434.68
397.429	418.63
397.808	401.91
398.186	432.19
398.565	403.27
398.944	438.75
399.323	438.75
399.701	427.22
400.08	437.84
400.458	426.99
400.837	430.38
401.215	450.95
401.594	433.1
401.972	432.42
402.351	465.19
402.729	456.6
403.107	450.72
403.486	470.84
403.864	461.12
404.242	466.77
404.62	476.03
404.999	476.26
405.377	473.55
405.755	464.51
406.133	479.2
406.511	478.29
406.889	497.5
407.267	497.28
407.645	475.58
408.023	490.72
408.401	502.92
408.779	494.34
409.156	523.26
409.534	516.48
409.912	517.61
410.29	536.14
410.667	524.84
411.045	532.3
411.422	540.21
411.8	536.6
412.178	540.89
412.555	531.62
412.933	557.39
413.31	563.26
413.687	549.93
414.065	566.88
414.442	573.21
414.819	565.07
415.197	583.37
415.574	588.35
415.951	595.13
416.328	592.87
416.705	602.58
417.082	617.95
417.46	603.26
417.837	600.55
418.214	606.65
418.591	613.43
418.967	642.36
419.344	622.47
419.721	631.28
420.098	649.81
420.475	647.55
420.852	645.29
421.228	664.73
421.605	650.49
421.982	683.94
422.358	664.28
422.735	685.97
423.111	669.93
423.488	684.84
423.864	687.55
424.241	713.31
424.617	714.44
424.994	710.15
425.37	690.26
425.746	735.23
426.123	720.55
426.499	737.95
426.875	756.7
427.251	752.64
427.627	749.7
428.003	740.88
428.379	778.85
428.756	788.34
429.132	775.01
429.507	789.02
429.883	772.07
430.259	818.17
430.635	798.06
431.011	816.81
431.387	831.05
431.763	854.78
432.138	858.85
432.514	870.37
432.89	868.34
433.265	874.44
433.641	917.38
434.016	914.21
434.392	908.34
434.767	901.33
435.143	920.77
435.518	946.3
435.894	930.03
436.269	943.59
436.644	987.88
437.02	943.82
437.395	960.09
437.77	987.66
438.145	1001.44
438.52	1008.9
438.895	1029.01
439.271	1014.55
439.646	1053.19
440.021	1039.18
440.395	1092.29
440.77	1076.02
441.145	1082.8
441.52	1087.54
441.895	1087.32
442.27	1118.73
442.645	1130.25
443.019	1127.77
443.394	1119.63
443.769	1145.62
444.143	1158.5
444.518	1159.86
444.892	1161.44
445.267	1189.69
445.641	1192.4
446.016	1164.38
446.39	1201.44
446.764	1230.14
447.139	1215
447.513	1250.93
447.887	1244.15
448.262	1245.73
448.636	1258.16
449.01	1242.57
449.384	1273.3
449.758	1285.05
450.132	1297.93
450.506	1321.66
450.88	1310.81
451.254	1337.48
451.628	1346.29
452.002	1344.48
452.376	1350.36
452.75	1381.55
453.123	1390.58
453.497	1404.14
453.871	1427.19
454.244	1431.04
454.618	1441.66
454.992	1465.39
455.365	1504.48
455.739	1499.28
456.112	1486.85
456.486	1501.77
456.859	1506.29
457.232	1565.27
457.606	1572.73
457.979	1591.03
458.352	1587.42
458.725	1609.34
459.099	1601.2
459.472	1607.75
459.845	1655.21
460.218	1647.98
460.591	1689.11
460.964	1672.16
461.337	1720.52
461.71	1739.95
462.083	1776.56
462.456	1765.94
462.829	1780.18
463.201	1779.95
463.574	1803
463.947	1850.01
464.32	1881.65
464.692	1924.81
465.065	1893.85
465.438	1916.9
465.81	1957.35
466.183	1920.97
466.555	1965.94
466.928	1996.22
467.3	1985.15
467.672	2048.19
468.045	2084.58
468.417	2048.87
468.789	2099.72
469.161	2160.51
469.534	2140.17
469.906	2186.27
470.278	2180.17
470.65	2227.4
471.022	2274.63
471.394	2334.51
471.766	2349.2
472.138	2349.88
472.51	2416.55
472.882	2438.01
473.253	2440.95
473.625	2491.12
473.997	2510.56
474.369	2512.36
474.74	2550.1
475.112	2631.23
475.484	2638.46
475.855	2692.25
476.227	2738.12
476.598	2816.54
476.97	2797.1
477.341	2869.42
477.713	2826.93
478.084	2896.76
478.455	2978.11
478.827	2984.22
479.198	3110.99
479.569	3074.38
479.94	3185.57
480.311	3173.81
480.682	3275.51
481.053	3331.55
481.424	3407.48
481.795	3413.13
482.166	3463.07
482.537	3537.87
482.908	3573.8
483.279	3594.82
483.65	3687.02
484.021	3762.73
484.391	3809.28
484.762	3817.64
485.133	3853.35
485.503	3897.86
485.874	3984.87
486.244	4019.44
486.615	4139.67
486.985	4175.6
487.356	4212.66
487.726	4271.87
488.097	4357.96
488.467	4403.84
488.837	4459.88
489.207	4515.47
489.578	4562.93
489.948	4586.21
490.318	4705.75
490.688	4709.14
491.058	4785.07
491.428	4832.98
491.798	4895.13
492.168	4981.9
492.538	4955.91
492.908	5071.84
493.278	5062.13
493.648	5194.33
494.017	5215.57
494.387	5264.16
494.757	5289.69
495.126	5360.65
495.496	5341.89
495.866	5390.71
496.235	5418.73
496.605	5512.96
496.974	5549.12
497.344	5589.12
497.713	5634.99
498.082	5709.34
498.452	5779.62
498.821	5788.89
499.19	5793.18
499.559	5911.82
499.928	5936.68
500.298	5963.35
500.667	6015.1
501.036	6015.55
501.405	6118.82
501.774	6136.45
502.143	6217.12
502.512	6204.47
502.88	6245.15
503.249	6258.71
503.618	6306.16
503.987	6316.78
504.356	6365.6
504.724	6436.55
505.093	6471.36
505.462	6543.9
505.83	6579.15
506.199	6660.73
506.567	6710.9
506.936	6723.55
507.304	6789.99
507.672	6810.33
508.041	6827.73
508.409	6868.63
508.777	6942.76
509.145	7061.62
509.514	7094.84
509.882	7105.46
510.25	7107.04
510.618	7204.44
510.986	7235.63
511.354	7328.06
511.722	7389.52
512.09	7403.31
512.458	7404.66
512.826	7503.19
513.193	7544.55
513.561	7554.26
513.929	7696.63
514.297	7766.01
514.664	7826.8
515.032	7878.78
515.4	7955.84
515.767	7955.84
516.135	7988.6
516.502	7927.81
516.869	8048.04
517.237	8176.62
517.604	8201.48
517.972	8265.88
518.339	8324.87
518.706	8415.71
519.073	8361.7
519.44	8424.07
519.808	8517.4
520.175	8529.38
520.542	8672.43
520.909	8737.96
521.276	8694.12
521.643	8856.6
522.009	8908.58
522.376	9100.66
522.743	9137.73
523.11	9097.95
523.477	9229.47
523.843	9311.51
524.21	9402.58
524.577	9412.52
524.943	9433.31
525.31	9517.83
525.676	9707.88
526.043	9760.08
526.409	9767.77
526.776	9914.65
527.142	9902.45
527.508	9926.63
527.874	10010.02
528.241	10070.13
528.607	10119.62
528.973	10201.2
529.339	10227.64
529.705	10334.76
530.071	10419.27
530.437	10458.6
530.803	10529.33
531.169	10606.16
531.535	10604.81
531.901	10672.83
532.267	10703.79
532.632	10773.84
532.998	10868.98
533.364	10822.2
533.73	10923.67
534.095	10997.11
534.461	10984.46
534.826	11144.68
535.192	11185.13
535.557	11277.1
535.923	11278.69
536.288	11273.71
536.653	11369.98
537.019	11333.83
537.384	11381.06
537.749	11467.16
538.114	11449.76
538.479	11536.76
538.845	11585.8
539.21	11576.31
539.575	11635.51
539.94	11675.29
540.305	11776.3
540.67	11788.96
541.034	11806.58
541.399	11869.86
541.764	11830.31
542.129	11948.73
542.494	11953.02
542.858	12042.96
543.223	12090.42
543.587	12171.54
543.952	12127.25
544.316	12161.83
544.681	12327.92
545.045	12256.29
545.41	12343.29
545.774	12387.36
546.138	12326.57
546.503	12341.94
546.867	12464.87
547.231	12494.93
547.595	12588.71
547.959	12639.1
548.324	12715.26
548.688	12672.32
549.052	12689.95
549.416	12720.91
549.779	12868.02
550.143	12802.49
550.507	12954.57
550.871	12961.58
551.235	12923.61
551.599	13016.72
551.962	13094.46
552.326	13190.5
552.689	13199.99
553.053	13198.41
553.417	13240.44
553.78	13439.76
554.143	13340.33
554.507	13379.42
554.87	13526.99
555.234	13529.25
555.597	13624.84
555.96	13631.84
556.323	13664.39
556.686	13780.32
557.05	13881.33
557.413	13854.66
557.776	13900.54
558.139	13922.68
558.502	13927.2
558.865	14021.67
559.228	14172.17
559.59	14146.18
559.953	14245.84
560.316	14305.73
560.679	14386.63
561.041	14523.8
561.404	14485.16
561.767	14584.14
562.129	14545.49
562.492	14696.22
562.854	14716.34
563.217	14662.55
563.579	14794.07
563.941	14858.25
564.304	14940.96
564.666	15019.61
565.028	15042.2
565.39	15179.6
565.753	15216.21
566.115	15242.65
566.477	15357.45
566.839	15374.85
567.201	15425.47
567.563	15467.28
567.925	15575.97
568.287	15672.47
568.648	15681.28
569.01	15718.34
569.372	15920.37
569.734	15833.14
570.095	16013.93
570.457	16035.17
570.819	16001.5
571.18	16078.56
571.542	16182.74
571.903	16079.46
572.265	16176.64
572.626	16234.49
572.987	16211.89
573.349	16325.79
573.71	16413.47
574.071	16451.66
574.432	16499.11
574.794	16636.29
575.155	16565.1
575.516	16614.59
575.877	16688.71
576.238	16725.1
576.599	16693.91
576.96	16788.15
577.32	16737.75
577.681	16747.02
578.042	16810.74
578.403	16846.45
578.763	16811.42
579.124	16984.75
579.485	17053.68
579.845	16988.59
580.206	16989.72
580.566	17033.34
580.927	17086.9
581.287	17052.55
581.648	17050.74
582.008	17081.25
582.368	17030.63
582.728	17092.77
583.089	17156.5
583.449	17117.85
583.809	17136.61
584.169	17205.76
584.529	17177.06
584.889	17289.83
585.249	17244.18
585.609	17202.82
585.969	17179.1
586.329	17149.49
586.688	17176.61
587.048	17142.04
587.408	17180.68
587.768	17148.81
588.127	17131.19
588.487	17190.85
588.846	17296.83
589.206	17160.11
589.565	17158.98
589.925	17307.68
590.284	17259.77
590.643	17256.38
591.003	17298.19
591.362	17290.28
591.721	17158.76
592.08	17147.46
592.44	17221.58
592.799	17266.78
593.158	17267.68
593.517	17299.77
593.876	17229.26
594.235	17347
594.593	17267.23
594.952	17310.62
595.311	17284.4
595.67	17292.77
596.029	17387
596.387	17431.52
596.746	17357.4
597.104	17409.6
597.463	17375.02
597.822	17401.01
598.18	17392.65
598.538	17340.22
598.897	17432.65
599.255	17317.62
599.613	17642.81
599.972	17344.29
600.33	17510.84
600.688	17432.2
601.046	17495.02
601.404	17582.25
601.762	17455.7
602.12	17489.82
602.478	17593.55
602.836	17572.76
603.194	17489.37
603.552	17547.22
603.91	17562.82
604.268	17590.61
604.625	17509.94
604.983	17631.97
605.341	17563.27
605.698	17699.08
606.056	17698.63
606.413	17649.14
606.771	17649.59
607.128	17844.39
607.485	17755.13
607.843	17692.76
608.2	17730.72
608.557	17882.81
608.914	17755.13
609.272	17861.56
609.629	17882.35
609.986	17985.63
610.343	17754.9
610.7	17939.75
611.057	18002.13
611.414	18036.25
611.771	17957.83
612.127	18011.16
612.484	18063.37
612.841	18126.87
613.198	17955.8
613.554	17968.91
613.911	18142.01
614.267	18051.84
614.624	18010.03
614.98	18089.58
615.337	18332.74
615.693	18100.43
616.05	18104.5
616.406	18189.01
616.762	18145.4
617.118	18065.17
617.475	18231.72
617.831	18104.27
618.187	18274.66
618.543	18249.8
618.899	18427.65
619.255	18344.04
619.611	18393.98
619.967	18393.08
620.323	18427.43
620.678	18303.59
621.034	18298.39
621.39	18209.58
621.746	18352.62
622.101	18513.98
622.457	18230.82
622.812	18430.59
623.168	18262.23
623.523	18315.34
623.879	18399.86
624.234	18348.78
624.589	18312.85
624.945	18300.42
625.3	18415.9
625.655	18370.48
626.01	18396.01
626.365	18401.66
626.72	18386.07
627.075	18343.59
627.43	18361.44
627.785	18243.7
628.14	18364.38
628.495	18377.26
628.85	18323.25
629.205	18261.1
629.559	18325.51
629.914	18183.36
630.269	18269.24
630.623	18188.56
630.978	18147.66
631.332	18278.28
631.687	18266.98
632.041	18171.84
632.396	18129.81
632.75	18130.94
633.104	18081.45
633.459	18084.16
633.813	17978.4
634.167	17926.87
634.521	18035.8
634.875	18055.91
635.229	18036.93
635.583	17910.83
635.937	17850.27
636.291	17883.26
636.645	17862.47
636.999	17862.69
637.352	17907.89
637.706	17857.72
638.06	17862.92
638.413	17814.56
638.767	17756.26
639.121	17775.24
639.474	17684.62
639.828	17611.85
640.181	17640.33
640.534	17574.57
640.888	17534.79
641.241	17489.14
641.594	17492.08
641.947	17511.74
642.301	17636.03
642.654	17463.16
643.007	17596.03
643.36	17563.49
643.713	17448.02
644.066	17477.39
644.419	17355.36
644.771	17386.32
645.124	17187.46
645.477	17197.4
645.83	17112.43
646.182	16961.93
646.535	16863.4
646.888	16734.36
647.24	16642.39
647.593	16747.7
647.945	16573.69
648.298	16590.86
648.65	16543.41
649.002	16587.25
649.355	16702.05
649.707	16654.36
650.059	16818.43
650.411	17005.09
650.763	16994.92
651.115	17135.03
651.467	17087.57
651.819	17043.73
652.171	16969.16
652.523	16938.42
652.875	16901.36
653.227	16807.81
653.578	16881.25
653.93	16813.46
654.282	16675.61
654.633	16702.95
654.985	16838.77
655.337	16724.42
655.688	16748.15
656.039	16901.59
656.391	16723.06
656.742	16850.52
657.094	16833.79
657.445	16852.1
657.796	16741.82
658.147	16692.1
658.498	16635.61
658.849	16607.59
659.2	16714.7
659.551	16598.77
659.902	16705.89
660.253	16664.76
660.604	16631.31
660.955	16480.36
661.306	16579.11
661.656	16463.86
662.007	16522.16
662.358	16524.88
662.708	16544.99
663.059	16581.6
663.409	16427.48
663.76	16549.06
664.11	16492.56
664.461	16635.61
664.811	16563.07
665.161	16497.76
665.511	16361.26
665.862	16425.44
666.212	16446.46
666.562	16429.74
666.912	16305.9
667.262	16353.58
667.612	16415.5
667.962	16305.22
668.312	16323.53
668.662	16446.01
669.011	16467.02
669.361	16436.74
669.711	16340.93
670.06	16423.86
670.41	16361.26
670.76	16421.38
671.109	16457.08
671.459	16462.73
671.808	16352.45
672.157	16352.68
672.507	16256.18
672.856	16224.77
673.205	16243.98
673.554	16296.18
673.904	16145.23
674.253	16256.86
674.602	16100.48
674.951	15902.52
675.3	15818.91
675.649	16168.28
675.998	16155.62
676.346	16115.85
676.695	16205.56
677.044	16116.3
677.393	16143.42
677.741	16143.87
678.09	16099.35
678.438	16016.64
678.787	16025.91
679.135	16047.15
679.484	15989.3
679.832	16022.97
680.181	15806.48
680.529	15839.24
680.877	15874.5
681.225	15843.76
681.573	15900.94
681.922	15723.99
682.27	15620.72
682.618	15763.09
682.966	15768.06
683.314	15774.84
683.661	15669.98
684.009	15662.75
684.357	15711.34
684.705	15547.05
685.053	15646.03
685.4	15592.47
685.748	15581.17
686.095	15566.26
686.443	15460.72
686.79	15462.76
687.138	15468.63
687.485	15441.06
687.832	15391.8
688.18	15284
688.527	15170.34
688.874	15269.77
689.221	15202.88
689.568	15135.31
689.915	15098.93
690.262	15105.48
690.609	15106.16
690.956	14953.62
691.303	14977.12
691.65	15015.09
691.997	14910.91
692.344	14895.77
692.69	14969.89
693.037	14938.25
693.383	14743.23
693.73	14839.04
694.077	14786.62
694.423	14766.05
694.769	14686.05
695.116	14575.1
695.462	14532.39
695.808	14491.94
696.155	14456.91
696.501	14303.24
696.847	14352.73
697.193	14211.26
697.539	14324.48
697.885	14177.82
698.231	14207.65
698.577	14168.33
698.923	14145.05
699.269	14074.77
699.614	14160.19
699.96	14027.54
700.306	14091.72
700.651	14043.59
700.997	14009.24
701.342	14101.89
701.688	13941.89
702.033	13884.04
702.379	13783.25
702.724	13803.37
703.069	13893.31
703.415	13606.08
703.76	13618.29
704.105	13616.7
704.45	13604.5
704.795	13526.99
705.14	13446.77
705.485	13492.87
705.83	13371.74
706.175	13462.81
706.52	13343.04
706.865	13412.42
707.209	13379.42
707.554	13284.96
707.899	13349.82
708.243	13315.7
708.588	13276.6
708.932	13214.23
709.277	13183.27
709.621	13198.18
709.966	13052.65
710.31	13151.86
710.654	12897.85
710.998	13034.12
711.342	12947.12
711.687	12849.72
712.031	12798.42
712.375	12743.05
712.719	12782.38
713.063	12712.32
713.407	12760.46
713.75	12689.04
714.094	12739.21
714.438	12667.12
714.782	12704.86
715.125	12629.39
715.469	12661.93
715.812	12593.91
716.156	12596.84
716.499	12626.45
716.843	12616.05
717.186	12572.44
717.53	12629.84
717.873	12547.58
718.216	12463.06
718.559	12382.39
718.902	12339.45
719.246	12384.87
719.589	12269.62
719.932	12188.72
720.275	12155.5
720.617	12174.26
720.96	12132.22
721.303	12164.31
721.646	12182.39
721.989	12117.76
722.331	12085.9
722.674	12096.29
723.016	12181.49
723.359	12169.28
723.701	12166.35
724.044	12118.66
724.386	12070.53
724.729	12109.4
725.071	12060.81
725.413	12045.9
725.755	12002.74
726.097	11954.15
726.439	11898.56
726.782	11896.98
727.124	11891.33
727.465	11739.47
727.807	11781.05
728.149	11791.22
728.491	11639.81
728.833	11673.93
729.175	11552.58
729.516	11613.59
729.858	11611.11
730.199	11642.29
730.541	11651.56
730.882	11616.53
731.224	11724.78
731.565	11621.73
731.906	11658.11
732.248	11660.6
732.589	11603.2
732.93	11532.47
733.271	11638.9
733.612	11588.28
733.953	11549.87
734.294	11509.19
734.635	11377.21
734.976	11450.43
735.317	11371.57
735.658	11350.32
735.999	11345.35
736.339	11294.51
736.68	11294.96
737.021	11202.76
737.361	11195.98
737.702	11235.98
738.042	11214.06
738.383	11187.84
738.723	11229.65
739.063	11222.64
739.404	11220.83
739.744	11294.96
740.084	11191.01
740.424	11218.12
740.764	11170.21
741.104	11214.06
741.444	11163.21
741.784	11122.76
742.124	11167.5
742.464	11091.57
742.804	11028.07
743.143	11021.74
743.483	11016.77
743.823	10927.28
744.162	10846.83
744.502	10867.62
744.841	10834.4
745.181	10832.82
745.52	10788.3
745.86	10795.08
746.199	10773.84
746.538	10876.44
746.877	10801.86
747.216	10841.41
747.556	10750.79
747.895	10876.89
748.234	10694.75
748.573	10762.09
748.911	10771.81
749.25	10683.45
749.589	10706.5
749.928	10672.83
750.267	10659.72
750.605	10694.07
750.944	10635.31
751.283	10589.89
751.621	10532.94
751.96	10523.9
752.298	10521.42
752.636	10429.44
752.975	10398.48
753.313	10401.87
753.651	10385.83
753.989	10348.09
754.327	10213.4
754.666	10236.23
755.004	10287.53
755.342	10266.28
755.679	10285.04
756.017	10241.88
756.355	10311.25
756.693	10276.68
757.031	10189.45
757.368	10228.32
757.706	10169.79
758.044	10102.9
758.381	10088.66
758.719	10067.64
759.056	9998.49
759.394	10058.15
759.731	9910.81
760.068	9882.57
760.405	9874.66
760.743	9857.03
761.08	9882.34
761.417	9779.74
761.754	9798.5
762.091	9829.23
762.428	9722.57
762.765	9671.5
763.102	9698.62
763.438	9630.82
763.775	9645.51
764.112	9627.43
764.449	9610.03
764.785	9572.29
765.122	9527.55
765.458	9463.37
765.795	9483.93
766.131	9431.05
766.467	9533.2
766.804	9383.37
767.14	9349.7
767.476	9392.41
767.812	9294.11
768.148	9313.54
768.485	9264.5
768.821	9129.14
769.157	9189.48
769.492	9112.19
769.828	9111.74
770.164	8945.64
770.5	9033.77
770.836	8931.18
771.171	8909.71
771.507	8938.64
771.842	8834.46
772.178	8914
772.513	8847.56
772.849	8821.12
773.184	8754.23
773.519	8804.4
773.855	8773.22
774.19	8675.59
774.525	8711.52
774.86	8722.6
775.195	8714.01
775.53	8635.14
775.865	8618.42
776.2	8556.95
776.535	8503.84
776.87	8490.51
777.205	8478.99
777.539	8402.15
777.874	8393.11
778.209	8333
778.543	8287.35
778.878	8291.87
779.212	8233.34
779.547	8209.61
779.881	8247.13
780.215	8179.33
780.55	8158.99
780.884	8101.59
781.218	8097.75
781.552	8091.88
781.886	8068.6
782.22	8012.33
782.554	7989.73
782.888	7966.23
783.222	7921.26
783.556	7868.38
783.889	7929.4
784.223	7851.43
784.557	7854.37
784.89	7899.79
785.224	7790.19
785.557	7715.84
785.891	7709.06
786.224	7752
786.558	7676.75
786.891	7621.38
787.224	7598.33
787.557	7541.16
787.891	7497.54
788.224	7491.22
788.557	7484.66
788.89	7356.76
789.223	7394.49
789.556	7338.45
789.888	7254.84
790.221	7286.7
790.554	7239.24
790.887	7236.08
791.219	7232.01
791.552	7169.64
791.884	7243.54
792.217	7234.27
792.549	7244.67
792.882	7148.85
793.214	7153.6
793.546	7152.92
793.879	7103.66
794.211	7051.45
794.543	7082.19
794.875	7088.06
795.207	7042.41
795.539	6989.53
795.871	7048.74
796.203	6911.12
796.535	6836.32
796.867	6842.42
797.198	6837.45
797.53	6842.42
797.862	6777.79
798.193	6798.13
798.525	6741.4
798.856	6746.38
799.188	6701.41
799.519	6628.41
799.85	6611.24
800.182	6578.02
800.513	6585.7
800.844	6611.69
801.175	6599.49
801.506	6597.68
801.837	6550.45
802.168	6559.94
802.499	6581.41
802.83	6553.39
803.161	6458.02
803.491	6548.64
803.822	6477
804.153	6433.39
804.483	6395.2
804.814	6371.92
805.145	6406.05
805.475	6430.45
805.805	6428.42
806.136	6381.41
806.466	6334.64
806.796	6345.48
807.126	6258.71
807.457	6226.16
807.787	6256.22
808.117	6209.89
808.447	6193.85
808.777	6178.93
809.107	6116.56
809.436	6091.25
809.766	6090.12
810.096	6084.92
810.426	6093.51
810.755	6087.64
811.085	6111.36
811.414	6113.85
811.744	6016.23
812.073	6060.97
812.403	6057.35
812.732	6030.46
813.061	5965.83
813.39	5953.4
813.719	5990.69
814.049	6015.77
814.378	5993.18
814.707	5920.64
815.036	5927.19
815.365	5878.6
815.693	5881.09
816.022	5846.51
816.351	5859.85
816.68	5809.45
817.008	5827.76
817.337	5714.09
817.665	5747.08
817.994	5730.58
818.322	5755.44
818.651	5742.56
818.979	5702.79
819.307	5709.79
819.636	5710.47
819.964	5665.05
820.292	5728.32
820.62	5668.89
820.948	5636.8
821.276	5628.89
821.604	5619.63
821.932	5663.47
822.259	5667.08
822.587	5691.26
822.915	5643.81
823.243	5700.3
823.57	5630.7
823.898	5683.13
824.225	5634.77
824.553	5641.09
824.88	5663.92
825.207	5658.04
825.535	5680.42
825.862	5699.17
826.189	5640.64
826.516	5682.45
826.843	5686.97
827.17	5683.58
827.497	5679.74
827.824	5688.33
828.151	5679.51
828.478	5590.7
828.805	5691.49
829.131	5621.43
829.458	5617.59
829.785	5576.46
830.111	5557.48
830.438	5581.89
830.764	5546.86
831.09	5598.38
831.417	5542.79
831.743	5583.02
832.069	5628.44
832.395	5615.33
832.722	5578.05
833.048	5559.51
833.374	5583.24
833.7	5559.74
834.026	5572.62
834.351	5597.03
834.677	5602
835.003	5583.02
835.329	5569.91
835.654	5541.89
835.98	5567.65
836.306	5535.79
836.631	5510.02
836.956	5521.78
837.282	5586.41
837.607	5512.06
837.932	5528.56
838.258	5501.44
838.583	5473.87
838.908	5478.61
839.233	5425.06
839.558	5363.59
839.883	5416.24
840.208	5430.03
840.533	5391.38
840.858	5387.09
841.182	5376.02
841.507	5364.49
841.832	5332.85
842.156	5366.53
842.481	5326.3
842.805	5298.28
843.13	5275.68
843.454	5310.71
843.778	5308.45
844.103	5275
844.427	5224.61
844.751	5230.71
845.075	5212.86
845.399	5231.39
845.723	5191.39
846.047	5251.05
846.371	5190.26
846.695	5182.12
847.019	5117.94
847.343	5169.02
847.666	5158.4
847.99	5141.67
848.313	5126.31
848.637	5059.41
848.96	5107.1
849.284	5102.58
849.607	5047.21
849.931	4982.13
850.254	4958.85
850.577	4950.04
850.9	4899.87
851.223	4900.32
851.546	4866.43
851.869	4849.48
852.192	4825.75
852.515	4805.18
852.838	4786.2
853.161	4806.77
853.483	4767.67
853.806	4735.36
854.129	4696.03
854.451	4734.68
854.774	4651.74
855.096	4674.79
855.419	4677.96
855.741	4658.3
856.063	4595.7
856.385	4650.84
856.708	4602.7
857.03	4605.64
857.352	4619.88
857.674	4581.46
857.996	4579.2
858.318	4537.85
858.64	4591.86
858.961	4571.74
859.283	4516.83
859.605	4518.86
859.926	4513.67
860.248	4504.18
860.57	4531.75
860.891	4534.23
861.212	4443.16
861.534	4481.13
861.855	4431.41
862.176	4501.01
862.498	4417.62
862.819	4444.29
863.14	4455.36
863.461	4425.53
863.782	4382.14
864.103	4389.38
864.424	4352.09
864.745	4371.75
865.065	4360.68
865.386	4367
865.707	4344.63
866.027	4339.89
866.348	4313.67
866.668	4343.95
866.989	4267.12
867.309	4284.97
867.63	4280.68
867.95	4324.97
868.27	4237.06
868.59	4269.15
868.91	4238.19
869.23	4248.36
869.55	4237.29
869.87	4284.29
870.19	4267.8
870.51	4268.48
870.83	4255.82
871.15	4240.68
871.469	4252.2
871.789	4268.7
872.109	4234.13
872.428	4186.44
872.748	4242.04
873.067	4190.51
873.386	4250.17
873.706	4200.23
874.025	4172.88
874.344	4176.73
874.663	4181.02
874.982	4175.6
875.301	4170.62
875.62	4158.2
875.939	4136.73
876.258	4107.35
876.577	4089.95
876.896	4085.66
877.214	4086.56
877.533	4068.48
877.852	4069.38
878.17	4083.4
878.489	4072.55
878.807	4073.68
879.125	4077.75
879.444	4064.19
879.762	4022.38
880.08	4043.85
880.398	4027.35
880.716	3972.44
881.034	4003.85
881.352	4007.69
881.67	4009.05
881.988	4054.92
882.306	4012.21
882.624	3999.56
882.941	3981.7
883.259	3970.86
883.577	3987.13
883.894	3963.62
884.212	3960.01
884.529	3993.23
884.846	3961.36
885.164	3912.55
885.481	3931.08
885.798	3890.63
886.115	3901.03
886.432	3894.7
886.75	3910.07
887.067	3877.75
887.383	3868.49
887.7	3847.7
888.017	3843.18
888.334	3858.09
888.651	3837.53
888.967	3836.17
889.284	3797.3
889.6	3786.45
889.917	3794.14
890.233	3794.82
890.55	3780.35
890.866	3762.5
891.182	3710.98
891.498	3744.2
891.815	3714.59
892.131	3685.67
892.447	3691.77
892.763	3689.06
893.079	3668.27
893.395	3680.47
893.71	3649.51
894.026	3650.19
894.342	3641.37
894.657	3589.85
894.973	3593.24
895.289	3618.32
895.604	3647.02
895.92	3651.54
896.235	3591.43
896.55	3615.61
896.865	3574.03
897.181	3562.96
897.496	3558.89
897.811	3540.13
898.126	3519.12
898.441	3522.51
898.756	3514.82
899.071	3475.5
899.386	3498.55
899.7	3423.3
900.015	3452.23
900.33	3441.15
900.644	3401.15
900.959	3409.06
901.273	3425.56
901.588	3393.24
901.902	3377.88
902.216	3362.06
902.531	3363.19
902.845	3339.01
903.159	3319.8
903.473	3322.51
903.787	3317.09
904.101	3293.36
904.415	3251.1
904.729	3257.65
905.042	3249.07
905.356	3237.09
905.67	3232.34
905.984	3237.54
906.297	3242.29
906.611	3235.28
906.924	3196.87
907.237	3209.75
907.551	3173.59
907.864	3176.53
908.177	3139.01
908.491	3162.06
908.804	3152.35
909.117	3124.55
909.43	3106.47
909.743	3083.65
910.056	3115.06
910.368	3070.99
910.681	3068.96
910.994	3103.76
911.307	3064.67
911.619	3074.38
911.932	3072.8
912.244	3034.38
912.557	3052.46
912.869	3044.55
913.181	3013.37
913.494	3007.94
913.806	2995.06
914.118	2953.48
914.43	2938.34
914.742	2887.95
915.054	2911.22
915.366	2886.36
915.678	2890.88
915.99	2847.72
916.302	2844.11
916.613	2827.84
916.925	2817.89
917.236	2834.84
917.548	2800.04
917.859	2769.08
918.171	2771.79
918.482	2790.77
918.794	2763.88
919.105	2788.97
919.416	2775.63
919.727	2781.06
920.038	2755.29
920.349	2729.98
920.66	2709.65
920.971	2687.05
921.282	2706.71
921.593	2727.5
921.903	2689.31
922.214	2651.12
922.525	2682.53
922.835	2666.71
923.146	2645.92
923.456	2648.18
923.767	2630.78
924.077	2630.55
924.387	2640.95
924.697	2600.04
925.008	2584
925.318	2554.17
925.628	2590.33
925.938	2592.81
926.248	2559.14
926.558	2553.49
926.867	2532.93
927.177	2522.31
927.487	2528.63
927.796	2478.92
928.106	2492.7
928.416	2492.25
928.725	2495.64
929.034	2442.31
929.344	2475.53
929.653	2453.61
929.962	2426.72
930.271	2422.42
930.581	2405.93
930.89	2390.78
931.199	2372.25
931.508	2378.58
931.817	2345.59
932.125	2347.85
932.434	2365.7
932.743	2353.05
933.051	2319.37
933.36	2338.13
933.669	2325.93
933.977	2317.79
934.286	2299.94
934.594	2269.88
934.902	2271.24
935.21	2265.36
935.519	2257.45
935.827	2249.09
936.135	2279.6
936.443	2248.87
936.751	2207.96
937.059	2211.13
937.367	2237.34
937.674	2218.36
937.982	2243.9
938.29	2226.5
938.597	2220.39
938.905	2196.89
939.213	2193.5
939.52	2150.56
939.827	2149.44
940.135	2164.35
940.442	2148.53
940.749	2122.09
941.056	2123.45
941.363	2107.4
941.67	2112.37
941.977	2099.49
942.284	2095.43
942.591	2097.46
942.898	2113.5
943.205	2107.85
943.511	2078.93
943.818	2045.26
944.125	2033.51
944.431	2007.97
944.738	2004.13
945.044	2039.61
945.35	2025.82
945.657	1979.04
945.963	2023.79
946.269	1995.09
946.575	1991.7
946.881	1971.13
947.187	1991.47
947.493	1943.11
947.799	1951.25
948.105	1956.9
948.41	1944.92
948.716	1921.19
949.022	1929.1
949.327	1891.81
949.633	1890.91
949.938	1896.11
950.244	1893.17
950.549	1852.04
950.854	1886.17
951.16	1903.11
951.465	1869.22
951.77	1850.91
952.075	1834.64
952.38	1883.45
952.685	1849.78
952.99	1863.34
953.294	1812.72
953.599	1811.14
953.904	1781.08
954.209	1776.79
954.513	1805.94
954.818	1812.49
955.122	1803.68
955.426	1767.3
955.731	1798.48
956.035	1757.81
956.339	1763
956.643	1757.13
956.948	1765.72
957.252	1728.66
957.556	1745.38
957.86	1736.34
958.163	1715.55
958.467	1707.86
958.771	1708.09
959.075	1690.01
959.378	1693.18
959.682	1685.49
959.985	1708.09
960.289	1671.93
960.592	1663.12
960.896	1657.92
961.199	1629
961.502	1650.69
961.805	1629.9
962.108	1625.83
962.411	1628.32
962.714	1655.21
963.017	1611.37
963.32	1616.79
963.623	1612.73
963.926	1597.59
964.228	1605.27
964.531	1606.62
964.833	1573.18
965.136	1578.6
965.438	1555.33
965.741	1581.99
966.043	1550.35
966.345	1532.95
966.648	1526.63
966.95	1534.76
967.252	1525.04
967.554	1508.55
967.856	1484.59
968.158	1520.98
968.46	1496.34
968.761	1482.79
969.063	1491.6
969.365	1497.7
969.666	1486.85
969.968	1479.85
970.269	1469.68
970.571	1484.82
970.872	1476.23
971.174	1475.33
971.475	1487.31
971.776	1460.64
972.077	1415.67
972.378	1463.13
972.679	1463.13
972.98	1446.4
973.281	1418.83
973.582	1431.94
973.883	1450.02
974.183	1423.13
974.484	1401.88
974.785	1383.81
975.085	1395.56
975.386	1376.57
975.686	1389.23
975.986	1375.67
976.287	1369.79
976.587	1372.05
976.887	1353.98
977.187	1379.96
977.487	1335.45
977.787	1348.33
978.087	1340.64
978.387	1339.74
978.687	1349.91
978.987	1338.83
979.286	1337.93
979.586	1301.1
979.885	1316.91
980.185	1339.06
980.484	1307.88
980.784	1302.68
981.083	1290.47
981.382	1285.5
981.682	1271.72
981.981	1265.39
982.28	1279.4
982.579	1267.65
982.878	1244.15
983.177	1266.75
983.475	1263.13
983.774	1258.38
984.073	1247.31
984.372	1258.84
984.67	1238.72
984.969	1238.05
985.267	1240.76
985.566	1234.2
985.864	1211.61
986.162	1225.62
986.461	1219.97
986.759	1204.15
987.057	1208.89
987.355	1200.99
987.653	1234.88
987.951	1208.67
988.249	1180.65
988.547	1196.01
988.844	1189.69
989.142	1196.24
989.44	1164.6
989.737	1166.41
990.035	1147.88
990.332	1158.05
990.63	1164.6
990.927	1139.97
991.224	1135
991.521	1149.46
991.819	1116.24
992.116	1127.09
992.413	1131.83
992.71	1139.52
993.006	1090.25
993.303	1080.31
993.6	1111.72
993.897	1095.9
994.193	1100.42
994.49	1051.84
994.787	1097.71
995.083	1081.44
995.379	1081.44
995.676	1056.36
995.972	1082.57
996.268	1058.62
996.565	1052.51
996.861	1026.53
997.157	1040.76
997.453	1039.18
997.749	1058.84
998.044	1075.79
998.34	1053.64
998.636	1020.65
998.932	1031.27
999.227	1030.59
999.523	1003.48
999.818	998.28
1000.114	1009.35
1000.409	1015.23
1000.704	1029.69
1001	1016.58
1001.295	994.66
1001.59	992.4
1001.885	985.4
1002.18	1002.12
1002.475	991.73
1002.77	985.4
1003.065	974.55
1003.359	992.4
1003.654	979.52
1003.949	971.39
1004.243	980.43
1004.538	956.92
1004.832	950.82
1005.127	933.42
1005.421	965.96
1005.715	967.09
1006.009	951.27
1006.304	925.06
1006.598	926.87
1006.892	912.41
1007.186	926.19
1007.48	916.02
1007.773	905.85
1008.067	897.72
1008.361	913.76
1008.655	902.24
1008.948	881.9
1009.242	886.19
1009.535	871.73
1009.829	857.94
1010.122	870.37
1010.415	885.29
1010.708	847.55
1011.001	830.15
1011.295	839.41
1011.588	860.43
1011.881	846.42
1012.173	846.87
1012.466	831.73
1012.759	821.79
1013.052	869.92
1013.344	835.12
1013.637	838.06
1013.93	827.89
1014.222	827.66
1014.514	802.58
1014.807	817.49
1015.099	837.38
1015.391	793.99
1015.683	807.55
1015.976	824.05
1016.268	793.54
1016.56	817.94
1016.851	798.96
1017.143	814.33
1017.435	789.02
1017.727	777.04
1018.018	768
1018.31	793.54
1018.602	781.11
1018.893	784.27
1019.185	755.35
1019.476	759.64
1019.767	778.4
1020.058	786.76
1020.35	752.86
1020.641	754.44
1020.932	750.83
1021.223	753.31
1021.514	753.99
1021.804	742.92
1022.095	723.03
1022.386	719.19
1022.677	713.99
1022.967	717.16
1023.258	722.81
1023.548	714.44
1023.839	713.54
1024.129	703.37
1024.419	698.85
1024.709	704.95
1025	685.07
1025.29	700.89
1025.58	678.97
1025.87	679.87
1026.16	678.29
1026.449	664.05
1026.739	668.34
1027.029	686.42
1027.319	662.69
1027.608	690.94
1027.898	651.62
1028.187	681.23
1028.477	664.28
1028.766	636.25
1029.055	631.73
1029.344	650.72
1029.634	665.18
1029.923	637.61
1030.212	625.86
1030.501	637.61
1030.79	647.33
1031.078	626.76
1031.367	620.21
1031.656	639.19
1031.945	603.03
1032.233	623.83
1032.522	595.58
1032.81	588.8
1033.099	614.79
1033.387	617.72
1033.675	615.46
1033.963	618.63
1034.251	614.11
1034.54	598.29
1034.828	617.72
1035.116	612.3
1035.403	609.81
1035.691	595.58
1035.979	604.62
1036.267	578.4
1036.554	584.73
1036.842	575.69
1037.129	598.06
1037.417	567.56
1037.704	565.52
1037.992	565.75
1038.279	570.49
1038.566	547.67
1038.853	547.67
1039.14	547.67
