Data from foil_FLMS001491_070.txt Node
Date: Tue Feb 07 11:36:27 GMT 2017
User: dcchb
Spectrometer: FLMS00149
Trigger mode: 0
Integration Time (sec): 2.000000E-2
Scans to average: 10
Electric dark correction enabled: true
Nonlinearity correction enabled: false
Boxcar width: 0
XAxis mode: Wavelengths
Number of Pixels in Spectrum: 2048
>>>>>Begin Spectral Data<<<<<
341.393	-26.24
341.776	-26.24
342.16	-26.24
342.543	-63.08
342.927	-54.04
343.31	-54.72
343.693	-75.73
344.077	-61.27
344.46	-37.77
344.843	-67.15
345.226	-61.27
345.61	-16.3
345.993	-10.88
346.376	-22.4
346.759	1.55
347.142	33.87
347.525	37.03
347.908	46.07
348.291	81.1
348.674	89.23
349.057	118.61
349.44	125.84
349.823	136.92
350.206	193.41
350.588	275.9
350.971	283.35
351.354	299.62
351.737	309.57
352.119	338.27
352.502	322.45
352.884	328.55
353.267	373.52
353.65	369.91
354.032	385.5
354.414	388.21
354.797	402
355.179	400.87
355.562	411.03
355.944	432.95
356.326	428.89
356.709	409.9
357.091	434.76
357.473	416.68
357.855	431.82
358.238	446.97
358.62	440.64
359.002	446.74
359.384	467.53
359.766	442.22
360.148	427.98
360.53	451.94
360.912	432.5
361.294	446.74
361.676	463.91
362.057	438.15
362.439	443.58
362.821	447.87
363.203	457.59
363.584	466.17
363.966	456.91
364.348	469.56
364.729	469.79
365.111	460.98
365.493	457.13
365.874	466.63
366.256	462.33
366.637	472.05
367.019	463.91
367.4	477.47
367.781	439.28
368.163	468.21
368.544	465.5
368.925	470.02
369.306	482.22
369.688	479.51
370.069	475.89
370.45	469.11
370.831	488.77
371.212	511.6
371.593	481.54
371.974	496.91
372.355	497.36
372.736	526.51
373.117	514.08
373.498	490.58
373.879	481.77
374.26	504.14
374.641	500.98
375.021	504.59
375.402	550.69
375.783	543.23
376.163	553.63
376.544	555.44
376.925	531.48
377.305	558.38
377.686	549.34
378.066	538.94
378.447	566.96
378.827	548.88
379.208	572.16
379.588	578.26
379.968	594.31
380.349	588.2
380.729	599.73
381.109	608.32
381.489	618.03
381.87	625.72
382.25	623.46
382.63	640.63
383.01	605.83
383.39	640.41
383.77	639.28
384.15	658.03
384.53	648.54
384.91	647.19
385.29	688.09
385.67	681.08
386.049	672.5
386.429	697.81
386.809	693.96
387.189	712.95
387.568	709.11
387.948	709.33
388.328	715.89
388.707	728.99
389.087	747.97
389.466	747.75
389.846	779.84
390.225	787.3
390.605	789.56
390.984	789.33
391.363	819.61
391.743	804.92
392.122	819.16
392.501	825.26
392.881	836.79
393.26	834.3
393.639	864.58
394.018	853.51
394.397	834.98
394.776	896.67
395.155	887.18
395.534	891.7
395.913	892.83
396.292	928.53
396.671	932.83
397.05	943
397.429	942.77
397.808	939.61
398.186	953.17
398.565	965.14
398.944	973.96
399.323	991.36
399.701	996.1
400.08	992.71
400.458	1027.97
400.837	1007.85
401.215	1020.06
401.594	1069.32
401.972	1059.6
402.351	1056.89
402.729	1063.45
403.107	1085.82
403.486	1101.41
403.864	1111.81
404.242	1115.87
404.62	1142.54
404.999	1171.24
405.377	1167.17
405.755	1176.89
406.133	1207.85
406.511	1218.47
406.889	1210.79
407.267	1250.79
407.645	1248.75
408.023	1252.82
408.401	1295.3
408.779	1302.76
409.156	1336.21
409.534	1316.55
409.912	1351.8
410.29	1384.34
410.667	1402.42
411.045	1443.78
411.422	1443.32
411.8	1453.49
412.178	1476.32
412.555	1491.46
412.933	1488.97
413.31	1563.32
413.687	1538.01
414.065	1583.43
414.442	1573.49
414.819	1616.2
415.197	1625.92
415.574	1681.96
415.951	1648.06
416.328	1667.5
416.705	1708.4
417.082	1685.35
417.46	1717.89
417.837	1759.25
418.214	1770.32
418.591	1755.86
418.967	1779.13
419.344	1834.95
419.721	1834.05
420.098	1848.28
420.475	1878.57
420.852	1882.41
421.228	1929.41
421.605	1935.29
421.982	1945.91
422.358	1995.63
422.735	1974.16
423.111	2002.86
423.488	2014.16
423.864	2025.46
424.241	2088.96
424.617	2107.26
424.994	2153.59
425.37	2133.7
425.746	2110.2
426.123	2165.79
426.499	2244.21
426.875	2212.12
427.251	2274.49
427.627	2299.35
428.003	2315.17
428.379	2371.21
428.756	2423.41
429.132	2388.38
429.507	2464.54
429.883	2436.52
430.259	2564.42
430.635	2543.63
431.011	2580.92
431.387	2632.44
431.763	2702.95
432.138	2700.47
432.514	2723.52
432.89	2723.29
433.265	2782.27
433.641	2848.03
434.016	2866.79
434.392	2904.53
434.767	2952.66
435.143	2957.63
435.518	3038.99
435.894	3050.96
436.269	3063.62
436.644	3161.7
437.02	3156.05
437.395	3163.5
437.77	3202.15
438.145	3263.84
438.52	3266.78
438.895	3339.32
439.271	3364.4
439.646	3415.93
440.021	3414.57
440.395	3458.41
440.77	3419.99
441.145	3469.94
441.52	3523.72
441.895	3514.91
442.27	3544.29
442.645	3565.08
443.019	3623.83
443.394	3643.49
443.769	3646.88
444.143	3624.28
444.518	3730.95
444.892	3732.3
445.267	3740.89
445.641	3778.63
446.016	3786.54
446.39	3818.63
446.764	3841.23
447.139	3904.5
447.513	3901.79
447.887	3925.97
448.262	3935.24
448.636	3944.5
449.01	4055.23
449.384	4090.71
449.758	4098.85
450.132	4200.77
450.506	4181.56
450.88	4225.4
451.254	4251.84
451.628	4296.81
452.002	4326.86
452.376	4386.52
452.75	4387.2
453.123	4423.58
453.497	4515.33
453.871	4535.45
454.244	4629.23
454.618	4658.61
454.992	4757.81
455.365	4729.11
455.739	4880.52
456.112	4924.14
456.486	4985.38
456.859	5043
457.232	5120.06
457.606	5101.08
457.979	5222.89
458.352	5294.07
458.725	5337.46
459.099	5418.36
459.472	5456.78
459.845	5514.18
460.218	5573.61
460.591	5624.91
460.964	5635.76
461.337	5824.23
461.71	5872.13
462.083	5916.43
462.456	6016.31
462.829	6028.06
463.201	6167.72
463.574	6169.53
463.947	6230.54
464.32	6368.39
464.692	6447.94
465.065	6468.05
465.438	6557.54
465.81	6643.19
466.183	6727.7
466.555	6899
466.928	6882.73
467.3	6923.18
467.672	7052.67
468.045	7224.87
468.417	7216.96
468.789	7292.21
469.161	7396.61
469.534	7504.41
469.906	7692.2
470.278	7772.65
470.65	7812.42
471.022	7986.43
471.394	8108.91
471.766	8186.2
472.138	8314.56
472.51	8442.91
472.882	8574.44
473.253	8684.04
473.625	8750.48
473.997	8978.94
474.369	9056.91
474.74	9112.5
475.112	9322.89
475.484	9570.79
475.855	9708.42
476.227	9702.99
476.598	10054.62
476.97	10090.33
477.341	10299.59
477.713	10473.59
478.084	10513.37
478.455	10786.35
478.827	10886.47
479.198	11258.21
479.569	11207.59
479.94	11578.65
480.311	11694.81
480.682	11930.28
481.053	12181.12
481.424	12347.22
481.795	12463.37
482.166	12695.01
482.537	12817.94
482.908	13094.09
483.279	13274.42
483.65	13425.38
484.021	13722.55
484.391	13945.14
484.762	14011.35
485.133	14177.9
485.503	14325.7
485.874	14638.91
486.244	14910.99
486.615	15110.31
486.985	15307.59
487.356	15610.18
487.726	15731.31
488.097	16079.55
488.467	16099.66
488.837	16463.95
489.207	16583.26
489.578	16860.55
489.948	17055.79
490.318	17294.66
490.688	17282.23
491.058	17568.32
491.428	17787.75
491.798	17983.91
492.168	18312.26
492.538	18460.73
492.908	18646.71
493.278	18804.45
493.648	18862.98
494.017	19062.07
494.387	19379.12
494.757	19445.11
495.126	19708.83
495.496	19732.56
495.866	19848.26
496.235	20194.02
496.605	20254.58
496.974	20512.2
497.344	20642.59
497.713	20768.69
498.082	20925.98
498.452	21149.92
498.821	21319.41
499.19	21339.3
499.559	21560.31
499.928	21642.34
500.298	21752.39
500.667	22101.76
501.036	22086.62
501.405	22363.9
501.774	22282.55
502.143	22507.63
502.512	22677.79
502.88	22824.91
503.249	22887.28
503.618	23096.99
503.987	23218.57
504.356	23367.94
504.724	23548.05
505.093	23555.28
505.462	23751.21
505.83	23871.43
506.199	24053.58
506.567	24364.98
506.936	24435.04
507.304	24728.36
507.672	24776.5
508.041	25011.74
508.409	25223.49
508.777	25359.53
509.145	25568.79
509.514	25560.2
509.882	25711.61
510.25	25799.52
510.618	26064.37
510.986	26161.77
511.354	26412.16
511.722	26694.86
512.09	26913.84
512.458	26956.55
512.826	27142.53
513.193	27354.51
513.561	27538
513.929	27659.36
514.297	27931.89
514.664	28134.6
515.032	28238.1
515.4	28495.27
515.767	28568.26
516.135	28797.18
516.502	28650.52
516.869	29169.6
517.237	29396.26
517.604	29388.8
517.972	29561.91
518.339	29913.31
518.706	29942.24
519.073	30106.98
519.44	30353.98
519.808	30870.35
520.175	30723.91
520.542	31247.06
520.909	31304.46
521.276	31348.53
521.643	31825.12
522.009	32014.5
522.376	32133.36
522.743	32286.81
523.11	32731.77
523.477	33029.16
523.843	33129.04
524.21	33596.6
524.577	33709.82
524.943	33859.42
525.31	34034.33
525.676	34384.6
526.043	34634.77
526.409	34783.01
526.776	35223.45
527.142	35207.86
527.508	35536.89
527.874	35839.93
528.241	35899.82
528.607	36080.15
528.973	36329.86
529.339	36503.64
529.705	36797.42
530.071	37026.57
530.437	37206.23
530.803	37412.32
531.169	37770.5
531.535	37748.36
531.901	37872.87
532.267	38085.75
532.632	38315.57
532.998	38424.05
533.364	38718.05
533.73	38696.58
534.095	39069.23
534.461	39300.18
534.826	39368.65
535.192	39468.09
535.557	39891.58
535.923	39802.54
536.288	40027.17
536.653	40213.83
537.019	40420.83
537.384	40562.75
537.749	40649.98
538.114	40659.69
538.479	40775.4
538.845	41074.15
539.21	40989.85
539.575	41265.33
539.94	41297.19
540.305	41458.32
540.67	41595.94
541.034	41643.62
541.399	41905.99
541.764	42052.43
542.129	42335.13
542.494	42335.36
542.858	42334
543.223	42548.01
543.587	42809.24
543.952	42819.86
544.316	43057.14
544.681	43006.98
545.045	43294.88
545.41	43522.22
545.774	43514.99
546.138	43632.27
546.503	43836.56
546.867	43709.1
547.231	44204.91
547.595	44218.7
547.959	44244.23
548.324	44440.39
548.688	44523.55
549.052	44689.42
549.416	44674.96
549.779	44896.64
550.143	45135.73
550.507	45385.22
550.871	45523.52
551.235	45348.61
551.599	45789.5
551.962	45891.87
552.326	46128.02
552.689	46223.39
553.053	46138.19
553.417	46252.54
553.78	46855.46
554.143	46734.11
554.507	46900.89
554.87	46888.23
555.234	47480.08
555.597	47280.08
555.96	47354.88
556.323	47641.88
556.686	47768.21
557.05	48040.97
557.413	48216.33
557.776	48220.17
558.139	48504.01
558.502	48477.34
558.865	48609.99
559.228	48960.27
559.59	49042.3
559.953	49104.44
560.316	49580.59
560.679	49556.86
561.041	49817.64
561.404	49869.85
561.767	50215.15
562.129	50114.36
562.492	50468.25
562.854	50526.1
563.217	50517.97
563.579	50626.21
563.941	50969.03
564.304	51101.68
564.666	51256.25
565.028	51342.58
565.39	51389.58
565.753	51635.45
566.115	51821.43
566.477	51940.75
566.839	52129.67
567.201	52280.18
567.563	52246.51
567.925	52570.57
568.287	52486.28
568.648	52676.55
569.01	52683.56
569.372	53005.36
569.734	52960.39
570.095	53211.68
570.457	53279.7
570.819	53355.18
571.18	53387.72
571.542	53625.68
571.903	53590.2
572.265	53698.9
572.626	53834.26
572.987	53869.74
573.349	53962.17
573.71	54081.94
574.071	54171.2
574.432	54166.68
574.794	54437.41
575.155	54407.81
575.516	54370.07
575.877	54560.35
576.238	54535.26
576.599	54706.33
576.96	54681.25
577.32	54682.83
577.681	54871.07
578.042	54946.78
578.403	54940.22
578.763	54942.71
579.124	54958.98
579.485	55087.34
579.845	55159.43
580.206	55131.63
580.566	55136.6
580.927	55132.99
581.287	55305.18
581.648	55229.48
582.008	55351.96
582.368	55235.13
582.728	55323.26
583.089	55255.92
583.449	55287.78
583.809	55359.65
584.169	55450.94
584.529	55293.21
584.889	55497.27
585.249	55452.07
585.609	55261.8
585.969	55546.99
586.329	55368.01
586.688	55470.6
587.048	55455.46
587.408	55343.15
587.768	55452.07
588.127	55401.23
588.487	55344.28
588.846	55533.43
589.206	55320.33
589.565	55396.93
589.925	55628.34
590.284	55492.07
590.643	55509.92
591.003	55546.99
591.362	55653.2
591.721	55562.8
592.08	55517.16
592.44	55638.51
592.799	55656.81
593.158	55591.28
593.517	55579.08
593.876	55598.74
594.235	55578.85
594.593	55595.12
594.952	55678.51
595.311	55586.53
595.67	55657.94
596.029	55729.81
596.387	55787.43
596.746	55836.47
597.104	55602.35
597.463	55672.63
597.822	55785.85
598.18	55636.25
598.538	55656.14
598.897	55881.67
599.255	55669.02
599.613	56058.38
599.972	55924.6
600.33	55960.99
600.688	55860.42
601.046	55911.5
601.404	55996.24
601.762	55886.86
602.12	56027.43
602.478	55999.86
602.836	56003.92
603.194	55860.88
603.552	55983.36
603.91	55933.42
604.268	56097.93
604.625	55977.93
604.983	56146.97
605.341	56021.78
605.698	56080.53
606.056	56146.07
606.413	56139.51
606.771	56293.41
607.128	56292.73
607.485	56142.45
607.843	56263.13
608.2	56428.09
608.557	56450.69
608.914	56340.86
609.272	56517.58
609.629	56460.86
609.986	56607.75
610.343	56485.94
610.7	56627.86
611.057	56581.53
611.414	56581.53
611.771	56560.07
612.127	56706.28
612.484	56723.23
612.841	56691.36
613.198	56686.39
613.554	56734.53
613.911	56888.19
614.267	56816.1
614.624	56814.52
614.98	56842.77
615.337	57021.3
615.693	56935.65
616.05	56904.24
616.406	57072.14
616.762	56945.14
617.118	56999.83
617.475	57006.83
617.831	57066.04
618.187	57141.29
618.543	57095.87
618.899	57169.77
619.255	57098.58
619.611	57104.68
619.967	57209.99
620.323	57253.16
620.678	57141.07
621.034	57011.58
621.39	57072.6
621.746	57049.32
622.101	57277.34
622.457	57107.85
622.812	57177.23
623.168	57297.22
623.523	57217.68
623.879	57275.98
624.234	57129.32
624.589	57167.96
624.945	57198.92
625.3	57267.62
625.655	57235.98
626.01	57251.12
626.365	57280.95
626.72	57286.6
627.075	57174.51
627.43	57105.81
627.785	57101.07
628.14	57146.27
628.495	57192.14
628.85	57091.13
629.205	56979.26
629.559	57203.67
629.914	57051.35
630.269	57039.15
630.623	56952.82
630.978	56852.04
631.332	57005.7
631.687	57043.9
632.041	56859.49
632.396	56938.81
632.75	56830.57
633.104	56866.5
633.459	56780.4
633.813	56725.26
634.167	56699.05
634.521	56725.03
634.875	56737.91
635.229	56685.49
635.583	56575.66
635.937	56554.42
636.291	56582.21
636.645	56467.87
636.999	56482.55
637.352	56514.19
637.706	56349.9
638.06	56487.98
638.413	56375.66
638.767	56282.11
639.121	56357.13
639.474	56233.52
639.828	56244.37
640.181	56246.85
640.534	56179.96
640.888	56196.91
641.241	56002.12
641.594	56044.83
641.947	56113.3
642.301	56081.21
642.654	56080.53
643.007	56030.81
643.36	56019.29
643.713	55975.22
644.066	55981.78
644.419	55735
644.771	55381.34
645.124	55047.56
645.477	55002.14
645.83	54998.98
646.182	55030.39
646.535	54989.49
646.888	55105.87
647.24	54965.31
647.593	54965.76
647.945	54903.61
648.298	54833.78
648.65	54771.19
649.002	54733
649.355	54801.47
649.707	54634.24
650.059	54700.23
650.411	54962.37
650.763	54977.96
651.115	55323.49
651.467	55235.36
651.819	55233.77
652.171	55121.01
652.523	55052.31
652.875	55111.52
653.227	54912.43
653.578	55108.81
653.93	55175.7
654.282	55020.22
654.633	54890.73
654.985	54879.21
655.337	54944.06
655.688	54873.56
656.039	54911.3
656.391	54665.65
656.742	54714.92
657.094	54778.19
657.445	54815.93
657.796	54754.69
658.147	54716.5
658.498	54615.03
658.849	54737.74
659.2	54700.68
659.551	54621.59
659.902	54598.54
660.253	54610.29
660.604	54595.6
660.955	54492.1
661.306	54642.38
661.656	54472.89
662.007	54536.39
662.358	54472.66
662.708	54444.42
663.059	54431.99
663.409	54272.67
663.76	54474.7
664.11	54337.3
664.461	54484.64
664.811	54402.16
665.161	54383.63
665.511	54264.08
665.862	54268.38
666.212	54325.77
666.562	54411.65
666.912	54175.04
667.262	54163.97
667.612	54190.86
667.962	54179.11
668.312	54111.54
668.662	54231.77
669.011	54135.72
669.361	54086.69
669.711	54125.33
670.06	53998.55
670.41	53894.83
670.76	54010.08
671.109	54047.82
671.459	54016.4
671.808	53846.69
672.157	53958.55
672.507	53825.9
672.856	53845.79
673.205	53801.27
673.554	53855.5
673.904	53719.01
674.253	53931.66
674.602	53863.41
674.951	53391.34
675.3	53266.37
675.649	53697.32
675.998	53620.03
676.346	53626.13
676.695	53731.67
677.044	53481.73
677.393	53508.17
677.741	53581.39
678.09	53485.57
678.438	53465.91
678.787	53446.48
679.135	53501.62
679.484	53312.47
679.832	53383.88
680.181	53252.36
680.529	53301.85
680.877	53140.04
681.225	53161.51
681.573	53311.11
681.922	53016.43
682.27	52977.56
682.618	53028.86
682.966	52963.32
683.314	52960.84
683.661	52846.72
684.009	52665.03
684.357	52622.99
684.705	52569.66
685.053	52736.44
685.4	52539.61
685.748	52335.32
686.095	52407.18
686.443	52239.95
686.79	52175.32
687.138	52278.37
687.485	52170.35
687.832	51990.92
688.18	52103.91
688.527	51921.32
688.874	51936.01
689.221	51808.33
689.568	51714.77
689.915	51568.11
690.262	51619.86
690.609	51631.61
690.956	51390.03
691.303	51517.04
691.65	51231.39
691.997	51261
692.344	51046.99
692.69	51057.84
693.037	50979.42
693.383	50685.64
693.73	50831.18
694.077	50552.99
694.423	50479.77
694.769	50433.67
695.116	50366.33
695.462	50343.28
695.808	50109.61
696.155	50268.71
696.501	49974.7
696.847	50039.11
697.193	49720.02
697.539	49780.58
697.885	49553.25
698.231	49542.85
698.577	49567.26
698.923	49357.32
699.269	49235.29
699.614	48942.87
699.96	48981.06
700.306	48967.5
700.651	48849.08
700.997	48686.6
701.342	48608.41
701.688	48475.53
702.033	48303.79
702.379	48295.2
702.724	48195.99
703.069	48321.19
703.415	47854.31
703.76	47720.52
704.105	47772.73
704.45	47594.43
704.795	47448.89
705.14	47427.88
705.485	47409.57
705.83	47199.86
706.175	47265.85
706.52	47212.74
706.865	46967.78
707.209	46775.24
707.554	46753.54
707.899	46772.53
708.243	46584.96
708.588	46639.65
708.932	46210.28
709.277	46217.51
709.621	46341.58
709.966	45984.53
710.31	46203.95
710.654	45714.93
710.998	45824.76
711.342	45840.35
711.687	45633.12
712.031	45457.99
712.375	45397.87
712.719	45393.81
713.063	45196.3
713.407	45426.8
713.75	45055.96
714.094	45070.43
714.438	44847.15
714.782	44932.12
715.125	44754.28
715.469	44773.26
715.812	44561.29
716.156	44322.65
716.499	44398.13
716.843	44366.04
717.186	44094.63
717.53	44453.04
717.873	44402.65
718.216	44044.01
718.559	43882.21
718.902	43581.65
719.246	43905.94
719.589	43621.88
719.932	43472.05
720.275	43546.85
720.617	43311.6
720.96	43330.58
721.303	43281.09
721.646	43202.9
721.989	43066.86
722.331	43115
722.674	42795.23
723.016	42956.58
723.359	42910.93
723.701	42884.04
724.044	42648.12
724.386	42403.6
724.729	42642.01
725.071	42449.48
725.413	42386.88
725.755	42351.17
726.097	42248.58
726.439	41983.5
726.782	41937.4
727.124	42133.33
727.465	41884.52
727.807	42037.74
728.149	41736.28
728.491	41761.81
728.833	41788.48
729.175	41508.48
729.516	41428.94
729.858	41337.19
730.199	41269.17
730.541	41414.25
730.882	41300.13
731.224	41313.69
731.565	40996.41
731.906	41108.04
732.248	40941.27
732.589	40713.48
732.93	40702.86
733.271	40706.7
733.612	40798
733.953	40758.22
734.294	40648.39
734.635	40411.79
734.976	40542.86
735.317	40321.85
735.658	40358.68
735.999	40342.41
736.339	40036.43
736.68	40207.05
737.021	40128.18
737.361	39863.33
737.702	39950.11
738.042	39871.92
738.383	39869.43
738.723	39791.47
739.063	39663.56
739.404	39814.74
739.744	39539.5
740.084	39433.74
740.424	39488.65
740.764	39431.03
741.104	39446.84
741.444	39262.67
741.784	39199.17
742.124	39117.59
742.464	39156
742.804	39040.3
743.143	38889.34
743.483	38839.18
743.823	38600.99
744.162	38676.47
744.502	38582.69
744.841	38409.58
745.181	38562.12
745.52	38264.95
745.86	38368.23
746.199	38317.83
746.538	38057.05
746.877	38250.04
747.216	38243.49
747.556	38149.03
747.895	37964.62
748.234	37959.88
748.573	37876.72
748.911	37780
749.25	37748.36
749.589	37485.99
749.928	37514.69
750.267	37494.13
750.605	37243.06
750.944	37233.57
751.283	37258.88
751.621	37230.86
751.96	37150.63
752.298	36935.5
752.636	37056.4
752.975	36781.15
753.313	36672
753.651	36890.75
753.989	36721.04
754.327	36577.54
754.666	36224.56
755.004	36413.03
755.342	36465.45
755.679	36168.96
756.017	36204.22
756.355	36159.02
756.693	35947.73
757.031	35881.51
757.368	35730.78
757.706	35655.08
758.044	35523.56
758.381	35488.08
758.719	35397.01
759.056	35409.89
759.394	35219.84
759.731	35050.8
760.068	34965.15
760.405	34792.73
760.743	34770.81
761.08	34745.27
761.417	34595.45
761.754	34606.75
762.091	34508.67
762.428	34237.26
762.765	34075.69
763.102	34171.05
763.438	33984.84
763.775	33748.01
764.112	33727.45
764.449	33774.22
764.785	33477.06
765.122	33354.57
765.458	33381.01
765.795	33122.94
766.131	33153.68
766.467	33055.83
766.804	32875.94
767.14	32743.74
767.476	32731.09
767.812	32510.53
768.148	32549.17
768.485	32385.56
768.821	32200.26
769.157	32162.52
769.492	32056.53
769.828	32145.57
770.164	31643.66
770.5	31703.32
770.836	31688.63
771.171	31505.36
771.507	31387.17
771.842	31160.51
772.178	31231.69
772.513	31170.9
772.849	31034.41
773.184	30747.19
773.519	30796.45
773.855	30585.38
774.19	30486.85
774.525	30241.21
774.86	30264.03
775.195	30239.18
775.53	30061.1
775.865	30061.55
776.2	29722.58
776.535	29576.6
776.87	29517.16
777.205	29451.63
777.539	29268.13
777.874	29272.42
778.209	29035.37
778.543	28977.97
778.878	28860.23
779.212	28805.09
779.547	28594.47
779.881	28691.65
780.215	28332.56
780.55	28431.09
780.884	28186.35
781.218	28136.63
781.552	28144.54
781.886	27993.36
782.22	27797.88
782.554	27768.51
782.888	27474.05
783.222	27376.2
783.556	27257.79
783.889	27246.94
784.223	27013.95
784.557	26883.33
784.89	26931.69
785.224	26789.32
785.557	26625.49
785.891	26603.34
786.224	26540.06
786.558	26484.7
786.891	26327.87
787.224	26204.25
787.557	26049
787.891	26097.36
788.224	25915.9
788.557	25943.7
788.89	25855.79
789.223	25833.19
789.556	25634.55
789.888	25373.54
790.221	25421.45
790.554	25394.78
790.887	25258.74
791.219	25213.32
791.552	25127.45
791.884	24949.82
792.217	24849.04
792.549	24829.38
792.882	24703.05
793.214	24606.78
793.546	24535.82
793.879	24313.46
794.211	24189.62
794.543	24286.11
794.875	24077.3
795.207	24151.88
795.539	24012.67
795.871	24016.74
796.203	23772.91
796.535	23627.15
796.867	23705.79
797.198	23569.3
797.53	23599.13
797.862	23279.81
798.193	23388.06
798.525	23212.02
798.856	23240.49
799.188	23070.1
799.519	22962.76
799.85	22822.42
800.182	22758.92
800.513	22808.19
800.844	22574.29
801.175	22709.66
801.506	22506.72
801.837	22498.82
802.168	22427.86
802.499	22359.16
802.83	22202.55
803.161	22162.33
803.491	22218.14
803.822	22047.08
804.153	21935.89
804.483	21782.45
804.814	21726.63
805.145	21701.1
805.475	21719.4
805.805	21665.84
806.136	21568.44
806.466	21587.2
806.796	21572.29
807.126	21372.74
807.457	21344.04
807.787	21323.48
808.117	21205.97
808.447	21179.75
808.777	21142.69
809.107	21048.23
809.436	21010.94
809.766	20916.94
810.096	20924.62
810.426	20849.14
810.755	20777.05
811.085	20739.09
811.414	20740.44
811.744	20526.66
812.073	20559.66
812.403	20445.99
812.732	20348.82
813.061	20362.37
813.39	20207.8
813.719	20151.76
814.049	20181.36
814.378	20048.48
814.707	20028.15
815.036	20081.25
815.365	19836.96
815.693	19727.81
816.022	19737.08
816.351	19657.99
816.68	19618.44
817.008	19734.14
817.337	19462.06
817.665	19491.21
817.994	19500.48
818.322	19462.96
818.651	19359.91
818.979	19268.39
819.307	19389.97
819.636	19123.08
819.964	19241.95
820.292	19112.69
820.62	19049.64
820.948	19110.2
821.276	19115.4
821.604	19003.77
821.932	19114.95
822.259	19078.79
822.587	19011.22
822.915	18977.1
823.243	19037.21
823.57	18886.03
823.898	19074.95
824.225	18940.94
824.553	18940.04
824.88	18895.29
825.207	18944.33
825.535	18930.77
825.862	18978.46
826.189	18878.57
826.516	19067.49
826.843	19055.97
827.17	18983.43
827.497	18862.75
827.824	18965.35
828.151	18941.85
828.478	18864.33
828.805	18875.86
829.131	18852.81
829.458	18851.68
829.785	18729.42
830.111	18769.87
830.438	18869.31
830.764	18848.97
831.09	18784.56
831.417	18706.6
831.743	18784.56
832.069	18724
832.395	18701.4
832.722	18750.67
833.048	18744.11
833.374	18722.64
833.7	18712.25
834.026	18763.77
834.351	18741.85
834.677	18608.52
835.003	18758.8
835.329	18644.23
835.654	18610.1
835.98	18547.96
836.306	18660.5
836.631	18538.92
836.956	18602.65
837.282	18603.32
837.607	18426.38
837.932	18491.69
838.258	18497.56
838.583	18321.52
838.908	18227.74
839.233	18311.58
839.558	18287.85
839.883	18188.65
840.208	18096.67
840.533	18261.86
840.858	18290.34
841.182	18218.7
841.507	18177.12
841.832	18027.97
842.156	18022.32
842.481	18000.18
842.805	17952.49
843.13	17871.14
843.454	17876.34
843.778	17776.68
844.103	17706.4
844.427	17728.32
844.751	17697.36
845.075	17679.96
845.399	17633.63
845.723	17457.37
846.047	17486.29
846.371	17422.79
846.695	17409.68
847.019	17256.92
847.343	17203.14
847.666	17071.16
847.99	16996.36
848.313	16919.07
848.637	16888.57
848.96	16878.62
849.284	16864.16
849.607	16703.26
849.931	16702.13
850.254	16702.81
850.577	16524.51
850.9	16394.79
851.223	16480.89
851.546	16390.95
851.869	16135.59
852.192	16292.42
852.515	16148.25
852.838	16144.41
853.161	16140.11
853.483	16002.71
853.806	15938.99
854.129	15844.98
854.451	15788.26
854.774	15730.86
855.096	15743.29
855.419	15622.61
855.741	15673.46
856.063	15520.92
856.385	15473.01
856.708	15478.66
857.03	15430.07
857.352	15375.61
857.674	15313.47
857.996	15184.88
858.318	15218.33
858.64	15154.83
858.961	15116.41
859.283	15043.42
859.605	15102.63
859.926	15069.41
860.248	14998.22
860.57	15036.64
860.891	14927.94
861.212	14868.96
861.534	14833.93
861.855	14936.53
862.176	14931.33
862.498	14818.11
862.819	14900.14
863.14	14778.11
863.461	14840.94
863.782	14767.72
864.103	14721.17
864.424	14664.44
864.745	14729.08
865.065	14600.27
865.386	14523.66
865.707	14499.25
866.027	14567.72
866.348	14486.6
866.668	14470.1
866.989	14453.15
867.309	14374.06
867.63	14294.51
867.95	14317.11
868.27	14365.02
868.59	14355.3
868.91	14350.55
869.23	14283.21
869.55	14304.91
869.87	14274.4
870.19	14237.11
870.51	14183.1
870.83	14181.97
871.15	14121.86
871.469	14114.4
871.789	14160.5
872.109	14108.98
872.428	14032.15
872.748	14057
873.067	14033.73
873.386	14031.02
873.706	13983.78
874.025	13912.37
874.344	13899.04
874.663	13962.99
874.982	13934.29
875.301	13974.52
875.62	13838.7
875.939	13821.76
876.258	13795.09
876.577	13786.28
876.896	13770.01
877.214	13713.28
877.533	13772.72
877.852	13779.95
878.17	13659.05
878.489	13773.39
878.807	13664.7
879.125	13607.75
879.444	13645.49
879.762	13568.65
880.08	13549.9
880.398	13500.18
880.716	13542.89
881.034	13527.3
881.352	13452.5
881.67	13457.02
881.988	13482.56
882.306	13320.53
882.624	13369.79
882.941	13304.25
883.259	13327.3
883.577	13231.49
883.894	13259.74
884.212	13191.72
884.529	13179.51
884.846	13156.91
885.164	13189.91
885.481	13120.08
885.798	13111.72
886.115	13041.44
886.432	13047.54
886.75	13022.91
887.067	13041.21
887.383	12922.57
887.7	12967.99
888.017	12911.04
888.334	12939.29
888.651	12865.85
888.967	12758.28
889.284	12760.99
889.6	12712.63
889.917	12615.23
890.233	12645.29
890.55	12590.15
890.866	12637.83
891.182	12586.99
891.498	12475.8
891.815	12423.15
892.131	12470.83
892.447	12367.1
892.763	12383.6
893.079	12274.45
893.395	12344.51
893.71	12276.26
894.026	12269.03
894.342	12173.66
894.657	11995.59
894.973	12070.39
895.289	11999.43
895.604	11977.28
895.92	11972.31
896.235	11881.24
896.55	11932.54
896.865	11881.69
897.181	11898.64
897.496	11910.85
897.811	11844.86
898.126	11770.74
898.441	11747.69
898.756	11676.73
899.071	11726.44
899.386	11662.04
899.7	11552.66
900.015	11510.63
900.33	11404.19
900.644	11437.41
900.959	11416.39
901.273	11377.07
901.588	11286.23
901.902	11251.65
902.216	11324.87
902.531	11328.94
902.845	11201.71
903.159	11199.68
903.473	11151.54
903.787	11056.86
904.101	11027.03
904.415	10991.1
904.729	10864.77
905.042	10869.52
905.356	10848.27
905.67	10836.97
905.984	10852.79
906.297	10797.88
906.611	10699.35
906.924	10613.48
907.237	10635.62
907.551	10529.64
907.864	10477.89
908.177	10489.41
908.491	10475.18
908.804	10430.88
909.117	10326.48
909.43	10349.08
909.743	10271.79
910.056	10258.01
910.368	10185.47
910.681	10116.32
910.994	10203.32
911.307	10093.04
911.619	10058.69
911.932	10019.14
912.244	9938.47
912.557	9967.62
912.869	9928.98
913.181	9943.21
913.494	9764.69
913.806	9774.63
914.118	9773.5
914.43	9686.5
914.742	9717.91
915.054	9547.74
915.366	9631.36
915.678	9590
915.99	9525.6
916.302	9426.39
916.613	9493.28
916.925	9416.67
917.236	9439.05
917.548	9326.96
917.859	9333.74
918.171	9220.07
918.482	9136
918.794	9103.46
919.105	9137.58
919.416	9047.87
919.727	9013.07
920.038	8964.26
920.349	8910.25
920.66	8930.36
920.971	8917.25
921.282	8916.57
921.593	8823.69
921.903	8806.07
922.214	8715.45
922.525	8694.66
922.835	8698.27
923.146	8594.55
923.456	8571.27
923.767	8536.02
924.077	8506.64
924.387	8433.87
924.697	8468.45
925.008	8422.8
925.318	8367.21
925.628	8375.8
925.938	8291.28
926.248	8216.03
926.558	8147.33
926.867	8179.64
927.177	8148.01
927.487	8069.59
927.796	8042.47
928.106	8061.45
928.416	8046.99
928.725	7988.24
929.034	7953.89
929.344	7931.06
929.653	7869.6
929.962	7805.42
930.271	7779.88
930.581	7823.27
930.89	7689.26
931.199	7578.3
931.508	7635.48
931.817	7648.58
932.125	7613.78
932.434	7544.86
932.743	7462.6
933.051	7441.58
933.36	7511.64
933.669	7434.58
933.977	7373.79
934.286	7362.26
934.594	7328.59
934.902	7272.1
935.21	7233.91
935.519	7251.98
935.827	7239.78
936.135	7160.91
936.443	7088.6
936.751	7108.49
937.059	7095.38
937.367	7055.61
937.674	7055.83
937.982	6961.37
938.29	6926.8
938.597	6994.82
938.905	6853.58
939.213	6850.41
939.52	6826.46
939.827	6854.25
940.135	6782.17
940.442	6716.86
940.749	6651.77
941.056	6656.07
941.363	6600.02
941.67	6644.54
941.977	6561.83
942.284	6520.48
942.591	6525.9
942.898	6429.63
943.205	6482.06
943.511	6403.42
943.818	6404.55
944.125	6360.71
944.431	6328.84
944.738	6323.42
945.044	6343.53
945.35	6264.44
945.657	6255.63
945.963	6230.09
946.269	6164.78
946.575	6137.21
946.881	6074.61
947.187	6071.68
947.493	6098.57
947.799	6029.42
948.105	6021.51
948.41	5985.58
948.716	5994.39
949.022	5923.66
949.327	5951
949.633	5838.91
949.938	5870.33
950.244	5825.58
950.549	5821.29
950.854	5750.78
951.16	5734.74
951.465	5675.3
951.77	5706.26
952.075	5725.02
952.38	5662.42
952.685	5620.84
952.99	5584.91
953.294	5590.56
953.599	5548.98
953.904	5497.45
954.209	5447.51
954.513	5461.3
954.818	5478.02
955.122	5429.66
955.426	5383.78
955.731	5404.58
956.035	5355.31
956.339	5344.69
956.643	5332.03
956.948	5262.66
957.252	5218.14
957.556	5211.13
957.86	5232.15
958.163	5181.98
958.467	5117.58
958.771	5168.65
959.075	5151.47
959.378	5102.89
959.682	5052.72
959.985	5063.12
960.289	5023.34
960.592	4999.61
960.896	4986.51
961.199	4935.66
961.502	4972.72
961.805	4909.67
962.108	4889.79
962.411	4882.1
962.714	4820.64
963.017	4833.74
963.32	4842.33
963.623	4793.74
963.926	4786.51
964.228	4771.37
964.531	4690.92
964.833	4740.41
965.136	4704.25
965.438	4640.75
965.741	4690.92
966.043	4608.66
966.345	4571.15
966.648	4533.64
966.95	4573.18
967.252	4572.51
967.554	4544.94
967.856	4506.75
968.158	4466.75
968.46	4447.54
968.761	4440.08
969.063	4431.04
969.365	4376.58
969.666	4398.73
969.968	4342.68
970.269	4331.16
970.571	4321.21
970.872	4298.39
971.174	4244.83
971.475	4251.84
971.776	4239.86
972.077	4211.61
972.378	4234.44
972.679	4221.78
972.98	4176.36
973.281	4163.25
973.582	4128.68
973.883	4104.5
974.183	4092.29
974.484	4040.77
974.785	4023.14
975.085	4038.74
975.386	4043.26
975.686	3981.11
975.986	3940.43
976.287	4010.26
976.587	3930.26
976.887	3910.83
977.187	3901.34
977.487	3937.72
977.787	3913.32
978.087	3828.12
978.387	3844.84
978.687	3838.97
978.987	3778.86
979.286	3787.67
979.586	3794.9
979.885	3749.93
980.185	3718.07
980.484	3719.42
980.784	3681.46
981.083	3699.31
981.382	3694.11
981.682	3685.3
981.981	3636.49
982.28	3586.09
982.579	3592.65
982.878	3569.82
983.177	3579.54
983.475	3572.76
983.774	3494.34
984.073	3523.04
984.372	3483.27
984.67	3527.79
984.969	3467.9
985.267	3507.22
985.566	3438.3
985.864	3424.97
986.162	3373.44
986.461	3327.57
986.759	3379.54
987.057	3339.77
987.355	3363.5
987.653	3323.73
987.951	3308.59
988.249	3305.65
988.547	3298.64
988.844	3263.84
989.142	3246.67
989.44	3264.97
989.737	3209.38
990.035	3205.99
990.332	3215.93
990.63	3171.19
990.927	3148.59
991.224	3177.97
991.521	3143.17
991.819	3105.65
992.116	3087.12
992.413	3093.45
992.71	3066.33
993.006	3060.91
993.303	3066.11
993.6	3044.41
993.897	3002.38
994.193	3011.87
994.49	2959.67
994.787	2964.19
995.083	2913.34
995.379	2918.09
995.676	2898.88
995.972	2873.57
996.268	2888.48
996.565	2837.19
996.861	2857.75
997.157	2817.07
997.453	2798.77
997.749	2836.73
998.044	2738.66
998.34	2803.74
998.636	2750.86
998.932	2726.45
999.227	2734.59
999.523	2732.33
999.818	2692.78
1000.114	2688.71
1000.409	2692.33
1000.704	2656.85
1001	2665.21
1001.295	2626.8
1001.59	2616.63
1001.885	2608.04
1002.18	2566.68
1002.475	2561.94
1002.77	2544.09
1003.065	2543.63
1003.359	2529.85
1003.654	2494.6
1003.949	2505.89
1004.243	2465.9
1004.538	2506.57
1004.832	2435.84
1005.127	2423.18
1005.421	2458.44
1005.715	2399.68
1006.009	2392
1006.304	2391.32
1006.598	2403.07
1006.892	2332.57
1007.186	2336.63
1007.48	2315.17
1007.773	2304.77
1008.067	2301.15
1008.361	2305.9
1008.655	2268.16
1008.948	2255.51
1009.242	2249.4
1009.535	2208.95
1009.829	2213.92
1010.122	2214.15
1010.415	2177.09
1010.708	2187.94
1011.001	2181.16
1011.295	2138.9
1011.588	2154.04
1011.881	2154.49
1012.173	2137.09
1012.466	2133.93
1012.759	2076.75
1013.052	2084.44
1013.344	2077.21
1013.637	2049.86
1013.93	2046.02
1014.222	2047.38
1014.514	2000.82
1014.807	2008.96
1015.099	2004.66
1015.391	2003.76
1015.683	1975.29
1015.976	1946.81
1016.268	1949.98
1016.56	1949.53
1016.851	1918.11
1017.143	1922.63
1017.435	1912.01
1017.727	1887.38
1018.018	1860.94
1018.31	1879.47
1018.602	1849.64
1018.893	1829.08
1019.185	1810.77
1019.476	1823.65
1019.767	1806.03
1020.058	1792.02
1020.35	1758.34
1020.641	1740.72
1020.932	1738.23
1021.223	1729.87
1021.514	1708.4
1021.804	1696.2
1022.095	1705.69
1022.386	1675.63
1022.677	1680.15
1022.967	1658.01
1023.258	1652.36
1023.548	1630.66
1023.839	1605.13
1024.129	1631.34
1024.419	1602.64
1024.709	1583.88
1025	1573.72
1025.29	1584.56
1025.58	1556.32
1025.87	1557.44
1026.16	1533.72
1026.449	1530.78
1026.739	1505.92
1027.029	1495.98
1027.319	1480.84
1027.608	1482.64
1027.898	1468.41
1028.187	1443.78
1028.477	1467.05
1028.766	1433.15
1029.055	1418.24
1029.344	1416.43
1029.634	1412.36
1029.923	1412.82
1030.212	1390.44
1030.501	1399.71
1030.79	1373.72
1031.078	1376.43
1031.367	1348.18
1031.656	1363.78
1031.945	1328.07
1032.233	1342.54
1032.522	1321.52
1032.81	1313.38
1033.099	1263.89
1033.387	1294.85
1033.675	1278.13
1033.963	1268.19
1034.251	1281.07
1034.54	1232.71
1034.828	1273.61
1035.116	1217.34
1035.403	1223.44
1035.691	1189.77
1035.979	1201.07
1036.267	1207.85
1036.554	1198.58
1036.842	1193.84
1037.129	1162.43
1037.417	1203.33
1037.704	1197.91
1037.992	1177.57
1038.279	1160.39
1038.566	1145.7
1038.853	1145.7
1039.14	1145.7
