Data from foil_FLMS001491_057.txt Node
Date: Tue Feb 07 11:27:11 GMT 2017
User: dcchb
Spectrometer: FLMS00149
Trigger mode: 0
Integration Time (sec): 2.000000E-2
Scans to average: 10
Electric dark correction enabled: true
Nonlinearity correction enabled: false
Boxcar width: 0
XAxis mode: Wavelengths
Number of Pixels in Spectrum: 2048
>>>>>Begin Spectral Data<<<<<
341.393	-26.04
341.776	-26.04
342.16	-26.04
342.543	-71.02
342.927	-66.95
343.31	-77.34
343.693	-79.6
344.077	-59.26
344.46	-59.72
344.843	-57.91
345.226	-46.61
345.61	-34.18
345.993	-38.7
346.376	-8.87
346.759	9.43
347.142	33.61
347.525	53.05
347.908	57.8
348.291	82.43
348.674	99.6
349.057	126.27
349.44	128.98
349.823	149.09
350.206	170.56
350.588	228.41
350.971	270.67
351.354	257.56
351.737	286.94
352.119	296.21
352.502	320.16
352.884	326.49
353.267	320.16
353.65	341.4
354.032	361.06
354.414	356.09
354.797	364.23
355.179	383.66
355.562	388.86
355.944	366.71
356.326	405.13
356.709	393.38
357.091	402.42
357.473	397.22
357.855	423.21
358.238	412.14
358.62	415.07
359.002	405.13
359.384	404.68
359.766	397.22
360.148	415.75
360.53	418.46
360.912	409.42
361.294	418.92
361.676	427.28
362.057	413.72
362.439	420.27
362.821	410.78
363.203	418.92
363.584	417.33
363.966	396.32
364.348	411.68
364.729	420.72
365.111	411.46
365.493	412.81
365.874	430.21
366.256	420.05
366.637	422.98
367.019	405.81
367.4	410.1
367.781	446.03
368.163	414.85
368.544	445.13
368.925	433.83
369.306	462.53
369.688	439.48
370.069	463.66
370.45	413.94
370.831	440.38
371.212	441.06
371.593	466.37
371.974	456.43
372.355	449.88
372.736	449.88
373.117	455.98
373.498	469.08
373.879	452.36
374.26	461.63
374.641	456.2
375.021	441.97
375.402	446.71
375.783	469.76
376.163	496.88
376.544	523.09
376.925	505.69
377.305	515.41
377.686	497.56
378.066	518.35
378.447	509.99
378.827	509.31
379.208	512.7
379.588	528.97
379.968	506.82
380.349	540.49
380.729	553.15
381.109	552.25
381.489	575.07
381.87	555.86
382.25	572.13
382.63	569.87
383.01	571.23
383.39	572.36
383.77	570.1
384.15	587.27
384.53	613.26
384.91	608.52
385.29	588.85
385.67	616.65
386.049	623.2
386.429	592.7
386.809	628.85
387.189	644.22
387.568	656.2
387.948	649.64
388.328	663.43
388.707	681.06
389.087	660.27
389.466	663.43
389.846	683.32
390.225	698.91
390.605	715.63
390.984	700.49
391.363	698.46
391.743	725.35
392.122	735.29
392.501	729.42
392.881	773.71
393.26	741.84
393.639	766.48
394.018	751.56
394.397	786.82
394.776	776.87
395.155	776.19
395.534	808.51
395.913	833.37
396.292	822.75
396.671	855.51
397.05	829.98
397.429	883.54
397.808	872.91
398.186	865.23
398.565	860.03
398.944	862.29
399.323	890.54
399.701	900.48
400.08	912.46
400.458	900.48
400.837	946.36
401.215	956.53
401.594	920.6
401.972	979.58
402.351	971.44
402.729	982.52
403.107	993.14
403.486	1025.91
403.864	1025.68
404.242	1041.5
404.62	1024.32
404.999	1055.51
405.377	1064.32
405.755	1072.46
406.133	1090.54
406.511	1109.74
406.889	1131.44
407.267	1129.86
407.645	1171.66
408.023	1192.23
408.401	1183.42
408.779	1204.66
409.156	1227.48
409.534	1229.29
409.912	1233.36
410.29	1281.72
410.667	1287.37
411.045	1313.58
411.422	1340.25
411.8	1345.9
412.178	1353.13
412.555	1386.8
412.933	1396.52
413.31	1404.88
413.687	1440.81
414.065	1448.49
414.442	1493.24
414.819	1490.53
415.197	1506.8
415.574	1547.7
415.951	1581.6
416.328	1571.88
416.705	1580.92
417.082	1595.61
417.46	1626.79
417.837	1657.75
418.214	1652.33
418.591	1668.37
418.967	1672.22
419.344	1714.7
419.721	1726
420.098	1753.57
420.475	1772.1
420.852	1796.28
421.228	1836.96
421.605	1836.28
421.982	1820.46
422.358	1887.58
422.735	1858.43
423.111	1892.1
423.488	1928.25
423.864	1933
424.241	2012.55
424.617	2005.99
424.994	2002.15
425.37	2089.61
425.746	2081.7
426.123	2113.11
426.499	2124.18
426.875	2142.49
427.251	2157.4
427.627	2195.37
428.003	2258.87
428.379	2271.3
428.756	2264.52
429.132	2327.57
429.507	2367.34
429.883	2401.01
430.259	2435.59
430.635	2472.87
431.011	2471.97
431.387	2555.36
431.763	2606.2
432.138	2627.45
432.514	2662.47
432.89	2651.4
433.265	2730.95
433.641	2749.25
434.016	2779.08
434.392	2846.42
434.767	2892.52
435.143	2857.72
435.518	2934.33
435.894	2965.74
436.269	2996.02
436.644	3087.55
437.02	3109.69
437.395	3100.65
437.77	3148.34
438.145	3233.53
438.52	3265.62
438.895	3300.65
439.271	3298.16
439.646	3364.15
440.021	3428.78
440.395	3407.54
440.77	3404.83
441.145	3440.08
441.52	3534.09
441.895	3548.55
442.27	3585.39
442.645	3581.32
443.019	3702.22
443.394	3680.52
443.769	3689.79
444.143	3746.96
444.518	3767.75
444.892	3784.93
445.267	3851.14
445.641	3861.99
446.016	3883.23
446.39	3961.65
446.764	4002.78
447.139	3967.52
447.513	4013.17
447.887	4045.71
448.262	4124.58
448.636	4111.7
449.01	4234.63
449.384	4246.84
449.758	4286.61
450.132	4351.24
450.506	4371.81
450.88	4426.95
451.254	4448.87
451.628	4452.71
452.002	4549.65
452.376	4594.85
452.75	4607.96
453.123	4674.17
453.497	4700.84
453.871	4760.04
454.244	4861.74
454.618	4911.45
454.992	4980.15
455.365	4971.11
455.739	5139.47
456.112	5139.47
456.486	5154.61
456.859	5193.71
457.232	5334.27
457.606	5333.59
457.979	5479.8
458.352	5585.11
458.725	5575.84
459.099	5646.8
459.472	5729.28
459.845	5793.46
460.218	5773.35
460.591	5857.64
460.964	5974.02
461.337	6063.96
461.71	6124.98
462.083	6180.12
462.456	6251.3
462.829	6250.4
463.201	6380.11
463.574	6385.54
463.947	6550.28
464.32	6649.26
464.692	6656.27
465.065	6736.26
465.438	6851.06
465.81	6921.12
466.183	7024.17
466.555	7167.44
466.928	7123.6
467.3	7234.1
467.672	7336.02
468.045	7602.46
468.417	7518.62
468.789	7627.09
469.161	7693.75
469.534	7851.26
469.906	7989.34
470.278	8056
470.65	8241.99
471.022	8299.84
471.394	8497.35
471.766	8538.7
472.138	8663.22
472.51	8819.15
472.882	8948.18
473.253	9051.46
473.625	9153.15
473.997	9360.83
474.369	9428.17
474.74	9626.13
475.112	9745
475.484	9938.21
475.855	10074.48
476.227	10129.85
476.598	10475.15
476.97	10584.75
477.341	10752.88
477.713	10928.7
478.084	11054.12
478.455	11283.71
478.827	11394.9
479.198	11802.8
479.569	11790.37
479.94	12134.77
480.311	12160.75
480.682	12482.1
481.053	12788.99
481.424	13029.88
481.795	13156.43
482.166	13399.59
482.537	13470.78
482.908	13830.54
483.279	13919.35
483.65	14275.27
484.021	14460.81
484.391	14619.67
484.762	14806.11
485.133	14940.79
485.503	15173.33
485.874	15665.97
486.244	15673.66
486.615	15962.01
486.985	16204.72
487.356	16441.09
487.726	16648.77
488.097	17017.58
488.467	17066.84
488.837	17440.84
489.207	17648.74
489.578	17862.75
489.948	18025.91
490.318	18319.24
490.688	18342.06
491.058	18715.84
491.428	18888.71
491.798	19152.21
492.168	19473.33
492.538	19578.19
492.908	19705.64
493.278	20206.19
493.648	20205.74
494.017	20445.96
494.387	20590.59
494.757	20711.49
495.126	21018.83
495.496	21041.88
495.866	21246.84
496.235	21423.11
496.605	21739.94
496.974	21841.63
497.344	22075.3
497.713	22174.5
498.082	22502.85
498.452	22644.77
498.821	22760.02
499.19	22683.64
499.559	23019.68
499.928	23278.43
500.298	23449.04
500.667	23687.46
501.036	23686.1
501.405	23940.56
501.774	23939.65
502.143	24185.3
502.512	24313.88
502.88	24600.65
503.249	24690.37
503.618	24893.75
503.987	24990.92
504.356	25112.05
504.724	25282.44
505.093	25303.46
505.462	25542.1
505.83	25747.52
506.199	26120.61
506.567	26317.22
506.936	26337.78
507.304	26740.26
507.672	26724.66
508.041	26854.6
508.409	27210.53
508.777	27386.34
509.145	27658.65
509.514	27542.27
509.882	27857.97
510.25	28034.91
510.618	28147.23
510.986	28321.46
511.354	28593.09
511.722	28733.43
512.09	29018.84
512.458	29077.37
512.826	29297.93
513.193	29529.11
513.561	29652.05
513.929	29917.12
514.297	30185.59
514.664	30389.43
515.032	30553.49
515.4	30786.25
515.767	30816.31
516.135	31179.24
516.502	30992.57
516.869	31618.32
517.237	31686.12
517.604	31729.5
517.972	32081.81
518.339	32475.93
518.706	32501.24
519.073	32568.13
519.44	32890.6
519.808	33270.71
520.175	33229.58
520.542	33721.99
520.909	33898.94
521.276	33862.78
521.643	34362.88
522.009	34500.05
522.376	34629.54
522.743	35043.54
523.11	35431.55
523.477	35582.96
523.843	35866.57
524.21	36368.7
524.577	36458.19
524.943	36667.91
525.31	36879.43
525.676	37179.53
526.043	37261.34
526.409	37561.89
526.776	37994.88
527.142	38076
527.508	38394.41
527.874	38693.16
528.241	38912.37
528.607	38860.39
528.973	39266.93
529.339	39330.66
529.705	39836.86
530.071	40031.66
530.437	40190.53
530.803	40433.91
531.169	40599.78
531.535	40485.66
531.901	40767.46
532.267	41007.68
532.632	41324.05
532.998	41594.1
533.364	41688.11
533.73	41647.89
534.095	42156.35
534.461	42143.69
534.826	42446.96
535.192	42602.21
535.557	42871.36
535.923	42874.07
536.288	43045.14
536.653	43198.58
537.019	43306.38
537.384	43525.13
537.749	43581.17
538.114	43721.05
538.479	43774.16
538.845	43947.49
539.21	43891.44
539.575	44251.21
539.94	44295.95
540.305	44514.03
540.67	44553.12
541.034	44691.42
541.399	45033.79
541.764	45027.91
542.129	45234.69
542.494	45327.79
542.858	45409.15
543.223	45603.26
543.587	45879.19
543.952	45712.87
544.316	45899.98
544.681	45977.27
545.045	46058.39
545.41	46492.05
545.774	46329.57
546.138	46504.03
546.503	46646.17
546.867	46762.56
547.231	47081.87
547.595	47017.46
547.959	47226.5
548.324	47169.32
548.688	47364.35
549.052	47553.27
549.416	47707.84
549.779	47651.57
550.143	47831.23
550.507	48055.63
550.871	48018.12
551.235	48082.3
551.599	48379.01
551.962	48416.98
552.326	48625.11
552.689	48677.31
553.053	48747.59
553.417	48700.81
553.78	49146.22
554.143	49083.17
554.507	49399.1
554.87	49493.56
555.234	49937.16
555.597	49684.51
555.96	49896.94
556.323	50012.64
556.686	50051.51
557.05	50312.52
557.413	50512.51
557.776	50499.41
558.139	50782.56
558.502	50879.96
558.865	50944.37
559.228	51099.16
559.59	51298.03
559.953	51278.6
560.316	51655.31
560.679	51548.64
561.041	51787.51
561.404	51870.67
561.767	52084
562.129	52176.65
562.492	52407.38
562.854	52403.54
563.217	52445.12
563.579	52576.19
563.941	52888.95
564.304	52907.25
564.666	53208.26
565.028	53146.12
565.39	53259.79
565.753	53346.56
566.115	53443.74
566.477	53574.81
566.839	53713.33
567.201	53840.79
567.563	53987.45
567.925	54168.91
568.287	54054.12
568.648	54213.21
569.01	54363.03
569.372	54573.88
569.734	54537.72
570.095	54728.22
570.457	54849.12
570.819	54852.51
571.18	54891.83
571.542	54950.82
571.903	54951.49
572.265	55109.91
572.626	55274.87
572.987	55300.86
573.349	55380.41
573.71	55513.29
574.071	55519.39
574.432	55612.72
574.794	55822.66
575.155	55812.71
575.516	55759.61
575.877	55933.61
576.238	55917.34
576.599	56045.02
576.96	56013.84
577.32	56010.9
577.681	56148.3
578.042	56160.95
578.403	56136.55
578.763	56228.07
579.124	56302.42
579.485	56336.77
579.845	56358.46
580.206	56280.5
580.566	56296.99
580.927	56381.96
581.287	56608.17
581.648	56462.64
582.008	56548.97
582.368	56491.79
582.728	56558
583.089	56485.46
583.449	56551.45
583.809	56429.19
584.169	56486.59
584.529	56451.34
584.889	56660.6
585.249	56502.64
585.609	56369.99
585.969	56533.15
586.329	56499.47
586.688	56581.96
587.048	56508.51
587.408	56504.45
587.768	56561.62
588.127	56580.15
588.487	56536.99
588.846	56675.74
589.206	56533.82
589.565	56469.42
589.925	56645.69
590.284	56581.96
590.643	56702.86
591.003	56690.88
591.362	56725.46
591.721	56592.13
592.08	56575.18
592.44	56647.49
592.799	56612.47
593.158	56646.14
593.517	56637.32
593.876	56624.67
594.235	56617.44
594.593	56697.89
594.952	56734.27
595.311	56509.87
595.67	56585.35
596.029	56883.87
596.387	56792.35
596.746	56822.86
597.104	56653.37
597.463	56707.15
597.822	56819.69
598.18	56806.13
598.538	56689.98
598.897	56894.49
599.255	56636.19
599.613	56946.92
599.972	56783.76
600.33	56867.15
600.688	56763.87
601.046	56816.3
601.404	56985.11
601.762	56854.72
602.12	57028.5
602.478	57025.56
602.836	57089.06
603.194	56937.88
603.552	56992.57
603.91	56903.08
604.268	57047.26
604.625	56981.5
604.983	57127.25
605.341	56982.4
605.698	57126.8
606.056	57106.01
606.413	57078.44
606.771	57146.46
607.128	57189.63
607.485	57121.15
607.843	57152.57
608.2	57242.05
608.557	57217.2
608.914	57258.32
609.272	57325.67
609.629	57313.92
609.986	57447.02
610.343	57331.32
610.7	57508.04
611.057	57494.02
611.414	57398.43
611.771	57434.82
612.127	57472.1
612.484	57441.15
612.841	57642.95
613.198	57549.62
613.554	57522.05
613.911	57701.7
614.267	57621.93
614.624	57545.55
614.98	57646.11
615.337	57836.61
615.693	57705.54
616.05	57603.63
616.406	57810.4
616.762	57719.33
617.118	57741.93
617.475	57698.99
617.831	57726.34
618.187	57771.08
618.543	57803.62
618.899	57925.88
619.255	57845.2
619.611	57783.06
619.967	57828.48
620.323	57867.35
620.678	57801.36
621.034	57669.39
621.39	57740.57
621.746	57747.35
622.101	57923.62
622.457	57785.32
622.812	57873.9
623.168	57864.41
623.523	57871.64
623.879	57876.16
624.234	57668.26
624.589	57740.35
624.945	57794.36
625.3	57763.85
625.655	57687.47
626.01	57709.61
626.365	57729.05
626.72	57743.51
627.075	57697.18
627.43	57676.62
627.785	57696.96
628.14	57684.08
628.495	57715.04
628.85	57681.36
629.205	57625.09
629.559	57691.53
629.914	57537.87
630.269	57489.28
630.623	57396.63
630.978	57390.3
631.332	57565.21
631.687	57555.27
632.041	57394.82
632.396	57404.54
632.75	57210.42
633.104	57268.49
633.459	57190.53
633.813	57191.21
634.167	57066.24
634.521	57130.42
634.875	57141.49
635.229	57109.63
635.583	56989.86
635.937	56950.54
636.291	57012.91
636.645	56991.89
636.999	56858.11
637.352	56874.15
637.706	56732.01
638.06	56803.42
638.413	56732.46
638.767	56711.22
639.121	56789.64
639.474	56551.45
639.828	56588.06
640.181	56558.46
640.534	56539.25
640.888	56398.46
641.241	56332.47
641.594	56361.85
641.947	56395.3
642.301	56278.01
642.654	56217.45
643.007	56270.33
643.36	56134.29
643.713	56134.96
644.066	56237.33
644.419	56030.56
644.771	55879.6
645.124	55672.38
645.477	55560.29
645.83	55465.83
646.182	55286.17
646.535	55184.26
646.888	55291.15
647.24	55021.77
647.593	55110.81
647.945	55040.3
648.298	54951.94
648.65	54868.56
649.002	54755.79
649.355	54906.07
649.707	54805.06
650.059	54944.49
650.411	55320.07
650.763	55250.02
651.115	55506.51
651.467	55353.52
651.819	55311.71
652.171	55243.69
652.523	55203.24
652.875	55204.14
653.227	55057.03
653.578	55291.6
653.93	55156.91
654.282	55140.41
654.633	54954.88
654.985	54975
655.337	54896.58
655.688	54947.43
656.039	54986.52
656.391	54711.5
656.742	54778.16
657.094	54833.3
657.445	54940.87
657.796	54774.1
658.147	54673.08
658.498	54715.34
658.849	54744.27
659.2	54693.87
659.551	54572.07
659.902	54680.54
660.253	54591.95
660.604	54610.26
660.955	54420.89
661.306	54520.54
661.656	54348.34
662.007	54408.91
662.358	54438.06
662.708	54437.38
663.059	54379.98
663.409	54135.92
663.76	54356.48
664.11	54262.02
664.461	54312.19
664.811	54372.98
665.161	54251.17
665.511	54133.89
665.862	54158.52
666.212	54248.69
666.562	54236.03
666.912	54136.15
667.262	54202.13
667.612	54111.74
667.962	54188.35
668.312	54063.15
668.662	54239.87
669.011	54081.91
669.361	54021.57
669.711	53989.03
670.06	53989.48
670.41	53822.94
670.76	53781.35
671.109	53881.92
671.459	53728.93
671.808	53703.16
672.157	53800.34
672.507	53598.08
672.856	53619.1
673.205	53595.82
673.554	53655.03
673.904	53460.23
674.253	53683.28
674.602	53522.15
674.951	53171.65
675.3	52990.87
675.649	53351.76
675.998	53273.12
676.346	53394.7
676.695	53433.57
677.044	53196.96
677.393	53167.59
677.741	53260.01
678.09	53155.61
678.438	53111.77
678.787	53141.82
679.135	53212.33
679.484	53032.9
679.832	52993.35
680.181	52825.22
680.529	52836.29
680.877	52737.99
681.225	52742.29
681.573	52889.85
681.922	52641.27
682.27	52487.83
682.618	52521.05
682.966	52479.24
683.314	52487.38
683.661	52362.86
684.009	52158.12
684.357	52139.36
684.705	52109.76
685.053	52126.93
685.4	52057.56
685.748	51867.51
686.095	51853.04
686.443	51712.48
686.79	51711.58
687.138	51740.96
687.485	51657.79
687.832	51425.94
688.18	51557.23
688.527	51330.8
688.874	51245.6
689.221	51145.27
689.568	51087.19
689.915	51063.23
690.262	50967.87
690.609	50927.87
690.956	50878.38
691.303	50691.72
691.65	50564.49
691.997	50521.33
692.344	50333.31
692.69	50241.56
693.037	50241.56
693.383	50018.74
693.73	50130.83
694.077	49839.99
694.423	49759.77
694.769	49656.26
695.116	49419.44
695.462	49457.85
695.808	49249.27
696.155	49364.52
696.501	49127.01
696.847	49106.9
697.193	48821.03
697.539	48991.2
697.885	48765.67
698.231	48366.13
698.577	48406.58
698.923	48387.15
699.269	48136.3
699.614	48084.78
699.96	48032.8
700.306	47953.48
700.651	47713.27
700.997	47731.8
701.342	47669.88
701.688	47489.77
702.033	47349.88
702.379	47448.41
702.724	47265.59
703.069	47441.63
703.415	46997.13
703.76	46954.64
704.105	46843.23
704.45	46602.33
704.795	46516.23
705.14	46371.61
705.485	46327.99
705.83	46107.66
706.175	46261.33
706.52	46093.19
706.865	45882.58
707.209	45984.5
707.554	45863.37
707.899	45768.68
708.243	45575.47
708.588	45574.11
708.932	45197.85
709.277	45113.33
709.621	45083.73
709.966	45035.37
710.31	45112.2
710.654	44862.72
710.998	44881.93
711.342	44812.55
711.687	44522.84
712.031	44210.31
712.375	44109.74
712.719	44303.86
713.063	44131.89
713.407	44122.85
713.75	43954.72
714.094	43822.52
714.438	43705.69
714.782	43724.44
715.125	43446.94
715.469	43511.79
715.812	43265.02
716.156	42939.61
716.499	43187.73
716.843	42987.74
717.186	42803.11
717.53	43003.11
717.873	42923.56
718.216	42917.91
718.559	42615.77
718.902	42360.64
719.246	42427.08
719.589	42384.59
719.932	42220.08
720.275	42107.76
720.617	41977.14
720.96	42069.12
721.303	41949.12
721.646	41881.33
721.989	41705.29
722.331	41715.46
722.674	41583.26
723.016	41642.92
723.359	41694.67
723.701	41652.18
724.044	41294
724.386	41012.65
724.729	41248.8
725.071	41186.66
725.413	41021.01
725.755	40935.14
726.097	40752.09
726.439	40406.56
726.782	40479.11
727.124	40740.12
727.465	40478.65
727.807	40330.18
728.149	40360.01
728.491	40169.96
728.833	40152.79
729.175	40193.01
729.516	40127.48
729.858	39969.74
730.199	39977.65
730.541	39914.15
730.882	39840.48
731.224	39828.05
731.565	39548.06
731.906	39533.14
732.248	39566.81
732.589	39282.98
732.93	39118.91
733.271	39251.11
733.612	39166.37
733.953	39062.87
734.294	38917.56
734.635	38864.01
734.976	38749.21
735.317	38704.91
735.658	38706.5
735.999	38581.3
736.339	38624.46
736.68	38639.38
737.021	38491.36
737.361	38212.5
737.702	38434.64
738.042	38221.99
738.383	38157.81
738.723	38108.55
739.063	37978.83
739.404	37953.97
739.744	37893.86
740.084	37852.96
740.424	37806.41
740.764	37605.28
741.104	37790.36
741.444	37547.66
741.784	37488
742.124	37412.52
742.464	37281.9
742.804	37259.08
743.143	37334.56
743.483	37153.32
743.823	36964.62
744.162	36955.36
744.502	36965.98
744.841	36844.17
745.181	36860.67
745.52	36702.03
745.86	36587.23
746.199	36481.7
746.538	36370.29
746.877	36466.56
747.216	36580.9
747.556	36449.61
747.895	36512.88
748.234	36208.26
748.573	36228.6
748.911	36239.89
749.25	36122.38
749.589	35909.28
749.928	35868.6
750.267	35907.7
750.605	35621.61
750.944	35450.31
751.283	35493.25
751.621	35643.07
751.96	35352.23
752.298	35287.15
752.636	35284.89
752.975	35105.24
753.313	35064.33
753.651	35089.19
753.989	34862.08
754.327	34744.11
754.666	34515.65
755.004	34510.67
755.342	34526.04
755.679	34541.41
756.017	34455.76
756.355	34345.48
756.693	34254.18
757.031	34225.94
757.368	34017.13
757.706	33978.03
758.044	33947.98
758.381	33787.98
758.719	33606.97
759.056	33646.97
759.394	33507.54
759.731	33292.4
760.068	33247.88
760.405	33181.44
760.743	33040.66
761.08	33037.49
761.417	32790.72
761.754	32741.23
762.091	32698.07
762.428	32574
762.765	32405.87
763.102	32480.67
763.438	32249.94
763.775	32258.98
764.112	32139.21
764.449	32224.18
764.785	32093.56
765.122	31750.75
765.458	31585.33
765.795	31600.24
766.131	31479.12
766.467	31289.74
766.804	31211.78
767.14	31028.96
767.476	30964.33
767.812	30875.06
768.148	30875.29
768.485	30663.09
768.821	30421.29
769.157	30372.93
769.492	30211.35
769.828	30273.5
770.164	30023.79
770.5	29995.76
770.836	29883.68
771.171	29730.46
771.507	29537.7
771.842	29452.05
772.178	29514.87
772.513	29371.83
772.849	29331.6
773.184	28986.75
773.519	29033.53
773.855	28843.25
774.19	28702.92
774.525	28633.99
774.86	28408.91
775.195	28426.09
775.53	28382.7
775.865	28171.86
776.2	28078.08
776.535	27915.59
776.87	27780.91
777.205	27688.03
777.539	27634.47
777.874	27633.79
778.209	27322.61
778.543	27294.82
778.878	27166.69
779.212	27102.28
779.547	26989.29
779.881	26937.77
780.215	26698.45
780.55	26755.4
780.884	26586.82
781.218	26586.36
781.552	26393.6
781.886	26376.88
782.22	26153.61
782.554	26019.6
782.888	25822.77
783.222	25709.1
783.556	25681.75
783.889	25699.61
784.223	25518.14
784.557	25432.27
784.89	25538.93
785.224	25366.51
785.557	25162.67
785.891	24981.89
786.224	25055.56
786.558	24887.42
786.891	24831.16
787.224	24648.79
787.557	24542.58
787.891	24463.93
788.224	24571.05
788.557	24419.41
788.89	24368.12
789.223	24258.29
789.556	24017.84
789.888	23931.52
790.221	23864.4
790.554	23800.9
790.887	23824.4
791.219	23707.79
791.552	23669.38
791.884	23376.73
792.217	23397.75
792.549	23284.75
792.882	23105.78
793.214	22918.21
793.546	23190.52
793.879	22868.72
794.211	22765.9
794.543	22819
794.875	22701.49
795.207	22703.53
795.539	22565.45
795.871	22510.54
796.203	22353.93
796.535	22304.67
796.867	22199.59
797.198	22150.1
797.53	22096.99
797.862	21874.4
798.193	21937.22
798.525	21704.23
798.856	21726.6
799.188	21541.98
799.519	21404.35
799.85	21304.02
800.182	21395.99
800.513	21328.42
800.844	21173.17
801.175	21267.63
801.506	21224.02
801.837	21043.23
802.168	20951.93
802.499	20946.06
802.83	20785.16
803.161	20762.79
803.491	20737.93
803.822	20719.62
804.153	20536.13
804.483	20449.35
804.814	20365.96
805.145	20222.69
805.475	20254.55
805.805	20192.18
806.136	20150.15
806.466	20148.11
806.796	20151.73
807.126	19949.48
807.457	19874.9
807.787	19815.69
808.117	19793.32
808.447	19674.68
808.777	19767.79
809.107	19582.25
809.436	19547
809.766	19624.96
810.096	19503.39
810.426	19451.64
810.755	19403.73
811.085	19239.89
811.414	19227.46
811.744	18977.98
812.073	19111.76
812.403	19003.74
812.732	18861.14
813.061	18950.41
813.39	18812.56
813.719	18701.82
814.049	18947.24
814.378	18868.37
814.707	18599.68
815.036	18740.24
815.365	18540.02
815.693	18354.94
816.022	18403.75
816.351	18365.34
816.68	18199.24
817.008	18293.47
817.337	18079.47
817.665	17947.27
817.994	18115.63
818.322	18048.06
818.651	17919.7
818.979	17906.14
819.307	18004.44
819.636	17910.21
819.964	17787.5
820.292	17867.72
820.62	17875.41
820.948	17773.04
821.276	17854.62
821.604	17689.87
821.932	17789.53
822.259	17766.93
822.587	17642.42
822.915	17719.7
823.243	17818.68
823.57	17617.56
823.898	17635.19
824.225	17506.15
824.553	17583.66
824.88	17562.42
825.207	17516.77
825.535	17633.83
825.862	17634.96
826.189	17541.18
826.516	17636.09
826.843	17676.54
827.17	17719.7
827.497	17615.75
827.824	17664.34
828.151	17636.32
828.478	17579.82
828.805	17639.71
829.131	17610.78
829.458	17591.57
829.785	17530.56
830.111	17547.5
830.438	17556.09
830.764	17608.75
831.09	17488.07
831.417	17392.48
831.743	17455.53
832.069	17493.04
832.395	17392.03
832.722	17464.57
833.048	17401.97
833.374	17486.26
833.7	17448.75
834.026	17370.11
834.351	17383.22
834.677	17287.4
835.003	17313.61
835.329	17374.4
835.654	17255.08
835.98	17239.72
836.306	17182.32
836.631	17208.76
836.956	17190
837.282	17242.65
837.607	17080.62
837.932	17125.14
838.258	17054.41
838.583	17043.34
838.908	17011.25
839.233	16934.87
839.558	16882.89
839.883	16799.28
840.208	16775.1
840.533	16809.9
840.858	16795.66
841.182	16772.84
841.507	16837.24
841.832	16701.2
842.156	16761.76
842.481	16718.15
842.805	16653.52
843.13	16548.66
843.454	16503.69
843.778	16373.3
844.103	16479.74
844.427	16453.3
844.751	16370.13
845.075	16341.21
845.399	16388.21
845.723	16229.12
846.047	16295.33
846.371	16155
846.695	16162.91
847.019	15947.32
847.343	15896.02
847.666	15753.2
847.99	15719.98
848.313	15627.78
848.637	15544.39
848.96	15559.08
849.284	15559.76
849.607	15352.31
849.931	15363.16
850.254	15284.06
850.577	15189.15
850.9	15094.91
851.223	15089.72
851.546	15046.33
851.869	14989.61
852.192	15127.68
852.515	14965.2
852.838	14807.46
853.161	14833.9
853.483	14718.43
853.806	14828.93
854.129	14793
854.451	14633.01
854.774	14509.84
855.096	14487.92
855.419	14387.81
855.741	14384.88
856.063	14321.15
856.385	14301.49
856.708	14264.2
857.03	14195.28
857.352	14210.87
857.674	14202.28
857.996	14138.78
858.318	14096.07
858.64	14040.48
858.961	13953.7
859.283	13903.98
859.605	13864.89
859.926	13941.05
860.248	13879.13
860.57	13819.47
860.891	13859.01
861.212	13782.63
861.534	13678
861.855	13715.52
862.176	13734.95
862.498	13768.17
862.819	13647.49
863.14	13632.35
863.461	13528.4
863.782	13497.67
864.103	13613.6
864.424	13479.36
864.745	13464.22
865.065	13381.06
865.386	13398.24
865.707	13391.46
866.027	13415.18
866.348	13433.94
866.668	13409.76
866.989	13333.6
867.309	13314.17
867.63	13284.11
867.95	13254.28
868.27	13205.92
868.59	13277.56
868.91	13235.75
869.23	13139.49
869.55	13167.05
869.87	13191.01
870.19	13167.28
870.51	13128.64
870.83	13069.88
871.15	12980.85
871.469	13002.54
871.789	13049.32
872.109	12998.92
872.428	13008.42
872.748	13015.42
873.067	12961.41
873.386	12985.59
873.706	12939.26
874.025	12836.67
874.344	12847.74
874.663	12825.14
874.982	12821.3
875.301	12785.14
875.62	12762.55
875.939	12791.25
876.258	12847.29
876.577	12763.9
876.896	12694.98
877.214	12746.28
877.533	12753.73
877.852	12756.44
878.17	12803.67
878.489	12763.22
878.807	12680.29
879.125	12690.46
879.444	12570.23
879.762	12582.89
880.08	12477.58
880.398	12407.75
880.716	12530.24
881.034	12501.54
881.352	12445.94
881.67	12404.14
881.988	12436.45
882.306	12351.26
882.624	12339.51
882.941	12280.3
883.259	12244.59
883.577	12125.95
883.894	12210.02
884.212	12254.54
884.529	12205.72
884.846	12117.82
885.164	12079.85
885.481	12076.24
885.798	12078.27
886.115	12000.53
886.432	12076.24
886.75	11982
887.067	12001.66
887.383	12004.6
887.7	11986.97
888.017	11883.25
888.334	11902.91
888.651	11847.54
888.967	11867.88
889.284	11910.14
889.6	11751.72
889.917	11670.6
890.233	11825.85
890.55	11723.03
890.866	11711.73
891.182	11703.82
891.498	11611.39
891.815	11584.95
892.131	11529.58
892.447	11454.56
892.763	11403.03
893.079	11436.03
893.395	11371.62
893.71	11306.99
894.026	11328.01
894.342	11210.04
894.657	11200.33
894.973	11220.67
895.289	11160.1
895.604	11257.5
895.92	11118.52
896.235	11057.51
896.55	11088.24
896.865	11043.72
897.181	10988.13
897.496	10958.75
897.811	10945.42
898.126	10889.37
898.441	10815.7
898.756	10853.9
899.071	10832.2
899.386	10765.08
899.7	10664.97
900.015	10642.6
900.33	10594.47
900.644	10632.88
900.959	10641.25
901.273	10539.33
901.588	10510.63
901.902	10412.78
902.216	10423.62
902.531	10379.33
902.845	10375.04
903.159	10368.26
903.473	10353.12
903.787	10273.12
904.101	10166.91
904.415	10153.8
904.729	10118.1
905.042	10057.08
905.356	10075.16
905.67	10018.21
905.984	9969.85
906.297	9963.3
906.611	9825
906.924	9845.56
907.237	9850.08
907.551	9777.54
907.864	9710.2
908.177	9709.29
908.491	9717.2
908.804	9643.98
909.117	9596.75
909.43	9582.06
909.743	9492.12
910.056	9497.09
910.368	9513.14
910.681	9375.97
910.994	9389.08
911.307	9395.63
911.619	9331.45
911.932	9343.2
912.244	9293.48
912.557	9251.9
912.869	9212.13
913.181	9139.59
913.494	9168.52
913.806	9111.34
914.118	9125.58
914.43	8937.34
914.742	9004.9
915.054	8956.09
915.366	8883.33
915.678	8854.4
915.99	8770.56
916.302	8761.52
916.613	8772.37
916.925	8710.67
917.236	8679.49
917.548	8646.27
917.859	8661.18
918.171	8536.89
918.482	8466.61
918.794	8514.07
919.105	8468.65
919.416	8419.38
919.727	8355.2
920.038	8346.84
920.349	8294.87
920.66	8275.66
920.971	8185.27
921.282	8218.48
921.593	8145.72
921.903	8132.84
922.214	8096.45
922.525	8080.86
922.835	8018.26
923.146	8033.63
923.456	7957.7
923.767	7947.76
924.077	7973.97
924.387	7944.37
924.697	7945.5
925.008	7889.45
925.318	7885.39
925.628	7802.68
925.938	7767.65
926.248	7724.03
926.558	7666.18
926.867	7606.07
927.177	7576.69
927.487	7511.38
927.796	7501.67
928.106	7489.24
928.416	7507.99
928.725	7434.1
929.034	7400.2
929.344	7392.74
929.653	7376.92
929.962	7318.85
930.271	7342.58
930.581	7253.31
930.89	7223.93
931.199	7182.13
931.508	7176.93
931.817	7123.6
932.125	7126.54
932.434	7082.02
932.743	6958.4
933.051	7014.67
933.36	6913.89
933.669	6913.66
933.977	6931.51
934.286	6883.38
934.594	6862.81
934.902	6765.42
935.21	6777.17
935.519	6773.55
935.827	6738.98
936.135	6722.7
936.443	6615.36
936.751	6607
937.059	6612.43
937.367	6572.43
937.674	6569.94
937.982	6582.14
938.29	6485.87
938.597	6500.34
938.905	6442.49
939.213	6364.3
939.52	6436.84
939.827	6360.91
940.135	6345.77
940.442	6288.37
940.749	6253.56
941.056	6314.35
941.363	6281.36
941.67	6234.36
941.977	6209.72
942.284	6153.45
942.591	6105.09
942.898	6089.27
943.205	6061.03
943.511	6023.06
943.818	6060.58
944.125	5971.99
944.431	5975.61
944.738	6003.63
945.044	5892.67
945.35	5936.28
945.657	5881.14
945.963	5888.38
946.269	5827.59
946.575	5873.69
946.881	5762.28
947.187	5801.37
947.493	5687.48
947.799	5702.84
948.105	5666.69
948.41	5581.72
948.716	5640.02
949.022	5542.17
949.327	5592.79
949.633	5475.05
949.938	5529.29
950.244	5584.43
950.549	5451.1
950.854	5467.6
951.16	5419.24
951.465	5410.65
951.77	5347.6
952.075	5337.43
952.38	5363.19
952.685	5301.05
952.99	5289.75
953.294	5263.08
953.599	5222.18
953.904	5182.41
954.209	5194.61
954.513	5184.44
954.818	5132.24
955.122	5093.37
955.426	5143.54
955.731	5082.75
956.035	5035.74
956.339	5011.11
956.643	4993.26
956.948	5029.87
957.252	4955.07
957.556	4961.62
957.86	4987.83
958.163	4914.62
958.467	4908.29
958.771	4846.14
959.075	4847.05
959.378	4781.96
959.682	4833.26
959.985	4831
960.289	4764.11
960.592	4717.56
960.896	4687.28
961.199	4720.27
961.502	4703.32
961.805	4667.17
962.108	4651.57
962.411	4667.84
962.714	4544
963.017	4583.1
963.32	4585.36
963.623	4554.17
963.926	4551.46
964.228	4503.1
964.531	4460.62
964.833	4466.27
965.136	4449.32
965.438	4419.26
965.741	4370.45
966.043	4365.48
966.345	4355.54
966.648	4334.29
966.95	4337.91
967.252	4282.54
967.554	4290.23
967.856	4312.82
968.158	4242.54
968.46	4252.49
968.761	4248.19
969.063	4175.2
969.365	4209.55
969.666	4186.5
969.968	4161.19
970.269	4140.4
970.571	4099.95
970.872	4108.08
971.174	4027.63
971.475	4090.68
971.776	4037.58
972.077	4041.42
972.378	4038.48
972.679	3984.92
972.98	4029.44
973.281	3986.51
973.582	3940.86
973.883	3906.28
974.183	3894.98
974.484	3860.63
974.785	3829.45
975.085	3848.88
975.386	3834.19
975.686	3811.14
975.986	3775.44
976.287	3744.48
976.587	3737.02
976.887	3727.53
977.187	3762.1
977.487	3708.77
977.787	3664.93
978.087	3654.08
978.387	3623.58
978.687	3665.84
978.987	3630.58
979.286	3597.59
979.586	3562.34
979.885	3553.07
980.185	3569.12
980.484	3546.06
980.784	3526.63
981.083	3531.6
981.382	3519.17
981.682	3471.72
981.981	3430.36
982.28	3434.88
982.579	3395.11
982.878	3405.05
983.177	3387.2
983.475	3389.01
983.774	3370.93
984.073	3346.3
984.372	3352.17
984.67	3313.53
984.969	3337.71
985.267	3344.71
985.566	3313.08
985.864	3257.26
986.162	3289.12
986.461	3259.52
986.759	3211.84
987.057	3187.43
987.355	3175.91
987.653	3213.19
987.951	3170.48
988.249	3154.21
988.547	3178.39
988.844	3114.89
989.142	3132.97
989.44	3112.4
989.737	3094.1
990.035	3077.38
990.332	3050.71
990.63	2996.47
990.927	3039.86
991.224	3017.04
991.521	3015.23
991.819	3005.51
992.116	2971.39
992.413	2937.04
992.71	2895.91
993.006	2910.15
993.303	2931.84
993.6	2879.64
993.897	2841.22
994.193	2849.36
994.49	2859.53
994.787	2788.34
995.083	2801.9
995.379	2788.34
995.676	2781.57
995.972	2785.18
996.268	2758.97
996.565	2711.96
996.861	2714
997.157	2728.69
997.453	2687.1
997.749	2676.48
998.044	2693.21
998.34	2611.63
998.636	2643.72
998.932	2629.7
999.227	2596.03
999.523	2619.54
999.818	2607.33
1000.114	2581.34
1000.409	2562.59
1000.704	2576.15
1001	2531.85
1001.295	2509.48
1001.59	2505.41
1001.885	2505.19
1002.18	2463.83
1002.475	2475.58
1002.77	2483.72
1003.065	2437.17
1003.359	2478.52
1003.654	2461.57
1003.949	2424.51
1004.243	2389.26
1004.538	2398.52
1004.832	2403.27
1005.127	2376.38
1005.421	2365.98
1005.715	2321.69
1006.009	2315.81
1006.304	2311.75
1006.598	2296.38
1006.892	2260.45
1007.186	2276.27
1007.48	2271.52
1007.773	2258.87
1008.067	2268.36
1008.361	2205.76
1008.655	2213.44
1008.948	2222.03
1009.242	2186.1
1009.535	2180.45
1009.829	2144.07
1010.122	2158.3
1010.415	2150.17
1010.708	2093.45
1011.001	2069.95
1011.295	2107.68
1011.588	2071.3
1011.881	2051.64
1012.173	2076.27
1012.466	2042.15
1012.759	1999.66
1013.052	2012.77
1013.344	1994.92
1013.637	1974.13
1013.93	1999.21
1014.222	1979.55
1014.514	1960.12
1014.807	1965.99
1015.099	1944.3
1015.391	1938.88
1015.683	1933
1015.976	1911.98
1016.268	1898.2
1016.56	1871.98
1016.851	1871.31
1017.143	1855.04
1017.435	1834.02
1017.727	1828.82
1018.018	1797.18
1018.31	1837.64
1018.602	1794.7
1018.893	1781.59
1019.185	1748.82
1019.476	1751.76
1019.767	1749.95
1020.058	1739.11
1020.35	1755.15
1020.641	1727.13
1020.932	1700.92
1021.223	1686.23
1021.514	1665.21
1021.804	1652.56
1022.095	1653.46
1022.386	1639.22
1022.677	1594.7
1022.967	1631.31
1023.258	1607.81
1023.548	1587.7
1023.839	1587.02
1024.129	1554.48
1024.419	1574.82
1024.709	1587.47
1025	1545.21
1025.29	1551.54
1025.58	1529.85
1025.87	1508.38
1026.16	1507.93
1026.449	1490.07
1026.739	1490.07
1027.029	1497.31
1027.319	1456.63
1027.608	1452.56
1027.898	1432.9
1028.187	1430.19
1028.477	1408.27
1028.766	1432.67
1029.055	1358.33
1029.344	1394.03
1029.634	1377.08
1029.923	1368.95
1030.212	1376.86
1030.501	1382.73
1030.79	1345.44
1031.078	1328.04
1031.367	1352.68
1031.656	1335.95
1031.945	1307.93
1032.233	1300.25
1032.522	1273.58
1032.81	1341.15
1033.099	1278.1
1033.387	1267.25
1033.675	1274.26
1033.963	1276.97
1034.251	1221.15
1034.54	1255.5
1034.828	1217.76
1035.116	1209.86
1035.403	1169.4
1035.691	1205.79
1035.979	1187.48
1036.267	1176.41
1036.554	1204.21
1036.842	1154.72
1037.129	1166.69
1037.417	1136.86
1037.704	1131.21
1037.992	1144.55
1038.279	1110.87
1038.566	1129.63
1038.853	1129.63
1039.14	1129.63
