Data from foil_FLMS001491_004.txt Node
Date: Tue Feb 07 11:25:16 GMT 2017
User: dcchb
Spectrometer: FLMS00149
Trigger mode: 0
Integration Time (sec): 2.000000E-2
Scans to average: 10
Electric dark correction enabled: true
Nonlinearity correction enabled: false
Boxcar width: 0
XAxis mode: Wavelengths
Number of Pixels in Spectrum: 2048
>>>>>Begin Spectral Data<<<<<
341.393	-18.02
341.776	-18.02
342.16	-18.02
342.543	-72.03
342.927	-61.86
343.31	-73.84
343.693	-66.61
344.077	-69.32
344.46	-67.29
344.843	-64.57
345.226	-32.94
345.61	-32.49
345.993	-32.71
346.376	3.67
346.759	19.04
347.142	22.43
347.525	57.91
347.908	48.87
348.291	73.27
348.674	91.13
349.057	123.44
349.44	148.98
349.823	145.14
350.206	201.18
350.588	264.68
350.971	297
351.354	320.95
351.737	315.98
352.119	341.06
352.502	361.63
352.884	383.32
353.267	351.69
353.65	397.79
354.032	404.34
354.414	404.57
354.797	415.64
355.179	432.81
355.562	428.29
355.944	431.91
356.326	430.1
356.709	456.09
357.091	438.92
357.473	458.58
357.855	461.97
358.238	464.68
358.62	470.33
359.002	447.73
359.384	470.33
359.766	451.34
360.148	443.89
360.53	459.25
360.912	482.08
361.294	477.11
361.676	466.94
362.057	467.61
362.439	459.71
362.821	488.41
363.203	456.09
363.584	481.17
363.966	492.25
364.348	468.52
364.729	467.61
365.111	472.81
365.493	493.6
365.874	485.69
366.256	486.15
366.637	474.39
367.019	504.68
367.4	478.24
367.781	482.76
368.163	525.01
368.544	507.61
368.925	512.59
369.306	530.44
369.688	518.46
370.069	517.78
370.45	527.27
370.831	517.56
371.212	515.75
371.593	523.43
371.974	530.21
372.355	539.25
372.736	557.78
373.117	551.23
373.498	546.26
373.879	536.54
374.26	534.51
374.641	535.18
375.021	566.82
375.402	580.61
375.783	583.09
376.163	612.92
376.544	617.22
376.925	585.58
377.305	589.65
377.686	606.37
378.066	591.91
378.447	612.92
378.827	623.99
379.208	627.16
379.588	638.68
379.968	639.14
380.349	639.36
380.729	645.69
381.109	661.51
381.489	670.32
381.87	688.85
382.25	669.64
382.63	706.7
383.01	678.46
383.39	704.44
383.77	704.44
384.15	726.14
384.53	718.91
384.91	741.05
385.29	744.44
385.67	758.91
386.049	781.73
386.429	756.42
386.809	790.09
387.189	796.19
387.568	813.82
387.948	793.48
388.328	835.74
388.707	827.38
389.087	819.92
389.466	823.09
389.846	858.79
390.225	854.27
390.605	863.54
390.984	869.19
391.363	877.55
391.743	902.41
392.122	943.99
392.501	917.55
392.881	952.12
393.26	958.9
393.639	952.35
394.018	979.92
394.397	1003.19
394.776	1011.1
395.155	1005.45
395.534	988.28
395.913	1030.76
396.292	1039.58
396.671	1075.73
397.05	1068.28
397.429	1081.61
397.808	1050.65
398.186	1093.36
398.565	1088.16
398.944	1123.19
399.323	1126.58
399.701	1115.51
400.08	1167.71
400.458	1187.82
400.837	1175.62
401.215	1180.82
401.594	1197.54
401.972	1200.7
402.351	1247.03
402.729	1267.59
403.107	1250.87
403.486	1265.11
403.864	1260.36
404.242	1317.08
404.62	1299.01
404.999	1332
405.377	1310.98
405.755	1390.08
406.133	1375.39
406.511	1413.35
406.889	1407.48
407.267	1444.99
407.645	1437.76
408.023	1497.42
408.401	1493.35
408.779	1518.21
409.156	1541.48
409.534	1557.3
409.912	1599.11
410.29	1597.3
410.667	1632.1
411.045	1652.22
411.422	1683.85
411.8	1678.88
412.178	1700.58
412.555	1745.1
412.933	1743.06
413.31	1775.38
413.687	1815.6
414.065	1814.7
414.442	1847.01
414.819	1902.83
415.197	1889.72
415.574	1944.64
415.951	1955.49
416.328	1971.76
416.705	1989.83
417.082	1986.22
417.46	1990.06
417.837	2019.44
418.214	2042.71
418.591	2049.72
418.967	2108.02
419.344	2142.37
419.721	2127.91
420.098	2148.25
420.475	2171.98
420.852	2183.05
421.228	2229.83
421.605	2230.96
421.982	2256.49
422.358	2315.93
422.735	2326.32
423.111	2347.34
423.488	2367.68
423.864	2419.2
424.241	2432.53
424.617	2497.62
424.994	2458.07
425.37	2509.6
425.746	2524.74
426.123	2551.85
426.499	2570.61
426.875	2592.3
427.251	2676.37
427.627	2674.34
428.003	2709.36
428.379	2754.11
428.756	2745.3
429.132	2858.96
429.507	2887.21
429.883	2955.01
430.259	2974.89
430.635	2973.54
431.011	3028.45
431.387	3119.75
431.763	3133.08
432.138	3140.31
432.514	3190.03
432.89	3230.25
433.265	3295.56
433.641	3340.53
434.016	3343.47
434.392	3402
434.767	3498.95
435.143	3488.33
435.518	3527.65
435.894	3564.26
436.269	3638.15
436.644	3670.24
437.02	3679.28
437.395	3688.32
437.77	3781.2
438.145	3800.86
438.52	3905.04
438.895	3905.72
439.271	3895.55
439.646	3996.34
440.021	4011.02
440.395	4074.07
440.77	4010.35
441.145	4095.54
441.52	4215.54
441.895	4195.88
442.27	4192.94
442.645	4242.66
443.019	4248.08
443.394	4244.01
443.769	4334.18
444.143	4320.39
444.518	4432.03
444.892	4432.93
445.267	4462.31
445.641	4469.77
446.016	4516.55
446.39	4564.68
446.764	4560.39
447.139	4567.62
447.513	4650.33
447.887	4702.53
448.262	4676.77
448.636	4739.59
449.01	4756.77
449.384	4856.65
449.758	4853.49
450.132	4964.45
450.506	4949.08
450.88	4977.33
451.254	4973.94
451.628	5129.64
452.002	5158.79
452.376	5198.34
452.75	5227.72
453.123	5260.94
453.497	5370.08
453.871	5394.26
454.244	5524.66
454.618	5527.59
454.992	5648.72
455.365	5650.3
455.739	5746.8
456.112	5801.94
456.486	5875.61
456.859	5914.03
457.232	6063.85
457.606	6025.89
457.979	6057.98
458.352	6202.38
458.725	6305.88
459.099	6275.37
459.472	6422.26
459.845	6494.8
460.218	6556.27
460.591	6620
460.964	6658.64
461.337	6826.77
461.71	6870.61
462.083	7030.83
462.456	6971.62
462.829	7029.02
463.201	7231.28
463.574	7180.21
463.947	7334.78
464.32	7492.51
464.692	7552.85
465.065	7581.1
465.438	7696.13
465.81	7845.73
466.183	7876.01
466.555	8057.7
466.928	8082.56
467.3	8116.23
467.672	8219.05
468.045	8473.73
468.417	8435.99
468.789	8523.22
469.161	8650.68
469.534	8726.15
469.906	8974.28
470.278	9074.62
470.65	9099.93
471.022	9315.97
471.394	9519.35
471.766	9524.78
472.138	9603.42
472.51	9872.57
472.882	9943.75
473.253	10101.71
473.625	10248.83
473.997	10479.1
474.369	10494.24
474.74	10581.7
475.112	10808.59
475.484	10983.72
475.855	11173.77
476.227	11348.01
476.598	11619.19
476.97	11697.6
477.341	11978.95
477.713	12113.41
478.084	12111.15
478.455	12540.52
478.827	12629.55
479.198	13039.49
479.569	13053.5
479.94	13384.79
480.311	13503.66
480.682	13806.25
481.053	14102.51
481.424	14232.45
481.795	14452.56
482.166	14630.63
482.537	14832.21
482.908	15166.21
483.279	15229.26
483.65	15500.44
484.021	15851.62
484.391	16017.71
484.762	16198.27
485.133	16354.2
485.503	16567.53
485.874	16987.18
486.244	17150.11
486.615	17433.27
486.985	17570.89
487.356	17974.5
487.726	18112.35
488.097	18442.28
488.467	18501.94
488.837	18888.6
489.207	19213.34
489.578	19397.96
489.948	19585.3
490.318	19862.59
490.688	19917.05
491.058	20231.16
491.428	20482.68
491.798	20565.84
492.168	21159.27
492.538	21225.71
492.908	21437.01
493.278	21680.62
493.648	21733.72
494.017	22056.43
494.387	22338.68
494.757	22476.75
495.126	22786.8
495.496	22742.74
495.866	22803.07
496.235	23134.59
496.605	23312.21
496.974	23447.12
497.344	23741.13
497.713	23743.61
498.082	24124.17
498.452	24276.48
498.821	24405.74
499.19	24466.53
499.559	24653.19
499.928	24866.3
500.298	25064.26
500.667	25268.77
501.036	25177.25
501.405	25563.68
501.774	25505.6
502.143	25837.12
502.512	25972.48
502.88	26296.99
503.249	26211.12
503.618	26557.78
503.987	26629.64
504.356	26869.41
504.724	26899.46
505.093	27082.51
505.462	27179.68
505.83	27382.84
506.199	27582.38
506.567	28079.77
506.936	28038.87
507.304	28323.38
507.672	28432.3
508.041	28647.21
508.409	28731.5
508.777	29034.55
509.145	29213.07
509.514	29329.23
509.882	29535.78
510.25	29559.73
510.618	29891.7
510.986	29977.8
511.354	30250.11
511.722	30436.54
512.09	30701.4
512.458	30685.35
512.826	31042.18
513.193	31255.51
513.561	31403.07
513.929	31542.73
514.297	31894.13
514.664	32106.33
515.032	32212.99
515.4	32450.28
515.767	32694.11
516.135	32832.41
516.502	32689.59
516.869	33456.35
517.237	33609.79
517.604	33513.75
517.972	33987.19
518.339	34283.22
518.706	34242.77
519.073	34340.62
519.44	34728.63
519.808	35129.08
520.175	35013.6
520.542	35511.21
520.909	35756.18
521.276	35850.19
521.643	36278.2
522.009	36403.17
522.376	36636.61
522.743	36907.33
523.11	37325.85
523.477	37598.16
523.843	37874.77
524.21	38100.3
524.577	38487.18
524.943	38648.98
525.31	38856.66
525.676	39215.3
526.043	39415.52
526.409	39608.73
526.776	39963.07
527.142	40130.75
527.508	40377.3
527.874	40655.03
528.241	40923.5
528.607	40979.77
528.973	41243.27
529.339	41432.41
529.705	41750.15
530.071	42303.58
530.437	42310.13
530.803	42659.5
531.169	42812.04
531.535	42896.56
531.901	43004.12
532.267	43279.37
532.632	43560.72
532.998	43631.68
533.364	43926.13
533.73	43943.53
534.095	44263.53
534.461	44397.76
534.826	44673.68
535.192	44898.76
535.557	45121.58
535.923	45172.88
536.288	45422.36
536.653	45698.97
537.019	45519.76
537.384	45734.67
537.749	45904.84
538.114	45916.36
538.479	45838.17
538.845	46064.61
539.21	46101.67
539.575	46411.04
539.94	46717.02
540.305	46836.11
540.67	46870.24
541.034	47064.58
541.399	47231.58
541.764	47267.29
542.129	47509.99
542.494	47576.66
542.858	47671.12
543.223	47817.1
543.587	48049.87
543.952	48002.86
544.316	48161.5
544.681	48195.85
545.045	48503.19
545.41	48739.79
545.774	48811.43
546.138	48697.99
546.503	48965.77
546.867	48997.64
547.231	49278.99
547.595	49381.81
547.959	49473.56
548.324	49532.99
548.688	49662.25
549.052	49923.94
549.416	50047.78
549.779	50057.95
550.143	50102.69
550.507	50414.55
550.871	50676.69
551.235	50487.77
551.599	50787.65
551.962	50834.65
552.326	50873.52
552.689	51189.9
553.053	51020.86
553.417	51109.67
553.78	51482.32
554.143	51543.79
554.507	51646.83
554.87	51773.84
555.234	52076.88
555.597	51936.77
555.96	52210.44
556.323	52311.22
556.686	52371.11
557.05	52565.45
557.413	52773.58
557.776	52823.07
558.139	52980.81
558.502	53099.23
558.865	53109.39
559.228	53336.73
559.59	53407.01
559.953	53518.2
560.316	53863.05
560.679	53811.3
561.041	54091.52
561.404	54141.91
561.767	54429.13
562.129	54294
562.492	54587.55
562.854	54642.91
563.217	54696.02
563.579	54810.82
563.941	54929.46
564.304	55139.85
564.666	55276.57
565.028	55289.9
565.39	55451.93
565.753	55568.99
566.115	55637.24
566.477	55750.46
566.839	55797.91
567.201	56112.48
567.563	56033.61
567.925	56270.22
568.287	56281.51
568.648	56403.09
569.01	56524.67
569.372	56651
569.734	56643.76
570.095	56815.51
570.457	57025.68
570.819	57017.99
571.18	56976.19
571.542	57164.43
571.903	57113.81
572.265	57217.76
572.626	57250.98
572.987	57320.58
573.349	57480.58
573.71	57592.44
574.071	57617.98
574.432	57718.76
574.794	57943.39
575.155	57853
575.516	57853
575.877	58000.11
576.238	58022.71
576.599	58042.82
576.96	58112.2
577.32	58132.77
577.681	58234.91
578.042	58238.07
578.403	58333.21
578.763	58266.77
579.124	58340.22
579.485	58460.21
579.845	58510.38
580.206	58446.43
580.566	58407.11
580.927	58422.93
581.287	58568.46
581.648	58493.43
582.008	58591.74
582.368	58480.55
582.728	58541.34
583.089	58559.65
583.449	58542.02
583.809	58536.82
584.169	58671.96
584.529	58626.99
584.889	58743.14
585.249	58608.68
585.609	58649.14
585.969	58801.22
586.329	58656.14
586.688	58737.04
587.048	58729.59
587.408	58610.27
587.768	58660.89
588.127	58632.87
588.487	58609.59
588.846	58751.05
589.206	58669.93
589.565	58648.23
589.925	58701.79
590.284	58600.1
590.643	58704.28
591.003	58815.01
591.362	58784.73
591.721	58712.86
592.08	58709.93
592.44	58784.73
592.799	58786.76
593.158	58757.16
593.517	58787.44
593.876	58802.58
594.235	58711.96
594.593	58850.49
594.952	58838.28
595.311	58748.79
595.67	58840.09
596.029	58986.3
596.387	58840.54
596.746	58877.15
597.104	58769.36
597.463	58810.71
597.822	58954.21
598.18	58819.3
598.538	58832.18
598.897	58980.65
599.255	58798.51
599.613	59144.49
599.972	58928.22
600.33	58938.85
600.688	58888.9
601.046	58977.49
601.404	59068.11
601.762	58979.52
602.12	59197.37
602.478	59132.96
602.836	59213.64
603.194	59074.66
603.552	59132.29
603.91	59004.15
604.268	59156.24
604.625	59064.49
604.983	59187.43
605.341	59035.11
605.698	59173.64
606.056	59308.78
606.413	59266.29
606.771	59258.16
607.128	59338.84
607.485	59168.44
607.843	59202.79
608.2	59334.54
608.557	59321.89
608.914	59235.79
609.272	59404.82
609.629	59452.05
609.986	59530.24
610.343	59403.24
610.7	59561.65
611.057	59530.69
611.414	59517.59
611.771	59576.8
612.127	59626.06
612.484	59655.66
612.841	59688.43
613.198	59595.1
613.554	59672.61
613.911	59761.65
614.267	59711.03
614.624	59731.59
614.98	59779.73
615.337	59910.35
615.693	59836.68
616.05	59829.44
616.406	59974.07
616.762	59863.57
617.118	59854.75
617.475	59897.92
617.831	59902.66
618.187	59904.02
618.543	59886.84
618.899	60047.07
619.255	59992.38
619.611	59913.96
619.967	59974.75
620.323	60123.67
620.678	59943.57
621.034	59941.98
621.39	59930.23
621.746	59884.36
622.101	60195.99
622.457	59929.78
622.812	59979.72
623.168	60001.42
623.523	59967.75
623.879	60024.01
624.234	59835.55
624.589	59968.2
624.945	59931.36
625.3	59957.35
625.655	59943.79
626.01	59933.62
626.365	59982.21
626.72	59932.94
627.075	59938.37
627.43	59874.41
627.785	59888.43
628.14	59974.98
628.495	59970.46
628.85	59871.93
629.205	59854.53
629.559	59988.76
629.914	59766.85
630.269	59817.47
630.623	59707.64
630.978	59713.29
631.332	59808.43
631.687	59831.48
632.041	59708.09
632.396	59687.3
632.75	59639.39
633.104	59675.78
633.459	59511.03
633.813	59470.81
634.167	59489.34
634.521	59477.14
634.875	59470.13
635.229	59382.9
635.583	59237.82
635.937	59281.89
636.291	59204.38
636.645	59263.58
636.999	59230.59
637.352	59247.76
637.706	58993.31
638.06	59117.82
638.413	59019.75
638.767	59019.07
639.121	58994.89
639.474	58898.17
639.828	58861.79
640.181	58816.36
640.534	58963.25
640.888	58782.24
641.241	58692.52
641.594	58682.58
641.947	58791.73
642.301	58584.96
642.654	58681.45
643.007	58647.55
643.36	58582.47
643.713	58587.89
644.066	58677.16
644.419	58401.46
644.771	58155.82
645.124	57825.65
645.477	57862.72
645.83	57681.25
646.182	57694.36
646.535	57685.09
646.888	57741.14
647.24	57651.65
647.593	57889.38
647.945	57826.56
648.298	57634.93
648.65	57641.25
649.002	57502.95
649.355	57533.23
649.707	57417.98
650.059	57414.37
650.411	57651.42
650.763	57612.33
651.115	58035.59
651.467	57950.85
651.819	57849.83
652.171	57763.06
652.523	57777.75
652.875	57700.46
653.227	57610.07
653.578	57783.62
653.93	57696.17
654.282	57617.75
654.633	57458.88
654.985	57577.75
655.337	57588.37
655.688	57548.6
656.039	57604.64
656.391	57397.19
656.742	57361.03
657.094	57389.06
657.445	57517.41
657.796	57365.1
658.147	57334.59
658.498	57309.06
658.849	57427.25
659.2	57272.67
659.551	57209.4
659.902	57305.89
660.253	57183.41
660.604	57227.93
660.955	57090.08
661.306	57214.15
661.656	57186.35
662.007	57180.7
662.358	57087.37
662.708	57096.63
663.059	57029.74
663.409	56858.67
663.76	57063.41
664.11	57005.34
664.461	57103.41
664.811	57099.8
665.161	57043.75
665.511	56887.37
665.862	56921.5
666.212	57022.06
666.562	56949.07
666.912	56895.51
667.262	56836.08
667.612	56839.69
667.962	56862.29
668.312	56739.13
668.662	56855.06
669.011	56786.13
669.361	56725.57
669.711	56793.59
670.06	56609.19
670.41	56507.5
670.76	56566.93
671.109	56655.97
671.459	56598.79
671.808	56604.44
672.157	56628.17
672.507	56390.44
672.856	56359.48
673.205	56412.36
673.554	56531.45
673.904	56368.52
674.253	56589.75
674.602	56400.83
674.951	56055.53
675.3	55896.21
675.649	56296.88
675.998	56192.03
676.346	56379.37
676.695	56360.61
677.044	56092.82
677.393	56164.23
677.741	56150.44
678.09	56055.98
678.438	56012.6
678.787	56174.4
679.135	56056.66
679.484	55884.46
679.832	56019.37
680.181	55745.26
680.529	55882.65
680.877	55663.68
681.225	55621.87
681.573	55765.14
681.922	55592.72
682.27	55539.16
682.618	55606.73
682.966	55463.46
683.314	55539.61
683.661	55447.41
684.009	55296.91
684.357	55248.55
684.705	55209
685.053	55245.84
685.4	55173.97
685.748	55006.97
686.095	54991.15
686.443	54878.84
686.79	54880.87
687.138	54956.8
687.485	54822.8
687.832	54817.82
688.18	54672.29
688.527	54537.15
688.874	54562.92
689.221	54500.09
689.568	54446.76
689.915	54381.68
690.262	54347.1
690.609	54215.81
690.956	54110.5
691.303	54053.32
691.65	53993.21
691.997	53933.78
692.344	53708.02
692.69	53658.08
693.037	53726.78
693.383	53426.22
693.73	53455.37
694.077	53359.78
694.423	53261.71
694.769	53123.41
695.116	53148.72
695.462	52975.84
695.808	52870.08
696.155	52972.9
696.501	52717.54
696.847	52740.14
697.193	52598.22
697.539	52688.61
697.885	52465.57
698.231	52279.59
698.577	52448.17
698.923	52362.3
699.269	52136.99
699.614	52023.32
699.96	51868.3
700.306	51863.55
700.651	51770.22
700.997	51683.22
701.342	51520.96
701.688	51579.49
702.033	51414.98
702.379	51373.17
702.724	51298.82
703.069	51369.1
703.415	50880.07
703.76	50879.4
704.105	50876.46
704.45	50729.12
704.795	50551.72
705.14	50501.55
705.485	50414.55
705.83	50262.92
706.175	50356.47
706.52	50293.88
706.865	50115.8
707.209	50055.01
707.554	49875.58
707.899	50008.01
708.243	49841.23
708.588	49711.74
708.932	49434.01
709.277	49454.35
709.621	49412.99
709.966	49131.65
710.31	49458.42
710.654	49087.58
710.998	49002.38
711.342	49051.65
711.687	48784.54
712.031	48693.24
712.375	48618.67
712.719	48629.74
713.063	48466.35
713.407	48566.24
713.75	48261.16
714.094	48332.57
714.438	48171.9
714.782	48140.94
715.125	47982.07
715.469	47931
715.812	47607.62
716.156	47470.45
716.499	47509.99
716.843	47512.71
717.186	47197.23
717.53	47378.02
717.873	47413.73
718.216	47284.46
718.559	47124.47
718.902	46752.5
719.246	47017.58
719.589	46826.17
719.932	46577.59
720.275	46602.22
720.617	46473.64
720.96	46469.57
721.303	46431.83
721.646	46432.96
721.989	46242.46
722.331	46254.43
722.674	45974.44
723.016	46060.99
723.359	45990.49
723.701	46090.82
724.044	45617.84
724.386	45496.49
724.729	45699.19
725.071	45425.53
725.413	45488.35
725.755	45531.74
726.097	45228.92
726.439	45030.51
726.782	45074.58
727.124	45286.78
727.465	45090.17
727.807	44965.88
728.149	44884.07
728.491	44896.28
728.833	45002.04
729.175	44589.39
729.516	44539.9
729.858	44529.06
730.199	44553.46
730.541	44329.29
730.882	44306.01
731.224	44301.26
731.565	44079.8
731.906	44080.93
732.248	43889.07
732.589	43803.65
732.93	43694.05
733.271	43627.38
733.612	43699.92
733.953	43602.75
734.294	43513.94
734.635	43360.5
734.976	43453.15
735.317	43287.05
735.658	43265.13
735.999	43154.85
736.339	43042.31
736.68	43261.07
737.021	42884.8
737.361	42779.04
737.702	43048.87
738.042	42871.47
738.383	42770.46
738.723	42749.89
739.063	42547.41
739.404	42552.84
739.744	42526.62
740.084	42330.02
740.424	42273.97
740.764	42234.2
741.104	42347.42
741.444	42194.88
741.784	42040.76
742.124	42041.66
742.464	42043.47
742.804	41949.01
743.143	41718.51
743.483	41770.03
743.823	41589.02
744.162	41576.59
744.502	41612.97
744.841	41458.4
745.181	41515.8
745.52	41220.22
745.86	41094.34
746.199	41051.18
746.538	40949.71
746.877	41096.38
747.216	41053.67
747.556	40909.94
747.895	40759.44
748.234	40585.88
748.573	40456.39
748.911	40537.97
749.25	40410.97
749.589	40354.25
749.928	40345.44
750.267	40245.1
750.605	40019.12
750.944	40010.08
751.283	39904.09
751.621	39873.13
751.96	39650.54
752.298	39814.83
752.636	39651.9
752.975	39473.59
753.313	39399.25
753.651	39525.57
753.989	39321.06
754.327	39271.34
754.666	39002.42
755.004	39013.04
755.342	38996.55
755.679	38951.57
756.017	38627.74
756.355	38665.48
756.693	38526.28
757.031	38478.37
757.368	38319.73
757.706	38286.73
758.044	38010.81
758.381	38115.89
758.719	37895.11
759.056	37927.87
759.394	37722.45
759.731	37428.68
760.068	37533.98
760.405	37157.95
760.743	37308.45
761.08	37273.2
761.417	36979.42
761.754	36896.04
762.091	36844.29
762.428	36789.6
762.765	36698.98
763.102	36609.72
763.438	36426.22
763.775	36084.53
764.112	36210.86
764.449	36148.26
764.785	35952.33
765.122	35687.03
765.458	35623.07
765.795	35606.58
766.131	35519.12
766.467	35329.3
766.804	35071.22
767.14	35060.6
767.476	34988.52
767.812	34859.03
768.148	34924.11
768.485	34619.03
768.821	34476.21
769.157	34478.25
769.492	34348.76
769.828	34290.91
770.164	34031.03
770.5	33875.1
770.836	33838.94
771.171	33609.12
771.507	33578.38
771.842	33300.65
772.178	33477.59
772.513	33279.41
772.849	33086.87
773.184	32900.66
773.519	32932.07
773.855	32752.42
774.19	32632.87
774.525	32465.64
774.86	32441.46
775.195	32329.15
775.53	32169.83
775.865	31719
776.2	31655.04
776.535	31441.94
776.87	31470.19
777.205	31377.99
777.539	31167.15
777.874	31227.48
778.209	30922.86
778.543	30901.39
778.878	30777.55
779.212	30753.37
779.547	30538.69
779.881	30480.61
780.215	30166.27
780.55	30347.73
780.884	30021.87
781.218	30043.33
781.552	29836.56
781.886	29703.91
782.22	29540.75
782.554	29378.49
782.888	29135.56
783.222	29145.5
783.556	29011.72
783.889	28921.33
784.223	28667.33
784.557	28625.97
784.89	28748.45
785.224	28672.97
785.557	28456.48
785.891	28365.64
786.224	28312.98
786.558	28230.5
786.891	28035.03
787.224	27899.66
787.557	27914.58
787.891	27897.18
788.224	27750.97
788.557	27600.01
788.89	27508.71
789.223	27374.25
789.556	27207.25
789.888	27166.8
790.221	27142.39
790.554	26814.72
790.887	26867.6
791.219	26769.3
791.552	26673.48
791.884	26522.75
792.217	26499.25
792.549	26352.81
792.882	26228.75
793.214	26056.55
793.546	26065.81
793.879	25817.91
794.211	25702.43
794.543	25769.32
794.875	25707.18
795.207	25686.39
795.539	25494.3
795.871	25607.74
796.203	25258.6
796.535	25120.75
796.867	25105.16
797.198	25021.32
797.53	24959.63
797.862	24766.41
798.193	24814.55
798.525	24654.32
798.856	24648.9
799.188	24447.1
799.519	24454.55
799.85	24286.42
800.182	24341.56
800.513	24351.05
800.844	24046.66
801.175	24218.4
801.506	24159.87
801.837	24039.42
802.168	23995.13
802.499	23745.42
802.83	23704.29
803.161	23734.35
803.491	23523.51
803.822	23663.16
804.153	23314.47
804.483	23200.58
804.814	23074.25
805.145	23076.06
805.475	23045.33
805.805	22944.99
806.136	22994.93
806.466	22952
806.796	22777.08
807.126	22641.95
807.457	22598.78
807.787	22629.74
808.117	22490.31
808.447	22273.82
808.777	22371.67
809.107	22361.73
809.436	22245.12
809.766	22100.04
810.096	22070.89
810.426	21911.12
810.755	22015.97
811.085	21812.59
811.414	21795.87
811.744	21660.05
812.073	21660.28
812.403	21623.44
812.732	21481.98
813.061	21570.79
813.39	21362.66
813.719	21471.58
814.049	21389.78
814.378	21343
814.707	21144.36
815.036	21251.7
815.365	21088.32
815.693	20968.77
816.022	21023.01
816.351	20912.5
816.68	20771.04
817.008	20880.19
817.337	20635.45
817.665	20630.7
817.994	20714.31
818.322	20531.04
818.651	20425.96
818.979	20322.69
819.307	20469.35
819.636	20385.96
819.964	20150.71
820.292	20235.23
820.62	20208.56
820.948	20040.89
821.276	20245.85
821.604	20143.26
821.932	20289.47
822.259	20136.02
822.587	20173.99
822.915	20075.46
823.243	20182.8
823.57	19972.64
823.898	19976.03
824.225	19907.56
824.553	19931.06
824.88	19957.05
825.207	20073.43
825.535	19957.27
825.862	20015.58
826.189	19886.54
826.516	20044.73
826.843	20056.48
827.17	19937.16
827.497	20009.25
827.824	19911.4
828.151	19950.04
828.478	19896.93
828.805	19938.06
829.131	19844.73
829.458	19889.93
829.785	19773.32
830.111	19804.73
830.438	20008.57
830.764	19866.2
831.09	19946.88
831.417	19817.61
831.743	19826.2
832.069	19847.9
832.395	19668.92
832.722	19844.73
833.048	19730.61
833.374	19710.72
833.7	19745.98
834.026	19719.76
834.351	19900.78
834.677	19779.88
835.003	19793.21
835.329	19741.91
835.654	19695.81
835.98	19574.46
836.306	19584.4
836.631	19532.65
836.956	19655.13
837.282	19578.3
837.607	19527.68
837.932	19471.63
838.258	19492.88
838.583	19430.96
838.908	19340.11
839.233	19270.28
839.558	19253.56
839.883	19147.8
840.208	19131.3
840.533	19158.87
840.858	19096.05
841.182	19154.58
841.507	19077.52
841.832	18976.96
842.156	19023.74
842.481	18903.97
842.805	18885.21
843.13	18828.26
843.454	18753.01
843.778	18724.76
844.103	18707.81
844.427	18702.84
844.751	18673.69
845.075	18671.88
845.399	18520.47
845.723	18428.72
846.047	18368.61
846.371	18370.65
846.695	18354.38
847.019	18292.91
847.343	18110.77
847.666	18045.68
847.99	17998.68
848.313	17981.96
848.637	17766.59
848.96	17831
849.284	17706.26
849.607	17652.25
849.931	17628.75
850.254	17448.64
850.577	17410.9
850.9	17256.33
851.223	17287.29
851.546	17238.25
851.869	16997.8
852.192	17111.92
852.515	17072.6
852.838	16897.47
853.161	16885.26
853.483	16870.57
853.806	16773.4
854.129	16767.53
854.451	16653.4
854.774	16533.63
855.096	16585.61
855.419	16451.38
855.741	16449.79
856.063	16403.02
856.385	16378.16
856.708	16309.46
857.03	16237.37
857.352	16224.94
857.674	16150.82
857.996	16174.32
858.318	15917.15
858.64	15947.43
858.961	15821.34
859.283	15827.66
859.605	15758.74
859.926	15871.05
860.248	15784.05
860.57	15709.7
860.891	15862.69
861.212	15729.81
861.534	15684.62
861.855	15682.81
862.176	15736.59
862.498	15786.08
862.819	15695.46
863.14	15607.56
863.461	15570.49
863.782	15536.82
864.103	15538.63
864.424	15412.31
864.745	15485.07
865.065	15292.76
865.386	15291.63
865.707	15261.35
866.027	15362.14
866.348	15266.32
866.668	15335.25
866.989	15161.92
867.309	15015.71
867.63	15080.34
867.95	15031.53
868.27	15012.77
868.59	15014.35
868.91	14915.14
869.23	15122.14
869.55	15015.71
869.87	14950.85
870.19	14935.71
870.51	14987.01
870.83	15018.19
871.15	14920.34
871.469	14857.29
871.789	14853.45
872.109	14862.26
872.428	14767.8
872.748	14717.18
873.067	14671.76
873.386	14802.61
873.706	14710.63
874.025	14664.3
874.344	14642.38
874.663	14681.93
874.982	14705.21
875.301	14780.68
875.62	14593.8
875.939	14581.82
876.258	14685.09
876.577	14560.8
876.896	14577.53
877.214	14463.41
877.533	14556.51
877.852	14522.39
878.17	14418.43
878.489	14453.69
878.807	14397.87
879.125	14455.27
879.444	14364.65
879.762	14242.85
880.08	14307.02
880.398	14196.52
880.716	14228.38
881.034	14217.08
881.352	14293.47
881.67	14160.59
881.988	14166.01
882.306	14086.69
882.624	14125.11
882.941	14116.07
883.259	14070.65
883.577	13945.68
883.894	13978.9
884.212	13905.23
884.529	14006.92
884.846	13863.87
885.164	13930.54
885.481	13850.54
885.798	13828.85
886.115	13679.24
886.432	13807.83
886.75	13695.74
887.067	13741.39
887.383	13644.67
887.7	13726.02
888.017	13592.24
888.334	13659.81
888.651	13550.21
888.967	13490.1
889.284	13412.13
889.6	13434.28
889.917	13325.36
890.233	13405.35
890.55	13245.13
890.866	13361.51
891.182	13220.73
891.498	13148.19
891.815	13201.97
892.131	13086.94
892.447	13062.54
892.763	13012.14
893.079	13050.79
893.395	13040.17
893.71	12945.25
894.026	12926.27
894.342	12961.3
894.657	12858.7
894.973	12815.31
895.289	12776.22
895.604	12849.66
895.92	12732.15
896.235	12636.33
896.55	12668.2
896.865	12529.44
897.181	12503.46
897.496	12423.23
897.811	12382.33
898.126	12333.74
898.441	12356.34
898.756	12286.51
899.071	12320.86
899.386	12336.46
899.7	12270.69
900.015	12134.2
900.33	12139.4
900.644	12049.23
900.959	12069.34
901.273	12025.05
901.588	11996.13
901.902	11893.98
902.216	11937.82
902.531	11889.24
902.845	11937.14
903.159	11779.18
903.473	11799.52
903.787	11699.18
904.101	11567.44
904.415	11590.94
904.729	11603.37
905.042	11506.19
905.356	11483.37
905.67	11499.64
905.984	11406.76
906.297	11389.81
906.611	11305.75
906.924	11284.96
907.237	11164.73
907.551	11218.97
907.864	11139.65
908.177	11040.44
908.491	11065.08
908.804	11007
909.117	10887.68
909.43	10905.08
909.743	10886.55
910.056	10804.52
910.368	10788.93
910.681	10762.71
910.994	10714.8
911.307	10725.65
911.619	10518.42
911.932	10622.15
912.244	10522.94
912.557	10521.36
912.869	10458.31
913.181	10350.74
913.494	10451.08
913.806	10278.2
914.118	10296.96
914.43	10246.34
914.742	10336.96
915.054	10168.15
915.366	10185.1
915.678	10069.4
915.99	10045.22
916.302	9934.03
916.613	9907.59
916.925	9954.37
917.236	9935.39
917.548	9825.56
917.859	9826.69
918.171	9739.24
918.482	9713.7
918.794	9635.74
919.105	9594.38
919.416	9493.14
919.727	9543.76
920.038	9526.81
920.349	9458.34
920.66	9414.5
920.971	9378.57
921.282	9376.76
921.593	9273.71
921.903	9253.82
922.214	9264.45
922.525	9195.07
922.835	9183.32
923.146	9090.44
923.456	9135.86
923.767	9105.13
924.077	9080.27
924.387	9036.2
924.697	8977
925.008	8889.09
925.318	8789.88
925.628	8762.31
925.938	8754.18
926.248	8698.36
926.558	8652.03
926.867	8671.92
927.177	8659.49
927.487	8521.64
927.796	8547.4
928.106	8498.82
928.416	8497.01
928.725	8424.47
929.034	8354.64
929.344	8380.18
929.653	8328.65
929.962	8298.82
930.271	8282.1
930.581	8293.85
930.89	8195.1
931.199	8170.69
931.508	8111.93
931.817	8096.79
932.125	8140.18
932.434	8033.07
932.743	7947.87
933.051	7953.29
933.36	7940.86
933.669	7925.95
933.977	7857.7
934.286	7827.2
934.594	7744.94
934.902	7684.83
935.21	7664.94
935.519	7722.11
935.827	7714.88
936.135	7678.5
936.443	7544.04
936.751	7505.85
937.059	7440.99
937.367	7419.75
937.674	7449.8
937.982	7443.02
938.29	7370.26
938.597	7400.54
938.905	7275.35
939.213	7325.06
939.52	7270.37
939.827	7267.66
940.135	7229.47
940.442	7107.67
940.749	7123.03
941.056	7175.91
941.363	7042.58
941.67	7000.1
941.977	7016.6
942.284	6890.27
942.591	6884.85
942.898	6862.93
943.205	6871.97
943.511	6827
943.818	6784.96
944.125	6717.85
944.431	6734.12
944.738	6739.77
945.044	6708.13
945.35	6638.3
945.657	6637.4
945.963	6665.87
946.269	6598.98
946.575	6617.51
946.881	6544.52
947.187	6511.75
947.493	6443.05
947.799	6435.59
948.105	6411.87
948.41	6329.61
948.716	6349.72
949.022	6292.55
949.327	6323.73
949.633	6237.41
949.938	6285.99
950.244	6230.18
950.549	6164.41
950.854	6153.34
951.16	6125.55
951.465	6091.87
951.77	6078.99
952.075	6031.76
952.38	6015.72
952.685	5954.7
952.99	5929.62
953.294	5955.38
953.599	5914.93
953.904	5903.4
954.209	5803.52
954.513	5824.76
954.818	5811.66
955.122	5840.58
955.426	5762.84
955.731	5769.62
956.035	5719.45
956.339	5739.11
956.643	5730.08
956.948	5604.65
957.252	5536.63
957.556	5622.51
957.86	5521.27
958.163	5562.85
958.467	5481.04
958.771	5548.84
959.075	5490.53
959.378	5469.52
959.682	5436.52
959.985	5389.29
960.289	5381.38
960.592	5294.61
960.896	5328.05
961.199	5314.27
961.502	5258
961.805	5322.18
962.108	5178.9
962.411	5211.9
962.714	5097.55
963.017	5122.63
963.32	5097.78
963.623	5094.84
963.926	5104.78
964.228	5045.12
964.531	5056.19
964.833	5023.88
965.136	4958.8
965.438	4925.35
965.741	4938.46
966.043	4897.1
966.345	4883.09
966.648	4856.65
966.95	4851.68
967.252	4874.28
967.554	4768.29
967.856	4765.58
968.158	4752.25
968.46	4741.85
968.761	4675.64
969.063	4662.31
969.365	4688.52
969.666	4713.6
969.968	4632.7
970.269	4622.99
970.571	4621.4
970.872	4584.34
971.174	4548.64
971.475	4572.82
971.776	4537.11
972.077	4520.62
972.378	4504.57
972.679	4462.76
972.98	4448.75
973.281	4434.52
973.582	4421.18
973.883	4353.39
974.183	4340.73
974.484	4329.89
974.785	4311.13
975.085	4342.54
975.386	4292.15
975.686	4223
975.986	4230.23
976.287	4239.72
976.587	4203.34
976.887	4157.46
977.187	4190.45
977.487	4147.97
977.787	4143.22
978.087	4122.89
978.387	4080.4
978.687	4091.93
978.987	4071.14
979.286	4010.35
979.586	4016.45
979.885	4011.48
980.185	3987.07
980.484	3997.92
980.784	3931.25
981.083	3931.93
981.382	3891.03
981.682	3869.11
981.981	3888.32
982.28	3865.94
982.579	3799.73
982.878	3829.33
983.177	3796.11
983.475	3808.09
983.774	3774.19
984.073	3735.55
984.372	3729.68
984.67	3712.05
984.969	3712.05
985.267	3743.23
985.566	3656.91
985.864	3637.25
986.162	3632.28
986.461	3606.06
986.759	3599.06
987.057	3559.06
987.355	3599.06
987.653	3528.78
987.951	3511.38
988.249	3503.69
988.547	3505.05
988.844	3487.87
989.142	3458.04
989.44	3417.82
989.737	3427.76
990.035	3400.19
990.332	3419.85
990.63	3385.5
990.927	3359.06
991.224	3349.12
991.521	3326.75
991.819	3319.97
992.116	3304.6
992.413	3269.12
992.71	3275.45
993.006	3267.77
993.303	3215.34
993.6	3191.61
993.897	3180.99
994.193	3241.55
994.49	3171.05
994.787	3158.62
995.083	3091.5
995.379	3137.38
995.676	3132.4
995.972	3109.35
996.268	3059.64
996.565	3039.3
996.861	3032.29
997.157	3039.98
997.453	3008.56
997.749	3044.04
998.044	2993.2
998.34	2937.83
998.636	2927.89
998.932	2903.48
999.227	2914.33
999.523	2890.38
999.818	2904.16
1000.114	2866.87
1000.409	2853.99
1000.704	2842.24
1001	2809.93
1001.295	2808.57
1001.59	2768.12
1001.885	2795.92
1002.18	2784.84
1002.475	2699.65
1002.77	2730.61
1003.065	2672.75
1003.359	2716.37
1003.654	2696.93
1003.949	2673.66
1004.243	2679.99
1004.538	2668.91
1004.832	2617.39
1005.127	2607.67
1005.421	2578.97
1005.715	2541.23
1006.009	2561.12
1006.304	2549.14
1006.598	2537.62
1006.892	2506.21
1007.186	2487.9
1007.48	2477.05
1007.773	2444.74
1008.067	2447.68
1008.361	2430.05
1008.655	2456.94
1008.948	2390.95
1009.242	2401.35
1009.535	2400.67
1009.829	2371.75
1010.122	2358.86
1010.415	2318.41
1010.708	2301.92
1011.001	2287.23
1011.295	2277.51
1011.588	2298.53
1011.881	2253.78
1012.173	2287.45
1012.466	2245.2
1012.759	2245.65
1013.052	2227.12
1013.344	2222.82
1013.637	2179.89
1013.93	2174.69
1014.222	2182.37
1014.514	2126.78
1014.807	2134.92
1015.099	2114.58
1015.391	2075.03
1015.683	2085.88
1015.976	2072.32
1016.268	2061.92
1016.56	2037.74
1016.851	2023.73
1017.143	2056.5
1017.435	2030.74
1017.727	1972.43
1018.018	1966.11
1018.31	1965.43
1018.602	1961.36
1018.893	1922.94
1019.185	1916.16
1019.476	1907.8
1019.767	1913.68
1020.058	1887.46
1020.35	1864.64
1020.641	1873
1020.932	1860.8
1021.223	1817.64
1021.514	1835.71
1021.804	1812.89
1022.095	1779.44
1022.386	1751.42
1022.677	1773.34
1022.967	1738.32
1023.258	1746
1023.548	1722.72
1023.839	1722.05
1024.129	1699.9
1024.419	1706.45
1024.709	1661.48
1025	1704.42
1025.29	1674.59
1025.58	1641.82
1025.87	1629.84
1026.16	1608.6
1026.449	1633.46
1026.739	1589.62
1027.029	1586.68
1027.319	1582.16
1027.608	1583.97
1027.898	1572.9
1028.187	1574.48
1028.477	1546.68
1028.766	1547.13
1029.055	1505.55
1029.344	1520.69
1029.634	1522.5
1029.923	1466.46
1030.212	1462.84
1030.501	1463.75
1030.79	1445.22
1031.078	1427.59
1031.367	1436.63
1031.656	1431.88
1031.945	1408.83
1032.233	1423.97
1032.522	1376.97
1032.81	1393.01
1033.099	1389.17
1033.387	1346.46
1033.675	1365.44
1033.963	1332.45
1034.251	1333.35
1034.54	1322.73
1034.828	1301.72
1035.116	1292.45
1035.403	1294.94
1035.691	1266.92
1035.979	1286.35
1036.267	1268.27
1036.554	1245.9
1036.842	1254.94
1037.129	1267.59
1037.417	1239.57
1037.704	1205.67
1037.992	1219.01
1038.279	1209.97
1038.566	1232.34
1038.853	1232.34
1039.14	1232.34
