Data from foil_FLMS001491_059.txt Node
Date: Tue Feb 07 11:27:12 GMT 2017
User: dcchb
Spectrometer: FLMS00149
Trigger mode: 0
Integration Time (sec): 2.000000E-2
Scans to average: 10
Electric dark correction enabled: true
Nonlinearity correction enabled: false
Boxcar width: 0
XAxis mode: Wavelengths
Number of Pixels in Spectrum: 2048
>>>>>Begin Spectral Data<<<<<
341.393	0.66
341.776	0.66
342.16	0.66
342.543	-67.13
342.927	-99.45
343.31	-71.42
343.693	-82.05
344.077	-70.97
344.46	-46.11
344.843	-46.57
345.226	-53.35
345.61	-22.39
345.993	-19.9
346.376	12.19
346.759	2.92
347.142	29.82
347.525	41.57
347.908	51.51
348.291	72.98
348.674	96.48
349.057	105.29
349.44	124.05
349.823	124.05
350.206	175.57
350.588	231.17
350.971	235.69
351.354	275.46
351.737	288.11
352.119	289.02
352.502	309.36
352.884	340.09
353.267	340.77
353.65	359.52
354.032	365.17
354.414	364.95
354.797	350.03
355.179	381.22
355.562	376.7
355.944	383.48
356.326	389.13
356.709	404.04
357.091	394.1
357.473	399.3
357.855	411.05
358.238	406.08
358.62	434.78
359.002	407.43
359.384	398.85
359.766	408.79
360.148	393.42
360.53	391.16
360.912	398.85
361.294	406.98
361.676	413.08
362.057	382.57
362.439	425.74
362.821	422.12
363.203	415.12
363.584	413.08
363.966	419.18
364.348	395.68
364.729	425.29
365.111	401.33
365.493	410.82
365.874	412.63
366.256	439.75
366.637	431.61
367.019	425.74
367.4	426.87
367.781	411.5
368.163	438.84
368.544	434.1
368.925	416.02
369.306	433.65
369.688	429.58
370.069	443.36
370.45	426.87
370.831	438.84
371.212	441.78
371.593	444.49
371.974	439.07
372.355	456.02
372.736	435.45
373.117	445.85
373.498	466.41
373.879	436.58
374.26	426.87
374.641	443.14
375.021	419.64
375.402	449.47
375.783	477.26
376.163	521.1
376.544	520.42
376.925	497.83
377.305	494.21
377.686	507.09
378.066	519.97
378.447	506.64
378.827	514.55
379.208	506.64
379.588	515.23
379.968	524.49
380.349	535.57
380.729	532.85
381.109	538.5
381.489	515.9
381.87	552.51
382.25	572.63
382.63	563.81
383.01	569.91
383.39	573.98
383.77	588.22
384.15	591.16
384.53	590.25
384.91	599.97
385.29	630.93
385.67	609.69
386.049	615.56
386.429	607.65
386.809	619.18
387.189	645.39
387.568	649.01
387.948	645.62
388.328	651.95
388.707	654.66
389.087	676.35
389.466	673.64
389.846	678.84
390.225	711.83
390.605	706.86
390.984	711.61
391.363	718.16
391.743	704.83
392.122	723.36
392.501	762.68
392.881	741.44
393.26	748.67
393.639	754.99
394.018	766.29
394.397	784.6
394.776	795.45
395.155	795.22
395.534	797.48
395.913	791.83
396.292	814.43
396.671	861.43
397.05	835.67
397.429	849.91
397.808	865.73
398.186	858.72
398.565	880.41
398.944	902.56
399.323	919.74
399.701	877.48
400.08	907.08
400.458	920.41
400.837	926.06
401.215	943.46
401.594	955.21
401.972	953.41
402.351	968.77
402.729	982.11
403.107	975.78
403.486	989.11
403.864	1006.06
404.242	1004.48
404.62	1020.07
404.999	1070.69
405.377	1074.08
405.755	1077.92
406.133	1091.03
406.511	1078.15
406.889	1105.95
407.267	1131.26
407.645	1165.38
408.023	1171.48
408.401	1205.15
408.779	1210.8
409.156	1253.29
409.534	1249.22
409.912	1236.79
410.29	1269.11
410.667	1301.87
411.045	1288.99
411.422	1304.81
411.8	1353.85
412.178	1347.07
412.555	1383.45
412.933	1375.32
413.31	1427.52
413.687	1419.38
414.065	1426.16
414.442	1476.33
414.819	1488.99
415.197	1507.97
415.574	1549.1
415.951	1584.35
416.328	1574.41
416.705	1550.23
417.082	1598.59
417.46	1607.4
417.837	1652.82
418.214	1657.34
418.591	1660.28
418.967	1674.07
419.344	1721.52
419.721	1739.83
420.098	1738.47
420.475	1755.42
420.852	1775.98
421.228	1786.15
421.605	1817.57
421.982	1834.06
422.358	1853.95
422.735	1884.46
423.111	1877.68
423.488	1940.5
423.864	1950.9
424.241	1949.09
424.617	1987.96
424.994	2024.79
425.37	2030.21
425.746	2070.21
426.123	2063.89
426.499	2085.58
426.875	2086.94
427.251	2155.64
427.627	2209.87
428.003	2227.05
428.379	2284.22
428.756	2312.02
429.132	2312.47
429.507	2392.24
429.883	2373.26
430.259	2413.93
430.635	2443.09
431.011	2494.61
431.387	2529.64
431.763	2570.77
432.138	2593.59
432.514	2659.12
432.89	2613.02
433.265	2701.84
433.641	2749.74
434.016	2753.59
434.392	2811.66
434.767	2901.15
435.143	2918.55
435.518	2955.61
435.894	3008.49
436.269	3027.93
436.644	3106.34
437.02	3098.89
437.395	3102.96
437.77	3191.99
438.145	3220.69
438.52	3229.28
438.895	3231.54
439.271	3298.88
439.646	3401.25
440.021	3415.04
440.395	3444.19
440.77	3427.69
441.145	3487.8
441.52	3556.95
441.895	3546.11
442.27	3597.41
442.645	3574.81
443.019	3665.2
443.394	3694.13
443.769	3697.52
444.143	3709.72
444.518	3788.13
444.892	3768.47
445.267	3834.24
445.641	3858.64
446.016	3901.8
446.39	3954.23
446.764	3989.03
447.139	3957.85
447.513	4062.48
447.887	4083.49
448.262	4078.3
448.636	4128.69
449.01	4155.36
449.384	4242.81
449.758	4229.93
450.132	4344.5
450.506	4375.46
450.88	4397.61
451.254	4422.47
451.628	4506.76
452.002	4560.32
452.376	4514.22
452.75	4662.69
453.123	4641.45
453.497	4765.51
453.871	4788.79
454.244	4907.2
454.618	4874.89
454.992	4958.5
455.365	4979.52
455.739	5092.28
456.112	5139.06
456.486	5150.58
456.859	5212.96
457.232	5310.81
457.606	5341.99
457.979	5355.55
458.352	5541.99
458.725	5570.91
459.099	5607.3
459.472	5712.83
459.845	5739.04
460.218	5814.3
460.591	5868.08
460.964	5889.77
461.337	5999.38
461.71	6072.82
462.083	6189.43
462.456	6189.88
462.829	6214.74
463.201	6336.09
463.574	6414.51
463.947	6494.96
464.32	6619.47
464.692	6704.44
465.065	6720.49
465.438	6787.83
465.81	6959.35
466.183	6994.6
466.555	7148.27
466.928	7207.93
467.3	7185.56
467.672	7341.49
468.045	7493.8
468.417	7569.28
468.789	7674.36
469.161	7710.97
469.534	7891.76
469.906	8023.96
470.278	8031.64
470.65	8135.82
471.022	8348.01
471.394	8480.21
471.766	8507.11
472.138	8576.26
472.51	8857.83
472.882	9039.75
473.253	9010.14
473.625	9241.32
473.997	9374.43
474.369	9451.49
474.74	9573.07
475.112	9734.19
475.484	9874.53
475.855	10118.14
476.227	10188.64
476.598	10482.2
476.97	10542.08
477.341	10769.87
477.713	10955.63
478.084	10970.09
478.455	11364.21
478.827	11401.04
479.198	11741.82
479.569	11767.36
479.94	12142.94
480.311	12222.72
480.682	12507.68
481.053	12796.94
481.424	13158.28
481.795	13121.9
482.166	13305.4
482.537	13490.25
482.908	13714.65
483.279	13867.87
483.65	14079.84
484.021	14505.59
484.391	14613.84
484.762	14771.57
485.133	14892.93
485.503	15169.53
485.874	15515.51
486.244	15649.52
486.615	16012.9
486.985	16166.79
487.356	16381.48
487.726	16632.99
488.097	16961.8
488.467	17068.69
488.837	17393.65
489.207	17537.38
489.578	17822.57
489.948	18035.9
490.318	18310.24
490.688	18366.51
491.058	18609.21
491.428	18867.74
491.798	19067.06
492.168	19431.11
492.538	19473.37
492.908	19805.57
493.278	20013.24
493.648	20116.52
494.017	20368.49
494.387	20572.78
494.757	20702.49
495.126	20986.78
495.496	21051.18
495.866	21248.92
496.235	21565.29
496.605	21650.94
496.974	21887.09
497.344	22084.83
497.713	22152.4
498.082	22334.09
498.452	22658.6
498.821	22653.4
499.19	22846.84
499.559	23105.37
499.928	23250.67
500.298	23480.5
500.667	23597.33
501.036	23734.28
501.405	24021.28
501.774	24047.94
502.143	24158.9
502.512	24337.2
502.88	24655.16
503.249	24594.82
503.618	24812.89
503.987	24914.81
504.356	25091.53
504.724	25281.81
505.093	25343.27
505.462	25531.07
505.83	25719.54
506.199	25986.87
506.567	26217.15
506.936	26177.38
507.304	26575.11
507.672	26733.29
508.041	26781.65
508.409	27090.57
508.777	27307.74
509.145	27539.83
509.514	27601.52
509.882	27790.67
510.25	27840.61
510.618	28260.26
510.986	28214.84
511.354	28422.74
511.722	28653.7
512.09	28909.96
512.458	29081.48
512.826	29272.89
513.193	29460.23
513.561	29668.81
513.929	29935.92
514.297	30111.06
514.664	30370.94
515.032	30424.27
515.4	30698.84
515.767	30873.07
516.135	30997.36
516.502	30959.17
516.869	31515.32
517.237	31595.09
517.604	31683.22
517.972	32173.15
518.339	32265.8
518.706	32355.29
519.073	32822.17
519.44	32850.87
519.808	33173.8
520.175	33238.21
520.542	33744.18
520.909	33834.35
521.276	33863.95
521.643	34037.96
522.009	34518.17
522.376	34752.74
522.743	34973.08
523.11	35300.75
523.477	35554.76
523.843	35794.07
524.21	36155.65
524.577	36506.82
524.943	36609.42
525.31	36809.41
525.676	37144.55
526.043	37329.17
526.409	37535.95
526.776	38008.25
527.142	38034.01
527.508	38110.62
527.874	38546.09
528.241	38908.34
528.607	38927.78
528.973	39237.37
529.339	39247.77
529.705	39783.12
530.071	40060.63
530.437	40067.18
530.803	40319.6
531.169	40746.94
531.535	40477.11
531.901	40726.15
532.267	40895.18
532.632	41230.99
532.998	41413.81
533.364	41582.17
533.73	41659.68
534.095	41912.1
534.461	42176.96
534.826	42341.25
535.192	42456.27
535.557	42801.12
535.923	42947.33
536.288	43087.21
536.653	43271.39
537.019	43257.61
537.384	43410.6
537.749	43514.77
538.114	43598.39
538.479	43762.68
538.845	43970.13
539.21	43889.91
539.575	44177.13
539.94	44226.62
540.305	44520.17
540.67	44340.74
541.034	44762.65
541.399	44855.08
541.764	45016.66
542.129	45093.49
542.494	45163.32
542.858	45424.55
543.223	45489.64
543.587	45759.91
543.952	45701.16
544.316	45815.5
544.681	45867.25
545.045	46176.4
545.41	46376.62
545.774	46391.53
546.138	46368.71
546.503	46551.3
546.867	46645.99
547.231	46979.77
547.595	46993.33
547.959	47208.69
548.324	47237.16
548.688	47357.16
549.052	47570.94
549.416	47565.51
549.779	47567.1
550.143	47822.23
550.507	47971.83
550.871	48226.97
551.235	47947.2
551.599	48280.98
551.962	48304.48
552.326	48525.04
552.689	48698.82
553.053	48664.92
553.417	48763.45
553.78	49188.07
554.143	49028.75
554.507	49408.4
554.87	49500.38
555.234	49913.48
555.597	49595.29
555.96	49840.71
556.323	49956.19
556.686	50004.32
557.05	50192.56
557.413	50439.34
557.776	50530.18
558.139	50727.01
558.502	50676.85
558.865	50829.16
559.228	51095.59
559.59	51265.3
559.953	51182.82
560.316	51655.12
560.679	51518.63
561.041	51845.85
561.404	51897.38
561.767	52105.73
562.129	52045.85
562.492	52359.51
562.854	52374.43
563.217	52448.32
563.579	52542.33
563.941	52761.76
564.304	52899.39
564.666	53159.94
565.028	53145.26
565.39	53141.41
565.753	53236.55
566.115	53417.34
566.477	53519.93
566.839	53594.51
567.201	53892.35
567.563	53907.95
567.925	54153.14
568.287	54106.36
568.648	54128.73
569.01	54391.1
569.372	54535.73
569.734	54437.2
570.095	54738.43
570.457	54792.22
570.819	54869.05
571.18	54807.13
571.542	54970.29
571.903	55048.26
572.265	55097.52
572.626	55207.12
572.987	55340.45
573.349	55297.97
573.71	55413.22
574.071	55485.31
574.432	55612.08
574.794	55755.13
575.155	55728.01
575.516	55739.54
575.877	55833.77
576.238	55908.12
576.599	56006.2
576.96	55930.72
577.32	55996.03
577.681	56138.17
578.042	56090.26
578.403	56099.3
578.763	56170.26
579.124	56268.11
579.485	56331.84
579.845	56320.31
580.206	56248.45
580.566	56330.03
580.927	56348.79
581.287	56427.43
581.648	56360.31
582.008	56513.75
582.368	56405.96
582.728	56510.59
583.089	56478.73
583.449	56353.98
583.809	56468.78
584.169	56452.74
584.529	56392.85
584.889	56662
585.249	56454.09
585.609	56452.06
585.969	56526.64
586.329	56551.27
586.688	56519.86
587.048	56425.62
587.408	56436.92
587.768	56497.71
588.127	56524.15
588.487	56472.4
588.846	56743.58
589.206	56568.67
589.565	56512.62
589.925	56674.88
590.284	56472.17
590.643	56595.11
591.003	56639.4
591.362	56685.28
591.721	56545.39
592.08	56590.14
592.44	56636.01
592.799	56681.43
593.158	56511.72
593.517	56581.77
593.876	56609.57
594.235	56595.79
594.593	56693.86
594.952	56659.29
595.311	56553.75
595.67	56547.43
596.029	56750.81
596.387	56814.31
596.746	56735.44
597.104	56650.7
597.463	56711.49
597.822	56851.6
598.18	56664.26
598.538	56734.77
598.897	56768.21
599.255	56619.06
599.613	56943.8
599.972	56710.13
600.33	56867.42
600.688	56747.65
601.046	56827.42
601.404	56852.95
601.762	56855.21
602.12	56951.48
602.478	56982.22
602.836	56988.09
603.194	56867.87
603.552	56948.32
603.91	56874.42
604.268	57012.72
604.625	56945.16
604.983	57050.69
605.341	57030.35
605.698	57121.42
606.056	57116
606.413	57031.71
606.771	57095.43
607.128	57175.66
607.485	57025.83
607.843	57121.65
608.2	57181.31
608.557	57193.28
608.914	57080.52
609.272	57299.95
609.629	57257.92
609.986	57375.65
610.343	57257.46
610.7	57469.89
611.057	57365.03
611.414	57355.99
611.771	57447.97
612.127	57448.42
612.484	57398.02
612.841	57550.34
613.198	57512.82
613.554	57484.35
613.911	57628.75
614.267	57577.45
614.624	57548.3
614.98	57600.96
615.337	57797.11
615.693	57680.96
616.05	57646.83
616.406	57786.94
616.762	57624.46
617.118	57685.25
617.475	57637.57
617.831	57701.29
618.187	57722.08
618.543	57747.85
618.899	57848.86
619.255	57826.04
619.611	57785.59
619.967	57832.59
620.323	57833.72
620.678	57799.6
621.034	57654.06
621.39	57732.93
621.746	57681.18
622.101	57965.24
622.457	57753.04
622.812	57770.67
623.168	57822.87
623.523	57845.7
623.879	57810.9
624.234	57647.74
624.589	57690.9
624.945	57687.28
625.3	57673.5
625.655	57701.75
626.01	57664.01
626.365	57737.45
626.72	57700.16
627.075	57683.67
627.43	57668.07
627.785	57524.58
628.14	57633.5
628.495	57649.32
628.85	57609.09
629.205	57544.46
629.559	57691.8
629.914	57526.61
630.269	57536.1
630.623	57372.71
630.978	57356.44
631.332	57454.07
631.687	57470.34
632.041	57314.64
632.396	57331.81
632.75	57238.71
633.104	57240.29
633.459	57194.64
633.813	57119.84
634.167	57172.27
634.521	57061.54
634.875	57080.07
635.229	57087.3
635.583	56967.53
635.937	56970.47
636.291	56902.9
636.645	56907.64
636.999	56852.95
637.352	56881.88
637.706	56655.67
638.06	56719.85
638.413	56678.04
638.767	56697.25
639.121	56717.59
639.474	56552.85
639.828	56578.39
640.181	56572.96
640.534	56507.43
640.888	56445.51
641.241	56252.07
641.594	56351.27
641.947	56292.74
642.301	56182.01
642.654	56219.3
643.007	56222.01
643.36	56208.45
643.713	56055.46
644.066	56135.68
644.419	56039.64
644.771	55837.39
645.124	55592.2
645.477	55556.94
645.83	55382.48
646.182	55304.07
646.535	55156.28
646.888	55161.25
647.24	54914.93
647.593	55072.66
647.945	55006.22
648.298	54847.81
648.65	54863.4
649.002	54739.56
649.355	54919.67
649.707	54824.08
650.059	54889.62
650.411	55245.31
650.763	55243.28
651.115	55552.88
651.467	55361.24
651.819	55244.41
652.171	55145.2
652.523	55121.7
652.875	55186.33
653.227	55031.08
653.578	55202.6
653.93	55145.2
654.282	54958.99
654.633	54866.34
654.985	54950.18
655.337	54907.69
655.688	54896.4
656.039	54971.2
656.391	54716.06
656.742	54789.28
657.094	54829.5
657.445	54845.78
657.796	54749.96
658.147	54685.1
658.498	54695.04
658.849	54698.66
659.2	54573.47
659.551	54505.22
659.902	54551.55
660.253	54485.11
660.604	54512
660.955	54430.19
661.306	54459.34
661.656	54323.3
662.007	54424.77
662.358	54406.01
662.708	54417.54
663.059	54341.61
663.409	54149.97
663.76	54339.8
664.11	54335.96
664.461	54328.27
664.811	54337.09
665.161	54200.82
665.511	54128.96
665.862	54168.05
666.212	54231.33
666.562	54220.93
666.912	54113.14
667.262	54144.32
667.612	54051.45
667.962	54166.25
668.312	54046.7
668.662	54111.11
669.011	54050.32
669.361	53983.2
669.711	53935.52
670.06	53893.48
670.41	53834.5
670.76	53767.84
671.109	53833.15
671.459	53751.57
671.808	53632.47
672.157	53740.95
672.507	53551.8
672.856	53511.12
673.205	53563.1
673.554	53613.72
673.904	53465.7
674.253	53677.22
674.602	53551.57
674.951	53096.44
675.3	52950.23
675.649	53403.78
675.998	53335.76
676.346	53216.89
676.695	53391.12
677.044	53174.18
677.393	53166.95
677.741	53218.25
678.09	53219.15
678.438	53070
678.787	53057.57
679.135	53108.19
679.484	52806.28
679.832	52980.97
680.181	52760.86
680.529	52922.44
680.877	52742.1
681.225	52671.82
681.573	52856.45
681.922	52613.74
682.27	52482.67
682.618	52468.89
682.966	52362.45
683.314	52532.62
683.661	52368.78
684.009	52166.07
684.357	52218.95
684.705	52037.04
685.053	52164.04
685.4	52044.72
685.748	51880.2
686.095	51784.84
686.443	51790.26
686.79	51688.57
687.138	51634.79
687.485	51654.67
687.832	51541.23
688.18	51574.45
688.527	51263.27
688.874	51236.38
689.221	51151.41
689.568	51083.16
689.915	51032.32
690.262	50955.93
690.609	50884.75
690.956	50713.68
691.303	50691.53
691.65	50572.67
691.997	50441.82
692.344	50232.11
692.69	50231.89
693.037	50248.16
693.383	49858.34
693.73	50028.73
694.077	49814.95
694.423	49786.93
694.769	49609.75
695.116	49360.72
695.462	49428.06
695.808	49228.07
696.155	49427.16
696.501	49082.54
696.847	49089.09
697.193	48855.65
697.539	48947.4
697.885	48486.85
698.231	48425.61
698.577	48484.81
698.923	48236.68
699.269	48214.31
699.614	47973.87
699.96	47936.8
700.306	47912.62
700.651	47644.38
700.997	47556.48
701.342	47597.83
701.688	47541.33
702.033	47466.53
702.379	47440.77
702.724	47254.56
703.069	47201.68
703.415	46838.98
703.76	46803.5
704.105	46852.99
704.45	46723.73
704.795	46388.82
705.14	46426.11
705.485	46277.19
705.83	46135.27
706.175	46217.98
706.52	45996.97
706.865	45918.78
707.209	45852.34
707.554	45689.18
707.899	45702.29
708.243	45500.03
708.588	45505.68
708.932	45205.12
709.277	45279.93
709.621	45246.48
709.966	44885.13
710.31	44945.24
710.654	44775.08
710.998	44702.54
711.342	44649.89
711.687	44397.01
712.031	44183.46
712.375	44103.23
712.719	44162.44
713.063	43971.03
713.407	44015.78
713.75	43813.98
714.094	43804.71
714.438	43566.98
714.782	43722.45
715.125	43452.63
715.469	43469.8
715.812	43269.36
716.156	43037.72
716.499	43060.77
716.843	43112.75
717.186	42710.28
717.53	42983.49
717.873	42868.01
718.216	42859.2
718.559	42578.08
718.902	42350.51
719.246	42495.59
719.589	42362.71
719.932	42006.56
720.275	42090.86
720.617	41969.28
720.96	42034.13
721.303	41988.71
721.646	41914.59
721.989	41655.16
722.331	41719.11
722.674	41565.67
723.016	41592.34
723.359	41561.38
723.701	41594.15
724.044	41310.76
724.386	40975.18
724.729	41264.44
725.071	41062.18
725.413	40972.47
725.755	40822.42
726.097	40626.04
726.439	40611.12
726.782	40381.75
727.124	40522.76
727.465	40631.01
727.807	40273.73
728.149	40238.93
728.491	40155.54
728.833	40120.29
729.175	39981.99
729.516	39997.58
729.858	39885.94
730.199	40118.93
730.541	39773.18
730.882	39688.21
731.224	39782.22
731.565	39348.78
731.906	39462.23
732.248	39523.01
732.589	39285.05
732.93	39188.33
733.271	39017.04
733.612	39116.02
733.953	39034.89
734.294	38858.85
734.635	38613.21
734.976	38855.24
735.317	38595.81
735.658	38681.68
735.999	38577.28
736.339	38485.75
736.68	38449.14
737.021	38374.12
737.361	38143.62
737.702	38408.24
738.042	38206.89
738.383	38037.86
738.723	38202.15
739.063	37888.93
739.404	38165.99
739.744	37880.12
740.084	37632.67
740.424	37744.3
740.764	37679.45
741.104	37696.85
741.444	37573.69
741.784	37229.52
742.124	37486.46
742.464	37264.09
742.804	37313.58
743.143	37168.73
743.483	37197.88
743.823	36935.51
744.162	36842.86
744.502	37024.55
744.841	36782.52
745.181	36790.88
745.52	36597.22
745.86	36634.73
746.199	36553.38
746.538	36421.18
746.877	36428.86
747.216	36388.18
747.556	36299.37
747.895	36339.6
748.234	36095.53
748.573	36184.57
748.911	36107.06
749.25	35968.76
749.589	35853.51
749.928	35789.55
750.267	35852.83
750.605	35656.22
750.944	35619.84
751.283	35473.4
751.621	35471.82
751.96	35180.98
752.298	35295.78
752.636	35247.65
752.975	35044.49
753.313	34828.67
753.651	35116.35
753.989	34745.29
754.327	34762.91
754.666	34635.01
755.004	34594.78
755.342	34564.5
755.679	34593.88
756.017	34207.22
756.355	34379.19
756.693	34149.6
757.031	34153.66
757.368	33942.14
757.706	33785.31
758.044	33766.78
758.381	33919.09
758.719	33626.22
759.056	33633.23
759.394	33547.35
759.731	33288.83
760.068	33144.2
760.405	32995.5
760.743	33013.36
761.08	33143.97
761.417	32877.09
761.754	32753.93
762.091	32672.8
762.428	32455.4
762.765	32399.36
763.102	32514.16
763.438	32269.42
763.775	32101.51
764.112	32136.77
764.449	32179.03
764.785	31877.79
765.122	31615.65
765.458	31576.33
765.795	31368.43
766.131	31388.31
766.467	31268.32
766.804	31193.74
767.14	30994.88
767.476	30869.91
767.812	30797.14
768.148	30847.54
768.485	30645.06
768.821	30368.68
769.157	30459.52
769.492	30164.16
769.828	30300.88
770.164	29986.54
770.5	30051.85
770.836	29881.69
771.171	29647.34
771.507	29703.84
771.842	29480.11
772.178	29445.31
772.513	29363.96
772.849	29206
773.184	28948.6
773.519	29053.46
773.855	28747.7
774.19	28641.94
774.525	28515.39
774.86	28450.31
775.195	28420.93
775.53	28246.25
775.865	28097.78
776.2	27943.43
776.535	27809.42
776.87	27714.29
777.205	27663.67
777.539	27619.6
777.874	27630.9
778.209	27400.4
778.543	27221.87
778.878	27127.18
779.212	27046.51
779.547	26904.82
779.881	26924.25
780.215	26755.44
780.55	26683.8
780.884	26557.71
781.218	26501.21
781.552	26417.37
781.886	26332.85
782.22	26206.08
782.554	26042.01
782.888	25817.16
783.222	25666.88
783.556	25686.09
783.889	25536.04
784.223	25435.25
784.557	25357.74
784.89	25398.87
785.224	25295.14
785.557	25176.73
785.891	25009.72
786.224	24978.76
786.558	24901.25
786.891	24737.41
787.224	24672.11
787.557	24579
787.891	24460.13
788.224	24494.94
788.557	24500.13
788.89	24380.81
789.223	24290.87
789.556	23940.37
789.888	23975.85
790.221	23948.06
790.554	23697.67
790.887	23721.4
791.219	23643.88
791.552	23447.5
791.884	23384.23
792.217	23358.47
792.549	23324.8
792.882	23018.59
793.214	22930.68
793.546	22967.74
793.879	22870.34
794.211	22754.19
794.543	22701.76
794.875	22647.75
795.207	22720.29
795.539	22586.74
795.871	22452.28
796.203	22357.36
796.535	22226.29
796.867	22137.71
797.198	22029.46
797.53	22093.87
797.862	21925.06
798.193	21944.49
798.525	21684.61
798.856	21717.38
799.188	21539.08
799.519	21481
799.85	21290.73
800.182	21346.09
800.513	21317.84
800.844	21155.81
801.175	21287.79
801.506	21238.75
801.837	21069.71
802.168	21036.27
802.499	20882.83
802.83	20711.31
803.161	20715.37
803.491	20740.46
803.822	20711.31
804.153	20535.72
804.483	20407.13
804.814	20265.89
805.145	20245.78
805.475	20241.94
805.805	20162.17
806.136	20237.65
806.466	20101.83
806.796	20041.49
807.126	19918.78
807.457	19936.86
807.787	19890.76
808.117	19821.39
808.447	19678.79
808.777	19629.53
809.107	19610.32
809.436	19598.11
809.766	19531.22
810.096	19386.37
810.426	19400.83
810.755	19314.51
811.085	19324.45
811.414	19245.58
811.744	19046.72
812.073	18973.95
812.403	19034.51
812.732	18860.05
813.061	18978.47
813.39	18731.47
813.719	18689.89
814.049	18874.29
814.378	18804.92
814.707	18767.63
815.036	18660.29
815.365	18545.94
815.693	18336.45
816.022	18423.23
816.351	18314.31
816.68	18193.41
817.008	18313.63
817.337	18164.48
817.665	18089.91
817.994	18065.5
818.322	18051.26
818.651	17923.58
818.979	17869.8
819.307	17938.5
819.636	17853.75
819.964	17838.39
820.292	17852.85
820.62	17834.09
820.948	17791.61
821.276	17766.3
821.604	17691.27
821.932	17726.3
822.259	17784.38
822.587	17716.81
822.915	17581.22
823.243	17737.37
823.57	17634.78
823.898	17659.18
824.225	17636.13
824.553	17541.67
824.88	17647.66
825.207	17564.04
825.535	17647.43
825.862	17630.03
826.189	17624.61
826.516	17671.84
826.843	17650.6
827.17	17631.16
827.497	17531.73
827.824	17598.62
828.151	17637.04
828.478	17509.13
828.805	17555.46
829.131	17496.93
829.458	17549.13
829.785	17508.68
830.111	17551.39
830.438	17637.26
830.764	17538.96
831.09	17533.54
831.417	17416.7
831.743	17442.92
832.069	17383.48
832.395	17299.87
832.722	17420.32
833.048	17387.78
833.374	17392.75
833.7	17313.2
834.026	17392.97
834.351	17400.21
834.677	17308.23
835.003	17283.37
835.329	17204.73
835.654	17393.65
835.98	17201.79
836.306	17205.18
836.631	17171.96
836.956	17134.45
837.282	17192.75
837.607	17155.92
837.932	17123.83
838.258	17087.9
838.583	17024.85
838.908	16922.93
839.233	17025.75
839.558	16981.23
839.883	16888.36
840.208	16735.37
840.533	16810.39
840.858	16840.9
841.182	16787.79
841.507	16821.24
841.832	16637.06
842.156	16699.66
842.481	16642.71
842.805	16674.58
843.13	16594.35
843.454	16555.26
843.778	16494.02
844.103	16397.97
844.427	16460.57
844.751	16408.59
845.075	16349.39
845.399	16357.75
845.723	16244.3
846.047	16236.4
846.371	16164.98
846.695	16067.36
847.019	15931.32
847.343	15942.62
847.666	15776.07
847.99	15659.01
848.313	15622.85
848.637	15553.25
848.96	15584.89
849.284	15457.43
849.607	15400.94
849.931	15397.77
850.254	15270.32
850.577	15169.3
850.9	15117.78
851.223	15035.97
851.546	14979.93
851.869	14886.6
852.192	15060.38
852.515	14974.06
852.838	14851.12
853.161	14813.38
853.483	14796.43
853.806	14737.68
854.129	14662.88
854.451	14664.69
854.774	14531.13
855.096	14513.05
855.419	14418.59
855.741	14387.63
856.063	14374.52
856.385	14321.64
856.708	14248.88
857.03	14181.99
857.352	14224.02
857.674	14151.03
857.996	14101.31
858.318	14136.56
858.64	14033.74
858.961	14026.74
859.283	13850.24
859.605	13822.67
859.926	13981.99
860.248	13847.76
860.57	13915.33
860.891	13884.14
861.212	13757.14
861.534	13684.15
861.855	13718.72
862.176	13723.47
862.498	13700.42
862.819	13702.22
863.14	13659.29
863.461	13542.68
863.782	13508.11
864.103	13523.92
864.424	13530.25
864.745	13500.65
865.065	13355.11
865.386	13348.79
865.707	13387.66
866.027	13430.37
866.348	13391.72
866.668	13474.66
866.989	13277.15
867.309	13265.63
867.63	13280.77
867.95	13266.98
868.27	13062.69
868.59	13139.98
868.91	13196.25
869.23	13165.29
869.55	13053.88
869.87	13151.28
870.19	13107.21
870.51	13121.67
870.83	13088.91
871.15	12964.16
871.469	12989.02
871.789	13030.15
872.109	12965.52
872.428	12937.05
872.748	12963.49
873.067	12935.69
873.386	12947.67
873.706	12937.05
874.025	12935.46
874.344	12769.14
874.663	12912.41
874.982	12798.75
875.301	12803.49
875.62	12799.2
875.939	12756.71
876.258	12749.71
876.577	12713.78
876.896	12705.64
877.214	12623.83
877.533	12765.07
877.852	12729.82
878.17	12716.94
878.489	12750.39
878.807	12620.9
879.125	12580.67
879.444	12628.13
879.762	12524.4
880.08	12464.52
880.398	12415.03
880.716	12489.15
881.034	12403.73
881.352	12450.96
881.67	12408.25
881.988	12443.95
882.306	12366.89
882.624	12402.82
882.941	12247.57
883.259	12267.46
883.577	12245.31
883.894	12192.43
884.212	12201.7
884.529	12162.83
884.846	12054.36
885.164	12037.86
885.481	12044.41
885.798	12043.74
886.115	11959.9
886.432	12036.73
886.75	11908.37
887.067	11952.44
887.383	11945.43
887.7	11949.73
888.017	11917.41
888.334	11898.43
888.651	11833.12
888.967	11795.61
889.284	11759.9
889.6	11752.22
889.917	11719.45
890.233	11724.65
890.55	11708.6
890.866	11711.09
891.182	11661.15
891.498	11605.1
891.815	11564.88
892.131	11449.63
892.447	11410.53
892.763	11399.46
893.079	11344.77
893.395	11336.41
893.71	11304.55
894.026	11228.62
894.342	11227.04
894.657	11223.65
894.973	11242.63
895.289	11222.06
895.604	11182.74
895.92	11125.57
896.235	11072.24
896.55	11044.44
896.865	10978.68
897.181	10936.42
897.496	10903.2
897.811	10912.69
898.126	10879.7
898.441	10826.59
898.756	10786.59
899.071	10765.13
899.386	10777.1
899.7	10660.27
900.015	10672.02
900.33	10597.9
900.644	10583.44
900.959	10643.1
901.273	10471.35
901.588	10412.59
901.902	10495.3
902.216	10469.99
902.531	10398.36
902.845	10405.81
903.159	10322.43
903.473	10356.1
903.787	10211.92
904.101	10158.81
904.415	10197.68
904.729	10085.37
905.042	10016.9
905.356	10017.35
905.67	9957.92
905.984	9968.09
906.297	9839.28
906.611	9823.46
906.924	9844.02
907.237	9824.36
907.551	9779.39
907.864	9695.32
908.177	9677.25
908.491	9687.64
908.804	9603.12
909.117	9583.69
909.43	9545.5
909.743	9486.06
910.056	9484.93
910.368	9427.53
910.681	9421.89
910.994	9510.47
911.307	9368.78
911.619	9317.93
911.932	9307.54
912.244	9278.16
912.557	9279.52
912.869	9193.64
913.181	9204.49
913.494	9131.95
913.806	9134.21
914.118	9042.23
914.43	9044.72
914.742	9032.29
915.054	8890.6
915.366	8938.28
915.678	8799.08
915.99	8864.61
916.302	8781.22
916.613	8754.78
916.925	8704.84
917.236	8668.01
917.548	8614.22
917.859	8621.23
918.171	8581.68
918.482	8485.41
918.794	8411.74
919.105	8451.29
919.416	8321.35
919.727	8419.88
920.038	8344.85
920.349	8294.91
920.66	8261.01
920.971	8244.06
921.282	8179.43
921.593	8128.59
921.903	8162.48
922.214	8101.47
922.525	8083.16
922.835	8054.92
923.146	7985.31
923.456	7992.32
923.767	7945.54
924.077	7995.71
924.387	7937.18
924.697	7877.07
925.008	7812.89
925.318	7797.07
925.628	7808.59
925.938	7789.16
926.248	7722.49
926.558	7707.58
926.867	7673
927.177	7539.22
927.487	7579
927.796	7475.72
928.106	7463.74
928.416	7465.78
928.725	7567.7
929.034	7402.73
929.344	7443.41
929.653	7337.87
929.962	7301.26
930.271	7295.84
930.581	7204.54
930.89	7190.08
931.199	7153.02
931.508	7130.19
931.817	7080.93
932.125	7061.27
932.434	7046.13
932.743	7001.84
933.051	6984.89
933.36	6951.67
933.669	6887.26
933.977	6891.56
934.286	6880.26
934.594	6816.98
934.902	6809.07
935.21	6755.06
935.519	6773.14
935.827	6764.78
936.135	6701.28
936.443	6632.58
936.751	6607.72
937.059	6647.49
937.367	6491.34
937.674	6563.66
937.982	6520.27
938.29	6473.49
938.597	6500.61
938.905	6431.23
939.213	6391
939.52	6424
939.827	6433.94
940.135	6290.67
940.442	6269.65
940.749	6285.02
941.056	6315.98
941.363	6221.74
941.67	6191.46
941.977	6204.79
942.284	6173.61
942.591	6172.25
942.898	6095.42
943.205	6119.37
943.511	6041.41
943.818	6015.42
944.125	5951.02
944.431	5940.17
944.738	5901.75
945.044	5951.92
945.35	5917.57
945.657	5926.38
945.963	5844.35
946.269	5778.37
946.575	5811.58
946.881	5796.67
947.187	5786.95
947.493	5701.08
947.799	5713.51
948.105	5675.54
948.41	5621.31
948.716	5673.28
949.022	5567.75
949.327	5581.76
949.633	5528.65
949.938	5522.78
950.244	5494.98
950.549	5490.69
950.854	5438.94
951.16	5442.78
951.465	5402.78
951.77	5405.72
952.075	5296.8
952.38	5375.66
952.685	5323.01
952.99	5300.41
953.294	5275.1
953.599	5172.28
953.904	5174.31
954.209	5169.57
954.513	5167.08
954.818	5168.21
955.122	5096.35
955.426	5059.97
955.731	5076.01
956.035	5025.84
956.339	5000.76
956.643	5025.84
956.948	4975
957.252	4955.11
957.556	4925.05
957.86	4923.7
958.163	4923.7
958.467	4883.93
958.771	4896.81
959.075	4872.4
959.378	4813.64
959.682	4820.42
959.985	4772.74
960.289	4762.8
960.592	4723.25
960.896	4730.71
961.199	4704.04
961.502	4680.99
961.805	4703.37
962.108	4612.52
962.411	4634.67
962.714	4595.8
963.017	4572.3
963.32	4607.1
963.623	4556.7
963.926	4557.83
964.228	4504.5
964.531	4465.86
964.833	4441.9
965.136	4423.6
965.438	4404.84
965.741	4403.49
966.043	4386.31
966.345	4398.29
966.648	4329.82
966.95	4331.62
967.252	4321
967.554	4292.53
967.856	4258.63
968.158	4255.69
968.46	4219.08
968.761	4235.81
969.063	4230.38
969.365	4196.71
969.666	4158.75
969.968	4123.49
970.269	4102.93
970.571	4114
970.872	4116.26
971.174	4068.81
971.475	4054.12
971.776	3968.02
972.077	4020.9
972.378	3968.47
972.679	3977.73
972.98	3927.11
973.281	3916.04
973.582	3908.81
973.883	3888.92
974.183	3872.88
974.484	3852.99
974.785	3791.98
975.085	3814.57
975.386	3811.86
975.686	3827.91
975.986	3824.52
976.287	3780.23
976.587	3749.04
976.887	3726.89
977.187	3723.05
977.487	3742.03
977.787	3648.7
978.087	3661.36
978.387	3655.26
978.687	3658.42
978.987	3614.81
979.286	3566.9
979.586	3610.29
979.885	3616.84
980.185	3539.33
980.484	3555.6
980.784	3487.8
981.083	3487.8
981.382	3519.44
981.682	3476.28
981.981	3427.92
982.28	3421.36
982.579	3409.39
982.878	3456.84
983.177	3368.94
983.475	3424.3
983.774	3344.53
984.073	3315.15
984.372	3338.88
984.67	3339.11
984.969	3345.66
985.267	3284.42
985.566	3305.89
985.864	3268.6
986.162	3247.36
986.461	3219.34
986.759	3226.79
987.057	3188.83
987.355	3196.29
987.653	3209.17
987.951	3155.38
988.249	3148.83
988.547	3152.9
988.844	3083.52
989.142	3167.59
989.44	3064.99
989.737	3078.55
990.035	3042.84
990.332	3035.84
990.63	3039.68
990.927	3012.56
991.224	2987.25
991.521	2999.23
991.819	2973.47
992.116	2950.42
992.413	2924.65
992.71	2933.92
993.006	2888.95
993.303	2875.84
993.6	2884.88
993.897	2865.22
994.193	2844.43
994.49	2835.84
994.787	2821.38
995.083	2765.11
995.379	2782.51
995.676	2816.63
995.972	2768.27
996.268	2772.57
996.565	2752.23
996.861	2744.32
997.157	2698.45
997.453	2673.59
997.749	2682.4
998.044	2671.1
998.34	2632.69
998.636	2628.17
998.932	2631.1
999.227	2596.98
999.523	2592.69
999.818	2589.97
1000.114	2583.42
1000.409	2554.95
1000.704	2542.74
1001	2514.72
1001.295	2535.74
1001.59	2528.28
1001.885	2467.94
1002.18	2459.58
1002.475	2446.7
1002.77	2462.97
1003.065	2436.98
1003.359	2441.73
1003.654	2437.66
1003.949	2417.78
1004.243	2401.5
1004.538	2360.6
1004.832	2351.56
1005.127	2360.83
1005.421	2371
1005.715	2343.2
1006.009	2328.06
1006.304	2316.99
1006.598	2290.32
1006.892	2272.47
1007.186	2245.35
1007.48	2268.17
1007.773	2204.22
1008.067	2234.28
1008.361	2242.19
1008.655	2179.82
1008.948	2189.31
1009.242	2173.71
1009.535	2147.5
1009.829	2168.29
1010.122	2113.6
1010.415	2127.84
1010.708	2105.47
1011.001	2079.48
1011.295	2091.23
1011.588	2065.24
1011.881	2052.14
1012.173	2031.12
1012.466	2010.78
1012.759	2021.18
1013.052	2004.68
1013.344	1995.19
1013.637	2021.18
1013.93	1967.62
1014.222	1975.75
1014.514	1952.02
1014.807	1954.74
1015.099	1913.83
1015.391	1932.14
1015.683	1924.46
1015.976	1908.64
1016.268	1857.11
1016.56	1896.66
1016.851	1844.91
1017.143	1837.45
1017.435	1817.79
1017.727	1857.79
1018.018	1797.23
1018.31	1806.94
1018.602	1818.47
1018.893	1775.31
1019.185	1761.3
1019.476	1716.1
1019.767	1749.54
1020.058	1728.08
1020.35	1724.91
1020.641	1690.11
1020.932	1695.53
1021.223	1682.2
1021.514	1667.51
1021.804	1633.16
1022.095	1645.37
1022.386	1624.35
1022.677	1608.76
1022.967	1607.63
1023.258	1606.05
1023.548	1618.93
1023.839	1576.44
1024.129	1609.89
1024.419	1566.72
1024.709	1544.58
1025	1536.44
1025.29	1557.46
1025.58	1555.88
1025.87	1479.72
1026.16	1499.83
1026.449	1485.14
1026.739	1471.59
1027.029	1458.03
1027.319	1474.98
1027.608	1439.5
1027.898	1450.57
1028.187	1429.33
1028.477	1449.89
1028.766	1397.01
1029.055	1388.2
1029.344	1406.95
1029.634	1402.89
1029.923	1373.51
1030.212	1362.89
1030.501	1364.47
1030.79	1367.18
1031.078	1346.84
1031.367	1343.68
1031.656	1326.05
1031.945	1332.15
1032.233	1293.06
1032.522	1300.29
1032.81	1272.72
1033.099	1260.29
1033.387	1267.3
1033.675	1278.14
1033.963	1259.39
1034.251	1243.34
1034.54	1199.73
1034.828	1235.43
1035.116	1218.48
1035.403	1229.11
1035.691	1206.96
1035.979	1208.77
1036.267	1213.97
1036.554	1192.72
1036.842	1167.64
1037.129	1152.72
1037.417	1130.35
1037.704	1136.45
1037.992	1139.16
1038.279	1129.9
1038.566	1108.43
1038.853	1108.43
1039.14	1108.43
