Data from foil_FLMS001491_008.txt Node
Date: Tue Feb 07 11:25:17 GMT 2017
User: dcchb
Spectrometer: FLMS00149
Trigger mode: 0
Integration Time (sec): 2.000000E-2
Scans to average: 10
Electric dark correction enabled: true
Nonlinearity correction enabled: false
Boxcar width: 0
XAxis mode: Wavelengths
Number of Pixels in Spectrum: 2048
>>>>>Begin Spectral Data<<<<<
341.393	-14.11
341.776	-14.11
342.16	-14.11
342.543	-63.83
342.927	-54.79
343.31	-76.71
343.693	-58.85
344.077	-61.79
344.46	-79.42
344.843	-45.75
345.226	-41.45
345.61	-34.9
345.993	-16.14
346.376	16.85
346.759	3.74
347.142	29.96
347.525	19.34
347.908	70.18
348.291	78.54
348.674	105.44
349.057	90.97
349.44	121.25
349.823	148.6
350.206	205.32
350.588	275.15
350.971	276.05
351.354	324.19
351.737	305.2
352.119	350.17
352.502	340.91
352.884	338.42
353.267	367.35
353.65	373.68
354.032	384.3
354.414	399.21
354.797	390.85
355.179	406.9
355.562	427.91
355.944	426.33
356.326	411.19
356.709	448.02
357.091	455.71
357.473	461.36
357.855	441.7
358.238	469.27
358.62	467.69
359.002	478.76
359.384	468.59
359.766	458.19
360.148	464.75
360.53	477.63
360.912	468.59
361.294	477.85
361.676	469.04
362.057	442.15
362.439	470.17
362.821	459.32
363.203	462.26
363.584	455.03
363.966	472.88
364.348	466.1
364.729	467.91
365.111	454.35
365.493	469.04
365.874	480.79
366.256	504.29
366.637	471.3
367.019	490.28
367.4	514.69
367.781	488.25
368.163	502.49
368.544	481.24
368.925	498.87
369.306	522.37
369.688	511.98
370.069	521.92
370.45	520.34
370.831	503.39
371.212	518.98
371.593	518.53
371.974	528.47
372.355	535.48
372.736	541.58
373.117	563.28
373.498	521.47
373.879	514.46
374.26	510.85
374.641	517.63
375.021	533.67
375.402	566.21
375.783	581.58
376.163	608.02
376.544	616.38
376.925	574.8
377.305	612.09
377.686	597.4
378.066	594.69
378.447	629.94
378.827	646.89
379.208	608.7
379.588	633.78
379.968	634.01
380.349	630.62
380.729	634.69
381.109	637.17
381.489	664.74
381.87	654.8
382.25	673.78
382.63	659.32
383.01	678.98
383.39	689.83
383.77	698.41
384.15	723.27
384.53	697.06
384.91	737.51
385.29	732.99
385.67	736.15
386.049	767.79
386.429	775.93
386.809	777.06
387.189	786.55
387.568	784.97
387.948	802.37
388.328	827.68
388.707	840.33
389.087	805.3
389.466	855.02
389.846	856.15
390.225	856.6
390.605	879.43
390.984	871.29
391.363	888.69
391.743	899.54
392.122	908.58
392.501	937.28
392.881	947.67
393.26	962.81
393.639	956.49
394.018	957.39
394.397	996.03
394.776	1003.26
395.155	997.16
395.534	1004.85
395.913	1000.55
396.292	1035.35
396.671	1056.6
397.05	1052.3
397.429	1052.75
397.808	1078.06
398.186	1083.26
398.565	1109.25
398.944	1107.22
399.323	1119.19
399.701	1116.26
400.08	1125.52
400.458	1167.55
400.837	1174.79
401.215	1196.93
401.594	1193.54
401.972	1205.97
402.351	1206.88
402.729	1208.68
403.107	1222.69
403.486	1261.34
403.864	1262.47
404.242	1272.18
404.62	1317.15
404.999	1317.61
405.377	1360.09
405.755	1364.16
406.133	1359.64
406.511	1368.23
406.889	1420.88
407.267	1446.87
407.645	1447.77
408.023	1468.11
408.401	1464.95
408.779	1504.49
409.156	1543.59
409.534	1530.71
409.912	1568.45
410.29	1579.52
410.667	1607.54
411.045	1666.98
411.422	1659.52
411.8	1661.55
412.178	1714.66
412.555	1724.38
412.933	1743.36
413.31	1790.59
413.687	1787.2
414.065	1810.47
414.442	1850.25
414.819	1877.37
415.197	1873.07
415.574	1923.92
415.951	1957.82
416.328	1969.34
416.705	1941.54
417.082	1965.27
417.46	1976.35
417.837	2052.5
418.214	2046.18
418.591	2090.47
418.967	2095.67
419.344	2144.48
419.721	2156.23
420.098	2173.18
420.475	2168.21
420.852	2235.55
421.228	2237.13
421.605	2279.16
421.982	2280.07
422.358	2268.09
422.735	2332.95
423.111	2310.57
423.488	2351.7
423.864	2388.99
424.241	2407.07
424.617	2445.03
424.994	2485.26
425.37	2509.44
425.746	2523
426.123	2586.73
426.499	2570.68
426.875	2591.25
427.251	2629.21
427.627	2701.07
428.003	2730.45
428.379	2783.78
428.756	2789.21
429.132	2777.46
429.507	2897.68
429.883	2897.68
430.259	2934.74
430.635	2979.03
431.011	2977.45
431.387	3071.23
431.763	3136.09
432.138	3150.1
432.514	3158.91
432.89	3205.47
433.265	3277.1
433.641	3294.96
434.016	3345.12
434.392	3408.4
434.767	3480.26
435.143	3479.13
435.518	3556.42
435.894	3563.88
436.269	3574.5
436.644	3658.11
437.02	3668.51
437.395	3687.04
437.77	3781.04
438.145	3832.12
438.52	3874.6
438.895	3918.44
439.271	3867.14
439.646	3998.44
440.021	3970.19
440.395	4043.18
440.77	4006.12
441.145	4053.35
441.52	4140.36
441.895	4158.89
442.27	4216.29
442.645	4197.08
443.019	4216.29
443.394	4278.43
443.769	4329.96
444.143	4242.5
444.518	4379.9
444.892	4362.27
445.267	4429.39
445.641	4441.82
446.016	4471.65
446.39	4538.09
446.764	4532.66
447.139	4580.57
447.513	4609.27
447.887	4635.71
448.262	4629.16
448.636	4723.62
449.01	4754.58
449.384	4816.05
449.758	4818.76
450.132	4891.98
450.506	4908.92
450.88	4956.83
451.254	5001.8
451.628	5065.3
452.002	5154.12
452.376	5123.83
452.75	5232.08
453.123	5232.53
453.497	5361.34
453.871	5363.38
454.244	5479.08
454.618	5453.09
454.992	5595.23
455.365	5612.41
455.739	5695.8
456.112	5757.94
456.486	5809.69
456.859	5872.29
457.232	6007.88
457.606	6002.23
457.979	6073.64
458.352	6216.23
458.725	6221.88
459.099	6298.27
459.472	6363.12
459.845	6455.78
460.218	6500.75
460.591	6538.03
460.964	6604.47
461.337	6780.97
461.71	6787.75
462.083	6954.97
462.456	6972.6
462.829	7017.57
463.201	7126.49
463.574	7186.15
463.947	7295.53
464.32	7400.84
464.692	7484.68
465.065	7608.06
465.438	7650.32
465.81	7789.53
466.183	7802.86
466.555	7959.47
466.928	8000.59
467.3	8021.84
467.672	8169.18
468.045	8350.64
468.417	8404.65
468.789	8472.45
469.161	8560.13
469.534	8684.87
469.906	8936.39
470.278	8904.75
470.65	9034.24
471.022	9198.08
471.394	9410.05
471.766	9478.75
472.138	9644.85
472.51	9825.18
472.882	9899.98
473.253	9984.5
473.625	10207.09
473.997	10414.32
474.369	10514.43
474.74	10585.84
475.112	10808.66
475.484	10990.57
475.855	11083.9
476.227	11266.72
476.598	11574.74
476.97	11595.98
477.341	11861.96
477.713	12056.53
478.084	12138.11
478.455	12519.12
478.827	12609.74
479.198	12911.65
479.569	12975.83
479.94	13248.14
480.311	13423.05
480.682	13739.43
481.053	13936.71
481.424	14279.98
481.795	14333.08
482.166	14571.27
482.537	14819.62
482.908	15106.4
483.279	15201.99
483.65	15557.23
484.021	15849.43
484.391	16044
484.762	16132.58
485.133	16293.26
485.503	16536.87
485.874	16939.57
486.244	17040.58
486.615	17374.36
486.985	17535.71
487.356	17808.47
487.726	17960.78
488.097	18367.55
488.467	18381.56
488.837	18919.4
489.207	19042.79
489.578	19363.91
489.948	19503.8
490.318	19873.73
490.688	19828.98
491.058	20220.39
491.428	20367.95
491.798	20587.83
492.168	20979.24
492.538	21039.8
492.908	21250.87
493.278	21591.2
493.648	21631.2
494.017	22006.33
494.387	22139.21
494.757	22320.22
495.126	22537.61
495.496	22637.05
495.866	22723.15
496.235	23068
496.605	23214.21
496.974	23395.44
497.344	23704.14
497.713	23811.48
498.082	23996.56
498.452	24196.55
498.821	24278.13
499.19	24423.44
499.559	24587.96
499.928	24806.03
500.298	24933.93
500.667	25094.16
501.036	25096.64
501.405	25506.12
501.774	25479.68
502.143	25642.39
502.512	25857.07
502.88	26144.52
503.249	26071.76
503.618	26422.94
503.987	26518.3
504.356	26621.8
504.724	26837.61
505.093	26997.38
505.462	27164.61
505.83	27282.12
506.199	27565.73
506.567	27856.12
506.936	27794.2
507.304	28233.96
507.672	28362.09
508.041	28382.88
508.409	28758.69
508.777	28980.38
509.145	29105.12
509.514	29083.88
509.882	29317.55
510.25	29530.65
510.618	29687.03
510.986	29896.97
511.354	30136.51
511.722	30300.57
512.09	30625.54
512.458	30630.06
512.826	30951.63
513.193	31113.21
513.561	31288.57
513.929	31628.67
514.297	31763.36
514.664	31957.48
515.032	32124.25
515.4	32301.2
515.767	32499.61
516.135	32635.2
516.502	32491.25
516.869	33307.5
517.237	33423.2
517.604	33297.78
517.972	33759.01
518.339	34056.18
518.706	34170.98
519.073	34341.15
519.44	34606.67
519.808	35013.44
520.175	34779.1
520.542	35382.02
520.909	35681.9
521.276	35694.78
521.643	36036.47
522.009	36329.34
522.376	36410.92
522.743	36745.6
523.11	37082.09
523.477	37417.22
523.843	37518.24
524.21	38040.71
524.577	38228.73
524.943	38584.42
525.31	38789.16
525.676	38969.95
526.043	39262.6
526.409	39392.54
526.776	39939.19
527.142	39913.43
527.508	40298.95
527.874	40660.98
528.241	40767.19
528.607	40762.45
528.973	41193.85
529.339	41236.78
529.705	41521.07
530.071	41967.84
530.437	42192.01
530.803	42379.8
531.169	42620.93
531.535	42618.22
531.901	42923.29
532.267	42976.85
532.632	43273.11
532.998	43374.13
533.364	43616.38
533.73	43805.3
534.095	44167.55
534.461	44218.4
534.826	44474.89
535.192	44777.48
535.557	44979.74
535.923	44981.32
536.288	45087.98
536.653	45359.84
537.019	45428.31
537.384	45488.87
537.749	45591.24
538.114	45805.93
538.479	45906.26
538.845	45944.91
539.21	45996.43
539.575	46214.28
539.94	46416.99
540.305	46635.29
540.67	46726.36
541.034	46889.74
541.399	47151.2
541.764	47220.58
542.129	47353.46
542.494	47369.96
542.858	47527.47
543.223	47613.34
543.587	47967.68
543.952	47832.54
544.316	47963.39
544.681	48026.21
545.045	48334
545.41	48696.93
545.774	48586.19
546.138	48707.1
546.503	48822.35
546.867	48826.41
547.231	49125.16
547.595	49194.31
547.959	49195.67
548.324	49333.07
548.688	49561.08
549.052	49804.69
549.416	49817.57
549.779	49951.36
550.143	50005.82
550.507	50222.76
550.871	50379.14
551.235	50293.27
551.599	50672.69
551.962	50501.17
552.326	50818.23
552.689	50921.73
553.053	50900.48
553.417	50942.74
553.78	51477.42
554.143	51344.31
554.507	51398.1
554.87	51584.76
555.234	51974.58
555.597	51787.92
555.96	51987.23
556.323	52157.17
556.686	52175.48
557.05	52537.95
557.413	52471.29
557.776	52663.6
558.139	52890.26
558.502	52911.28
558.865	52903.14
559.228	53203.47
559.59	53203.7
559.953	53392.85
560.316	53671.48
560.679	53706.51
561.041	53955.77
561.404	54036.22
561.767	54248.64
562.129	54206.84
562.492	54546.49
562.854	54450.22
563.217	54514.4
563.579	54715.07
563.941	54923.43
564.304	55036.65
564.666	55123.65
565.028	55209.97
565.39	55337.66
565.753	55456.07
566.115	55503.75
566.477	55679.12
566.839	55717.31
567.201	55938.77
567.563	56035.04
567.925	56176.73
568.287	56178.54
568.648	56266.22
569.01	56451.07
569.372	56584.63
569.734	56527.91
570.095	56685.64
570.457	56852.64
570.819	56837.28
571.18	56846.99
571.542	57008.57
571.903	57004.96
572.265	57035.01
572.626	57191.17
572.987	57276.59
573.349	57377.38
573.71	57405.62
574.071	57496.69
574.432	57633.87
574.794	57815.78
575.155	57787.53
575.516	57743.69
575.877	57865.27
576.238	57888.77
576.599	57915.89
576.96	57983.46
577.32	57989.56
577.681	58095.1
578.042	58152.95
578.403	58180.97
578.763	58157.69
579.124	58237.47
579.485	58326.05
579.845	58360.85
580.206	58305.71
580.566	58321.98
580.927	58322.44
581.287	58441.53
581.648	58417.57
582.008	58533.05
582.368	58423.45
582.728	58490.34
583.089	58470
583.449	58440.85
583.809	58473.17
584.169	58562.43
584.529	58542.99
584.889	58693.73
585.249	58566.04
585.609	58505.26
585.969	58639.72
586.329	58540.96
586.688	58670.67
587.048	58532.15
587.408	58547.06
587.768	58513.39
588.127	58550.23
588.487	58544.8
588.846	58687.17
589.206	58497.12
589.565	58537.35
589.925	58664.12
590.284	58506.39
590.643	58528.98
591.003	58610.56
591.362	58710.45
591.721	58637.46
592.08	58625.48
592.44	58703.44
592.799	58738.7
593.158	58593.16
593.517	58656.21
593.876	58628.64
594.235	58589.32
594.593	58690.34
594.952	58761.75
595.311	58643.56
595.67	58743.22
596.029	58814.17
596.387	58787.06
596.746	58818.47
597.104	58674.29
597.463	58678.81
597.822	58868.41
598.18	58706.38
598.538	58691.47
598.897	58851.91
599.255	58691.01
599.613	59032.47
599.972	58827.73
600.33	58896.21
600.688	58735.08
601.046	58843.33
601.404	58954.06
601.762	58880.84
602.12	59021.85
602.478	59029.08
602.836	59045.81
603.194	58954.74
603.552	58988.63
603.91	58910.44
604.268	59056.65
604.625	58887.62
604.983	59104.56
605.341	58910.22
605.698	59129.87
606.056	59199.7
606.413	59101.62
606.771	59194.05
607.128	59211.9
607.485	59088.74
607.843	59088.29
608.2	59231.34
608.557	59188.85
608.914	59135.75
609.272	59311.79
609.629	59332.8
609.986	59390.43
610.343	59300.94
610.7	59513.82
611.057	59509.97
611.414	59421.84
611.771	59508.17
612.127	59542.97
612.484	59566.92
612.841	59675.85
613.198	59516.53
613.554	59545.45
613.911	59666.81
614.267	59609.86
614.624	59615.06
614.98	59676.52
615.337	59827.71
615.693	59719.46
616.05	59733.92
616.406	59802.4
616.762	59725.79
617.118	59780.93
617.475	59754.49
617.831	59854.37
618.187	59843.3
618.543	59779.35
618.899	60015.72
619.255	59911.77
619.611	59867.03
619.967	59888.95
620.323	59963.97
620.678	59846.92
621.034	59817.31
621.39	59780.7
621.746	59762.85
622.101	60047.81
622.457	59829.29
622.812	59874.71
623.168	59918.33
623.523	59855.95
623.879	59851.89
624.234	59750.19
624.589	59867.71
624.945	59876.74
625.3	59875.39
625.655	59848.5
626.01	59895.73
626.365	59953.58
626.72	59829.29
627.075	59823.64
627.43	59789.97
627.785	59798.33
628.14	59824.54
628.495	59829.51
628.85	59819.12
629.205	59736.41
629.559	59862.73
629.914	59710.87
630.269	59643.3
630.623	59608.05
630.978	59573.25
631.332	59648.95
631.687	59699.35
632.041	59560.37
632.396	59572.12
632.75	59506.13
633.104	59577.09
633.459	59440.37
633.813	59420.71
634.167	59374.61
634.521	59337.78
634.875	59349.08
635.229	59311.79
635.583	59184.56
635.937	59208.74
636.291	59131.23
636.645	59139.59
636.999	59034.73
637.352	59113.15
637.706	58881.74
638.06	59016.2
638.413	58973.04
638.767	58900.27
639.121	58920.61
639.474	58801.52
639.828	58762.42
640.181	58746.83
640.534	58777.79
640.888	58732.37
641.241	58540.51
641.594	58567.85
641.947	58697.57
642.301	58582.77
642.654	58517.91
643.007	58530.34
643.36	58534.86
643.713	58511.13
644.066	58520.17
644.419	58328.54
644.771	58034.99
645.124	57733.52
645.477	57702.56
645.83	57632.74
646.182	57554.09
646.535	57540.54
646.888	57654.2
647.24	57608.1
647.593	57761.09
647.945	57646.52
648.298	57571.95
648.65	57496.47
649.002	57392.06
649.355	57453.08
649.707	57245.85
650.059	57280.43
650.411	57565.17
650.763	57563.59
651.115	57864.14
651.467	57796.35
651.819	57786.63
652.171	57677.25
652.523	57632.06
652.875	57623.47
653.227	57592.06
653.578	57742.11
653.93	57577.6
654.282	57428.22
654.633	57363.14
654.985	57434.1
655.337	57436.13
655.688	57447.43
656.039	57546.41
656.391	57255.12
656.742	57305.51
657.094	57321.33
657.445	57381.67
657.796	57228.68
658.147	57197.95
658.498	57137.38
658.849	57253.31
659.2	57202.69
659.551	57050.83
659.902	57169.7
660.253	57044.05
660.604	57170.38
660.955	57008.35
661.306	57082.02
661.656	57057.61
662.007	57025.97
662.358	56958.18
662.708	56979.87
663.059	56974.9
663.409	56832.98
663.76	56964.05
664.11	56936.94
664.461	56954.34
664.811	56938.52
665.161	56911.4
665.511	56834.11
665.862	56763.61
666.212	56852.42
666.562	56825.75
666.912	56750.27
667.262	56721.35
667.612	56745.08
667.962	56772.65
668.312	56658.98
668.662	56757.28
669.011	56584.63
669.361	56562.26
669.711	56529.94
670.06	56580.56
670.41	56508.7
670.76	56458.98
671.109	56542.14
671.459	56504.18
671.808	56406.1
672.157	56533.33
672.507	56266.67
672.856	56315.48
673.205	56387.12
673.554	56443.61
673.904	56310.51
674.253	56405.88
674.602	56370.62
674.951	55952.78
675.3	55722.05
675.649	56160.01
675.998	56156.62
676.346	56156.16
676.695	56148.93
677.044	55974.02
677.393	56089.73
677.741	56030.07
678.09	55863.97
678.438	55855.16
678.787	55910.75
679.135	55914.36
679.484	55708.27
679.832	55868.04
680.181	55609.06
680.529	55686.35
680.877	55563.86
681.225	55538.55
681.573	55761.15
681.922	55449.06
682.27	55383.53
682.618	55416.52
682.966	55364.77
683.314	55473.7
683.661	55367.94
684.009	55186.47
684.357	55106.02
684.705	55036.65
685.053	55132.91
685.4	55048.4
685.748	54937.44
686.095	54973.82
686.443	54862.64
686.79	54738.12
687.138	54811.57
687.485	54731.34
687.832	54689.31
688.18	54619.71
688.527	54491.12
688.874	54442.76
689.221	54359.83
689.568	54312.6
689.915	54270.56
690.262	54224.24
690.609	54164.13
690.956	54002.77
691.303	53976.11
691.65	53888.88
691.997	53751.93
692.344	53586.74
692.69	53532.28
693.037	53521.43
693.383	53209.58
693.73	53422.23
694.077	53222.46
694.423	53179.52
694.769	52969.81
695.116	53029.69
695.462	52976.14
695.808	52834.9
696.155	52839.87
696.501	52591.29
696.847	52731.62
697.193	52439.65
697.539	52569.37
697.885	52238.08
698.231	52184.97
698.577	52207.57
698.923	52160.34
699.269	51964.18
699.614	51866.56
699.96	51743.85
700.306	51709.28
700.651	51638.32
700.997	51567.58
701.342	51519.68
701.688	51376.4
702.033	51262.51
702.379	51303.41
702.724	51211.89
703.069	51290.3
703.415	50856.19
703.76	50820.71
704.105	50720.6
704.45	50527.16
704.795	50389.31
705.14	50386.6
705.485	50332.59
705.83	50124.91
706.175	50202.2
706.52	50134.63
706.865	49950.45
707.209	49957.23
707.554	49780.51
707.899	49808.31
708.243	49547.07
708.588	49569.22
708.932	49267.08
709.277	49236.8
709.621	49205.39
709.966	48988.67
710.31	49194.09
710.654	48792.97
710.998	48933.98
711.342	48764.04
711.687	48593.2
712.031	48627.32
712.375	48442.7
712.719	48508.91
713.063	48335.13
713.407	48491.28
713.75	48286.54
714.094	48081.8
714.438	47897.85
714.782	47959.77
715.125	47709.16
715.469	47894.01
715.812	47512.55
716.156	47366.11
716.499	47475.94
716.843	47288.83
717.186	47068.95
717.53	47272.78
717.873	47221.03
718.216	47007.25
718.559	46897.2
718.902	46669.63
719.246	46875.5
719.589	46789.41
719.932	46485.91
720.275	46458.57
720.617	46429.19
720.96	46462.18
721.303	46178.57
721.646	46286.82
721.989	45942.65
722.331	46059.71
722.674	46010.67
723.016	45880.5
723.359	45948.3
723.701	45954.4
724.044	45503.34
724.386	45270.12
724.729	45588.08
725.071	45381.53
725.413	45351.48
725.755	45261.76
726.097	45096.57
726.439	44899.51
726.782	44998.27
727.124	45188.09
727.465	44825.16
727.807	44870.81
728.149	44758.5
728.491	44724.83
728.833	44597.37
729.175	44632.4
729.516	44486.19
729.858	44419.98
730.199	44421.78
730.541	44205.97
730.882	43946.09
731.224	44270.15
731.565	43947.9
731.906	43803.72
732.248	43880.56
732.589	43554.24
732.93	43530.06
733.271	43458.19
733.612	43677.62
733.953	43435.14
734.294	43351.08
734.635	43268.59
734.976	43301.59
735.317	43093.01
735.658	43183.62
735.999	43095.27
736.339	42933.01
736.68	42924.42
737.021	42794.26
737.361	42696.86
737.702	42875.61
738.042	42738.66
738.383	42580.25
738.723	42538.67
739.063	42402.85
739.404	42509.07
739.744	42569.63
740.084	42138.91
740.424	42277.43
740.764	42149.08
741.104	42190.43
741.444	41983.88
741.784	41900.27
742.124	42010.55
742.464	41782.08
742.804	41672.03
743.143	41560.84
743.483	41553.84
743.823	41473.61
744.162	41345.48
744.502	41392.71
744.841	41326.05
745.181	41320.4
745.52	41127.86
745.86	41141.42
746.199	41049.9
746.538	40764.03
746.877	40998.37
747.216	40806.29
747.556	40714.76
747.895	40754.31
748.234	40527.42
748.573	40425.05
748.911	40355.22
749.25	40386.86
749.589	40176.02
749.928	40103.48
750.267	40040.88
750.605	39839.76
750.944	39958.17
751.283	39767.9
751.621	39788.91
751.96	39597.73
752.298	39569.26
752.636	39651.51
752.975	39295.14
753.313	39257.85
753.651	39445.87
753.989	39174.92
754.327	38932.44
754.666	38937.18
755.004	38920.91
755.342	38907.35
755.679	38807.47
756.017	38547.59
756.355	38683.63
756.693	38356.41
757.031	38391.21
757.368	38097.88
757.706	38135.62
758.044	37955.06
758.381	37966.13
758.719	37894.5
759.056	37679.59
759.394	37605.92
759.731	37306.72
760.068	37292.03
760.405	37203.67
760.743	37067.85
761.08	37095.42
761.417	36922.32
761.754	36860.4
762.091	36792.83
762.428	36680.97
762.765	36382.45
763.102	36527.3
763.438	36194.2
763.775	36055.9
764.112	36065.85
764.449	35948.33
764.785	35691.62
765.122	35692.3
765.458	35471.96
765.795	35451.4
766.131	35297.73
766.467	35152.65
766.804	35018.19
767.14	34857.97
767.476	34782.94
767.812	34804.41
768.148	34893.67
768.485	34468.15
768.821	34336.4
769.157	34318.55
769.492	34312.9
769.828	34173.47
770.164	33948.61
770.5	33785.91
770.836	33847.15
771.171	33537.32
771.507	33477.89
771.842	33221.17
772.178	33159.71
772.513	33152.25
772.849	32993.84
773.184	32825.93
773.519	32804.46
773.855	32591.36
774.19	32420.07
774.525	32344.81
774.86	32310.01
775.195	32097.14
775.53	32008.55
775.865	31699.18
776.2	31525.63
776.535	31433.88
776.87	31400.88
777.205	31216.03
777.539	31036.6
777.874	31223.94
778.209	30975.81
778.543	30909.37
778.878	30600
779.212	30635.03
779.547	30450.85
779.881	30545.76
780.215	30154.14
780.55	30201.37
780.884	29902.17
781.218	29844.31
781.552	29744.66
781.886	29674.6
782.22	29449.3
782.554	29337.21
782.888	29122.3
783.222	28894.28
783.556	29059.25
783.889	28929.99
784.223	28727.28
784.557	28635.98
784.89	28690.22
785.224	28406.16
785.557	28353.28
785.891	28266.5
786.224	28219.5
786.558	28175.88
786.891	27935.66
787.224	27823.35
787.557	27789.45
787.891	27762.33
788.224	27655.67
788.557	27533.87
788.89	27471.04
789.223	27386.98
789.556	27108.79
789.888	27053.43
790.221	27018.85
790.554	26754.9
790.887	26774.34
791.219	26669.71
791.552	26497.51
791.884	26315.82
792.217	26271.98
792.549	26258.87
792.882	26091.19
793.214	26038.31
793.546	25933.23
793.879	25851.2
794.211	25749.28
794.543	25697.08
794.875	25542.73
795.207	25723.74
795.539	25366.01
795.871	25410.98
796.203	25125.79
796.535	24994.72
796.867	25014.16
797.198	24847.61
797.53	24837.44
797.862	24731.91
798.193	24731.23
798.525	24549.09
798.856	24538.69
799.188	24439.26
799.519	24481.52
799.85	24210.34
800.182	24306.15
800.513	24317.91
800.844	24003.11
801.175	24157.01
801.506	24057.35
801.837	23905.49
802.168	23907.3
802.499	23805.15
802.83	23710.24
803.161	23613.97
803.491	23437.93
803.822	23449.91
804.153	23214.66
804.483	23126.3
804.814	23042.01
805.145	23047.66
805.475	22992.52
805.805	22877.04
806.136	22952.29
806.466	22852.63
806.796	22662.58
807.126	22475.02
807.457	22440.67
807.787	22408.35
808.117	22322.7
808.447	22293.55
808.777	22334.91
809.107	22118.64
809.436	22108.47
809.766	22153.44
810.096	21915.71
810.426	21919.32
810.755	21948.93
811.085	21683.85
811.414	21770.85
811.744	21501.93
812.073	21441.37
812.403	21498.32
812.732	21456.06
813.061	21489.51
813.39	21241.38
813.719	21308.49
814.049	21400.24
814.378	21270.3
814.707	21124.54
815.036	21170.64
815.365	20979.24
815.693	20772.91
816.022	20927.03
816.351	20809.07
816.68	20614.27
817.008	20790.09
817.337	20482.07
817.665	20469.19
817.994	20541.51
818.322	20492.92
818.651	20349.42
818.979	20238.47
819.307	20443.43
819.636	20376.77
819.964	20050.22
820.292	20170.44
820.62	20140.61
820.948	20064.68
821.276	20161.86
821.604	20062.2
821.932	20117.34
822.259	20084.34
822.587	20139.48
822.915	20005.7
823.243	20085.7
823.57	19932.26
823.898	20023.78
824.225	19871.02
824.553	19880.28
824.88	19894.52
825.207	19966.38
825.535	19796.44
825.862	19942.88
826.189	19890.23
826.516	19975.2
826.843	20084.57
827.17	19933.61
827.497	19892.71
827.824	19878.02
828.151	19908.08
828.478	19819.04
828.805	19850.9
829.131	19774.97
829.458	19758.25
829.785	19620.18
830.111	19680.29
830.438	19953.73
830.764	19801.64
831.09	19837.57
831.417	19612.94
831.743	19734.98
832.069	19763.45
832.395	19647.29
832.722	19743.79
833.048	19626.96
833.374	19737.91
833.7	19621.31
834.026	19708.54
834.351	19745.37
834.677	19664.24
835.003	19819.04
835.329	19563.91
835.654	19648.2
835.98	19541.08
836.306	19491.14
836.631	19458.6
836.956	19501.99
837.282	19521.87
837.607	19477.13
837.932	19332.05
838.258	19381.54
838.583	19361.65
838.908	19273.74
839.233	19251.37
839.558	19300.64
839.883	19128.66
840.208	18981.55
840.533	19069.91
840.858	19089.12
841.182	19051.83
841.507	19030.14
841.832	18922.34
842.156	18883.25
842.481	18929.35
842.805	18783.36
843.13	18820.65
843.454	18783.59
843.778	18659.98
844.103	18730.93
844.427	18624.04
844.751	18699.07
845.075	18477.16
845.399	18502.24
845.723	18464.27
846.047	18417.95
846.371	18282.81
846.695	18245.75
847.019	18147.67
847.343	18046.88
847.666	17972.54
847.99	17851.41
848.313	17816.16
848.637	17810.51
848.96	17861.58
849.284	17737.29
849.607	17588.14
849.931	17525.99
850.254	17405.77
850.577	17286
850.9	17204.87
851.223	17211.88
851.546	17161.48
851.869	17047.81
852.192	17151.77
852.515	16958.78
852.838	16826.35
853.161	16843.75
853.483	16825
853.806	16649.18
854.129	16617.77
854.451	16643.08
854.774	16605.34
855.096	16502.74
855.419	16440.82
855.741	16370.32
856.063	16289.87
856.385	16270.89
856.708	16193.37
857.03	16249.64
857.352	16109.08
857.674	16062.08
857.996	16024.56
858.318	15924.91
858.64	15883.1
858.961	15802.2
859.283	15704.8
859.605	15706.83
859.926	15788.41
860.248	15763.78
860.57	15707.96
860.891	15746.38
861.212	15671.35
861.534	15607.85
861.855	15560.17
862.176	15721.3
862.498	15540.51
862.819	15572.37
863.14	15511.36
863.461	15524.46
863.782	15403.11
864.103	15434.98
864.424	15342.32
864.745	15363.34
865.065	15135.32
865.386	15163.12
865.707	15149.79
866.027	15355.88
866.348	15261.42
866.668	15233.4
866.989	15115.21
867.309	14973.29
867.63	15049.67
867.95	14919.28
868.27	14891.49
868.59	14964.71
868.91	14902.11
869.23	15041.54
869.55	14912.5
869.87	14925.61
870.19	14945.72
870.51	14968.32
870.83	14880.64
871.15	14868.66
871.469	14893.07
871.789	14809
872.109	14817.14
872.428	14721.1
872.748	14738.72
873.067	14704.15
873.386	14674.09
873.706	14644.49
874.025	14556.58
874.344	14500.54
874.663	14643.36
874.982	14571.5
875.301	14613.75
875.62	14566.75
875.939	14527.43
876.258	14538.28
876.577	14515.9
876.896	14476.36
877.214	14417.15
877.533	14500.08
877.852	14446.75
878.17	14434.1
878.489	14350.48
878.807	14305.29
879.125	14380.99
879.444	14398.84
879.762	14198.17
880.08	14235.01
880.398	14131.96
880.716	14213.54
881.034	14153.88
881.352	14284.27
881.67	14125.41
881.988	14102.58
882.306	14025.97
882.624	14014.67
882.941	14058.06
883.259	13959.76
883.577	13999.31
883.894	13925.86
884.212	13876.15
884.529	13978.74
884.846	13855.58
885.164	13887.22
885.481	13752.76
885.798	13791.18
886.115	13661.69
886.432	13761.8
886.75	13659.2
887.067	13756.38
887.383	13563.16
887.7	13658.3
888.017	13564.06
888.334	13557.51
888.651	13571.07
888.967	13427.57
889.284	13378.76
889.6	13320.68
889.917	13250.4
890.233	13313.22
890.55	13316.61
890.866	13316.84
891.182	13324.3
891.498	13226.9
891.815	13157.75
892.131	13079.11
892.447	13070.74
892.763	12977.41
893.079	12996.62
893.395	12940.58
893.71	12878.21
894.026	12927.24
894.342	12852.22
894.657	12704.65
894.973	12695.84
895.289	12705.78
895.604	12681.15
895.92	12642.73
896.235	12619.46
896.55	12553.7
896.865	12522.06
897.181	12456.97
897.496	12469.18
897.811	12320.93
898.126	12344.21
898.441	12261.95
898.756	12342.18
899.071	12260.6
899.386	12253.82
899.7	12171.78
900.015	12126.81
900.33	12020.38
900.644	12047.27
900.959	12053.6
901.273	11952.81
901.588	11953.94
901.902	11961.17
902.216	11895.63
902.531	11847.27
902.845	11789.65
903.159	11704
903.473	11725.24
903.787	11628.52
904.101	11604.79
904.415	11572.48
904.729	11503.78
905.042	11376.55
905.356	11450.67
905.67	11395.76
905.984	11346.95
906.297	11368.64
906.611	11281.86
906.924	11229.89
907.237	11179.04
907.551	11099.5
907.864	11033.28
908.177	11032.61
908.491	11038.93
908.804	10890.24
909.117	10936.34
909.43	10825.83
909.743	10797.58
910.056	10766.62
910.368	10753.97
910.681	10647.98
910.994	10633.52
911.307	10685.72
911.619	10560.53
911.932	10605.27
912.244	10454.09
912.557	10473.3
912.869	10411.15
913.181	10398.95
913.494	10386.07
913.806	10339.06
914.118	10297.26
914.43	10252.51
914.742	10135.68
915.054	10127.54
915.366	10094.55
915.678	10082.12
915.99	10024.5
916.302	9923.03
916.613	9909.25
916.925	9869.7
917.236	9858.62
917.548	9799.87
917.859	9800.55
918.171	9751.96
918.482	9647.78
918.794	9670.38
919.105	9566.88
919.416	9494.34
919.727	9492.76
920.038	9511.06
920.349	9352.88
920.66	9395.59
920.971	9331.63
921.282	9301.58
921.593	9244.4
921.903	9242.82
922.214	9269.49
922.525	9227.91
922.835	9110.17
923.146	9074.24
923.456	9049.83
923.767	9058.42
924.077	9024.07
924.387	8895.49
924.697	8877.41
925.008	8859.78
925.318	8854.13
925.628	8781.59
925.938	8763.74
926.248	8607.81
926.558	8701.14
926.867	8623.18
927.177	8591.77
927.487	8551.54
927.796	8430.41
928.106	8471.32
928.416	8422.05
928.725	8354.26
929.034	8338.21
929.344	8389.96
929.653	8322.62
929.962	8227.03
930.271	8264.09
930.581	8241.72
930.89	8159.69
931.199	8119.24
931.508	8124.66
931.817	8088.05
932.125	8079.46
932.434	8050.76
932.743	7973.25
933.051	7990.2
933.36	7865.46
933.669	7840.15
933.977	7848.96
934.286	7769.19
934.594	7733.71
934.902	7686.7
935.21	7639.7
935.519	7644.67
935.827	7643.32
936.135	7624.11
936.443	7467.73
936.751	7518.35
937.059	7516.77
937.367	7398.58
937.674	7417.11
937.982	7343.21
938.29	7337.56
938.597	7324.23
938.905	7226.83
939.213	7210.33
939.52	7184.34
939.827	7209.88
940.135	7158.58
940.442	7140.73
940.749	7124.91
941.056	7032.48
941.363	6951.36
941.67	6954.29
941.977	6854.64
942.284	6952.49
942.591	6894.18
942.898	6819.83
943.205	6868.2
943.511	6784.13
943.818	6823.9
944.125	6701.65
944.431	6694.41
944.738	6684.47
945.044	6630.69
945.35	6633.63
945.657	6623.23
945.963	6537.36
946.269	6579.84
946.575	6535.1
946.881	6505.27
947.187	6445.16
947.493	6458.94
947.799	6439.51
948.105	6372.61
948.41	6326.29
948.716	6349.79
949.022	6293.75
949.327	6287.65
949.633	6219.85
949.938	6219.62
950.244	6193.41
950.549	6133.53
950.854	6106.63
951.16	6112.06
951.465	6104.83
951.77	6039.06
952.075	6018.5
952.38	5998.61
952.685	5988.22
952.99	5956.35
953.294	5922.46
953.599	5891.72
953.904	5856.92
954.209	5829.58
954.513	5792.07
954.818	5776.25
955.122	5705.74
955.426	5755
955.731	5750.03
956.035	5694.44
956.339	5676.81
956.643	5641.33
956.948	5618.96
957.252	5566.76
957.556	5605.63
957.86	5531.06
958.163	5501.45
958.467	5462.13
958.771	5475.92
959.075	5470.04
959.378	5454.9
959.682	5408.35
959.985	5389.82
960.289	5358.63
960.592	5327.22
960.896	5291.74
961.199	5258.75
961.502	5242.48
961.805	5171.74
962.108	5163.16
962.411	5161.35
962.714	5124.29
963.017	5094.91
963.32	5122.25
963.623	5024.4
963.926	5048.13
964.228	5042.93
964.531	5017.85
964.833	5029.15
965.136	4955.48
965.438	4946.66
965.741	4901.24
966.043	4866.67
966.345	4912.99
966.648	4870.06
966.95	4797.06
967.252	4810.85
967.554	4782.6
967.856	4759.1
968.158	4722.26
968.46	4710.51
968.761	4690.17
969.063	4682.49
969.365	4689.95
969.666	4685.43
969.968	4615.6
970.269	4579.67
970.571	4575.37
970.872	4583.51
971.174	4524.75
971.475	4519.1
971.776	4566.33
972.077	4506.22
972.378	4426.9
972.679	4492.21
972.98	4444.3
973.281	4430.07
973.582	4397.53
973.883	4360.92
974.183	4339.9
974.484	4343.74
974.785	4277.3
975.085	4253.57
975.386	4294.25
975.686	4280.01
975.986	4211.54
976.287	4176.29
976.587	4181.49
976.887	4143.52
977.187	4138.78
977.487	4103.75
977.787	4070.98
978.087	4041.15
978.387	4099.23
978.687	4061.26
978.987	4072.56
979.286	4020.59
979.586	4017.42
979.885	3972.68
980.185	3944.88
980.484	3907.37
980.784	3914.15
981.083	3938.33
981.382	3923.87
981.682	3888.16
981.981	3883.41
982.28	3867.37
982.579	3854.72
982.878	3793.7
983.177	3775.17
983.475	3827.37
983.774	3731.78
984.073	3734.49
984.372	3739.69
984.67	3680.71
984.969	3717.32
985.267	3697.66
985.566	3700.37
985.864	3623.31
986.162	3590.32
986.461	3588.06
986.759	3586.93
987.057	3534.5
987.355	3560.71
987.653	3522.75
987.951	3516.42
988.249	3504.67
988.547	3451.79
988.844	3479.58
989.142	3435.29
989.44	3403.88
989.737	3383.77
990.035	3394.39
990.332	3392.35
990.63	3371.56
990.927	3356.2
991.224	3335.41
991.521	3319.59
991.819	3300.15
992.116	3293.15
992.413	3225.58
992.71	3213.15
993.006	3256.54
993.303	3188.29
993.6	3241.17
993.897	3195.52
994.193	3155.07
994.49	3144.68
994.787	3131.12
995.083	3133.83
995.379	3125.02
995.676	3066.71
995.972	3054.74
996.268	3054.28
996.565	3021.52
996.861	2988.07
997.157	3006.83
997.453	2995.3
997.749	2983.78
998.044	2927.28
998.34	2936.77
998.636	2962.76
998.932	2895.19
999.227	2913.95
999.523	2878.02
999.818	2885.02
1000.114	2884.35
1000.409	2849.09
1000.704	2816.78
1001	2798.25
1001.295	2808.64
1001.59	2755.53
1001.885	2812.26
1002.18	2735.42
1002.475	2736.55
1002.77	2749.89
1003.065	2677.34
1003.359	2698.36
1003.654	2676.89
1003.949	2624.46
1004.243	2634.18
1004.538	2608.19
1004.832	2626.05
1005.127	2598.93
1005.421	2595.99
1005.715	2513.96
1006.009	2541.08
1006.304	2499.04
1006.598	2515.77
1006.892	2501.08
1007.186	2497.91
1007.48	2460.63
1007.773	2452.49
1008.067	2438.48
1008.361	2427.86
1008.655	2381.31
1008.948	2375.88
1009.242	2384.92
1009.535	2350.35
1009.829	2353.06
1010.122	2352.61
1010.415	2335.21
1010.708	2311.25
1011.001	2297.24
1011.295	2296.11
1011.588	2281.88
1011.881	2257.92
1012.173	2216.34
1012.466	2209.56
1012.759	2199.39
1013.052	2208.66
1013.344	2203.46
1013.637	2220.18
1013.93	2136.79
1014.222	2208.88
1014.514	2119.85
1014.807	2141.09
1015.099	2102.22
1015.391	2097.25
1015.683	2094.76
1015.976	2067.42
1016.268	2090.47
1016.56	2019.96
1016.851	2021.32
1017.143	1994.2
1017.435	1999.17
1017.727	1975.22
1018.018	1971.83
1018.31	1960.98
1018.602	1924.14
1018.893	1918.04
1019.185	1900.64
1019.476	1924.37
1019.767	1898.83
1020.058	1856.58
1020.35	1874.65
1020.641	1847.99
1020.932	1853.41
1021.223	1812.06
1021.514	1818.16
1021.804	1783.36
1022.095	1774.09
1022.386	1785.16
1022.677	1777.03
1022.967	1727.54
1023.258	1724.15
1023.548	1733.19
1023.839	1732.28
1024.129	1706.97
1024.419	1683.25
1024.709	1702.68
1025	1677.6
1025.29	1663.59
1025.58	1654.32
1025.87	1612.74
1026.16	1631.27
1026.449	1618.16
1026.739	1594.89
1027.029	1587.43
1027.319	1594.89
1027.608	1563.02
1027.898	1555.57
1028.187	1528.45
1028.477	1504.04
1028.766	1533.87
1029.055	1506.3
1029.344	1480.09
1029.634	1466.98
1029.923	1487.77
1030.212	1470.82
1030.501	1457.04
1030.79	1456.81
1031.078	1460.43
1031.367	1404.61
1031.656	1409.81
1031.945	1390.15
1032.233	1388.57
1032.522	1366.87
1032.81	1355.35
1033.099	1360.54
1033.387	1394.67
1033.675	1362.8
1033.963	1338.4
1034.251	1327.55
1034.54	1323.26
1034.828	1278.74
1035.116	1288.45
1035.403	1272.18
1035.691	1286.19
1035.979	1254.56
1036.267	1270.38
1036.554	1242.13
1036.842	1254.56
1037.129	1225.41
1037.417	1248.23
1037.704	1195.35
1037.992	1207.55
1038.279	1219.08
1038.566	1185.18
1038.853	1185.18
1039.14	1185.18
