Data from foil_FLMS001491_089.txt Node
Date: Tue Feb 07 11:36:56 GMT 2017
User: dcchb
Spectrometer: FLMS00149
Trigger mode: 0
Integration Time (sec): 2.000000E-2
Scans to average: 10
Electric dark correction enabled: true
Nonlinearity correction enabled: false
Boxcar width: 0
XAxis mode: Wavelengths
Number of Pixels in Spectrum: 2048
>>>>>Begin Spectral Data<<<<<
341.393	-24.79
341.776	-24.79
342.16	-24.79
342.543	-55.75
342.927	-61.17
343.31	-83.99
343.693	-79.25
344.077	-55.52
344.46	-68.18
344.843	-47.84
345.226	-33.15
345.61	-24.56
345.993	-12.13
346.376	8.43
346.759	11.37
347.142	51.37
347.525	36.91
347.908	45.49
348.291	79.16
348.674	75.32
349.057	96.57
349.44	131.37
349.823	150.58
350.206	175.43
350.588	281.65
350.971	325.71
351.354	317.12
351.737	351.02
352.119	363.45
352.502	372.72
352.884	381.08
353.267	365.48
353.65	407.52
354.032	417.46
354.414	419.49
354.797	417.23
355.179	409.33
355.562	431.02
355.944	446.16
356.326	432.83
356.709	472.15
357.091	450.68
357.473	491.36
357.855	464.92
358.238	461.75
358.62	469.89
359.002	478.93
359.384	477.12
359.766	487.52
360.148	487.52
360.53	485.26
360.912	490.45
361.294	483.45
361.676	492.94
362.057	516.22
362.439	496.55
362.821	501.98
363.203	497.46
363.584	480.51
363.966	473.5
364.348	493.62
364.729	495.88
365.111	509.89
365.493	496.33
365.874	491.13
366.256	491.81
366.637	539.49
367.019	532.71
367.4	496.78
367.781	492.26
368.163	512.15
368.544	520.28
368.925	528.87
369.306	538.14
369.688	529.32
370.069	546.04
370.45	541.98
370.831	551.92
371.212	562.32
371.593	555.76
371.974	561.19
372.355	562.32
372.736	563.45
373.117	561.41
373.498	570.23
373.879	567.74
374.26	562.99
374.641	548.3
375.021	563.45
375.402	593.5
375.783	619.72
376.163	664.23
376.544	643.9
376.925	640.05
377.305	648.64
377.686	632.14
378.066	659.94
378.447	645.93
378.827	633.95
379.208	654.06
379.588	672.14
379.968	680.5
380.349	686.83
380.729	669.43
381.109	692.03
381.489	704.91
381.87	727.51
382.25	680.05
382.63	725.25
383.01	739.71
383.39	730.22
383.77	734.74
384.15	770.22
384.53	757.11
384.91	779.94
385.29	788.3
385.67	807.06
386.049	814.06
386.429	817.22
386.809	822.65
387.189	827.62
387.568	842.53
387.948	841.18
388.328	859.26
388.707	885.7
389.087	877.34
389.466	897
389.846	875.08
390.225	891.57
390.605	931.35
390.984	908.52
391.363	962.76
391.743	972.7
392.122	957.33
392.501	994.17
392.881	968.86
393.26	997.56
393.639	1044.56
394.018	1022.19
394.397	1049.31
394.776	1055.86
395.155	1058.35
395.534	1068.07
395.913	1092.47
396.292	1105.58
396.671	1123.66
397.05	1125.69
397.429	1118.69
397.808	1108.52
398.186	1135.18
398.565	1131.11
398.944	1166.14
399.323	1180.15
399.701	1203.88
400.08	1226.48
400.458	1228.51
400.837	1226.93
401.215	1243.2
401.594	1225.8
401.972	1259.92
402.351	1288.17
402.729	1292.47
403.107	1324.33
403.486	1352.8
403.864	1349.87
404.242	1353.71
404.62	1365.23
404.999	1372.69
405.377	1408.17
405.755	1409.3
406.133	1462.86
406.511	1463.08
406.889	1450.2
407.267	1503.08
407.645	1500.82
408.023	1539.01
408.401	1561.84
408.779	1571.55
409.156	1629.41
409.534	1628.5
409.912	1633.47
410.29	1681.83
410.667	1707.82
411.045	1733.58
411.422	1756.63
411.8	1738.33
412.178	1791.66
412.555	1780.81
412.933	1836.18
413.31	1856.07
413.687	1871.89
414.065	1899
414.442	1919.79
414.819	1950.98
415.197	1944.2
415.574	2030.75
415.951	2040.47
416.328	2016.51
416.705	2047.93
417.082	2061.71
417.46	2083.18
417.837	2091.09
418.214	2119.79
418.591	2166.34
418.967	2131.77
419.344	2187.36
419.721	2196.4
420.098	2226.68
420.475	2264.64
420.852	2259.67
421.228	2308.03
421.605	2336.05
421.982	2335.15
422.358	2392.78
422.735	2415.83
423.111	2412.21
423.488	2446.11
423.864	2473.45
424.241	2504.41
424.617	2527.01
424.994	2546.9
425.37	2595.26
425.746	2588.7
426.123	2640.68
426.499	2645.2
426.875	2672.99
427.251	2757.51
427.627	2786.21
428.003	2843.16
428.379	2847
428.756	2866.44
429.132	2909.82
429.507	2936.49
429.883	3004.74
430.259	3048.13
430.635	3061.46
431.011	3077.73
431.387	3134.68
431.763	3171.96
432.138	3212.87
432.514	3284.96
432.89	3284.05
433.265	3376.03
433.641	3413.77
434.016	3389.59
434.392	3462.8
434.767	3515.23
435.143	3523.37
435.518	3609.24
435.894	3586.42
436.269	3637.72
436.644	3698.96
437.02	3766.07
437.395	3768.79
437.77	3801.1
438.145	3839.52
438.52	3889.23
438.895	3941.89
439.271	3940.98
439.646	4016.01
440.021	4096.46
440.395	4077.25
440.77	4069.79
441.145	4094.43
441.52	4198.83
441.895	4140.07
442.27	4202.67
442.645	4224.59
443.019	4302.56
443.394	4253.97
443.769	4293.29
444.143	4297.13
444.518	4392.27
444.892	4373.06
445.267	4418.26
445.641	4423.01
446.016	4490.35
446.39	4523.12
446.764	4526.28
447.139	4499.61
447.513	4604.47
447.887	4618.03
448.262	4637.24
448.636	4663.68
449.01	4726.27
449.384	4778.02
449.758	4759.72
450.132	4841.3
450.506	4875.65
450.88	4913.84
451.254	4929.43
451.628	4975.08
452.002	5002.42
452.376	5109.54
452.75	5091.01
453.123	5186.15
453.497	5220.72
453.871	5284.45
454.244	5413.49
454.618	5437.67
454.992	5507.95
455.365	5542.3
455.739	5693.48
456.112	5693.93
456.486	5755.17
456.859	5764.89
457.232	5860.93
457.606	5914.72
457.979	5963.53
458.352	6074.26
458.725	6194.26
459.099	6201.04
459.472	6356.51
459.845	6415.27
460.218	6420.24
460.591	6529.39
460.964	6542.95
461.337	6676.28
461.71	6748.82
462.083	6894.8
462.456	6905.65
462.829	6939.1
463.201	7018.87
463.574	7048.47
463.947	7156.49
464.32	7298.64
464.692	7404.62
465.065	7415.47
465.438	7477.61
465.81	7640.1
466.183	7733.88
466.555	7856.59
466.928	7921.44
467.3	7976.13
467.672	8028.56
468.045	8272.4
468.417	8279.63
468.789	8363.01
469.161	8509.9
469.534	8598.49
469.906	8793.74
470.278	8836.67
470.65	8965.94
471.022	9106.27
471.394	9285.48
471.766	9371.12
472.138	9433.49
472.51	9715.07
472.882	9857.44
473.253	9875.07
473.625	10035.06
473.997	10218.56
474.369	10254.49
474.74	10393.24
475.112	10583.07
475.484	10799.33
475.855	10914.36
476.227	10995.26
476.598	11335.14
476.97	11424.4
477.341	11698.52
477.713	11927.67
478.084	11925.18
478.455	12292.63
478.827	12403.81
479.198	12761.99
479.569	12813.74
479.94	13085.15
480.311	13187.52
480.682	13486.5
481.053	13767.39
481.424	13997.89
481.795	14104.56
482.166	14328.73
482.537	14567.15
482.908	14854.6
483.279	14926.01
483.65	15321.93
484.021	15532.32
484.391	15785.87
484.762	15898.18
485.133	16026.54
485.503	16203.03
485.874	16546.08
486.244	16747.2
486.615	17066.51
486.985	17209.79
487.356	17526.16
487.726	17732.49
488.097	17970.9
488.467	17990.78
488.837	18469.42
489.207	18706.25
489.578	18953.7
489.948	19128.38
490.318	19407.02
490.688	19436.62
491.058	19794.58
491.428	19924.74
491.798	20167.22
492.168	20589.13
492.538	20642.01
492.908	20856.02
493.278	21013.08
493.648	21160.64
494.017	21501.2
494.387	21642.67
494.757	21805.82
495.126	22081.98
495.496	22134.86
495.866	22233.84
496.235	22624.56
496.605	22712.69
496.974	22942.52
497.344	23174.6
497.713	23241.27
498.082	23382.05
498.452	23701.37
498.821	23715.38
499.19	23780.24
499.559	24059.78
499.928	24264.07
500.298	24356.94
500.667	24576.6
501.036	24651.17
501.405	24790.83
501.774	24881
502.143	25079.86
502.512	25197.6
502.88	25525.5
503.249	25523.02
503.618	25758.94
503.987	25887.75
504.356	26145.6
504.724	26350.79
505.093	26341.98
505.462	26504.23
505.83	26694.28
506.199	26907.61
506.567	27314.83
506.936	27183.08
507.304	27574.49
507.672	27513.47
508.041	27934.7
508.409	28030.07
508.777	28185.32
509.145	28509.83
509.514	28484.29
509.882	28662.59
510.25	28819.88
510.618	29101.68
510.986	29300.09
511.354	29588.67
511.722	29698.27
512.09	29925.39
512.458	29928.55
512.826	30276.11
513.193	30463.45
513.561	30630.9
513.929	30814.63
514.297	31195.41
514.664	31388.85
515.032	31481.05
515.4	31808.73
515.767	31876.97
516.135	32128.04
516.502	31962.62
516.869	32620.91
517.237	32779.55
517.604	32729.61
517.972	33238.07
518.339	33431.51
518.706	33405.75
519.073	33665.85
519.44	34003.7
519.808	34209.79
520.175	34301.32
520.542	34836.22
520.909	35014.07
521.276	35006.83
521.643	35508.74
522.009	35776.53
522.376	36003.87
522.743	36184.88
523.11	36640.69
523.477	36922.94
523.843	37033.22
524.21	37514.79
524.577	37680.21
524.943	37978.28
525.31	38203.59
525.676	38595.21
526.043	38720.18
526.409	38905.49
526.776	39227.97
527.142	39429.32
527.508	39745.92
527.874	40030.2
528.241	40262.97
528.607	40401.72
528.973	40806.46
529.339	40916.96
529.705	41410.06
530.071	41726.88
530.437	41801.46
530.803	42205.51
531.169	42358.73
531.535	42281.22
531.901	42430.59
532.267	42552.62
532.632	43045.49
532.998	43250.91
533.364	43380.62
533.73	43581.07
534.095	44022.64
534.461	44043.66
534.826	44355.06
535.192	44396.64
535.557	44728.61
535.923	44617.2
536.288	44963.18
536.653	45155.49
537.019	45149.84
537.384	45415.37
537.749	45609.72
538.114	45679.1
538.479	45771.07
538.845	46091.06
539.21	46076.15
539.575	46396.36
539.94	46405.63
540.305	46762.68
540.67	46644.27
541.034	46948.89
541.399	47096.69
541.764	47301.88
542.129	47466.17
542.494	47521.98
542.858	47646.05
543.223	47774.41
543.587	47942.54
543.952	48022.31
544.316	48209.65
544.681	48268.86
545.045	48492.58
545.41	48735.74
545.774	48903.64
546.138	48839.01
546.503	48973.7
546.867	49004.43
547.231	49425.44
547.595	49377.53
547.959	49598.77
548.324	49759.67
548.688	49721.48
549.052	49932.77
549.416	49987.91
549.779	50038.53
550.143	50248.47
550.507	50569.59
550.871	50699.08
551.235	50630.6
551.599	51096.35
551.962	51133.87
552.326	51207.31
552.689	51467.19
553.053	51329.12
553.417	51490.24
553.78	51944.24
554.143	51782.44
554.507	51975.88
554.87	52045.26
555.234	52429.2
555.597	52264.69
555.96	52551.01
556.323	52638.46
556.686	52664.45
557.05	53011.56
557.413	53117.77
557.776	53298.33
558.139	53410.42
558.502	53491.55
558.865	53558.21
559.228	53794.59
559.59	53875.94
559.953	54015.83
560.316	54298.3
560.679	54298.98
561.041	54503.95
561.404	54625.98
561.767	54830.95
562.129	54795.01
562.492	55090.37
562.854	55164.5
563.217	55250.14
563.579	55429.12
563.941	55534.43
564.304	55666.4
564.666	55827.08
565.028	55792.5
565.39	56076.11
565.753	56164.7
566.115	56302.55
566.477	56423.9
566.839	56470.9
567.201	56753.38
567.563	56716.09
567.925	56906.82
568.287	56856.65
568.648	56963.09
569.01	57124.44
569.372	57303.42
569.734	57216.19
570.095	57495.06
570.457	57591.55
570.819	57648.27
571.18	57672.23
571.542	57849.17
571.903	57884.88
572.265	57916.74
572.626	58078.32
572.987	58119.22
573.349	58172.33
573.71	58365.99
574.071	58339.1
574.432	58478.76
574.794	58638.75
575.155	58614.35
575.516	58544.75
575.877	58772.08
576.238	58751.29
576.599	58847.11
576.96	58857.96
577.32	58860.67
577.681	58974.34
578.042	59067.44
578.403	59059.08
578.763	59122.13
579.124	59192.64
579.485	59265.4
579.845	59262.02
580.206	59284.39
580.566	59266.76
580.927	59272.86
581.287	59408.45
581.648	59276.48
582.008	59524.16
582.368	59419.53
582.728	59396.7
583.089	59421.79
583.449	59482.35
583.809	59451.61
584.169	59594.44
584.529	59494.1
584.889	59633.76
585.249	59462.01
585.609	59482.57
585.969	59590.14
586.329	59522.57
586.688	59697.03
587.048	59537.04
587.408	59617.26
587.768	59557.15
588.127	59577.26
588.487	59520.31
588.846	59746.3
589.206	59527.77
589.565	59611.84
589.925	59734.09
590.284	59596.02
590.643	59639.63
591.003	59704.49
591.362	59759.4
591.721	59686.41
592.08	59736.35
592.44	59800.08
592.799	59774.77
593.158	59744.04
593.517	59734.77
593.876	59773.19
594.235	59721.44
594.593	59786.75
594.952	59866.29
595.311	59779.97
595.67	59839.18
596.029	59980.87
596.387	60015.44
596.746	59974.76
597.104	59814.77
597.463	59868.1
597.822	59976.8
598.18	59861.55
598.538	59849.12
598.897	60022.22
599.255	59814.32
599.613	60167.3
599.972	60025.38
600.33	60085.72
600.688	59937.7
601.046	60038.27
601.404	60125.27
601.762	60117.59
602.12	60207.75
602.478	60229
602.836	60148.55
603.194	60045.72
603.552	60143.12
603.91	60087.3
604.268	60349.67
604.625	60225.83
604.983	60306.51
605.341	60144.48
605.698	60339.5
606.056	60368.88
606.413	60411.14
606.771	60440.29
607.128	60516.67
607.485	60351.48
607.843	60332.5
608.2	60444.81
608.557	60515.99
608.914	60453.85
609.272	60607.97
609.629	60589.66
609.986	60614.07
610.343	60606.61
610.7	60753.05
611.057	60711.47
611.414	60675.54
611.771	60772.94
612.127	60771.13
612.484	60812.03
612.841	60892.93
613.198	60867.17
613.554	60818.13
613.911	61030.78
614.267	60971.57
614.624	60944
614.98	60932.25
615.337	61078.69
615.693	61082.98
616.05	61072.82
616.406	61169.08
616.762	61043.66
617.118	61080.95
617.475	61077.79
617.831	61132.7
618.187	61190.33
618.543	61213.15
618.899	61353.26
619.255	61242.08
619.611	61145.13
619.967	61273.04
620.323	61310.1
620.678	61244.79
621.034	61210.89
621.39	61208.18
621.746	61170.44
622.101	61378.8
622.457	61225.81
622.812	61280.27
623.168	61321.4
623.523	61297.67
623.879	61372.47
624.234	61338.12
624.589	61305.13
624.945	61358.91
625.3	61401.39
625.655	61327.27
626.01	61367.5
626.365	61393.03
626.72	61321.85
627.075	61320.27
627.43	61314.39
627.785	61255.18
628.14	61345.12
628.495	61266.03
628.85	61269.65
629.205	61144.9
629.559	61331.11
629.914	61215.86
630.269	61185.35
630.623	61081.4
630.978	61052.02
631.332	61229.65
631.687	61186.71
632.041	61065.13
632.396	61090.22
632.75	61000.05
633.104	61055.64
633.459	60955.76
633.813	61005.47
634.167	60891.8
634.521	60854.52
634.875	60907.62
635.229	60917.34
635.583	60830.34
635.937	60770.45
636.291	60761.41
636.645	60830.56
636.999	60717.57
637.352	60768.19
637.706	60589.21
638.06	60720.96
638.413	60598.03
638.767	60572.72
639.121	60659.27
639.474	60496.11
639.828	60488.88
640.181	60529.78
640.534	60533.62
640.888	60459.95
641.241	60332.72
641.594	60368.65
641.947	60427.63
642.301	60295.43
642.654	60306.06
643.007	60299.73
643.36	60293.85
643.713	60223.35
644.066	60307.19
644.419	60012.28
644.771	59777.93
645.124	59391.5
645.477	59307.89
645.83	59277.83
646.182	59302.24
646.535	59455.46
646.888	59576.58
647.24	59493.87
647.593	59624.49
647.945	59624.49
648.298	59524.38
648.65	59415.46
649.002	59178.18
649.355	59228.8
649.707	59134.11
650.059	59079.87
650.411	59377.72
650.763	59367.1
651.115	59763.7
651.467	59683.47
651.819	59635.79
652.171	59532.52
652.523	59580.65
652.875	59507.66
653.227	59388.57
653.578	59553.08
653.93	59478.96
654.282	59388.11
654.633	59319.64
654.985	59388.79
655.337	59416.81
655.688	59398.73
656.039	59408.9
656.391	59144.5
656.742	59217.27
657.094	59310.6
657.445	59397.6
657.796	59254.78
658.147	59155.8
658.498	59136.82
658.849	59224.28
659.2	59157.16
659.551	59122.81
659.902	59188.34
660.253	59114.67
660.604	59159.42
660.955	58967.33
661.306	59042.59
661.656	59009.37
662.007	59043.49
662.358	58956.03
662.708	58947
663.059	58896.83
663.409	58808.92
663.76	58956.94
664.11	58980.89
664.461	59017.95
664.811	58989.03
665.161	58922.82
665.511	58811.63
665.862	58865.64
666.212	58875.81
666.562	58899.54
666.912	58828.35
667.262	58774.12
667.612	58704.29
667.962	58771.86
668.312	58697.74
668.662	58839.65
669.011	58818.64
669.361	58751.52
669.711	58720.56
670.06	58642.37
670.41	58571.64
670.76	58585.87
671.109	58690.28
671.459	58648.02
671.808	58584.29
672.157	58642.82
672.507	58459.1
672.856	58498.65
673.205	58502.26
673.554	58609.15
673.904	58497.52
674.253	58623.39
674.602	58484.63
674.951	58136.85
675.3	58013.91
675.649	58482.6
675.998	58390.4
676.346	58426.33
676.695	58462.94
677.044	58274.7
677.393	58356.73
677.741	58335.26
678.09	58269.72
678.438	58146.34
678.787	58267.01
679.135	58253
679.484	58059.79
679.832	58184.3
680.181	57887.81
680.529	58068.37
680.877	57967.81
681.225	57909.51
681.573	58104.53
681.922	57913.12
682.27	57810.75
682.618	57794.71
682.966	57676.52
683.314	57724.88
683.661	57593.58
684.009	57506.13
684.357	57465.9
684.705	57425.45
685.053	57469.75
685.4	57477.2
685.748	57298.45
686.095	57287.38
686.443	57119.92
686.79	57209.41
687.138	57248.51
687.485	57155.63
687.832	57013.71
688.18	57068.4
688.527	56934.62
688.874	56976.2
689.221	56858.24
689.568	56747.96
689.915	56663.67
690.262	56676.77
690.609	56607.17
690.956	56512.93
691.303	56413.5
691.65	56341.64
691.997	56418.47
692.344	56266.61
692.69	56172.38
693.037	56163.57
693.383	55942.1
693.73	56051.25
694.077	55930.58
694.423	55917.24
694.769	55745.05
695.116	55606.74
695.462	55617.59
695.808	55512.51
696.155	55597.25
696.501	55393.87
696.847	55432.29
697.193	55180.09
697.539	55234.1
697.885	55009.92
698.231	54931.28
698.577	54981.9
698.923	54843.6
699.269	54739.65
699.614	54665.3
699.96	54578.07
700.306	54440.45
700.651	54475.02
700.997	54249.04
701.342	54200.68
701.688	54162.04
702.033	54150.51
702.379	54111.42
702.724	53952.78
703.069	54038.42
703.415	53744.42
703.76	53710.75
704.105	53647.93
704.45	53650.41
704.795	53448.16
705.14	53402.28
705.485	53359.8
705.83	53251.33
706.175	53311.66
706.52	53209.97
706.865	53138.11
707.209	53023.08
707.554	52854.5
707.899	52908.96
708.243	52734.05
708.588	52758.91
708.932	52420.61
709.277	52396.21
709.621	52548.29
709.966	52259.71
710.31	52280.28
710.654	52064.24
710.998	52117.12
711.342	52066.72
711.687	51996.44
712.031	51872.15
712.375	51613.18
712.719	51673.97
713.063	51669.67
713.407	51691.14
713.75	51607.98
714.094	51650.01
714.438	51398.72
714.782	51443.46
715.125	51171.38
715.469	51271.94
715.812	51061.55
716.156	51019.07
716.499	51000.99
716.843	51022.23
717.186	50757.61
717.53	50886.87
717.873	50974.78
718.216	50774.33
718.559	50517.84
718.902	50409.37
719.246	50336.83
719.589	50244.63
719.932	50174.8
720.275	50170.73
720.617	50156.04
720.96	50013.44
721.303	49913.33
721.646	49922.6
721.989	49714.92
722.331	49900.68
722.674	49708.59
723.016	49646.9
723.359	49459.11
723.701	49631.31
724.044	49342.28
724.386	49230.87
724.729	49359.9
725.071	49310.64
725.413	49102.96
725.755	49082.17
726.097	48900.25
726.439	48737.77
726.782	48746.81
727.124	48994.26
727.465	48752.24
727.807	48614.61
728.149	48561.05
728.491	48516.31
728.833	48606.02
729.175	48356.09
729.516	48115.64
729.858	48166.04
730.199	48196.54
730.541	48072.25
730.882	47989.32
731.224	48186.83
731.565	47823.9
731.906	47799.49
732.248	47822.77
732.589	47674.75
732.93	47536.45
733.271	47388.88
733.612	47411.25
733.953	47572.15
734.294	47322.22
734.635	47140.53
734.976	47249.9
735.317	47117.25
735.658	47059.85
735.999	46970.14
736.339	46922.23
736.68	47025.5
737.021	46751.61
737.361	46546.87
737.702	46737.82
738.042	46653.76
738.383	46570.15
738.723	46586.19
739.063	46437.95
739.404	46379.87
739.744	46192.53
740.084	46145.3
740.424	46274.11
740.764	46163.83
741.104	46160.66
741.444	46063.94
741.784	45873.44
742.124	45940.56
742.464	45733.56
742.804	45746.89
743.143	45698.08
743.483	45665.31
743.823	45561.13
744.162	45487.24
744.502	45520.91
744.841	45176.51
745.181	45397.52
745.52	45188.71
745.86	45136.28
746.199	44980.36
746.538	44812.68
746.877	44986.91
747.216	44745.56
747.556	44660.37
747.895	44607.71
748.234	44353.48
748.573	44453.59
748.911	44471.67
749.25	44271.67
749.589	44056.31
749.928	44000.72
750.267	44225.8
750.605	43954.85
750.944	43967.28
751.283	43604.8
751.621	43883.89
751.96	43686.83
752.298	43539.72
752.636	43475.76
752.975	43258.59
753.313	43149.22
753.651	43338.59
753.989	43018.15
754.327	42933.41
754.666	42737.25
755.004	42821.09
755.342	42778.15
755.679	42656.8
756.017	42438.5
756.355	42521.44
756.693	42336.13
757.031	42261.11
757.368	41971.85
757.706	42016.37
758.044	41812.08
758.381	41915.35
758.719	41744.51
759.056	41638.75
759.394	41491.64
759.731	41307.01
760.068	41218.42
760.405	41005.32
760.743	40894.81
761.08	40968.71
761.417	40747.47
761.754	40574.15
762.091	40552.9
762.428	40488.05
762.765	40158.34
763.102	40086.25
763.438	40012.8
763.775	39811
764.112	39984.78
764.449	39787.73
764.785	39637.9
765.122	39475.87
765.458	39183.9
765.795	39247.85
766.131	39126.95
766.467	38831.82
766.804	38621.65
767.14	38430.7
767.476	38510.24
767.812	38201.55
768.148	38414.43
768.485	38168.78
768.821	37937.83
769.157	37772.86
769.492	37543.94
769.828	37693.99
770.164	37451.29
770.5	37242.26
770.836	37150.96
771.171	36923.17
771.507	36845.43
771.842	36558.21
772.178	36538.32
772.513	36556.4
772.849	36469.62
773.184	36233.24
773.519	36152.34
773.855	36026.69
774.19	35924.78
774.525	35733.59
774.86	35734.5
775.195	35575.41
775.53	35431.91
775.865	35270.33
776.2	34956.67
776.535	34697.69
776.87	34794.86
777.205	34493.85
777.539	34472.16
777.874	34417.92
778.209	34172.96
778.543	34046.86
778.878	33985.62
779.212	33980.42
779.547	33701.56
779.881	33760.76
780.215	33541.79
780.55	33488
780.884	33167.11
781.218	33151.74
781.552	33066.09
781.886	32844.18
782.22	32793.56
782.554	32650.96
782.888	32428.82
783.222	32238.32
783.556	32143.86
783.889	32082.16
784.223	32022.28
784.557	31878.1
784.89	31821.15
785.224	31624.55
785.557	31435.18
785.891	31448.74
786.224	31407.38
786.558	31294.16
786.891	30939.37
787.224	30976.66
787.557	30766.49
787.891	30714.07
788.224	30722.65
788.557	30512.26
788.89	30585.71
789.223	30410.34
789.556	30185.72
789.888	30060.98
790.221	30044.48
790.554	29714.77
790.887	29775.56
791.219	29632.74
791.552	29639.07
791.884	29378.73
792.217	29292.63
792.549	29145.07
792.882	28965.64
793.214	28985.07
793.546	28802.25
793.879	28631.63
794.211	28571.07
794.543	28743.27
794.875	28391.87
795.207	28524.29
795.539	28231.64
795.871	28358.87
796.203	28112.78
796.535	27874.59
796.867	27859
797.198	27649.51
797.53	27607.71
797.862	27485
798.193	27549.85
798.525	27365.68
798.856	27269.18
799.188	27157.32
799.519	26986.25
799.85	26922.75
800.182	26882.98
800.513	26767.05
800.844	26615.19
801.175	26723.44
801.506	26543.1
801.837	26480.5
802.168	26281.19
802.499	26268.98
802.83	26238.02
803.161	26031.48
803.491	25919.16
803.822	25873.74
804.153	25939.73
804.483	25637.81
804.814	25668.32
805.145	25548.1
805.475	25603.69
805.805	25373.19
806.136	25348.78
806.466	25388.1
806.796	25315.34
807.126	25158.51
807.457	25036.7
807.787	24991.5
808.117	24837.61
808.447	24749.7
808.777	24734.11
809.107	24814.33
809.436	24553.78
809.766	24605.75
810.096	24409.15
810.426	24482.36
810.755	24454.57
811.085	24335.7
811.414	24213.67
811.744	24101.81
812.073	24177.74
812.403	24151.07
812.732	23968.03
813.061	23910.4
813.39	23867.01
813.719	23708.83
814.049	23899.56
814.378	23743.18
814.707	23672.44
815.036	23579.79
815.365	23315.16
815.693	23124.43
816.022	23286.92
816.351	23135.96
816.68	22955.63
817.008	23091.89
817.337	22734.61
817.665	22729.87
817.994	22846.7
818.322	22848.51
818.651	22538.01
818.979	22579.59
819.307	22746.82
819.636	22431.35
819.964	22392.7
820.292	22514.05
820.62	22491.91
820.948	22328.3
821.276	22451.01
821.604	22293.72
821.932	22517.22
822.259	22455.75
822.587	22374.17
822.915	22203.55
823.243	22377.34
823.57	22297.11
823.898	22293.04
824.225	22129.88
824.553	22324.46
824.88	22191.35
825.207	22194.52
825.535	22110.68
825.862	22206.72
826.189	22049.66
826.516	22130.56
826.843	22276.1
827.17	22214.85
827.497	22135.53
827.824	22256.21
828.151	22165.14
828.478	22043.56
828.805	22215.76
829.131	21960.62
829.458	22103.67
829.785	22000.85
830.111	22147.74
830.438	22183.67
830.764	22107.29
831.09	22244.01
831.417	22067.51
831.743	22008.76
832.069	22062.32
832.395	22006.72
832.722	21980.51
833.048	21928.53
833.374	22006.5
833.7	21869.33
834.026	21848.76
834.351	21856.9
834.677	21824.58
835.003	21989.55
835.329	21759.05
835.654	21722.66
835.98	21717.24
836.306	21736.67
836.631	21615.77
836.956	21769.67
837.282	21618.03
837.607	21586.85
837.932	21653.51
838.258	21570.58
838.583	21524.93
838.908	21477.47
839.233	21322
839.558	21377.36
839.883	21327.65
840.208	21265.95
840.533	21255.78
840.858	21377.14
841.182	21298.27
841.507	21245.16
841.832	21138.95
842.156	21134.66
842.481	21131.04
842.805	21024.38
843.13	20995.9
843.454	20964.27
843.778	20866.64
844.103	20888.56
844.427	20793.87
844.751	20750.26
845.075	20733.08
845.399	20639.08
845.723	20481.34
846.047	20640.21
846.371	20447.44
846.695	20451.28
847.019	20235.24
847.343	20071.86
847.666	19931.75
847.99	19900.34
848.313	19856.95
848.637	19772.43
848.96	19739.21
849.284	19577.41
849.607	19510.74
849.931	19540.57
850.254	19300.81
850.577	19314.82
850.9	19166.57
851.223	19176.29
851.546	19034.15
851.869	18942.17
852.192	19075.28
852.515	18935.39
852.838	18853.36
853.161	18851.33
853.483	18761.61
853.806	18665.57
854.129	18649.52
854.451	18528.4
854.774	18489.3
855.096	18457.89
855.419	18457.66
855.741	18333.37
856.063	18247.05
856.385	18137.67
856.708	18146.03
857.03	18160.27
857.352	18076.43
857.674	18010.22
857.996	17932.03
858.318	17797.34
858.64	17831.92
858.961	17772.94
859.283	17701.07
859.605	17638.25
859.926	17713.73
860.248	17711.92
860.57	17554.64
860.891	17598.93
861.212	17452.49
861.534	17388.54
861.855	17412.04
862.176	17410.69
862.498	17336.79
862.819	17406.17
863.14	17247.75
863.461	17210.92
863.782	17132.05
864.103	17216.34
864.424	17156.46
864.745	17219.28
865.065	17074.88
865.386	16975.67
865.707	17048.89
866.027	17040.53
866.348	17033.75
866.668	17055.22
866.989	16881.43
867.309	16782.91
867.63	16833.53
867.95	16901.77
868.27	16744.04
868.59	16738.84
868.91	16713.08
869.23	16726.18
869.55	16628.56
869.87	16802.34
870.19	16784.94
870.51	16693.64
870.83	16711.72
871.15	16512.4
871.469	16507.89
871.789	16616.13
872.109	16572.74
872.428	16501.78
872.748	16537.94
873.067	16439.86
873.386	16471.73
873.706	16511.73
874.025	16387.89
874.344	16358.06
874.663	16340.21
874.982	16248.68
875.301	16297.5
875.62	16251.62
875.939	16263.82
876.258	16276.03
876.577	16165.52
876.896	16232.19
877.214	16161
877.533	16205.29
877.852	16232.64
878.17	16132.98
878.489	16136.14
878.807	16026.54
879.125	15960.55
879.444	16042.36
879.762	15954.45
880.08	15923.27
880.398	15897.73
880.716	16006.43
881.034	15776.83
881.352	15798.75
881.67	15822.25
881.988	15794.91
882.306	15701.8
882.624	15610.96
882.941	15657.74
883.259	15647.34
883.577	15599.89
883.894	15541.81
884.212	15471.98
884.529	15531.41
884.846	15443.73
885.164	15490.74
885.481	15390.85
885.798	15452.77
886.115	15243.74
886.432	15397.86
886.75	15324.64
887.067	15343.62
887.383	15311.76
887.7	15237.64
888.017	15089.84
888.334	15142.27
888.651	15015.5
888.967	15071.31
889.284	14934.59
889.6	14990.18
889.917	14868.61
890.233	14932.33
890.55	14727.59
890.866	14857.76
891.182	14782.51
891.498	14798.55
891.815	14709.29
892.131	14589.74
892.447	14542.97
892.763	14532.12
893.079	14512.01
893.395	14529.63
893.71	14366.02
894.026	14495.06
894.342	14401.27
894.657	14291.45
894.973	14280.15
895.289	14278.11
895.604	14376.87
895.92	14160.15
896.235	14096.2
896.55	13978.91
896.865	14051.45
897.181	14031.79
897.496	14000.15
897.811	13907.05
898.126	13948.4
898.441	13828.86
898.756	13770.33
899.071	13691.69
899.386	13744.12
899.7	13630.9
900.015	13578.02
900.33	13569.66
900.644	13401.98
900.959	13415.99
901.273	13390.45
901.588	13313.17
901.902	13308.87
902.216	13265.03
902.531	13284.69
902.845	13200.4
903.159	13142.55
903.473	13140.74
903.787	13068.88
904.101	12932.84
904.415	12943.46
904.729	12984.81
905.042	12844.25
905.356	12772.62
905.67	12713.18
905.984	12749.11
906.297	12630.02
906.611	12653.07
906.924	12608.78
907.237	12523.58
907.551	12558.61
907.864	12377.37
908.177	12435.68
908.491	12333.53
908.804	12272.74
909.117	12229.13
909.43	12115.46
909.743	12068.91
910.056	12097.38
910.368	12057.38
910.681	12064.39
910.994	11976.25
911.307	11910.04
911.619	11733.1
911.932	11865.97
912.244	11838.86
912.557	11800.89
912.869	11730.16
913.181	11606.77
913.494	11602.48
913.806	11520.45
914.118	11497.4
914.43	11360.68
914.742	11460.56
915.054	11350.51
915.366	11314.58
915.678	11195.93
915.99	11235.48
916.302	11137.63
916.613	11148.7
916.925	11160.23
917.236	11130.85
917.548	10915.04
917.859	11018.54
918.171	10910.97
918.482	10806.57
918.794	10779.45
919.105	10746.23
919.416	10710.3
919.727	10654.03
920.038	10597.53
920.349	10526.8
920.66	10481.15
920.971	10488.83
921.282	10471.66
921.593	10315.05
921.903	10370.87
922.214	10248.39
922.525	10255.39
922.835	10262.63
923.146	10206.58
923.456	10124.32
923.767	10066.02
924.077	10151.22
924.387	10062.63
924.697	9984.67
925.008	9930.88
925.318	9876.42
925.628	9934.27
925.938	9830.09
926.248	9754.39
926.558	9642.08
926.867	9682.53
927.177	9578.58
927.487	9606.82
927.796	9482.99
928.106	9511.23
928.416	9471.23
928.725	9446.15
929.034	9399.6
929.344	9407.73
929.653	9360.95
929.962	9305.36
930.271	9241.86
930.581	9252.71
930.89	9137.68
931.199	9177.46
931.508	9029.44
931.817	9101.07
932.125	8984.69
932.434	8982.66
932.743	8854.53
933.051	8831.93
933.36	8783.34
933.669	8741.76
933.977	8729.33
934.286	8762.33
934.594	8699.73
934.902	8624.02
935.21	8597.81
935.519	8585.38
935.827	8464.93
936.135	8483.24
936.443	8378.83
936.751	8397.82
937.059	8359.17
937.367	8305.61
937.674	8263.81
937.982	8359.4
938.29	8243.02
938.597	8219.97
938.905	8172.29
939.213	8041.67
939.52	8102.68
939.827	8087.99
940.135	7987.66
940.442	8004.15
940.749	7924.38
941.056	7935
941.363	7887.32
941.67	7865.63
941.977	7800.54
942.284	7785.63
942.591	7743.14
942.898	7706.76
943.205	7690.72
943.511	7679.64
943.818	7641.23
944.125	7540.21
944.431	7612.3
944.738	7554.9
945.044	7536.82
945.35	7448.91
945.657	7444.85
945.963	7415.24
946.269	7349.26
946.575	7326.21
946.881	7266.09
947.187	7286.21
947.493	7227.45
947.799	7213.21
948.105	7116.95
948.41	7060.22
948.716	7088.47
949.022	7080.11
949.327	7036.72
949.633	6957.4
949.938	6995.14
950.244	6959.66
950.549	6869.04
950.854	6850.96
951.16	6814.81
951.465	6798.08
951.77	6823.62
952.075	6774.81
952.38	6692.55
952.685	6695.49
952.99	6628.82
953.294	6587.24
953.599	6614.13
953.904	6568.26
954.209	6509.96
954.513	6538.2
954.818	6448.04
955.122	6439.68
955.426	6400.81
955.731	6356.29
956.035	6308.15
956.339	6370.98
956.643	6343.86
956.948	6255.95
957.252	6288.04
957.556	6243.97
957.86	6199.91
958.163	6184.77
958.467	6172.79
958.771	6071.55
959.075	6115.39
959.378	6060.25
959.682	6075.84
959.985	5971.44
960.289	5948.39
960.592	5936.64
960.896	5965.56
961.199	5899.12
961.502	5859.8
961.805	5886.7
962.108	5856.19
962.411	5787.49
962.714	5774.38
963.017	5747.72
963.32	5750.65
963.623	5751.11
963.926	5686.93
964.228	5635.63
964.531	5681.73
964.833	5620.04
965.136	5598.79
965.438	5541.62
965.741	5492.58
966.043	5485.58
966.345	5460.04
966.648	5433.37
966.95	5418.01
967.252	5373.04
967.554	5383.43
967.856	5334.62
968.158	5291.23
968.46	5282.87
968.761	5281.29
969.063	5212.59
969.365	5210.1
969.666	5227.5
969.968	5129.2
970.269	5188.41
970.571	5146.38
970.872	5134.17
971.174	5085.36
971.475	5093.27
971.776	5041.07
972.077	4978.92
972.378	5053.5
972.679	5020.73
972.98	4966.95
973.281	4923.33
973.582	4912.26
973.883	4868.87
974.183	4849.89
974.484	4870.68
974.785	4862.32
975.085	4773.96
975.386	4818.47
975.686	4738.93
975.986	4752.04
976.287	4782.77
976.587	4679.5
976.887	4658.48
977.187	4703
977.487	4653.06
977.787	4615.99
978.087	4585.49
978.387	4587.07
978.687	4574.64
978.987	4553.17
979.286	4485.38
979.586	4531.7
979.885	4425.26
980.185	4464.13
980.484	4418.94
980.784	4359.05
981.083	4405.83
981.382	4371.71
981.682	4365.15
981.981	4306.17
982.28	4281.54
982.579	4257.36
982.878	4239.51
983.177	4252.39
983.475	4201.54
983.774	4174.65
984.073	4150.24
984.372	4162.67
984.67	4142.79
984.969	4132.84
985.267	4116.35
985.566	4103.24
985.864	4051.49
986.162	4008.1
986.461	3952.96
986.759	3968.78
987.057	3982.56
987.355	3961.77
987.653	3929.46
987.951	3945.05
988.249	3939.18
988.547	3897.14
988.844	3870.03
989.142	3829.35
989.44	3832.06
989.737	3783.7
990.035	3807.65
990.332	3841.1
990.63	3819.18
990.927	3797.48
991.224	3759.29
991.521	3718.16
991.819	3691.5
992.116	3686.98
992.413	3671.39
992.71	3612.86
993.006	3615.57
993.303	3622.12
993.6	3590.26
993.897	3567.66
994.193	3533.99
994.49	3477.95
994.787	3526.31
995.083	3502.13
995.379	3433.65
995.676	3463.93
995.972	3444.95
996.268	3423.71
996.565	3397.95
996.861	3348.23
997.157	3373.32
997.453	3367.44
997.749	3410.6
998.044	3341.23
998.34	3306.88
998.636	3340.55
998.932	3261.68
999.227	3217.16
999.523	3204.96
999.818	3220.32
1000.114	3172.87
1000.409	3166.99
1000.704	3183.26
1001	3147.78
1001.295	3097.16
1001.59	3089.93
1001.885	3101.01
1002.18	3062.59
1002.475	3036.6
1002.77	3049.48
1003.065	3044.96
1003.359	3001.12
1003.654	2951.18
1003.949	2967.45
1004.243	2969.48
1004.538	2924.74
1004.832	2902.14
1005.127	2896.72
1005.421	2893.55
1005.715	2844.06
1006.009	2851.52
1006.304	2836.38
1006.598	2821.24
1006.892	2800.45
1007.186	2813.56
1007.48	2754.12
1007.773	2716.61
1008.067	2691.75
1008.361	2696.72
1008.655	2673.67
1008.948	2665.31
1009.242	2658.53
1009.535	2612.43
1009.829	2609.95
1010.122	2602.71
1010.415	2602.26
1010.708	2560.91
1011.001	2553.9
1011.295	2568.36
1011.588	2537.86
1011.881	2484.53
1012.173	2524.07
1012.466	2483.62
1012.759	2458.54
1013.052	2460.34
1013.344	2442.94
1013.637	2403.4
1013.93	2413.34
1014.222	2385.77
1014.514	2374.47
1014.807	2368.37
1015.099	2351.65
1015.391	2339.67
1015.683	2316.62
1015.976	2304.42
1016.268	2293.57
1016.56	2271.88
1016.851	2266.45
1017.143	2242.05
1017.435	2211.54
1017.727	2211.54
1018.018	2183.97
1018.31	2184.19
1018.602	2170.86
1018.893	2131.09
1019.185	2141.71
1019.476	2108.04
1019.767	2136.51
1020.058	2132.44
1020.35	2070.98
1020.641	2084.31
1020.932	2069.17
1021.223	2033.69
1021.514	2013.35
1021.804	1997.31
1022.095	1975.84
1022.386	1974.48
1022.677	1979.68
1022.967	1942.17
1023.258	1949.85
1023.548	1926.8
1023.839	1905.33
1024.129	1891.77
1024.419	1866.46
1024.709	1860.13
1025	1828.72
1025.29	1831.43
1025.58	1798.89
1025.87	1779.01
1026.16	1802.96
1026.449	1761.15
1026.739	1751.89
1027.029	1729.97
1027.319	1750.53
1027.608	1715.96
1027.898	1700.82
1028.187	1712.57
1028.477	1675.05
1028.766	1682.74
1029.055	1673.25
1029.344	1645.45
1029.634	1652.68
1029.923	1619.92
1030.212	1600.71
1030.501	1617.88
1030.79	1597.09
1031.078	1549.41
1031.367	1583.98
1031.656	1524.32
1031.945	1549.63
1032.233	1531.33
1032.522	1534.49
1032.81	1529.3
1033.099	1492.91
1033.387	1493.59
1033.675	1477.32
1033.963	1453.37
1034.251	1438
1034.54	1445
1034.828	1427.15
1035.116	1422.86
1035.403	1388.06
1035.691	1402.75
1035.979	1377.44
1036.267	1349.64
1036.554	1349.64
1036.842	1342.41
1037.129	1346.7
1037.417	1345.35
1037.704	1339.24
1037.992	1340.6
1038.279	1300.6
1038.566	1301.96
1038.853	1301.96
1039.14	1301.96
