Data from foil_FLMS001491_021.txt Node
Date: Tue Feb 07 11:25:40 GMT 2017
User: dcchb
Spectrometer: FLMS00149
Trigger mode: 0
Integration Time (sec): 2.000000E-2
Scans to average: 10
Electric dark correction enabled: true
Nonlinearity correction enabled: false
Boxcar width: 0
XAxis mode: Wavelengths
Number of Pixels in Spectrum: 2048
>>>>>Begin Spectral Data<<<<<
341.393	-18.6
341.776	-18.6
342.16	-18.6
342.543	-38.26
342.927	-72.61
343.31	-50.01
343.693	-56.11
344.077	-57.92
344.46	-57.7
344.843	-56.11
345.226	-50.92
345.61	-19.28
345.993	-11.37
346.376	-24.7
346.759	-6.17
347.142	20.04
347.525	46.93
347.908	43.54
348.291	79.93
348.674	89.19
349.057	110.66
349.44	130.77
349.823	167.38
350.206	180.26
350.588	245.8
350.971	285.8
351.354	286.02
351.737	296.64
352.119	308.85
352.502	321.5
352.884	352.91
353.267	358.79
353.65	368.51
354.032	378.22
354.414	389.07
354.797	391.78
355.179	377.77
355.562	396.08
355.944	407.83
356.326	388.17
356.709	401.5
357.091	421.39
357.473	425
357.855	435.4
358.238	441.5
358.62	429.3
359.002	447.15
359.384	429.3
359.766	448.73
360.148	434.49
360.53	434.72
360.912	454.83
361.294	431.33
361.676	439.92
362.057	460.48
362.439	440.14
362.821	450.09
363.203	457.09
363.584	428.84
363.966	448.51
364.348	417.77
364.729	445.12
365.111	437.88
365.493	465
365.874	436.3
366.256	442.4
366.637	464.32
367.019	443.08
367.4	454.61
367.781	474.95
368.163	474.49
368.544	443.76
368.925	457.32
369.306	476.08
369.688	470.88
370.069	486.02
370.45	485.11
370.831	499.13
371.212	472.01
371.593	488.73
371.974	497.54
372.355	510.88
372.736	504.77
373.117	526.02
373.498	492.8
373.879	491.44
374.26	500.03
374.641	493.48
375.021	485.57
375.402	518.79
375.783	560.37
376.163	569.63
376.544	570.54
376.925	550.42
377.305	539.58
377.686	562.85
378.066	563.08
378.447	578.22
378.827	573.02
379.208	583.19
379.588	589.29
379.968	559.91
380.349	589.52
380.729	608.27
381.109	603.98
381.489	625
381.87	623.19
382.25	631.55
382.63	639.23
383.01	636.97
383.39	634.04
383.77	651.44
384.15	649.86
384.53	659.35
384.91	681.72
385.29	685.56
385.67	677.2
386.049	690.98
386.429	713.13
386.809	690.76
387.189	723.75
387.568	737.76
387.948	732.79
388.328	760.59
388.707	761.04
389.087	770.53
389.466	765.78
389.846	780.7
390.225	797.65
390.605	799.91
390.984	814.15
391.363	820.47
391.743	843.97
392.122	810.76
392.501	861.15
392.881	847.36
393.26	857.76
393.639	884.88
394.018	874.26
394.397	885.1
394.776	918.78
395.155	903.41
395.534	897.31
395.913	937.98
396.292	929.17
396.671	946.12
397.05	962.84
397.429	965.55
397.808	961.03
398.186	999.45
398.565	1002.39
398.944	1014.82
399.323	998.77
399.701	1017.53
400.08	1016.63
400.458	1021.6
400.837	1069.28
401.215	1082.16
401.594	1063.86
401.972	1112.89
402.351	1102.5
402.729	1102.5
403.107	1150.63
403.486	1144.08
403.864	1141.59
404.242	1141.82
404.62	1183.63
404.999	1194.02
405.377	1186.79
405.755	1199.67
406.133	1211.2
406.511	1226.56
406.889	1272.44
407.267	1273.57
407.645	1312.66
408.023	1302.72
408.401	1327.8
408.779	1362.83
409.156	1347.46
409.534	1393.79
409.912	1422.04
410.29	1444.19
410.667	1464.75
411.045	1496.16
411.422	1473.56
411.8	1460.23
412.178	1521.92
412.555	1576.16
412.933	1571.64
413.31	1609.83
413.687	1601.47
414.065	1629.94
414.442	1633.78
414.819	1681.24
415.197	1702.48
415.574	1732.31
415.951	1727.57
416.328	1749.04
416.705	1745.42
417.082	1762.59
417.46	1805.08
417.837	1802.37
418.214	1844.4
418.591	1843.5
418.967	1874.68
419.344	1890.05
419.721	1914
420.098	1922.59
420.475	1928.47
420.852	1989.03
421.228	1952.65
421.605	1998.29
421.982	2013.44
422.358	2034.23
422.735	2056.82
423.111	2039.88
423.488	2095.92
423.864	2138.18
424.241	2118.07
424.617	2157.61
424.994	2206.43
425.37	2193.54
425.746	2224.5
426.123	2257.5
426.499	2286.42
426.875	2297.72
427.251	2346.99
427.627	2370.04
428.003	2399.87
428.379	2422.46
428.756	2431.96
429.132	2482.12
429.507	2511.28
429.883	2559.18
430.259	2607.77
430.635	2627.88
431.011	2689.35
431.387	2711.95
431.763	2761.66
432.138	2748.78
432.514	2765.51
432.89	2806.86
433.265	2869.46
433.641	2928.67
434.016	2933.19
434.392	3007.31
434.767	3007.99
435.143	3048.89
435.518	3059.74
435.894	3151.48
436.269	3116.68
436.644	3167.3
437.02	3231.03
437.395	3247.75
437.77	3294.53
438.145	3314.42
438.52	3347.19
438.895	3402.78
439.271	3354.87
439.646	3447.3
440.021	3471.02
440.395	3478.48
440.77	3502.44
441.145	3518.48
441.52	3619.27
441.895	3580.85
442.27	3636.22
442.645	3621.98
443.019	3671.02
443.394	3689.78
443.769	3720.96
444.143	3717.12
444.518	3792.82
444.892	3723.67
445.267	3760.73
445.641	3815.42
446.016	3822.43
446.39	3938.58
446.764	3902.2
447.139	3917.34
447.513	3951.69
447.887	3981.07
448.262	3979.03
448.636	4030.78
449.01	4073.95
449.384	4113.27
449.758	4193.49
450.132	4159.14
450.506	4187.62
450.88	4252.92
451.254	4259.48
451.628	4331.34
452.002	4350.1
452.376	4412.02
452.75	4438.23
453.123	4469.87
453.497	4547.38
453.871	4543.99
454.244	4638.68
454.618	4674.38
454.992	4772.23
455.365	4774.95
455.739	4912.79
456.112	4963.19
456.486	4998.89
456.859	5021.27
457.232	5124.09
457.606	5141.04
457.979	5163.64
458.352	5304.87
458.725	5327.02
459.099	5353.69
459.472	5437.07
459.845	5550.97
460.218	5629.61
460.591	5631.65
460.964	5679.55
461.337	5850.62
461.71	5876.16
462.083	5980.34
462.456	5963.84
462.829	5978.53
463.201	6054.46
463.574	6101.69
463.947	6217.39
464.32	6368.35
464.692	6401.34
465.065	6421
465.438	6549.36
465.81	6621
466.183	6669.58
466.555	6853.99
466.928	6821.67
467.3	6838.85
467.672	6983.93
468.045	7138.95
468.417	7174.2
468.789	7266.86
469.161	7353.18
469.534	7453.29
469.906	7606.06
470.278	7670.91
470.65	7745.94
471.022	7936.22
471.394	8041.3
471.766	8155.2
472.138	8218.7
472.51	8401.74
472.882	8565.58
473.253	8624.11
473.625	8694.16
473.997	8922.63
474.369	8989.98
474.74	9054.15
475.112	9237.65
475.484	9366.24
475.855	9521.71
476.227	9583.41
476.598	9948.14
476.97	9977.97
477.341	10220.68
477.713	10349.26
478.084	10397.62
478.455	10693.89
478.827	10742.92
479.198	11099.07
479.569	11153.76
479.94	11365.28
480.311	11525.95
480.682	11698.83
481.053	12045.26
481.424	12264.47
481.795	12378.36
482.166	12467.85
482.537	12647.05
482.908	12944.45
483.279	13060.83
483.65	13250.43
484.021	13499.46
484.391	13686.8
484.762	13857.87
485.133	14028.26
485.503	14213.79
485.874	14431.41
486.244	14636.61
486.615	14915.7
486.985	15003.83
487.356	15367.21
487.726	15426.19
488.097	15714.32
488.467	15746.63
488.837	16076.34
489.207	16342.78
489.578	16569.44
489.948	16648.31
490.318	16916.09
490.688	16908.64
491.058	17248.06
491.428	17536.64
491.798	17670.43
492.168	18013.47
492.538	18093.46
492.908	18256.17
493.278	18506.11
493.648	18624.98
494.017	18835.14
494.387	19058.41
494.757	19222.47
495.126	19405.29
495.496	19335.24
495.866	19495.24
496.235	19759.86
496.605	19873.53
496.974	20143.81
497.344	20282.56
497.713	20360.3
498.082	20535.66
498.452	20724.13
498.821	20880.06
499.19	20886.16
499.559	21116.21
499.928	21333.83
500.298	21364.57
500.667	21560.49
501.036	21538.8
501.405	21889.52
501.774	21842.52
502.143	22111.44
502.512	22010.65
502.88	22397.98
503.249	22412.67
503.618	22601.59
503.987	22793.23
504.356	22959.55
504.724	23042.04
505.093	23278.87
505.462	23392.99
505.83	23586.2
506.199	23648.57
506.567	24016.93
506.936	23946.87
507.304	24383.24
507.672	24450.59
508.041	24604.48
508.409	24709.11
508.777	24900.07
509.145	25102.77
509.514	25065.26
509.882	25350.68
510.25	25488.98
510.618	25615.08
510.986	25727.61
511.354	25885.12
511.722	26290.09
512.09	26439.23
512.458	26500.93
512.826	26701.83
513.193	26881.26
513.561	26945.66
513.929	27271.08
514.297	27394.01
514.664	27699.77
515.032	27842.81
515.4	28116.93
515.767	28123.26
516.135	28330.48
516.502	28182.69
516.869	28797.59
517.237	29059.73
517.604	29034.19
517.972	29390.34
518.339	29490
518.706	29557.8
519.073	29778.58
519.44	29957.79
519.808	30341.96
520.175	30375.4
520.542	30778.56
520.909	30981.71
521.276	31113.24
521.643	31432.78
522.009	31586.22
522.376	31964.96
522.743	32035.02
523.11	32404.05
523.477	32785.28
523.843	32900.76
524.21	33242.9
524.577	33544.58
524.943	33748.65
525.31	33892.15
525.676	34227.73
526.043	34484.67
526.409	34533.71
526.776	35069.52
527.142	34961.27
527.508	35191.77
527.874	35445.33
528.241	35716.73
528.607	35743.62
528.973	36252.76
529.339	36306.09
529.705	36708.34
530.071	36962.8
530.437	37143.59
530.803	37493.86
531.169	37592.39
531.535	37470.58
531.901	37687.3
532.267	37937.01
532.632	38268.75
532.998	38383.55
533.364	38657.22
533.73	38875.07
534.095	39068.05
534.461	39281.38
534.826	39324.77
535.192	39566.12
535.557	39836.62
535.923	39660.13
536.288	39943.96
536.653	40243.84
537.019	40190.29
537.384	40397.96
537.749	40571.74
538.114	40751.85
538.479	40933.09
538.845	40956.14
539.21	41032.07
539.575	41281.78
539.94	41559.06
540.305	41840.86
540.67	41777.36
541.034	42014.42
541.399	42191.14
541.764	42400.85
542.129	42544.57
542.494	42603.55
542.858	42695.76
543.223	42667.73
543.587	43057.55
543.952	43098.91
544.316	43176.65
544.681	43163.09
545.045	43482.18
545.41	43634.26
545.774	43834.48
546.138	43799.23
546.503	44100.46
546.867	44162.61
547.231	44480.57
547.595	44562.6
547.959	44698.42
548.324	44809.37
548.688	44890.27
549.052	45127.56
549.416	45153.54
549.779	45231.96
550.143	45671.5
550.507	45843.92
550.871	46028.32
551.235	45925.73
551.599	46276
551.962	46333.63
552.326	46474.19
552.689	46674.18
553.053	46588.08
553.417	46835.53
553.78	47329.98
554.143	47233.26
554.507	47466.93
554.87	47534.95
555.234	47880.48
555.597	47761.61
555.96	47914.38
556.323	48091.55
556.686	48309.62
557.05	48572.89
557.413	48591.87
557.776	48852.43
558.139	49049.71
558.502	49135.13
558.865	49258.3
559.228	49553.2
559.59	49712.07
559.953	49754.78
560.316	50228.44
560.679	50119.74
561.041	50435.21
561.404	50598.6
561.767	50766.05
562.129	50744.58
562.492	51101.86
562.854	51158.13
563.217	51157.45
563.579	51282.2
563.941	51571.23
564.304	51645.58
564.666	51919.69
565.028	51936.19
565.39	52058.22
565.753	52275.62
566.115	52310.87
566.477	52520.13
566.839	52679.22
567.201	52840.12
567.563	52890.52
567.925	53055.48
568.287	53102.71
568.648	53233.78
569.01	53293.67
569.372	53486.43
569.734	53537.5
570.095	53776.37
570.457	53918.74
570.819	53909.25
571.18	53958.06
571.542	54121.44
571.903	54210.48
572.265	54295.9
572.626	54391.95
572.987	54438.05
573.349	54539.51
573.71	54635.1
574.071	54718.04
574.432	54823.8
574.794	55056.56
575.155	55019.5
575.516	54950.12
575.877	55076.22
576.238	55209.78
576.599	55200.96
576.96	55127.07
577.32	55185.82
577.681	55317.34
578.042	55442.54
578.403	55456.78
578.763	55543.1
579.124	55602.99
579.485	55716.2
579.845	55757.33
580.206	55680.05
580.566	55777.67
580.927	55769.08
581.287	55884.11
581.648	55694.74
582.008	55932.24
582.368	55823.09
582.728	55867.61
583.089	55864.68
583.449	55931.34
583.809	55949.87
584.169	56012.02
584.529	55916.2
584.889	56088.62
585.249	55906.71
585.609	55818.35
585.969	55970.44
586.329	55862.64
586.688	56078.23
587.048	56017.89
587.408	55998.91
587.768	55827.61
588.127	55902.41
588.487	55918.46
588.846	56081.17
589.206	55957.55
589.565	55915.97
589.925	56101.51
590.284	55950.55
590.643	56038.46
591.003	56130.2
591.362	56136.08
591.721	56018.34
592.08	56123.65
592.44	56240.94
592.799	56118.68
593.158	56090.66
593.517	56064.22
593.876	56240.94
594.235	56114.84
594.593	56218.56
594.952	56242.52
595.311	56036.2
595.67	56151.45
596.029	56257.21
596.387	56300.37
596.746	56292.69
597.104	56198.23
597.463	56193.48
597.822	56289.97
598.18	56232.35
598.538	56321.16
598.897	56418.56
599.255	56139.24
599.613	56581.27
599.972	56352.12
600.33	56494.72
600.688	56398.45
601.046	56477.09
601.404	56527.26
601.762	56458.78
602.12	56609.29
602.478	56626.46
602.836	56542.85
603.194	56476.18
603.552	56569.97
603.91	56456.52
604.268	56636.86
604.625	56533.81
604.983	56734.03
605.341	56583.98
605.698	56799.79
606.056	56783.3
606.413	56754.82
606.771	56801.83
607.128	56745.1
607.485	56732.67
607.843	56706.69
608.2	56884.99
608.557	56925.66
608.914	56855.16
609.272	57092.21
609.629	57019.67
609.986	57147.13
610.343	57011.09
610.7	57130.63
611.057	57069.39
611.414	57089.05
611.771	57140.12
612.127	57207.24
612.484	57164.53
612.841	57204.3
613.198	57211.98
613.554	57218.99
613.911	57403.17
614.267	57390.06
614.624	57383.96
614.98	57296.28
615.337	57498.98
615.693	57407.91
616.05	57411.08
616.406	57509.38
616.762	57458.98
617.118	57416.95
617.475	57423.96
617.831	57504.86
618.187	57621.69
618.543	57582.82
618.899	57694.68
619.255	57640.22
619.611	57635.02
619.967	57681.12
620.323	57658.98
620.678	57606.1
621.034	57519.09
621.39	57479.77
621.746	57564.07
622.101	57797.73
622.457	57614.23
622.812	57606.78
623.168	57747.56
623.523	57782.36
623.879	57819.88
624.234	57593.9
624.589	57722.71
624.945	57715.02
625.3	57798.64
625.655	57749.15
626.01	57770.61
626.365	57827.79
626.72	57761.57
627.075	57727.68
627.43	57698.98
627.785	57619.21
628.14	57700.33
628.495	57698.75
628.85	57654.23
629.205	57505.54
629.559	57729.03
629.914	57543.5
630.269	57541.24
630.623	57480.68
630.978	57404.07
631.332	57530.17
631.687	57580.56
632.041	57486.78
632.396	57508.93
632.75	57428.02
633.104	57372.43
633.459	57250.63
633.813	57224.19
634.167	57190.97
634.521	57163.4
634.875	57230.51
635.229	57149.61
635.583	57093.12
635.937	57065.77
636.291	57041.82
636.645	56985.78
636.999	56932.67
637.352	57021.71
637.706	56860.36
638.06	57010.41
638.413	56961.37
638.767	56839.79
639.121	56845.67
639.474	56765.44
639.828	56874.82
640.181	56834.59
640.534	56804.54
640.888	56712.56
641.241	56641.83
641.594	56653.81
641.947	56702.39
642.301	56549.4
642.654	56614.94
643.007	56502.17
643.36	56446.58
643.713	56480.48
644.066	56531.55
644.419	56333.14
644.771	56099.02
645.124	55750.55
645.477	55563.44
645.83	55446.16
646.182	55391.24
646.535	55405.7
646.888	55671.46
647.24	55611.35
647.593	55725.24
647.945	55705.36
648.298	55590.11
648.65	55494.97
649.002	55367.74
649.355	55276.89
649.707	55189.66
650.059	55193.73
650.411	55480.5
650.763	55552.37
651.115	55926.82
651.467	55892.92
651.819	55841.62
652.171	55704.23
652.523	55623.78
652.875	55647.73
653.227	55546.04
653.578	55723.44
653.93	55580.39
654.282	55512.14
654.633	55483.44
654.985	55569.54
655.337	55475.08
655.688	55504.01
656.039	55602.54
656.391	55255.65
656.742	55420.85
657.094	55334.52
657.445	55389.89
657.796	55314.63
658.147	55329.77
658.498	55258.36
658.849	55273.96
659.2	55168.87
659.551	55057.01
659.902	55251.13
660.253	55074.87
660.604	55121.64
660.955	54988.31
661.306	55078.03
661.656	54958.48
662.007	55010.01
662.358	55049.33
662.708	54986.05
663.059	54994.64
663.409	54798.26
663.76	54907.41
664.11	54931.14
664.461	54985.15
664.811	54976.56
665.161	54900.18
665.511	54810.24
665.862	54777.92
666.212	54845.94
666.562	54882.55
666.912	54755.55
667.262	54827.64
667.612	54791.94
667.962	54772.73
668.312	54680.07
668.662	54914.87
669.011	54687.76
669.361	54660.19
669.711	54676.91
670.06	54621.54
670.41	54596.46
670.76	54552.62
671.109	54680.75
671.459	54488.89
671.808	54568.66
672.157	54667.19
672.507	54387.65
672.856	54385.62
673.205	54450.93
673.554	54462
673.904	54413.41
674.253	54523.24
674.602	54496.35
674.951	53924.16
675.3	53864.05
675.649	54271.95
675.998	54217.49
676.346	54352.4
676.695	54406.18
677.044	54130.03
677.393	54188.11
677.741	54276.69
678.09	54160.77
678.438	54006.64
678.787	54116.92
679.135	54119.18
679.484	53922.35
679.832	54002.58
680.181	53773.88
680.529	53901.34
680.877	53898.4
681.225	53725.3
681.573	53879.87
681.922	53631.97
682.27	53581.8
682.618	53518.3
682.966	53544.51
683.314	53678.29
683.661	53458.86
684.009	53265.65
684.357	53235.59
684.705	53222.26
685.053	53343.39
685.4	53172.54
685.748	53006.9
686.095	52989.95
686.443	52898.2
686.79	52855.04
687.138	52947.92
687.485	52936.84
687.832	52716.28
688.18	52711.99
688.527	52552.9
688.874	52692.1
689.221	52568.26
689.568	52336.41
689.915	52277.2
690.262	52286.01
690.609	52170.08
690.956	52085.57
691.303	52088.28
691.65	52002.18
691.997	51939.58
692.344	51728.51
692.69	51649.64
693.037	51740.26
693.383	51466.82
693.73	51627.95
694.077	51382.53
694.423	51284.91
694.769	51392.48
695.116	51123.78
695.462	51138.47
695.808	50908.42
696.155	51161.3
696.501	50804.24
696.847	50752.04
697.193	50552.27
697.539	50555.89
697.885	50209.46
698.231	50107.99
698.577	50180.76
698.923	50213.98
699.269	50156.12
699.614	49900.99
699.96	49796.13
700.306	49735.57
700.651	49614.44
700.997	49433.66
701.342	49414.22
701.688	49338.07
702.033	49197.05
702.379	49269.59
702.724	49018.53
703.069	48988.02
703.415	48619.22
703.76	48642.27
704.105	48742.83
704.45	48671.64
704.795	48313.01
705.14	48248.83
705.485	48174.71
705.83	48183.07
706.175	48161.83
706.52	47872.12
706.865	47855.17
707.209	47800.71
707.554	47674.83
707.899	47678
708.243	47360.49
708.588	47324.79
708.932	47185.13
709.277	47124.79
709.621	47154.17
709.966	46781.98
710.31	46996.21
710.654	46621.3
710.998	46646.39
711.342	46635.77
711.687	46339.28
712.031	46363
712.375	46201.88
712.719	46247.75
713.063	46140.86
713.407	46171.6
713.75	45983.58
714.094	45878.27
714.438	45847.99
714.782	45774.09
715.125	45593.08
715.469	45666.98
715.812	45285.97
716.156	45038.97
716.499	45180.44
716.843	45182.24
717.186	44935.02
717.53	45148.57
717.873	45216.14
718.216	45012.08
718.559	44898.64
718.902	44528.25
719.246	44550.17
719.589	44557.4
719.932	44342.72
720.275	44382.72
720.617	44360.12
720.96	44311.08
721.303	44214.59
721.646	44269.5
721.989	44110.86
722.331	43959.23
722.674	43852.34
723.016	43912.22
723.359	43703.19
723.701	43846.91
724.044	43622.06
724.386	43446.7
724.729	43757.42
725.071	43525.79
725.413	43480.82
725.755	43268.62
726.097	43044.67
726.439	42930.78
726.782	43022.53
727.124	43033.37
727.465	42738.01
727.807	42764.68
728.149	42608.75
728.491	42510.45
728.833	42713.38
729.175	42449.66
729.516	42372.6
729.858	42302.55
730.199	42232.49
730.541	42167.63
730.882	41961.54
731.224	42286.28
731.565	41900.75
731.906	41843.57
732.248	41919.28
732.589	41689.68
732.93	41625.28
733.271	41609.46
733.612	41791.6
733.953	41823.46
734.294	41585.05
734.635	41325.85
734.976	41457.14
735.317	41271.39
735.658	41123.14
735.999	41210.37
736.339	41000.21
736.68	41133.76
737.021	41138.28
737.361	40851.28
737.702	41190.94
738.042	40916.14
738.383	40689.25
738.723	40932.64
739.063	40566.77
739.404	40665.98
739.744	40439.54
740.084	40158.87
740.424	40306.21
740.764	40397.74
741.104	40461.46
741.444	40116.16
741.784	40026.9
742.124	40061.02
742.464	39881.59
742.804	39931.99
743.143	39701.71
743.483	39894.02
743.823	39630.53
744.162	39539
744.502	39611.32
744.841	39525.44
745.181	39556.18
745.52	39175.17
745.86	39304.43
746.199	39287.71
746.538	39029.41
746.877	39082.07
747.216	39155.51
747.556	38927.95
747.895	38961.62
748.234	38783.77
748.573	38893.6
748.911	38817.67
749.25	38778.34
749.589	38473.04
749.928	38612.7
750.267	38550.33
750.605	38419.71
750.944	38174.07
751.283	38049.55
751.621	38126.84
751.96	37805.71
752.298	37813.4
752.636	37828.09
752.975	37657.7
753.313	37586.29
753.651	37663.57
753.989	37430.13
754.327	37320.53
754.666	37078.5
755.004	37222.23
755.342	37345.16
755.679	37219.52
756.017	36917.83
756.355	36913.54
756.693	36857.72
757.031	36864.72
757.368	36448.01
757.706	36526.65
758.044	36535.47
758.381	36591.74
758.719	36219.99
759.056	36299.99
759.394	36059.09
759.731	35782.27
760.068	35743.17
760.405	35674.25
760.743	35741.59
761.08	35607.58
761.417	35337.53
761.754	35307.48
762.091	35247.59
762.428	35248.27
762.765	34902.29
763.102	35127.59
763.438	34866.58
763.775	34427.05
764.112	34690.32
764.449	34792.46
764.785	34665.68
765.122	34283.1
765.458	34111.8
765.795	34043.78
766.131	34005.59
766.467	33877.91
766.804	33729.89
767.14	33524.25
767.476	33544.81
767.812	33307.75
768.148	33337.36
768.485	33101.43
768.821	32879.06
769.157	33021.21
769.492	32976.92
769.828	32833.19
770.164	32526.76
770.5	32471.62
770.836	32407.44
771.171	32163.83
771.507	32127.22
771.842	32061.46
772.178	31864.4
772.513	31760.9
772.849	31615.82
773.184	31474.36
773.519	31560.23
773.855	31388.71
774.19	31259.45
774.525	31071.65
774.86	31118.66
775.195	30922.96
775.53	30890.64
775.865	30654.04
776.2	30402.07
776.535	30284.1
776.87	30264.22
777.205	30153.94
777.539	30071.91
777.874	30080.49
778.209	29835.98
778.543	29805.25
778.878	29625.37
779.212	29628.3
779.547	29514.41
779.881	29588.53
780.215	29295.43
780.55	29276
780.884	28990.81
781.218	28942.22
781.552	28905.61
781.886	28671.27
782.22	28530.48
782.554	28520.08
782.888	28249.36
783.222	28069.25
783.556	27984.96
783.889	28028.57
784.223	27763.95
784.557	27740.22
784.89	27790.61
785.224	27569.15
785.557	27446.67
785.891	27330.28
786.224	27139.1
786.558	27123.96
786.891	26987.47
787.224	26889.39
787.557	26835.16
787.891	26794.93
788.224	26709.96
788.557	26694.59
788.89	26642.62
789.223	26540.7
789.556	26277.66
789.888	26318.79
790.221	26200.14
790.554	25952.92
790.887	25975.74
791.219	25738.24
791.552	25702.08
791.884	25624.79
792.217	25607.17
792.549	25511.57
792.882	25313.39
793.214	25230.23
793.546	25345.03
793.879	25103
794.211	24803.57
794.543	25120.85
794.875	24990.46
795.207	25029.78
795.539	24802.89
795.871	24623.46
796.203	24522.22
796.535	24321.78
796.867	24418.95
797.198	24215.56
797.53	24341.66
797.862	24159.52
798.193	24119.07
798.525	24011.5
798.856	24115
799.188	23882.01
799.519	23756.59
799.85	23577.39
800.182	23650.38
800.513	23618.74
800.844	23356.83
801.175	23461.69
801.506	23310.95
801.837	23120.68
802.168	23128.36
802.499	22998.42
802.83	22852.89
803.161	22975.6
803.491	22783.51
803.822	22697.86
804.153	22620.13
804.483	22450.64
804.814	22407.48
805.145	22465.33
805.475	22360.25
805.805	22235.5
806.136	22296.07
806.466	22370.64
806.796	22288.16
807.126	22100.37
807.457	21989.63
807.787	22086.58
808.117	21928.84
808.447	21788.06
808.777	21811.79
809.107	21749.64
809.436	21763.2
809.766	21688.62
810.096	21694.05
810.426	21530.66
810.755	21591
811.085	21478.69
811.414	21370.89
811.744	21148.98
812.073	21148.53
812.403	21159.37
812.732	20975.65
813.061	20948.31
813.39	20903.11
813.719	20744.69
814.049	20867.86
814.378	20860.85
814.707	20635.77
815.036	20710.8
815.365	20590.8
815.693	20345.16
816.022	20392.61
816.351	20435.32
816.68	20311.71
817.008	20285.27
817.337	20102.45
817.665	19995.56
817.994	20125.95
818.322	20116.24
818.651	19981.1
818.979	19871.5
819.307	19986.52
819.636	19904.94
819.964	19642.58
820.292	19806.41
820.62	19730.94
820.948	19711.5
821.276	19705.17
821.604	19702.24
821.932	19810.03
822.259	19776.81
822.587	19648.9
822.915	19561.45
823.243	19582.69
823.57	19457.5
823.898	19522.13
824.225	19551.28
824.553	19440.55
824.88	19579.3
825.207	19670.15
825.535	19530.49
825.862	19628.34
826.189	19418.18
826.516	19556.03
826.843	19567.55
827.17	19645.29
827.497	19488.91
827.824	19471.51
828.151	19585.63
828.478	19496.82
828.805	19522.35
829.131	19474.67
829.458	19502.92
829.785	19528.46
830.111	19542.01
830.438	19617.72
830.764	19596.48
831.09	19529.81
831.417	19496.14
831.743	19495.69
832.069	19457.72
832.395	19425.86
832.722	19469.7
833.048	19408.91
833.374	19389.48
833.7	19311.74
834.026	19337.05
834.351	19261.57
834.677	19311.29
835.003	19391.74
835.329	19238.29
835.654	19191.52
835.98	19129.6
836.306	19072.65
836.631	19030.16
836.956	19056.83
837.282	19068.81
837.607	18883.95
837.932	18982.71
838.258	19011.86
838.583	18940.45
838.908	18971.63
839.233	18965.98
839.558	19006.66
839.883	18824.52
840.208	18814.8
840.533	18742.26
840.858	18777.51
841.182	18831.52
841.507	18872.2
841.832	18702.71
842.156	18846.89
842.481	18704.75
842.805	18653
843.13	18479.44
843.454	18456.62
843.778	18331.2
844.103	18258.88
844.427	18323.74
844.751	18301.14
845.075	18298.66
845.399	18231.77
845.723	18163.52
846.047	18210.75
846.371	18019.57
846.695	18156.97
847.019	17942.28
847.343	17824.32
847.666	17801.04
847.99	17654.61
848.313	17641.95
848.637	17551.33
848.96	17501.16
849.284	17455.74
849.607	17319.02
849.931	17221.17
850.254	17075.19
850.577	17015.98
850.9	16954.06
851.223	16863.21
851.546	16971.69
851.869	16740.05
852.192	16945.47
852.515	16831.8
852.838	16665.93
853.161	16714.74
853.483	16580.51
853.806	16436.33
854.129	16427.07
854.451	16418.93
854.774	16394.3
855.096	16198.6
855.419	16225.72
855.741	16301.2
856.063	16174.65
856.385	16091.71
856.708	16069.56
857.03	16087.42
857.352	16026.17
857.674	15948.66
857.996	15913.18
858.318	15857.59
858.64	15757.71
858.961	15826.63
859.283	15728.33
859.605	15645.85
859.926	15792.06
860.248	15739.4
860.57	15721.55
860.891	15642.91
861.212	15486.3
861.534	15538.73
861.855	15479.3
862.176	15423.03
862.498	15396.36
862.819	15390.26
863.14	15326.08
863.461	15381.45
863.782	15344.84
864.103	15224.84
864.424	15211.28
864.745	15231.85
865.065	15084.5
865.386	15090.61
865.707	15230.04
866.027	15263.03
866.348	15090.61
866.668	15048.35
866.989	15114.33
867.309	15002.7
867.63	15053.32
867.95	14939.2
868.27	14877.28
868.59	14891.52
868.91	14837.51
869.23	14804.51
869.55	14785.53
869.87	14883.15
870.19	14905.53
870.51	14879.99
870.83	14903.27
871.15	14694.68
871.469	14785.76
871.789	14780.56
872.109	14762.71
872.428	14801.8
872.748	14856.49
873.067	14757.51
873.386	14866.43
873.706	14745.3
874.025	14592.54
874.344	14531.75
874.663	14565.42
874.982	14531.3
875.301	14629.38
875.62	14492.66
875.939	14439.78
876.258	14502.15
876.577	14372.66
876.896	14439.32
877.214	14317.52
877.533	14325.88
877.852	14337.86
878.17	14349.61
878.489	14360.91
878.807	14295.82
879.125	14319.78
879.444	14303.96
879.762	14260.8
880.08	14322.49
880.398	14218.76
880.716	14253.11
881.034	14153.23
881.352	14103.74
881.67	14229.16
881.988	14175.6
882.306	14129.73
882.624	14080.01
882.941	13984.42
883.259	14052.22
883.577	14049.5
883.894	13893.8
884.212	13889.51
884.529	13906.68
884.846	13786.46
885.164	13813.8
885.481	13806.8
885.798	13831.43
886.115	13650.64
886.432	13677.76
886.75	13670.76
887.067	13647.03
887.383	13549.63
887.7	13583.75
888.017	13505.79
888.334	13555.51
888.651	13448.62
888.967	13508.5
889.284	13372.46
889.6	13392.57
889.917	13329.75
890.233	13285.68
890.55	13309.64
890.866	13275.29
891.182	13268.28
891.498	13179.7
891.815	13133.37
892.131	13134.27
892.447	13098.34
892.763	13037.1
893.079	13045.46
893.395	13043.88
893.71	12938.12
894.026	12935.18
894.342	12937.22
894.657	12893.83
894.973	12859.93
895.289	12784.68
895.604	12814.96
895.92	12712.36
896.235	12692.48
896.55	12696.09
896.865	12612.71
897.181	12531.13
897.496	12647.51
897.811	12473.95
898.126	12475.76
898.441	12435.99
898.756	12342.66
899.071	12275.09
899.386	12247.29
899.7	12246.39
900.015	12161.19
900.33	12106.05
900.644	12033.51
900.959	12112.15
901.273	12057.47
901.588	11959.84
901.902	11956.45
902.216	12010.69
902.531	12000.74
902.845	11866.06
903.159	11839.62
903.473	11821.54
903.787	11790.58
904.101	11744.71
904.415	11692.05
904.729	11702.67
905.042	11532.06
905.356	11470.36
905.67	11517.14
905.984	11494.77
906.297	11423.13
906.611	11352.85
906.924	11338.84
907.237	11336.35
907.551	11327.54
907.864	11280.76
908.177	11196.25
908.491	11131.39
908.804	11027.66
909.117	11013.65
909.43	10983.82
909.743	10908.12
910.056	10920.55
910.368	10899.76
910.681	10836.25
910.994	10788.35
911.307	10759.65
911.619	10630.38
911.932	10758.74
912.244	10577.5
912.557	10627.22
912.869	10587.45
913.181	10542.7
913.494	10546.32
913.806	10470.16
914.118	10417.73
914.43	10336.38
914.742	10324.86
915.054	10263.16
915.366	10246.44
915.678	10216.61
915.99	10143.39
916.302	10022.94
916.613	10071.3
916.925	10073.79
917.236	10034.47
917.548	9955.83
917.859	9970.51
918.171	9926
918.482	9907.69
918.794	9785.21
919.105	9815.26
919.416	9719
919.727	9714.93
920.038	9657.08
920.349	9680.13
920.66	9562.39
920.971	9529.85
921.282	9500.47
921.593	9373.92
921.903	9426.57
922.214	9364.2
922.525	9413.69
922.835	9306.35
923.146	9240.59
923.456	9208.5
923.767	9211.44
924.077	9185
924.387	9141.16
924.697	9037.21
925.008	9044.21
925.318	9005.12
925.628	9018.45
925.938	8977.32
926.248	8803.54
926.558	8827.95
926.867	8782.52
927.177	8841.73
927.487	8735.29
927.796	8670.66
928.106	8681.96
928.416	8736.87
928.725	8692.36
929.034	8587.95
929.344	8589.99
929.653	8554.28
929.962	8474.96
930.271	8477.45
930.581	8401.06
930.89	8372.14
931.199	8345.02
931.508	8249.88
931.817	8316.32
932.125	8291.69
932.434	8250.79
932.743	8086.5
933.051	8094.63
933.36	8061.41
933.669	7979.83
933.977	7955.65
934.286	7968.53
934.594	7922.21
934.902	7887.86
935.21	7862.1
935.519	7864.13
935.827	7832.94
936.135	7696.45
936.443	7693.06
936.751	7702.33
937.059	7654.87
937.367	7569.9
937.674	7657.81
937.982	7612.38
938.29	7541.2
938.597	7505.49
938.905	7451.48
939.213	7471.37
939.52	7358.61
939.827	7440.64
940.135	7357.48
940.442	7321.77
940.749	7284.48
941.056	7291.72
941.363	7209.01
941.67	7192.96
941.977	7135.33
942.284	7141.66
942.591	7170.59
942.898	7091.04
943.205	7111.83
943.511	7046.98
943.818	7058.27
944.125	6967.66
944.431	6961.33
944.738	6985.06
945.044	6871.39
945.35	6858.05
945.657	6778.96
945.963	6799.07
946.269	6711.17
946.575	6741.45
946.881	6736.02
947.187	6685.63
947.493	6636.37
947.799	6598.85
948.105	6563.6
948.41	6532.86
948.716	6539.42
949.022	6504.62
949.327	6545.07
949.633	6439.53
949.938	6467.1
950.244	6463.71
950.549	6377.39
950.854	6349.14
951.16	6333.55
951.465	6292.19
951.77	6265.08
952.075	6198.86
952.38	6192.31
952.685	6186.43
952.99	6121.8
953.294	6119.54
953.599	6089.49
953.904	6025.31
954.209	6011.75
954.513	5993.67
954.818	5948.25
955.122	5967.23
955.426	5981.47
955.731	5929.49
956.035	5887.68
956.339	5893.11
956.643	5840.68
956.948	5808.14
957.252	5792.55
957.556	5757.97
957.86	5714.58
958.163	5689.95
958.467	5683.85
958.771	5663.96
959.075	5656.73
959.378	5570.86
959.682	5597.75
959.985	5553.68
960.289	5562.49
960.592	5542.16
960.896	5509.16
961.199	5469.16
961.502	5459.9
961.805	5436.85
962.108	5441.14
962.411	5467.13
962.714	5390.52
963.017	5339.68
963.32	5377.19
963.623	5320.92
963.926	5327.92
964.228	5248.15
964.531	5254.93
964.833	5192.11
965.136	5178.1
965.438	5150.53
965.741	5150.3
966.043	5134.71
966.345	5069.4
966.648	5072.34
966.95	5072.56
967.252	5032.57
967.554	5009.29
967.856	5036.41
968.158	4909.18
968.46	4886.58
968.761	4881.61
969.063	4935.39
969.365	4864.66
969.666	4875.96
969.968	4815.17
970.269	4827.83
970.571	4801.61
970.872	4747.15
971.174	4734.27
971.475	4690.2
971.776	4701.27
972.077	4694.04
972.378	4664.89
972.679	4653.37
972.98	4584.89
973.281	4610.66
973.582	4546.93
973.883	4555.97
974.183	4569.53
974.484	4516.42
974.785	4527.72
975.085	4504.44
975.386	4506.25
975.686	4535.86
975.986	4465.57
976.287	4404.11
976.587	4402.07
976.887	4372.47
977.187	4377.44
977.487	4341.74
977.787	4304.9
978.087	4252.25
978.387	4237.78
978.687	4248.41
978.987	4200.5
979.286	4210.44
979.586	4214.73
979.885	4201.85
980.185	4162.31
980.484	4131.8
980.784	4102.87
981.083	4080.95
981.382	4115.3
981.682	4092.48
981.981	4059.71
982.28	4049.54
982.579	4035.08
982.878	3999.82
983.177	3970.9
983.475	3965.47
983.774	3907.17
984.073	3939.49
984.372	3874.4
984.67	3852.03
984.969	3870.56
985.267	3808.64
985.566	3853.16
985.864	3800.73
986.162	3782.65
986.461	3724.58
986.759	3716.67
987.057	3691.36
987.355	3670.34
987.653	3693.84
987.951	3670.57
988.249	3663.11
988.547	3635.09
988.844	3643.45
989.142	3611.59
989.44	3602.77
989.737	3560.97
990.035	3565.49
990.332	3563.23
990.63	3535.88
990.927	3506.96
991.224	3515.77
991.521	3518.25
991.819	3464.47
992.116	3468.09
992.413	3448.2
992.71	3453.17
993.006	3426.05
993.303	3394.64
993.6	3362.55
993.897	3359.39
994.193	3384.47
994.49	3347.19
994.787	3281.65
995.083	3278.49
995.379	3295.21
995.676	3255.44
995.972	3257.47
996.268	3252.05
996.565	3164.14
996.861	3134.08
997.157	3180.18
997.453	3125.04
997.749	3143.35
998.044	3115.33
998.34	3120.3
998.636	3097.48
998.932	3116.68
999.227	3034.88
999.523	3040.3
999.818	3054.09
1000.114	3003.92
1000.409	3026.97
1000.704	2969.57
1001	2964.37
1001.295	2941.32
1001.59	2946.97
1001.885	2903.36
1002.18	2909.68
1002.475	2897.71
1002.77	2898.61
1003.065	2864.03
1003.359	2833.75
1003.654	2812.06
1003.949	2779.29
1004.243	2777.94
1004.538	2795.11
1004.832	2754.89
1005.127	2730.03
1005.421	2705.85
1005.715	2728.9
1006.009	2725.51
1006.304	2682.57
1006.598	2654.55
1006.892	2645.06
1007.186	2619.97
1007.48	2622.46
1007.773	2564.61
1008.067	2559.41
1008.361	2595.12
1008.655	2539.07
1008.948	2539.07
1009.242	2525.29
1009.535	2454.55
1009.829	2509.47
1010.122	2471.05
1010.415	2460.2
1010.708	2474.67
1011.001	2420.43
1011.295	2405.74
1011.588	2423.82
1011.881	2414.1
1012.173	2368.45
1012.466	2364.16
1012.759	2325.52
1013.052	2338.17
1013.344	2331.17
1013.637	2297.95
1013.93	2281.9
1014.222	2276.93
1014.514	2282.36
1014.807	2230.61
1015.099	2265.41
1015.391	2182.92
1015.683	2197.16
1015.976	2214.11
1016.268	2198.52
1016.56	2171.62
1016.851	2156.48
1017.143	2115.58
1017.435	2145.86
1017.727	2108.57
1018.018	2106.31
1018.31	2088.46
1018.602	2069.71
1018.893	2027.45
1019.185	2021.12
1019.476	2044.62
1019.767	2022.02
1020.058	1974.11
1020.35	1977.96
1020.641	1957.39
1020.932	1958.07
1021.223	1939.54
1021.514	1931.4
1021.804	1914.91
1022.095	1893.21
1022.386	1869.94
1022.677	1871.29
1022.967	1843.27
1023.258	1872.65
1023.548	1833.78
1023.839	1814.57
1024.129	1818.19
1024.419	1778.19
1024.709	1776.61
1025	1776.15
1025.29	1735.7
1025.58	1753.1
1025.87	1704.52
1026.16	1701.13
1026.449	1723.73
1026.739	1693.22
1027.029	1699.77
1027.319	1675.59
1027.608	1652.77
1027.898	1633.56
1028.187	1650.73
1028.477	1601.02
1028.766	1634.69
1029.055	1589.27
1029.344	1582.49
1029.634	1543.84
1029.923	1551.98
1030.212	1574.8
1030.501	1536.84
1030.79	1514.01
1031.078	1541.58
1031.367	1495.94
1031.656	1502.71
1031.945	1474.69
1032.233	1471.76
1032.522	1468.59
1032.81	1445.32
1033.099	1435.82
1033.387	1442.15
1033.675	1422.49
1033.963	1407.12
1034.251	1406.67
1034.54	1376.62
1034.828	1363.74
1035.116	1365.54
1035.403	1384.3
1035.691	1366.67
1035.979	1338.65
1036.267	1326.67
1036.554	1332.78
1036.842	1312.21
1037.129	1298.88
1037.417	1276.96
1037.704	1269.73
1037.992	1303.85
1038.279	1293
1038.566	1215.94
1038.853	1215.94
1039.14	1215.94
