Data from foil_FLMS001491_022.txt Node
Date: Tue Feb 07 11:25:40 GMT 2017
User: dcchb
Spectrometer: FLMS00149
Trigger mode: 0
Integration Time (sec): 2.000000E-2
Scans to average: 10
Electric dark correction enabled: true
Nonlinearity correction enabled: false
Boxcar width: 0
XAxis mode: Wavelengths
Number of Pixels in Spectrum: 2048
>>>>>Begin Spectral Data<<<<<
341.393	2.99
341.776	2.99
342.16	2.99
342.543	-69.09
342.927	-73.61
343.31	-33.84
343.693	-54.63
344.077	-83.33
344.46	-70.68
344.843	-39.49
345.226	-47.63
345.61	-39.72
345.993	-21.19
346.376	-14.63
346.759	-4.24
347.142	19.94
347.525	55.2
347.908	60.17
348.291	68.08
348.674	87.96
349.057	118.02
349.44	124.35
349.823	144.46
350.206	184.46
350.588	260.39
350.971	272.14
351.354	301.07
351.737	282.76
352.119	318.01
352.502	325.02
352.884	348.52
353.267	348.07
353.65	369.09
354.032	368.86
354.414	370.22
354.797	387.16
355.179	377.9
355.562	383.1
355.944	410.44
356.326	409.54
356.709	420.38
357.091	411.8
357.473	432.36
357.855	419.93
358.238	437.79
358.62	426.03
359.002	423.32
359.384	418.12
359.766	440.04
360.148	431.23
360.53	447.5
360.912	434.62
361.294	442.98
361.676	444.79
362.057	450.67
362.439	449.08
362.821	441.85
363.203	437.33
363.584	459.03
363.966	433.94
364.348	441.17
364.729	454.06
365.111	432.59
365.493	443.21
365.874	453.83
366.256	454.96
366.637	464.23
367.019	458.12
367.4	442.08
367.781	468.74
368.163	454.51
368.544	457.9
368.925	467.16
369.306	463.1
369.688	481.17
370.069	465.81
370.45	471.46
370.831	477.78
371.212	486.37
371.593	492.25
371.974	463.1
372.355	493.15
372.736	499.48
373.117	496.09
373.498	487.5
373.879	494.05
374.26	508.52
374.641	496.31
375.021	489.54
375.402	509.42
375.783	539.25
376.163	581.96
376.544	568.4
376.925	541.74
377.305	545.13
377.686	538.57
378.066	556.88
378.447	557.56
378.827	550.55
379.208	571.79
379.588	566.37
379.968	602.75
380.349	601.62
380.729	592.36
381.109	604.56
381.489	600.49
381.87	613.37
382.25	586.93
382.63	621.06
383.01	614.28
383.39	629.42
383.77	670.55
384.15	649.76
384.53	659.93
384.91	666.25
385.29	678
385.67	678.91
386.049	695.86
386.429	675.29
386.809	697.44
387.189	732.24
387.568	721.17
387.948	710.09
388.328	726.37
388.707	744.67
389.087	764.78
389.466	758.23
389.846	779.25
390.225	805.01
390.605	774.5
390.984	801.84
391.363	814.27
391.743	828.28
392.122	814.05
392.501	819.47
392.881	860.6
393.26	870.09
393.639	867.83
394.018	887.49
394.397	887.72
394.776	893.82
395.155	901.95
395.534	881.84
395.913	926.13
396.292	924.1
396.671	949.41
397.05	944.89
397.429	980.14
397.808	974.95
398.186	1015.62
398.565	973.82
398.944	1003.65
399.323	1038
399.701	1031.89
400.08	1034.83
400.458	1040.26
400.837	1061.72
401.215	1076.19
401.594	1063.76
401.972	1066.92
402.351	1118.22
402.729	1109.86
403.107	1115.96
403.486	1132
403.864	1170.87
404.242	1148.05
404.62	1146.47
404.999	1168.39
405.377	1172.46
405.755	1198.9
406.133	1239.35
406.511	1248.39
406.889	1282.51
407.267	1281.38
407.645	1277.31
408.023	1300.36
408.401	1322.28
408.779	1350.76
409.156	1360.7
409.534	1390.75
409.912	1415.39
410.29	1435.05
410.667	1442.96
411.045	1451.09
411.422	1486.57
411.8	1490.19
412.178	1509.4
412.555	1527.47
412.933	1560.92
413.31	1587.81
413.687	1620.13
414.065	1616.96
414.442	1634.59
414.819	1643.18
415.197	1685.66
415.574	1729.5
415.951	1729.05
416.328	1722.05
416.705	1752.33
417.082	1765.43
417.46	1770.41
417.837	1801.14
418.214	1809.05
418.591	1805.66
418.967	1848.6
419.344	1847.92
419.721	1903.96
420.098	1875.71
420.475	1920.68
420.852	1938.99
421.228	1981.47
421.605	1978.76
421.982	2023.28
422.358	2014.69
422.735	2037.97
423.111	2061.7
423.488	2058.53
423.864	2115.93
424.241	2120
424.617	2140.57
424.994	2173.56
425.37	2190.28
425.746	2191.41
426.123	2192.77
426.499	2274.35
426.875	2310.28
427.251	2348.7
427.627	2396.15
428.003	2384.17
428.379	2421.01
428.756	2491.97
429.132	2485.87
429.507	2513.21
429.883	2540.55
430.259	2574
430.635	2623.26
431.011	2613.55
431.387	2703.94
431.763	2737.84
432.138	2727.22
432.514	2809.7
432.89	2827.55
433.265	2837.04
433.641	2891.28
434.016	2921.11
434.392	2959.98
434.767	3020.32
435.143	2972.86
435.518	3041.11
435.894	3063.48
436.269	3113.19
436.644	3169.46
437.02	3218.28
437.395	3196.13
437.77	3213.31
438.145	3315.68
438.52	3327.2
438.895	3366.3
439.271	3372.62
439.646	3456.69
440.021	3459.4
440.395	3463.92
440.77	3468.21
441.145	3480.19
441.52	3563.58
441.895	3557.93
442.27	3650.81
442.645	3626.85
443.019	3646.97
443.394	3669.11
443.769	3688.1
444.143	3686.74
444.518	3794.76
444.892	3790.01
445.267	3788.88
445.641	3829.11
446.016	3822.55
446.39	3910.01
446.764	3859.16
447.139	3905.49
447.513	3958.14
447.887	3966.05
448.262	3980.74
448.636	3997.92
449.01	4098.93
449.384	4090.57
449.758	4137.35
450.132	4169.89
450.506	4179.38
450.88	4233.39
451.254	4237.46
451.628	4325.37
452.002	4350.22
452.376	4400.17
452.75	4405.59
453.123	4429.32
453.497	4483.78
453.871	4600.39
454.244	4695.75
454.618	4703.44
454.992	4748.86
455.365	4773.72
455.739	4884.9
456.112	4962.64
456.486	4918.35
456.859	4981.85
457.232	5080.37
457.606	5117.89
457.979	5161.95
458.352	5295.06
458.725	5276.3
459.099	5358.56
459.472	5481.04
459.845	5493.02
460.218	5587.25
460.591	5642.17
460.964	5641.94
461.337	5760.13
461.71	5853.69
462.083	5909.28
462.456	5958.32
462.829	6032.67
463.201	6082.16
463.574	6088.03
463.947	6180.23
464.32	6363.5
464.692	6388.82
465.065	6422.49
465.438	6529.6
465.81	6589.71
466.183	6654.34
466.555	6858.41
466.928	6843.72
467.3	6828.58
467.672	6963.04
468.045	7129.81
468.417	7159.87
468.789	7219.75
469.161	7339.52
469.534	7471.05
469.906	7663.81
470.278	7657.71
470.65	7758.04
471.022	7908.32
471.394	8040.07
471.766	8136.11
472.138	8181.99
472.51	8414.3
472.882	8500.17
473.253	8546.05
473.625	8696.78
473.997	8874.4
474.369	8860.16
474.74	9019.03
475.112	9219.93
475.484	9317.78
475.855	9464.67
476.227	9592.8
476.598	9913.69
476.97	9972.45
477.341	10204.31
477.713	10262.84
478.084	10384.42
478.455	10694.24
478.827	10795.93
479.198	11043.16
479.569	11022.37
479.94	11413.09
480.311	11446.54
480.682	11731.5
481.053	11991.61
481.424	12184.14
481.795	12293.29
482.166	12503.91
482.537	12566.73
482.908	12841.07
483.279	13010.79
483.65	13266.6
484.021	13505.92
484.391	13658.68
484.762	13772.35
485.133	14011.44
485.503	14147.71
485.874	14434.03
486.244	14575.04
486.615	14936.84
486.985	14958.76
487.356	15312.2
487.726	15426.77
488.097	15761.45
488.467	15708.12
488.837	16080.31
489.207	16337.93
489.578	16497.93
489.948	16662.44
490.318	16794.64
490.688	16932.94
491.058	17119.38
491.428	17407.06
491.798	17606.37
492.168	17889.53
492.538	18044.78
492.908	18239.8
493.278	18440.7
493.648	18560.7
494.017	18841.37
494.387	18916.4
494.757	19187.57
495.126	19277.52
495.496	19375.14
495.866	19638.64
496.235	19772.42
496.605	19845.64
496.974	20001.56
497.344	20201.56
497.713	20309.58
498.082	20429.58
498.452	20781.43
498.821	20813.07
499.19	20895.55
499.559	21170.8
499.928	21295.09
500.298	21420.28
500.667	21571.69
501.036	21548.42
501.405	21764.46
501.774	21767.17
502.143	22097.33
502.512	22174.84
502.88	22368.96
503.249	22396.98
503.618	22604.43
503.987	22730.98
504.356	22971.88
504.724	23157.19
505.093	23201.03
505.462	23285.77
505.83	23469.72
506.199	23712.2
506.567	23917.85
506.936	24001.91
507.304	24259.53
507.672	24429.7
508.041	24490.26
508.409	24518.06
508.777	24829.46
509.145	25082.33
509.514	25127.08
509.882	25245.04
510.25	25469.22
510.618	25708.99
510.986	25762.54
511.354	25944.91
511.722	26177
512.09	26432.58
512.458	26269.87
512.826	26675.74
513.193	26870.08
513.561	26936.75
513.929	27229.62
514.297	27445.44
514.664	27578.09
515.032	27762.49
515.4	27953.45
515.767	28024.18
516.135	28250.61
516.502	28218.75
516.869	28786.64
517.237	28866.42
517.604	28931.73
517.972	29319.06
518.339	29501.43
518.706	29538.71
519.073	29776.67
519.44	29940.96
519.808	30269.09
520.175	30298.47
520.542	30679.25
520.909	30866.14
521.276	30894.39
521.643	31423.41
522.009	31612.78
522.376	31760.8
522.743	31950.18
523.11	32360.11
523.477	32683.72
523.843	32852.3
524.21	33132.07
524.577	33513.98
524.943	33560.98
525.31	33875.32
525.676	34196.22
526.043	34392.6
526.409	34513.73
526.776	34824.68
527.142	34853.38
527.508	35193.26
527.874	35433.93
528.241	35598.67
528.607	35793.92
528.973	36090.63
529.339	36238.2
529.705	36589.83
530.071	36828.24
530.437	37136.03
530.803	37378.96
531.169	37556.58
531.535	37372.86
531.901	37758.39
532.267	37929.68
532.632	38194.98
532.998	38314.3
533.364	38578.48
533.73	38757
534.095	39103.89
534.461	39138.01
534.826	39237.89
535.192	39448.51
535.557	39788.39
535.923	39838.78
536.288	39929.18
536.653	40015.5
537.019	40031.32
537.384	40368.03
537.749	40669.95
538.114	40573.23
538.479	40648.48
538.845	41081.69
539.21	41025.42
539.575	41154
539.94	41406.43
540.305	41813.19
540.67	41660.66
541.034	41811.16
541.399	42075.79
541.764	42309
542.129	42434.42
542.494	42516.23
542.858	42653.17
543.223	42704.47
543.587	43020.62
543.952	43033.5
544.316	43211.58
544.681	43294.74
545.045	43416.99
545.41	43700.83
545.774	43707.61
546.138	43885.23
546.503	43974.04
546.867	44131.55
547.231	44392.56
547.595	44426.46
547.959	44624.87
548.324	44775.15
548.688	44854.24
549.052	44969.27
549.416	45030.06
549.779	45280.67
550.143	45327.9
550.507	45830.26
550.871	45877.27
551.235	45954.1
551.599	46160.42
551.962	46361.78
552.326	46560.87
552.689	46593.18
553.053	46514.54
553.417	46735.1
553.78	47282.43
554.143	47120.4
554.507	47457.79
554.87	47495.53
555.234	47819.36
555.597	47754.06
555.96	47874.05
556.323	48099.58
556.686	48284.44
557.05	48565.33
557.413	48500.25
557.776	48656.4
558.139	49108.82
558.502	49203.73
558.865	49178.2
559.228	49554.91
559.59	49633.1
559.953	49713.78
560.316	50010.94
560.679	50053.88
561.041	50368.22
561.404	50453.42
561.767	50758.72
562.129	50559.18
562.492	50960.75
562.854	51083.46
563.217	51105.61
563.579	51250.23
563.941	51564.35
564.304	51671.69
564.666	51852.7
565.028	51994.62
565.39	52095.41
565.753	52272.35
566.115	52348.51
566.477	52563.19
566.839	52662.17
567.201	52758.67
567.563	52811.55
567.925	52968.83
568.287	53036.18
568.648	53129.73
569.01	53330.41
569.372	53472.32
569.734	53366.34
570.095	53748.25
570.457	53773.11
570.819	53888.81
571.18	53955.02
571.542	54100.33
571.903	54089.71
572.265	54294.67
572.626	54341.45
572.987	54374.9
573.349	54508.45
573.71	54616.93
574.071	54710.26
574.432	54778.5
574.794	54980.31
575.155	54983.92
575.516	54919.29
575.877	55093.3
576.238	55042
576.599	55172.17
576.96	55206.06
577.32	55182.56
577.681	55256.91
578.042	55415.1
578.403	55488.32
578.763	55512.04
579.124	55490.12
579.485	55671.59
579.845	55666.39
580.206	55587.75
580.566	55677.69
580.927	55609.22
581.287	55762.43
581.648	55725.6
582.008	55877.68
582.368	55778.48
582.728	55802.66
583.089	55789.78
583.449	55835.88
583.809	55929.21
584.169	55964.69
584.529	55830.9
584.889	56069.09
585.249	55835.2
585.609	55805.14
585.969	55900.06
586.329	55819.15
586.688	55990.45
587.048	56061.63
587.408	55880.17
587.768	55924.01
588.127	55918.81
588.487	55874.75
588.846	56072.71
589.206	55898.25
589.565	55885.37
589.925	55981.64
590.284	55951.13
590.643	55970.11
591.003	56106.6
591.362	56071.12
591.721	56038.13
592.08	56079.26
592.44	56194.51
592.799	56049.66
593.158	56037.91
593.517	56091.46
593.876	56168.3
594.235	56040.16
594.593	56134.85
594.952	56211.01
595.311	55985.7
595.67	56115.87
596.029	56195.42
596.387	56192.25
596.746	56204.45
597.104	56215.08
597.463	56177.56
597.822	56380.04
598.18	56202.65
598.538	56249.88
598.897	56420.27
599.255	56178.01
599.613	56476.76
599.972	56341.17
600.33	56384.34
600.688	56333.04
601.046	56418.91
601.404	56518.12
601.762	56390.44
602.12	56475.18
602.478	56591.34
602.836	56592.47
603.194	56405.81
603.552	56487.84
603.91	56426.6
604.268	56591.34
604.625	56452.13
604.983	56674.72
605.341	56587.5
605.698	56751.11
606.056	56776.42
606.413	56689.87
606.771	56740.03
607.128	56734.38
607.485	56628.4
607.843	56707.49
608.2	56824.78
608.557	56875.62
608.914	56877.43
609.272	56936.64
609.629	56909.97
609.986	57121.72
610.343	56954.27
610.7	57129.18
611.057	57043.98
611.414	56992.23
611.771	57133.7
612.127	57146.12
612.484	57220.92
612.841	57300.92
613.198	57156.52
613.554	57187.25
613.911	57299.11
614.267	57288.95
614.624	57364.42
614.98	57352.45
615.337	57419.34
615.693	57478.55
616.05	57336.18
616.406	57579.33
616.762	57419.79
617.118	57429.96
617.475	57417.98
617.831	57458.88
618.187	57424.76
618.543	57523.74
618.899	57684.19
619.255	57599.22
619.611	57569.84
619.967	57618.65
620.323	57676.51
620.678	57594.25
621.034	57530.07
621.39	57545.66
621.746	57526.91
622.101	57777.75
622.457	57551.31
622.812	57600.58
623.168	57690.74
623.523	57690.74
623.879	57814.81
624.234	57566.68
624.589	57709.5
624.945	57660.91
625.3	57716.73
625.655	57692.1
626.01	57710.63
626.365	57714.92
626.72	57722.83
627.075	57694.13
627.43	57727.13
627.785	57547.7
628.14	57668.37
628.495	57679.22
628.85	57630.41
629.205	57451.65
629.559	57720.8
629.914	57554.48
630.269	57473.8
630.623	57399.45
630.978	57348.61
631.332	57553.8
631.687	57596.51
632.041	57446.23
632.396	57438.09
632.75	57392.45
633.104	57350.19
633.459	57302.96
633.813	57232.68
634.167	57224.99
634.521	57140.47
634.875	57228.38
635.229	57113.81
635.583	57039.01
635.937	57008.95
636.291	56925.79
636.645	56969.18
636.999	56891.67
637.352	56969.18
637.706	56700.26
638.06	56927.15
638.413	56894.15
638.767	56838.34
639.121	56896.87
639.474	56745.91
639.828	56705.68
640.181	56867.94
640.534	56819.35
640.888	56701.84
641.241	56600.83
641.594	56562.64
641.947	56675.4
642.301	56503.88
642.654	56545.91
643.007	56456.65
643.36	56403.55
643.713	56437.44
644.066	56551.11
644.419	56292.81
644.771	56054.63
645.124	55712.26
645.477	55540.52
645.83	55465.26
646.182	55376
646.535	55332.84
646.888	55678.82
647.24	55523.34
647.593	55715.2
647.945	55649.89
648.298	55584.58
648.65	55471.14
649.002	55318.15
649.355	55300.52
649.707	55068.89
650.059	55215.78
650.411	55517.92
650.763	55485.83
651.115	55869.1
651.467	55805.82
651.819	55794.07
652.171	55632.72
652.523	55564.92
652.875	55605.15
653.227	55501.87
653.578	55677.01
653.93	55585.26
654.282	55502.33
654.633	55373.97
654.985	55444.7
655.337	55479.95
655.688	55567.18
656.039	55554.75
656.391	55241.32
656.742	55286.06
657.094	55295.78
657.445	55343.01
657.796	55295.33
658.147	55193.86
658.498	55243.8
658.849	55223.01
659.2	55089.91
659.551	55114.77
659.902	55269.79
660.253	55100.75
660.604	55149.57
660.955	54917.03
661.306	55097.59
661.656	55011.27
662.007	55070.02
662.358	54961.78
662.708	54985.5
663.059	54849.69
663.409	54771.95
663.76	54915.67
664.11	54962
664.461	54938.95
664.811	54880.65
665.161	54882.91
665.511	54785.51
665.862	54776.02
666.212	54894.43
666.562	54819.63
666.912	54839.52
667.262	54789.58
667.612	54743.48
667.962	54733.76
668.312	54639.3
668.662	54771.5
669.011	54656.47
669.361	54650.6
669.711	54598.85
670.06	54589.81
670.41	54613.54
670.76	54475.01
671.109	54620.77
671.459	54477.27
671.808	54481.79
672.157	54644.04
672.507	54341.23
672.856	54242.02
673.205	54346.2
673.554	54492.63
673.904	54336.71
674.253	54490.83
674.602	54368.34
674.951	53911.18
675.3	53763.61
675.649	54286.31
675.998	54211.96
676.346	54288.12
676.695	54293.54
677.044	54082.93
677.393	54234.34
677.741	54208.35
678.09	54147.56
678.438	53928.81
678.787	54044.74
679.135	54080.89
679.484	53811.3
679.832	53955.25
680.181	53806.78
680.529	53896.94
680.877	53795.03
681.225	53735.37
681.573	53895.14
681.922	53619.66
682.27	53568.14
682.618	53490.63
682.966	53434.36
683.314	53647.01
683.661	53579.66
684.009	53324.3
684.357	53199.79
684.705	53122.73
685.053	53222.84
685.4	53245.21
685.748	52966.57
686.095	53022.17
686.443	52840.02
686.79	52866.92
687.138	52953.01
687.485	52887.03
687.832	52741.72
688.18	52769.74
688.527	52503.53
688.874	52606.36
689.221	52598.22
689.568	52346.02
689.915	52211.34
690.262	52285.46
690.609	52131.79
690.956	52135.63
691.303	52028.29
691.65	51946.71
691.997	51911.46
692.344	51659.94
692.69	51630.79
693.037	51662.88
693.383	51376.78
693.73	51490.45
694.077	51334.3
694.423	51352.83
694.769	51131.14
695.116	51033.52
695.462	51017.25
695.808	50948.32
696.155	50888.66
696.501	50767.54
696.847	50760.76
697.193	50353.99
697.539	50564.83
697.885	50303.59
698.231	50028.8
698.577	50117.16
698.923	50097.95
699.269	49997.84
699.614	49763.95
699.96	49802.81
700.306	49707
700.651	49556.49
700.997	49390.4
701.342	49370.06
701.688	49261.36
702.033	49133.91
702.379	49157.41
702.724	48964.64
703.069	49020.69
703.415	48660.92
703.76	48593.13
704.105	48659.12
704.45	48514.71
704.795	48325.79
705.14	48127.6
705.485	48191.78
705.83	48071.56
706.175	48169.19
706.52	47919.02
706.865	47730.78
707.209	47743.89
707.554	47537.11
707.899	47601.97
708.243	47215.76
708.588	47319.04
708.932	46930.35
709.277	47074.75
709.621	47043.34
709.966	46857.13
710.31	47008.54
710.654	46577.81
710.998	46518.16
711.342	46654.87
711.687	46446.97
712.031	46258.28
712.375	46051.73
712.719	46143.25
713.063	46112.74
713.407	46173.76
713.75	45942.13
714.094	45948.23
714.438	45621.23
714.782	45717.95
715.125	45493.78
715.469	45508.24
715.812	45336.27
716.156	45071.87
716.499	45189.6
716.843	45085.65
717.186	44868.71
717.53	45010.62
717.873	45170.39
718.216	44951.87
718.559	44784.64
718.902	44449.06
719.246	44675.49
719.589	44498.1
719.932	44389.85
720.275	44322.73
720.617	44263.98
720.96	44180.82
721.303	44090.87
721.646	44146.01
721.989	44010.65
722.331	43883.42
722.674	43861.95
723.016	43859.02
723.359	43759.81
723.701	43806.81
724.044	43605.01
724.386	43365.24
724.729	43602.07
725.071	43621.28
725.413	43317.79
725.755	43303.55
726.097	43083.9
726.439	42899.04
726.782	42835.09
727.124	43038.7
727.465	42767.07
727.807	42516.9
728.149	42633.29
728.491	42605.94
728.833	42613.85
729.175	42442.1
729.516	42316.23
729.858	42203.47
730.199	42290.02
730.541	42092.06
730.882	42092.06
731.224	42198.04
731.565	41920.54
731.906	41906.07
732.248	41870.37
732.589	41713.54
732.93	41571.62
733.271	41711.95
733.612	41733.87
733.953	41576.36
734.294	41480.55
734.635	41262.47
734.976	41429.7
735.317	41118.3
735.658	41238.97
735.999	41174.57
736.339	40924.63
736.68	41084.4
737.021	41059.54
737.361	40826.78
737.702	41043.05
738.042	40712.43
738.383	40678.76
738.723	40885.76
739.063	40657.52
739.404	40397.64
739.744	40417.75
740.084	40274.93
740.424	40239.68
740.764	40260.24
741.104	40368.03
741.444	40162.16
741.784	39861.38
742.124	40008.72
742.464	39902.74
742.804	39861.61
743.143	39766.92
743.483	39752.23
743.823	39646.92
744.162	39654.38
744.502	39553.37
744.841	39312.47
745.181	39411.9
745.52	39168.07
745.86	39260.95
746.199	39125.58
746.538	39177.78
746.877	39125.13
747.216	38966.72
747.556	38914.29
747.895	38925.13
748.234	38734.41
748.573	38693.05
748.911	38803.1
749.25	38729.43
749.589	38471.59
749.928	38751.35
750.267	38484.47
750.605	38243.34
750.944	38190.46
751.283	37887.2
751.621	38008.77
751.96	37812.62
752.298	37735.79
752.636	37807.88
752.975	37577.83
753.313	37392.75
753.651	37673.64
753.989	37388.9
754.327	37381.67
754.666	37160.21
755.004	37250.38
755.342	37463.03
755.679	37179.87
756.017	36920.22
756.355	36985.98
756.693	36710.73
757.031	36900.1
757.368	36519.77
757.706	36491.53
758.044	36481.13
758.381	36541.69
758.719	36342.6
759.056	36298.09
759.394	36093.34
759.731	35862.39
760.068	35735.61
760.405	35716.63
760.743	35481.84
761.08	35571.32
761.417	35381.95
761.754	35327.94
762.091	35317.32
762.428	35253.82
762.765	34933.15
763.102	35121.39
763.438	34841.17
763.775	34586.27
764.112	34590.56
764.449	34819.93
764.785	34577.23
765.122	34194.64
765.458	34090.23
765.795	34141.98
766.131	33913.29
766.467	33824.03
766.804	33682.56
767.14	33474.88
767.476	33558.95
767.812	33339.74
768.148	33322.34
768.485	33108.79
768.821	32957.83
769.157	32887.78
769.492	32913.32
769.828	32780.21
770.164	32494.57
770.5	32431.29
770.836	32421.12
771.171	32137.97
771.507	32099.55
771.842	31836.28
772.178	31729.62
772.513	31728.26
772.849	31507.02
773.184	31506.35
773.519	31501.15
773.855	31369.4
774.19	31207.82
774.525	31066.13
774.86	31006.7
775.195	30923.09
775.53	30782.52
775.865	30543.21
776.2	30408.97
776.535	30337.79
776.87	30223.89
777.205	30178.02
777.539	29945.26
777.874	30055.31
778.209	29904.81
778.543	29791.59
778.878	29628.43
779.212	29552.95
779.547	29501.2
779.881	29343.47
780.215	29206.97
780.55	29313.41
780.884	29051.5
781.218	28942.57
781.552	28749.58
781.886	28529.02
782.22	28493.77
782.554	28414.9
782.888	28050.39
783.222	28124.06
783.556	27897.63
783.889	27879.32
784.223	27795.03
784.557	27759.1
784.89	27756.61
785.224	27576.05
785.557	27338.09
785.891	27289.06
786.224	27134.26
786.558	27183.52
786.891	27010.87
787.224	26838.67
787.557	26788.5
787.891	26698.56
788.224	26643.2
788.557	26683.42
788.89	26614.5
789.223	26487.27
789.556	26272.13
789.888	26267.84
790.221	26085.02
790.554	25864.46
790.887	25931.58
791.219	25828.08
791.552	25795.76
791.884	25560.06
792.217	25524.36
792.549	25530.68
792.882	25452.04
793.214	25114.42
793.546	25197.13
793.879	25159.85
794.211	24933.19
794.543	25033.75
794.875	24890.02
795.207	24935.67
795.539	24731.61
795.871	24751.95
796.203	24414.56
796.535	24406.42
796.867	24395.57
797.198	24271.28
797.53	24221.57
797.862	24084.17
798.193	24201.68
798.525	24053.21
798.856	24012.76
799.188	23795.36
799.519	23657.97
799.85	23488.25
800.182	23602.37
800.513	23537.74
800.844	23363.28
801.175	23343.17
801.506	23197.41
801.837	23151.09
802.168	23180.24
802.499	23001.94
802.83	22928.27
803.161	22861.38
803.491	22794.71
803.822	22689.18
804.153	22569.41
804.483	22397.43
804.814	22423.65
805.145	22325.57
805.475	22399.69
805.805	22231.34
806.136	22185.46
806.466	22320.6
806.796	22255.29
807.126	22180.26
807.457	21952.25
807.787	22054.39
808.117	21847.17
808.447	21787.05
808.777	21834.28
809.107	21698.47
809.436	21591.81
809.766	21649.2
810.096	21501.64
810.426	21608.98
810.755	21479.72
811.085	21457.8
811.414	21278.82
811.744	21056.45
812.073	21081.54
812.403	21033.18
812.732	20888.77
813.061	20940.07
813.39	20830.02
813.719	20794.31
814.049	20858.04
814.378	20726.29
814.707	20595.45
815.036	20669.34
815.365	20565.62
815.693	20485.39
816.022	20390.25
816.351	20305.74
816.68	20135.35
817.008	20351.61
817.337	20103.03
817.665	19989.81
817.994	20081.56
818.322	20110.49
818.651	19973.77
818.979	19939.87
819.307	19977.38
819.636	19747.79
819.964	19673.89
820.292	19749.82
820.62	19790.72
820.948	19721.35
821.276	19748.69
821.604	19614.46
821.932	19731.74
822.259	19676.38
822.587	19602.25
822.915	19426.89
823.243	19617.62
823.57	19468.7
823.898	19536.27
824.225	19348.7
824.553	19489.26
824.88	19583.04
825.207	19671.86
825.535	19416.95
825.862	19553.89
826.189	19498.3
826.516	19602.25
826.843	19539.2
827.17	19555.7
827.497	19531.29
827.824	19550.05
828.151	19423.05
828.478	19421.01
828.805	19537.4
829.131	19455.59
829.458	19474.57
829.785	19356.16
830.111	19529.94
830.438	19706.88
830.764	19518.19
831.09	19444.74
831.417	19390.51
831.743	19428.7
832.069	19470.28
832.395	19291.53
832.722	19420.79
833.048	19373.11
833.374	19403.16
833.7	19209.27
834.026	19369.49
834.351	19375.14
834.677	19266.67
835.003	19253.56
835.329	19204.52
835.654	19146.45
835.98	19019.44
836.306	19097.18
836.631	19009.27
836.956	19151.42
837.282	19039.1
837.607	18990.07
837.932	18936.96
838.258	18904.87
838.583	18966.11
838.908	18776.29
839.233	18927.02
839.558	18870.29
839.883	18882.72
840.208	18741.48
840.533	18724.76
840.858	18802.5
841.182	18740.13
841.507	18752.78
841.832	18689.96
842.156	18742.61
842.481	18786.91
842.805	18536.29
843.13	18546.24
843.454	18430.76
843.778	18342.17
844.103	18261.5
844.427	18272.57
844.751	18345.79
845.075	18202.52
845.399	18181.05
845.723	18053.59
846.047	18177.66
846.371	17998.91
846.695	18024.67
847.019	17923.2
847.343	17803.88
847.666	17652.25
847.99	17586.94
848.313	17565.02
848.637	17513.49
848.96	17438.47
849.284	17424.23
849.607	17170.68
849.931	17182.66
850.254	17133.62
850.577	16943.57
850.9	16915.32
851.223	16861.31
851.546	16850.01
851.869	16705.83
852.192	16930.68
852.515	16817.69
852.838	16625.61
853.161	16650.24
853.483	16603.24
853.806	16427.87
854.129	16402.11
854.451	16396.91
854.774	16287.76
855.096	16266.07
855.419	16235.11
855.741	16190.59
856.063	16127.99
856.385	16048.45
856.708	16056.13
857.03	15982.24
857.352	15937.94
857.674	15910.6
857.996	15821.56
858.318	15894.33
858.64	15862.01
858.961	15794.44
859.283	15683.26
859.605	15573.88
859.926	15650.27
860.248	15591.06
860.57	15665.18
860.891	15733.43
861.212	15514
861.534	15435.58
861.855	15440.78
862.176	15418.18
862.498	15466.99
862.819	15446.66
863.14	15314
863.461	15341.35
863.782	15268.36
864.103	15245.31
864.424	15276.94
864.745	15190.84
865.065	15163.95
865.386	15066.78
865.707	15204.18
866.027	15217.96
866.348	15066.55
866.668	15110.17
866.989	15041.69
867.309	15005.54
867.63	14998.31
867.95	14984.3
868.27	14784.3
868.59	14807.58
868.91	14870.63
869.23	14788.59
869.55	14834.47
869.87	14838.31
870.19	14988.14
870.51	14911.53
870.83	14815.49
871.15	14768.26
871.469	14775.26
871.789	14808.25
872.109	14802.15
872.428	14739.78
872.748	14770.74
873.067	14797.86
873.386	14733.68
873.706	14662.5
874.025	14543.63
874.344	14415.27
874.663	14595.38
874.982	14535.49
875.301	14537.53
875.62	14496.62
875.939	14493.69
876.258	14494.14
876.577	14407.36
876.896	14396.51
877.214	14238.33
877.533	14320.58
877.852	14336.85
878.17	14411.88
878.489	14292.11
878.807	14321.26
879.125	14280.13
879.444	14299.79
879.762	14253.02
880.08	14303.41
880.398	14177.31
880.716	14230.64
881.034	14153.81
881.352	14129.85
881.67	14142.06
881.988	14130.08
882.306	14125.79
882.624	13960.82
882.941	13996.07
883.259	13934.83
883.577	13996.07
883.894	13890.54
884.212	13852.12
884.529	13854.38
884.846	13774.38
885.164	13859.81
885.481	13717.44
885.798	13812.12
886.115	13675.18
886.432	13778
886.75	13693.93
887.067	13686.02
887.383	13514.5
887.7	13551.34
888.017	13497.78
888.334	13466.6
888.651	13436.77
888.967	13438.35
889.284	13393.38
889.6	13305.7
889.917	13272.02
890.233	13280.16
890.55	13325.13
890.866	13221.86
891.182	13265.47
891.498	13160.39
891.815	13118.13
892.131	13144.34
892.447	13100.5
892.763	13023.89
893.079	13072.71
893.395	12967.63
893.71	12991.81
894.026	12901.19
894.342	12931.92
894.657	12862.09
894.973	12832.71
895.289	12851.92
895.604	12805.14
895.92	12757.24
896.235	12697.35
896.55	12757.46
896.865	12646.28
897.181	12596.34
897.496	12566.28
897.811	12522.44
898.126	12417.36
898.441	12368.54
898.756	12320.18
899.071	12287.42
899.386	12243.35
899.7	12100.98
900.015	12155.22
900.33	12092.62
900.644	12028.89
900.959	12091.94
901.273	12018.95
901.588	11923.58
901.902	11897.6
902.216	11920.87
902.531	11959.74
902.845	11937.14
903.159	11885.17
903.473	11753.87
903.787	11755.23
904.101	11725.85
904.415	11657.38
904.729	11575.57
905.042	11569.7
905.356	11473.2
905.67	11433.88
905.984	11387.33
906.297	11467.55
906.611	11369.48
906.924	11323.15
907.237	11290.61
907.551	11341.68
907.864	11294.45
908.177	11199.99
908.491	11070.73
908.804	11002.48
909.117	11000.67
909.43	10927.45
909.743	10863.95
910.056	10898.98
910.368	10844.07
910.681	10795.25
910.994	10862.14
911.307	10750.06
911.619	10588.25
911.932	10727.91
912.244	10602.26
912.557	10535.82
912.869	10520.01
913.181	10578.31
913.494	10504.19
913.806	10422.16
914.118	10370.86
914.43	10364.98
914.742	10372.21
915.054	10321.59
915.366	10267.36
915.678	10253.57
915.99	10145.1
916.302	10124.76
916.613	10061.71
916.925	10113.01
917.236	10078.44
917.548	9982.39
917.859	9903.52
918.171	9905.11
918.482	9826.46
918.794	9862.62
919.105	9806.58
919.416	9683.64
919.727	9710.31
920.038	9680.03
920.349	9577.88
920.66	9539.24
920.971	9509.64
921.282	9491.56
921.593	9403.65
921.903	9380.37
922.214	9364.1
922.525	9348.96
922.835	9334.05
923.146	9255.86
923.456	9127.95
923.767	9202.75
924.077	9124.34
924.387	9160.95
924.697	9103.09
925.008	9044.34
925.318	8993.49
925.628	9004.57
925.938	8895.87
926.248	8840.28
926.558	8784.23
926.867	8796.89
927.177	8813.16
927.487	8675.99
927.796	8637.8
928.106	8663.56
928.416	8643.22
928.725	8660.39
929.034	8594.86
929.344	8596.21
929.653	8503.34
929.962	8413.39
930.271	8377.01
930.581	8363.23
930.89	8335.43
931.199	8279.84
931.508	8264.7
931.817	8240.07
932.125	8254.3
932.434	8187.64
932.743	8109.67
933.051	8054.76
933.36	8045.04
933.669	7984.71
933.977	7911.03
934.286	7952.39
934.594	7891.6
934.902	7895.22
935.21	7824.94
935.519	7832.84
935.827	7843.69
936.135	7757.37
936.443	7651.38
936.751	7672.17
937.059	7683.24
937.367	7651.15
937.674	7640.99
937.982	7562.12
938.29	7568.9
938.597	7591.04
938.905	7427.66
939.213	7467.88
939.52	7364.83
939.827	7382.46
940.135	7338.17
940.442	7307.89
940.749	7314.44
941.056	7290.49
941.363	7195.12
941.67	7235.8
941.977	7135.01
942.284	7219.98
942.591	7068.57
942.898	7139.76
943.205	7086.88
943.511	7027.67
943.818	7057.27
944.125	6976.14
944.431	6926.65
944.738	6882.81
945.044	6878.75
945.35	6830.61
945.657	6778.18
945.963	6796.71
946.269	6741.57
946.575	6755.81
946.881	6709.71
947.187	6676.72
947.493	6607.79
947.799	6588.81
948.105	6604.18
948.41	6529.83
948.716	6504.52
949.022	6539.77
949.327	6476.95
949.633	6386.78
949.938	6457.74
950.244	6404.41
950.549	6399.89
950.854	6322.83
951.16	6299.55
951.465	6302.49
951.77	6209.16
952.075	6214.13
952.38	6164.41
952.685	6157.63
952.99	6116.28
953.294	6060.91
953.599	6089.84
953.904	6005.77
954.209	6027.02
954.513	6012.55
954.818	6036.96
955.122	5971.42
955.426	5934.36
955.731	5933.46
956.035	5913.35
956.339	5882.84
956.643	5869.28
956.948	5816.85
957.252	5831.99
957.556	5754.93
957.86	5709.06
958.163	5646.46
958.467	5661.83
958.771	5664.31
959.075	5644.2
959.378	5588.84
959.682	5593.58
959.985	5619.12
960.289	5535.05
960.592	5555.62
960.896	5510.65
961.199	5433.81
961.502	5446.92
961.805	5462.29
962.108	5370.99
962.411	5377.77
962.714	5373.47
963.017	5323.98
963.32	5303.19
963.623	5301.61
963.926	5303.42
964.228	5242.63
964.531	5232.46
964.833	5168.73
965.136	5140.94
965.438	5100.26
965.741	5117.44
966.043	5110.43
966.345	5090.54
966.648	5070.21
966.95	5032.01
967.252	4978.23
967.554	5050.09
967.856	5005.35
968.158	4966.71
968.46	4960.15
968.761	4852.58
969.063	4868.86
969.365	4884.45
969.666	4868.4
969.968	4818.69
970.269	4807.39
970.571	4752.47
970.872	4727.39
971.174	4730.55
971.475	4721.06
971.776	4683.55
972.077	4659.82
972.378	4638.58
972.679	4634.96
972.98	4638.13
973.281	4602.42
973.582	4551.8
973.883	4563.55
974.183	4539.6
974.484	4552.93
974.785	4471.35
975.085	4511.8
975.386	4482.88
975.686	4488.98
975.986	4395.42
976.287	4399.71
976.587	4375.76
976.887	4373.73
977.187	4324.46
977.487	4333.28
977.787	4330.56
978.087	4251.7
978.387	4270
978.687	4279.27
978.987	4166.73
979.286	4186.16
979.586	4204.01
979.885	4205.37
980.185	4154.3
980.484	4134.41
980.784	4097.8
981.083	4075.88
981.382	4094.19
981.682	4081.76
981.981	4030.01
982.28	4021.87
982.579	3962.44
982.878	3962.66
983.177	3912.27
983.475	3941.87
983.774	3924.47
984.073	3871.82
984.372	3895.1
984.67	3872.72
984.969	3820.3
985.267	3882.44
985.566	3814.87
985.864	3798.83
986.162	3781.2
986.461	3747.3
986.759	3746.85
987.057	3686.06
987.355	3709.56
987.653	3707.08
987.951	3657.59
988.249	3667.3
988.547	3611.26
988.844	3596.12
989.142	3616.91
989.44	3592.5
989.737	3560.19
990.035	3538.04
990.332	3546.63
990.63	3568.78
990.927	3494.2
991.224	3457.59
991.521	3487.2
991.819	3467.31
992.116	3466.41
992.413	3410.59
992.71	3423.92
993.006	3387.54
993.303	3338.5
993.6	3372.62
993.897	3360.42
994.193	3362.45
994.49	3289.24
994.787	3315.68
995.083	3286.98
995.379	3243.59
995.676	3242.46
995.972	3235.68
996.268	3225.73
996.565	3169.69
996.861	3165.17
997.157	3196.13
997.453	3106.64
997.749	3117.04
998.044	3120.88
998.34	3084.72
998.636	3109.13
998.932	3110.94
999.227	3041.11
999.523	3048.11
999.818	3025.97
1000.114	2995.23
1000.409	2993.65
1000.704	2953.88
1001	2939.64
1001.295	2966.53
1001.59	2918.17
1001.885	2945.74
1002.18	2897.38
1002.475	2867.33
1002.77	2877.72
1003.065	2814.22
1003.359	2799.3
1003.654	2842.47
1003.949	2780.55
1004.243	2769.7
1004.538	2766.54
1004.832	2781.9
1005.127	2749.81
1005.421	2759.98
1005.715	2702.36
1006.009	2692.19
1006.304	2667.78
1006.598	2638.18
1006.892	2644.51
1007.186	2610.61
1007.48	2593.21
1007.773	2578.29
1008.067	2566.54
1008.361	2536.49
1008.655	2486.54
1008.948	2496.26
1009.242	2504.85
1009.535	2487
1009.829	2438.86
1010.122	2459.88
1010.415	2466.43
1010.708	2467.34
1011.001	2416.94
1011.295	2421.46
1011.588	2408.81
1011.881	2410.84
1012.173	2337.4
1012.466	2358.41
1012.759	2348.24
1013.052	2304.4
1013.344	2345.31
1013.637	2273.9
1013.93	2273.44
1014.222	2259.43
1014.514	2272.99
1014.807	2254.91
1015.099	2236.61
1015.391	2223.73
1015.683	2193.22
1015.976	2205.87
1016.268	2172.43
1016.56	2154.12
1016.851	2146.89
1017.143	2148.47
1017.435	2097.85
1017.727	2068.25
1018.018	2066.44
1018.31	2069.61
1018.602	2063.96
1018.893	2042.94
1019.185	2020.79
1019.476	2052.21
1019.767	1981.25
1020.058	1963.85
1020.35	1994.58
1020.641	1938.31
1020.932	1927.46
1021.223	1934.69
1021.514	1916.39
1021.804	1896.28
1022.095	1895.15
1022.386	1877.75
1022.677	1830.06
1022.967	1864.41
1023.258	1808.82
1023.548	1810.86
1023.839	1832.32
1024.129	1798.65
1024.419	1811.99
1024.709	1760.01
1025	1737.41
1025.29	1731.76
1025.58	1730.41
1025.87	1745.77
1026.16	1689.5
1026.449	1697.86
1026.739	1673.23
1027.029	1679.33
1027.319	1636.17
1027.608	1647.92
1027.898	1625.78
1028.187	1616.96
1028.477	1587.36
1028.766	1632.1
1029.055	1548.49
1029.344	1587.13
1029.634	1548.04
1029.923	1537.64
1030.212	1551.88
1030.501	1537.19
1030.79	1492.45
1031.078	1523.41
1031.367	1500.58
1031.656	1500.58
1031.945	1480.7
1032.233	1450.41
1032.522	1438.66
1032.81	1392.79
1033.099	1425.56
1033.387	1448.61
1033.675	1415.16
1033.963	1397.31
1034.251	1400.7
1034.54	1375.84
1034.828	1360.7
1035.116	1347.14
1035.403	1355.95
1035.691	1343.3
1035.979	1319.12
1036.267	1329.51
1036.554	1334.94
1036.842	1336.29
1037.129	1316.41
1037.417	1263.53
1037.704	1278.89
1037.992	1258.1
1038.279	1285.45
1038.566	1245.45
1038.853	1245.45
1039.14	1245.45
