Data from foil_FLMS001491_086.txt Node
Date: Tue Feb 07 11:36:56 GMT 2017
User: dcchb
Spectrometer: FLMS00149
Trigger mode: 0
Integration Time (sec): 2.000000E-2
Scans to average: 10
Electric dark correction enabled: true
Nonlinearity correction enabled: false
Boxcar width: 0
XAxis mode: Wavelengths
Number of Pixels in Spectrum: 2048
>>>>>Begin Spectral Data<<<<<
341.393	-6.67
341.776	-6.67
342.16	-6.67
342.543	-44.18
342.927	-49.6
343.31	-69.49
343.693	-83.05
344.077	-62.03
344.46	-64.97
344.843	-52.99
345.226	-58.64
345.61	-15.48
345.993	-37.4
346.376	-3.95
346.759	21.81
347.142	24.75
347.525	65.2
347.908	29.04
348.291	80.79
348.674	111.3
349.057	115.14
349.44	118.08
349.823	147
350.206	173.67
350.588	291.4
350.971	291.4
351.354	320.78
351.737	315.13
352.119	351.97
352.502	363.49
352.884	363.72
353.267	394.68
353.65	421.8
354.032	395.13
354.414	415.02
354.797	444.17
355.179	457.95
355.562	443.04
355.944	451.4
356.326	470.84
356.709	459.54
357.091	446.88
357.473	459.31
357.855	474.68
358.238	500.21
358.62	496.82
359.002	468.35
359.384	464.73
359.766	493.66
360.148	480.55
360.53	474.45
360.912	499.99
361.294	487.78
361.676	498.18
362.057	484.85
362.439	493.66
362.821	487.11
363.203	491.4
363.584	489.37
363.966	487.56
364.348	482.13
364.729	485.98
365.111	506.31
365.493	492.98
365.874	508.57
366.256	508.57
366.637	534.11
367.019	508.35
367.4	535.01
367.781	510.38
368.163	530.49
368.544	505.64
368.925	521.68
369.306	550.83
369.688	529.14
370.069	554.22
370.45	544.28
370.831	552.64
371.212	552.87
371.593	560.55
371.974	568.23
372.355	547.22
372.736	578.63
373.117	572.3
373.498	548.8
373.879	566.65
374.26	570.72
374.641	537.73
375.021	560.32
375.402	605.75
375.783	626.99
376.163	644.62
376.544	635.8
376.925	638.06
377.305	645.75
377.686	638.97
378.066	634.45
378.447	638.97
378.827	664.05
379.208	651.17
379.588	660.66
379.968	683.26
380.349	671.28
380.729	693.88
381.109	692.3
381.489	694.56
381.87	712.86
382.25	707.89
382.63	706.08
383.01	711.51
383.39	728.46
383.77	747.21
384.15	740.88
384.53	747.21
384.91	781.11
385.29	787.89
385.67	805.97
386.049	802.13
386.429	803.93
386.809	830.15
387.189	837.15
387.568	818.4
387.948	845.97
388.328	848.45
388.707	855.23
389.087	873.31
389.466	902.46
389.846	899.98
390.225	911.95
390.605	910.82
390.984	941.11
391.363	953.08
391.743	964.61
392.122	963.93
392.501	964.83
392.881	993.08
393.26	1000.99
393.639	1013.65
394.018	1036.24
394.397	999.86
394.776	1035.11
395.155	1073.53
395.534	1049.12
395.913	1067.43
396.292	1092.74
396.671	1102.23
397.05	1102
397.429	1130.48
397.808	1155.34
398.186	1126.64
398.565	1143.13
398.944	1169.35
399.323	1180.42
399.701	1203.92
400.08	1203.47
400.458	1231.72
400.837	1230.14
401.215	1222.45
401.594	1263.58
401.972	1269.01
402.351	1277.37
402.729	1327.54
403.107	1318.95
403.486	1328.44
403.864	1347.2
404.242	1352.39
404.62	1380.87
404.999	1401.21
405.377	1428.78
405.755	1423.8
406.133	1442.33
406.511	1462.67
406.889	1446.18
407.267	1482.33
407.645	1526.63
408.023	1545.84
408.401	1565.72
408.779	1590.58
409.156	1604.36
409.534	1631.03
409.912	1642.56
410.29	1665.38
410.667	1681.88
411.045	1742.44
411.422	1752.84
411.8	1776.56
412.178	1765.94
412.555	1825.38
412.933	1876.9
413.31	1873.96
413.687	1880.52
414.065	1905.37
414.442	1903.11
414.819	1965.94
415.197	1932.27
415.574	2007.29
415.951	2036.67
416.328	2037.57
416.705	2048.42
417.082	2048.42
417.46	2061.53
417.837	2075.09
418.214	2127.74
418.591	2164.8
418.967	2148.76
419.344	2190.56
419.721	2240.05
420.098	2221.07
420.475	2268.75
420.852	2276.21
421.228	2304.91
421.605	2307.62
421.982	2332.03
422.358	2392.59
422.735	2395.08
423.111	2424.23
423.488	2453.83
423.864	2460.61
424.241	2463.78
424.617	2526.37
424.994	2518.69
425.37	2569.31
425.746	2587.39
426.123	2597.78
426.499	2624.22
426.875	2708.29
427.251	2717.56
427.627	2761.85
428.003	2782.41
428.379	2879.36
428.756	2863.09
429.132	2885.69
429.507	2951
429.883	2983.76
430.259	3034.16
430.635	3040.71
431.011	3095.62
431.387	3145.12
431.763	3175.62
432.138	3210.2
432.514	3269.18
432.89	3295.39
433.265	3346.47
433.641	3382.17
434.016	3417.2
434.392	3467.82
434.767	3540.36
435.143	3515.05
435.518	3593.01
435.894	3637.53
436.269	3632.79
436.644	3677.53
437.02	3756.62
437.395	3727.92
437.77	3839.11
438.145	3861.03
438.52	3926.34
438.895	3966.11
439.271	3955.26
439.646	4035.71
440.021	4011.31
440.395	4091.76
440.77	4059.67
441.145	4046.79
441.52	4151.87
441.895	4224.41
442.27	4232.32
442.645	4227.8
443.019	4260.11
443.394	4308.25
443.769	4289.94
444.143	4301.69
444.518	4381.47
444.892	4346.44
445.267	4395.93
445.641	4471.41
446.016	4492.2
446.39	4467.11
446.764	4572.87
447.139	4520.45
447.513	4618.3
447.887	4586.89
448.262	4673.66
448.636	4680.89
449.01	4754.56
449.384	4757.5
449.758	4817.39
450.132	4823.04
450.506	4862.81
450.88	4897.84
451.254	4865.75
451.628	5008.57
452.002	5068
452.376	5077.72
452.75	5192.07
453.123	5176.25
453.497	5267.32
453.871	5265.74
454.244	5441.33
454.618	5452.62
454.992	5507.76
455.365	5527.65
455.739	5662.79
456.112	5738.49
456.486	5733.97
456.859	5829.56
457.232	5859.17
457.606	5870.69
457.979	5968.54
458.352	6139.61
458.725	6204.47
459.099	6159.73
459.472	6332.6
459.845	6372.37
460.218	6432.94
460.591	6486.5
460.964	6481.07
461.337	6677
461.71	6750.67
462.083	6866.15
462.456	6884.45
462.829	6957.44
463.201	7070.66
463.574	7055.97
463.947	7136.42
464.32	7312.01
464.692	7402.4
465.065	7398.56
465.438	7538.67
465.81	7634.71
466.183	7680.36
466.555	7923.97
466.928	7894.14
467.3	7934.59
467.672	8082.84
468.045	8233.12
468.417	8328.93
468.789	8348.37
469.161	8436.05
469.534	8583.16
469.906	8796.72
470.278	8801.01
470.65	8916.71
471.022	9135.24
471.394	9305.63
471.766	9310.6
472.138	9474.89
472.51	9583.36
472.882	9744.04
473.253	9916.46
473.625	10041.43
473.997	10239.62
474.369	10271.93
474.74	10484.81
475.112	10537.92
475.484	10774.07
475.855	10995.53
476.227	11092.02
476.598	11306.48
476.97	11463.31
477.341	11689.98
477.713	11894.49
478.084	12010.42
478.455	12315.27
478.827	12341.26
479.198	12762.04
479.569	12816.5
479.94	13085.42
480.311	13176.72
480.682	13497.16
481.053	13825.51
481.424	14045.17
481.795	14105.5
482.166	14410.13
482.537	14539.39
482.908	14790.01
483.279	14992.94
483.65	15275.87
484.021	15497.78
484.391	15671.79
484.762	15758.12
485.133	16016.64
485.503	16254.37
485.874	16683.74
486.244	16878.31
486.615	17161.24
486.985	17236.72
487.356	17602.14
487.726	17702.02
488.097	17978.85
488.467	18057.04
488.837	18445.96
489.207	18698.83
489.578	18869.22
489.948	19107.18
490.318	19329.77
490.688	19415.65
491.058	19805.69
491.428	19982.41
491.798	20168.17
492.168	20614.49
492.538	20589.18
492.908	20884.76
493.278	21080.01
493.648	21096.73
494.017	21417.18
494.387	21664.63
494.757	21725.19
495.126	21981.91
495.496	22004.05
495.866	22344.84
496.235	22518.16
496.605	22741.21
496.974	22871.15
497.344	23157.7
497.713	23231.37
498.082	23368.76
498.452	23697.79
498.821	23691.47
499.19	23756.78
499.559	24127.16
499.928	24156.54
500.298	24268.85
500.667	24628.62
501.036	24514.72
501.405	24933.02
501.774	24790.2
502.143	25167.13
502.512	25169.62
502.88	25446.68
503.249	25459.33
503.618	25627.69
503.987	25789.04
504.356	26107
504.724	26125.3
505.093	26298.63
505.462	26460.66
505.83	26565.74
506.199	26951.95
506.567	27199.62
506.936	27182.9
507.304	27610.23
507.672	27688.2
508.041	27817.01
508.409	28010
508.777	28200.5
509.145	28519.14
509.514	28519.14
509.882	28555.29
510.25	28774.95
510.618	29027.6
510.986	29186.24
511.354	29580.35
511.722	29687.47
512.09	29897.18
512.458	29915.94
512.826	30163.61
513.193	30548.01
513.561	30550.27
513.929	30843.14
514.297	31255.34
514.664	31335.56
515.032	31534.2
515.4	31730.35
515.767	31964.7
516.135	32080.4
516.502	31891.7
516.869	32713.83
517.237	32723.77
517.604	32790.66
517.972	33155.63
518.339	33419.57
518.706	33489.63
519.073	33739.11
519.44	33855.27
519.808	34181.14
520.175	34399.89
520.542	34692.99
520.909	34961.45
521.276	35010.49
521.643	35385.85
522.009	35660.64
522.376	35922.56
522.743	36283.9
523.11	36624.01
523.477	36867.62
523.843	37125.24
524.21	37446.81
524.577	37755.28
524.943	37958.44
525.31	38214.7
525.676	38440.46
526.043	38822.6
526.409	38916.15
526.776	39445.4
527.142	39353.88
527.508	39785.51
527.874	40121.77
528.241	40252.39
528.607	40442.89
528.973	40812.15
529.339	40924.46
529.705	41312.25
530.071	41508.85
530.437	41688.73
530.803	42016.41
531.169	42260.24
531.535	42208.95
531.901	42399.9
532.267	42663.4
532.632	43007.57
532.998	43057.06
533.364	43496.6
533.73	43535.47
534.095	43949.92
534.461	44060.2
534.826	44264.26
535.192	44445.5
535.557	44658.37
535.923	44685.94
536.288	44932.49
536.653	45002.77
537.019	45064.69
537.384	45371.35
537.749	45541.51
538.114	45617.44
538.479	45735.18
538.845	46026.7
539.21	46006.59
539.575	46354.83
539.94	46483.86
540.305	46713.24
540.67	46706.46
541.034	46944.19
541.399	47033.9
541.764	47253.79
542.129	47338.53
542.494	47525.87
542.858	47668.01
543.223	47622.36
543.587	47974.9
543.952	47977.38
544.316	48073.43
544.681	48193.87
545.045	48473.19
545.41	48578.5
545.774	48833.86
546.138	48702.34
546.503	48979.39
546.867	49103.45
547.231	49401.07
547.595	49350.45
547.959	49592.48
548.324	49582.54
548.688	49766.71
549.052	49864.56
549.416	49997.44
549.779	50025.69
550.143	50378
550.507	50578.67
550.871	50680.81
551.235	50755.61
551.599	51054.14
551.962	51091.2
552.326	51035.38
552.689	51313.57
553.053	51218.88
553.417	51505.2
553.78	51910.84
554.143	51666.33
554.507	51899.09
554.87	51998.29
555.234	52429.24
555.597	52246.65
555.96	52506.53
556.323	52676.24
556.686	52593.31
557.05	52969.34
557.413	53060.64
557.776	53221.09
558.139	53410.91
558.502	53493.17
558.865	53618.59
559.228	53784.01
559.59	53803.22
559.953	54080.72
560.316	54342.41
560.679	54279.14
561.041	54474.16
561.404	54641.39
561.767	54871.44
562.129	54715.74
562.492	55097.42
562.854	55121.83
563.217	55205.22
563.579	55353.01
563.941	55472.55
564.304	55643.4
564.666	55754.35
565.028	55917.51
565.39	56022.59
565.753	56186.43
566.115	56283.6
566.477	56382.13
566.839	56437.95
567.201	56675.68
567.563	56615.8
567.925	56837.49
568.287	56787.32
568.648	56931.27
569.01	57087.88
569.372	57232.96
569.734	57244.71
570.095	57411.94
570.457	57578.49
570.819	57558.6
571.18	57715.43
571.542	57841.76
571.903	57837.46
572.265	57967.4
572.626	58046.27
572.987	58018.47
573.349	58214.85
573.71	58243.78
574.071	58320.16
574.432	58474.51
574.794	58633.6
575.155	58573.49
575.516	58528.97
575.877	58696.2
576.238	58699.81
576.599	58848.96
576.96	58807.38
577.32	58849.41
577.681	58989.3
578.042	59084.44
578.403	59071.55
578.763	59027.71
579.124	59164.21
579.485	59232.45
579.845	59304.54
580.206	59250.08
580.566	59228.39
580.927	59287.59
581.287	59375.27
581.648	59332.11
582.008	59446.23
582.368	59432.67
582.728	59425.44
583.089	59370.76
583.449	59447.59
583.809	59395.61
584.169	59523.97
584.529	59442.39
584.889	59577.53
585.249	59451.88
585.609	59459.79
585.969	59560.81
586.329	59476.97
586.688	59543.63
587.048	59568.26
587.408	59563.97
587.768	59571.88
588.127	59601.48
588.487	59516.51
588.846	59674.93
589.206	59535.95
589.565	59492.79
589.925	59679.22
590.284	59556.29
590.643	59610.75
591.003	59707.24
591.362	59750.18
591.721	59689.62
592.08	59693.23
592.44	59711.99
592.799	59759.45
593.158	59702.05
593.517	59683.06
593.876	59729.39
594.235	59766.68
594.593	59765.32
594.952	59752.21
595.311	59708.83
595.67	59812.78
596.029	59933
596.387	59944.53
596.746	59918.76
597.104	59874.47
597.463	59863.4
597.822	59956.95
598.18	59878.09
598.538	59835.6
598.897	60010.51
599.255	59836.51
599.613	60099.78
599.972	59976.62
600.33	60037.4
600.688	59963.28
601.046	59957.41
601.404	60122.15
601.762	60062.71
602.12	60156.05
602.478	60186.33
602.836	60160.34
603.194	60049.83
603.552	60113.56
603.91	60061.13
604.268	60219.09
604.625	60133.22
604.983	60249.83
605.341	60142.71
605.698	60290.51
606.056	60386.1
606.413	60358.75
606.771	60398.52
607.128	60467
607.485	60276.04
607.843	60322.82
608.2	60407.11
608.557	60449.37
608.914	60441.91
609.272	60519.65
609.629	60590.38
609.986	60677.39
610.343	60572.31
610.7	60768.46
611.057	60621.57
611.414	60724.17
611.771	60728.01
612.127	60789.93
612.484	60790.38
612.841	60833.32
613.198	60749.48
613.554	60799.64
613.911	60904.73
614.267	60907.66
614.624	60910.38
614.98	60999.87
615.337	61108.79
615.693	61007.32
616.05	60992.86
616.406	61159.18
616.762	61043.93
617.118	61089.81
617.475	61095.68
617.831	61144.04
618.187	61147.88
618.543	61183.36
618.899	61285.73
619.255	61233.98
619.611	61174.55
619.967	61215.23
620.323	61257.26
620.678	61162.12
621.034	61155.12
621.39	61160.99
621.746	61111.95
622.101	61343.81
622.457	61156.7
622.812	61216.13
623.168	61314.43
623.523	61301.55
623.879	61360.76
624.234	61196.24
624.589	61315.79
624.945	61296.13
625.3	61327.31
625.655	61330.93
626.01	61358.5
626.365	61374.54
626.72	61272.17
627.075	61328.22
627.43	61263.59
627.785	61190.14
628.14	61303.81
628.495	61273.53
628.85	61224.04
629.205	61140.88
629.559	61323.92
629.914	61198.5
630.269	61130.26
630.623	61047.1
630.978	61048.68
631.332	61072.86
631.687	61161.67
632.041	61035.34
632.396	61089.58
632.75	61008.9
633.104	61058.17
633.459	60935.46
633.813	60943.37
634.167	60950.37
634.521	60885.52
634.875	60985.4
635.229	60872.64
635.583	60825.18
635.937	60786.99
636.291	60741.79
636.645	60763.94
636.999	60701.79
637.352	60782.24
637.706	60545.87
638.06	60658.86
638.413	60650.27
638.767	60577.96
639.121	60616.6
639.474	60472.2
639.828	60497.96
640.181	60548.35
640.534	60490.95
640.888	60425.64
641.241	60307
641.594	60351.75
641.947	60411.63
642.301	60246.21
642.654	60274.01
643.007	60266.78
643.36	60234.91
643.713	60243.27
644.066	60242.14
644.419	59952.43
644.771	59686.23
645.124	59386.12
645.477	59250.53
645.83	59160.37
646.182	59336.63
646.535	59418.89
646.888	59519.45
647.24	59388.61
647.593	59585.66
647.945	59548.15
648.298	59495.5
648.65	59300.93
649.002	59220.48
649.355	59203.75
649.707	59006.7
650.059	59088.28
650.411	59287.82
650.763	59425.9
651.115	59798.54
651.467	59676.06
651.819	59702.5
652.171	59592.44
652.523	59462.05
652.875	59403.97
653.227	59358.78
653.578	59561.94
653.93	59377.08
654.282	59355.84
654.633	59307.93
654.985	59356.97
655.337	59317.2
655.688	59384.31
656.039	59366.24
656.391	59112.91
656.742	59203.75
657.094	59308.38
657.445	59303.64
657.796	59222.96
658.147	59173.92
658.498	59176.41
658.849	59174.6
659.2	59130.08
659.551	59043.31
659.902	59132.8
660.253	59085.11
660.604	59084.21
660.955	58956.08
661.306	59094.38
661.656	59003.31
662.007	58945
662.358	58979.58
662.708	58974.83
663.059	58877.21
663.409	58773.48
663.76	58957.66
664.11	58966.92
664.461	59007.38
664.811	58911.33
665.161	58831.33
665.511	58808.06
665.862	58810.32
666.212	58863.2
666.562	58864.33
666.912	58787.04
667.262	58740.72
667.612	58709.53
667.962	58829.3
668.312	58702.3
668.662	58811
669.011	58733.94
669.361	58703.88
669.711	58623.2
670.06	58682.19
670.41	58664.11
670.76	58559.25
671.109	58693.48
671.459	58611.23
671.808	58537.33
672.157	58582.08
672.507	58407.16
672.856	58389.31
673.205	58494.17
673.554	58555.41
673.904	58399.03
674.253	58596.09
674.602	58471.8
674.951	58139.38
675.3	57915.43
675.649	58404
675.998	58369.88
676.346	58411.68
676.695	58435.41
677.044	58214.63
677.393	58223.67
677.741	58320.39
678.09	58224.34
678.438	58174.4
678.787	58222.54
679.135	58254.17
679.484	58029.32
679.832	58149.09
680.181	57899.61
680.529	58092.6
680.877	58067.74
681.225	57884.47
681.573	58051.02
681.922	57801.98
682.27	57721.31
682.618	57803.79
682.966	57681.53
683.314	57661.65
683.661	57541.42
684.009	57499.84
684.357	57486.96
684.705	57445.83
685.053	57394.99
685.4	57468.43
685.748	57270.47
686.095	57263.47
686.443	57121.77
686.79	57165.84
687.138	57165.39
687.485	57115
687.832	57078.84
688.18	57020.76
688.527	56887.43
688.874	56879.52
689.221	56794.33
689.568	56700.77
689.915	56692.18
690.262	56629.36
690.609	56550.94
690.956	56514.11
691.303	56403.6
691.65	56368.12
691.997	56388.23
692.344	56230.05
692.69	56165.64
693.037	56208.58
693.383	55931.52
693.73	56030.5
694.077	55858.31
694.423	55747.35
694.769	55690.63
695.116	55610.18
695.462	55600.46
695.808	55497.18
696.155	55567.47
696.501	55381.03
696.847	55363.4
697.193	55225.1
697.539	55256.06
697.885	55023.07
698.231	54949.63
698.577	55014.94
698.923	54912.57
699.269	54781.95
699.614	54665.79
699.96	54566.14
700.306	54505.57
700.651	54378.8
700.997	54239.59
701.342	54229.87
701.688	54247.05
702.033	54109.88
702.379	54194.17
702.724	53883.67
703.069	54087.5
703.415	53663.56
703.76	53634.41
704.105	53637.57
704.45	53531.13
704.795	53436.9
705.14	53381.76
705.485	53361.2
705.83	53229
706.175	53276.45
706.52	53206.85
706.865	53066.97
707.209	53014.31
707.554	52882.79
707.899	52899.51
708.243	52727.99
708.588	52728.67
708.932	52455.91
709.277	52432.18
709.621	52444.16
709.966	52225.86
710.31	52360.54
710.654	52023.15
710.998	52167.55
711.342	52059.31
711.687	51925.53
712.031	51816.83
712.375	51713.33
712.719	51653.67
713.063	51620.22
713.407	51661.81
713.75	51592.65
714.094	51562.6
714.438	51370.06
714.782	51316.05
715.125	51109.5
715.469	51201.03
715.812	51087.13
716.156	50926.91
716.499	50872
716.843	50954.71
717.186	50686.69
717.53	50955.84
717.873	50873.8
718.216	50768.5
718.559	50537.77
718.902	50244.22
719.246	50405.79
719.589	50264.33
719.932	50138.46
720.275	50107.27
720.617	50105.24
720.96	50027.05
721.303	49989.53
721.646	49869.99
721.989	49649.88
722.331	49836.77
722.674	49629.09
723.016	49615.76
723.359	49670.22
723.701	49590.9
724.044	49406.05
724.386	49190.46
724.729	49526.49
725.071	49167.18
725.413	49009.67
725.755	49024.59
726.097	48778.27
726.439	48701.88
726.782	48792.5
727.124	48889.45
727.465	48723.13
727.807	48561.55
728.149	48432.51
728.491	48377.6
728.833	48488.78
729.175	48344.15
729.516	48211.73
729.858	48093.09
730.199	48084.05
730.541	48016.93
730.882	47937.38
731.224	48157.94
731.565	47849.93
731.906	47813.55
732.248	47749.82
732.589	47506.21
732.93	47544.4
733.271	47385.99
733.612	47435.25
733.953	47464.85
734.294	47244.07
734.635	47167.46
734.976	47184.18
735.317	47026.45
735.658	47012.89
735.999	46949.84
736.339	46921.14
736.68	46951.19
737.021	46661.26
737.361	46397.09
737.702	46744.19
738.042	46734.48
738.383	46487.93
738.723	46478.44
739.063	46299.01
739.404	46376.52
739.744	46085.91
740.084	45926.14
740.424	46059.92
740.764	45969.3
741.104	46152.8
741.444	45879.81
741.784	45812.92
742.124	45903.99
742.464	45736.54
742.804	45737.67
743.143	45694.96
743.483	45711.45
743.823	45573.38
744.162	45501.74
744.502	45578.58
744.841	45113.96
745.181	45381.29
745.52	45062.2
745.86	44953.28
746.199	44961.87
746.538	44817.47
746.877	44897.92
747.216	44731.59
747.556	44732.72
747.895	44532.73
748.234	44419.51
748.573	44436.01
748.911	44281.43
749.25	44127.99
749.589	44042.8
749.928	43977.04
750.267	44075.79
750.605	44048.22
750.944	43886.87
751.283	43751.28
751.621	43799.64
751.96	43563.94
752.298	43587.67
752.636	43656.37
752.975	43203.95
753.313	43016.38
753.651	43199.66
753.989	43052.54
754.327	42917.4
754.666	42830.17
755.004	42791.76
755.342	42881.02
755.679	42628.6
756.017	42386.8
756.355	42451.2
756.693	42164.65
757.031	42252.34
757.368	42046.01
757.706	41945.68
758.044	41900.71
758.381	41885.57
758.719	41535.97
759.056	41607.38
759.394	41444.45
759.731	41196.54
760.068	41198.35
760.405	40939.6
760.743	40889.66
761.08	40983.44
761.417	40695.77
761.754	40500.52
762.091	40457.35
762.428	40333.29
762.765	40154.54
763.102	40235.67
763.438	39945.96
763.775	39791.38
764.112	39849.91
764.449	39769.01
764.785	39660.09
765.122	39389.36
765.458	39158.18
765.795	39180.78
766.131	39053.55
766.467	39011.74
766.804	38575.14
767.14	38344.19
767.476	38454.92
767.812	38294.02
768.148	38326.56
768.485	38153.23
768.821	37835.95
769.157	37685.22
769.492	37569.97
769.828	37690.65
770.164	37382.63
770.5	37162.98
770.836	37190.77
771.171	36797.34
771.507	36942.42
771.842	36553.73
772.178	36624.69
772.513	36565.25
772.849	36363
773.184	36316.9
773.519	36268.31
773.855	36011.6
774.19	35938.38
774.525	35558.95
774.86	35647.31
775.195	35560.99
775.53	35309.69
775.865	35288.68
776.2	34969.14
776.535	34681.46
776.87	34722.36
777.205	34521.69
777.539	34409.15
777.874	34405.08
778.209	34080.35
778.543	34166.22
778.878	33877.41
779.212	33869.5
779.547	33612.56
779.881	33692.79
780.215	33435.84
780.55	33501.83
780.884	33087.83
781.218	33196.98
781.552	33088.06
781.886	32858.01
782.22	32641.29
782.554	32674.73
782.888	32331.01
783.222	32228.87
783.556	32047.63
783.889	32027.52
784.223	31816.45
784.557	31719.73
784.89	31832.95
785.224	31535.78
785.557	31381.89
785.891	31324.49
786.224	31300.08
786.558	31282.45
786.891	30902.13
787.224	30790.72
787.557	30757.72
787.891	30608.35
788.224	30455.36
788.557	30439.99
788.89	30552.98
789.223	30343.27
789.556	30114.58
789.888	30050.4
790.221	29803.4
790.554	29760.23
790.887	29714.13
791.219	29579.9
791.552	29496.74
791.884	29433.92
792.217	29335.84
792.549	29214.94
792.882	28926.81
793.214	28809.98
793.546	28866.7
793.879	28670.32
794.211	28575.18
794.543	28648.63
794.875	28439.37
795.207	28488.18
795.539	28343.55
795.871	28358.46
796.203	27988.98
796.535	27885.26
796.867	27804.81
797.198	27699.5
797.53	27621.08
797.862	27475.77
798.193	27516.45
798.525	27391.48
798.856	27251.6
799.188	27226.74
799.519	26986.75
799.85	26940.42
800.182	26825.85
800.513	26915.11
800.844	26603.71
801.175	26682.8
801.506	26659.75
801.837	26466.31
802.168	26287.11
802.499	26222.25
802.83	26131.18
803.161	26016.83
803.491	25961.01
803.822	25845.99
804.153	25794.01
804.483	25673.11
804.814	25539.33
805.145	25623.62
805.475	25600.12
805.805	25399.45
806.136	25360.58
806.466	25355.15
806.796	25288.04
807.126	25076.06
807.457	25088.94
807.787	25006.91
808.117	24896.86
808.447	24716.75
808.777	24932.11
809.107	24619.8
809.436	24587.94
809.766	24559.24
810.096	24498
810.426	24389.75
810.755	24496.42
811.085	24350.89
811.414	24357.66
811.744	24175.97
812.073	24092.13
812.403	24072.93
812.732	23916.32
813.061	24005.36
813.39	23732.14
813.719	23790.45
814.049	23917.22
814.378	23746.83
814.707	23607.4
815.036	23443.34
815.365	23346.39
815.693	23157.02
816.022	23160.63
816.351	23018.94
816.68	22902.79
817.008	23025.72
817.337	22766.52
817.665	22667.09
817.994	22847.2
818.322	22751.61
818.651	22642
818.979	22512.29
819.307	22608.78
819.636	22519.07
819.964	22314.1
820.292	22420.09
820.62	22469.8
820.948	22383.71
821.276	22459.86
821.604	22345.74
821.932	22385.29
822.259	22376.02
822.587	22309.36
822.915	22194.78
823.243	22345.74
823.57	22258.96
823.898	22274.33
824.225	22249.47
824.553	22110.27
824.88	22128.8
825.207	22317.04
825.535	22156.14
825.862	22165.86
826.189	22085.63
826.516	22069.36
826.843	22229.36
827.17	22189.36
827.497	22119.31
827.824	22128.12
828.151	22165.18
828.478	22071.62
828.805	22131.51
829.131	22010.83
829.458	22009.48
829.785	21967.9
830.111	22048.8
830.438	22174.67
830.764	22131.51
831.09	22217.61
831.417	21966.77
831.743	22066.65
832.069	22091.06
832.395	21836.37
832.722	21998.63
833.048	21906.2
833.374	21899.42
833.7	21825.3
834.026	21933.1
834.351	21907.79
834.677	21814.68
835.003	21877.28
835.329	21770.84
835.654	21689.49
835.98	21691.75
836.306	21737.85
836.631	21646.1
836.956	21643.16
837.282	21571.3
837.607	21562.03
837.932	21596.16
838.258	21473.45
838.583	21431.19
838.908	21370.85
839.233	21352.55
839.558	21396.61
839.883	21251.53
840.208	21262.6
840.533	21243.4
840.858	21331.98
841.182	21305.77
841.507	21185.09
841.832	21107.81
842.156	21168.82
842.481	21149.16
842.805	21030.29
843.13	20927.02
843.454	20892.45
843.778	20822.39
844.103	20817.19
844.427	20737.65
844.751	20802.5
845.075	20718.44
845.399	20512.12
845.723	20439.8
846.047	20573.13
846.371	20420.37
846.695	20335.85
847.019	20314.38
847.343	20085.23
847.666	19962.75
847.99	19833.94
848.313	19983.32
848.637	19731.35
848.96	19703.32
849.284	19650.9
849.607	19601.86
849.931	19429.21
850.254	19373.84
850.577	19323.22
850.9	19173.62
851.223	19146.95
851.546	18932.04
851.869	18880.75
852.192	19047.75
852.515	18890.24
852.838	18815.44
853.161	18799.62
853.483	18708.55
853.806	18577.48
854.129	18614.31
854.451	18574.09
854.774	18512.17
855.096	18316.69
855.419	18297.48
855.741	18294.55
856.063	18123.7
856.385	18115.34
856.708	18111.28
857.03	18199.41
857.352	18116.47
857.674	18076.02
857.996	17949.92
858.318	17731.4
858.64	17794
858.961	17809.59
859.283	17622.7
859.605	17599.2
859.926	17737.95
860.248	17645.98
860.57	17469.26
860.891	17525.53
861.212	17496.83
861.534	17471.29
861.855	17375.48
862.176	17493.44
862.498	17380.22
862.819	17320.34
863.14	17257.74
863.461	17185.88
863.782	17164.41
864.103	17176.16
864.424	17141.81
864.745	17136.61
865.065	17068.82
865.386	17010.97
865.707	16968.93
866.027	16992.21
866.348	17030.63
866.668	16956.73
866.989	16945.2
867.309	16769.84
867.63	16850.29
867.95	16874.02
868.27	16646.23
868.59	16684.87
868.91	16813
869.23	16744.98
869.55	16656.85
869.87	16668.38
870.19	16649.62
870.51	16672.44
870.83	16768.71
871.15	16574.14
871.469	16559.68
871.789	16640.58
872.109	16466.57
872.428	16557.87
872.748	16599.22
873.067	16510.41
873.386	16470.19
873.706	16431.09
874.025	16332.56
874.344	16281.49
874.663	16394.26
874.982	16285.79
875.301	16348.16
875.62	16262.96
875.939	16223.64
876.258	16200.82
876.577	16154.49
876.896	16259.35
877.214	16093.48
877.533	16070.2
877.852	16133.25
878.17	16092.57
878.489	16074.27
878.807	16036.3
879.125	16010.77
879.444	16064.1
879.762	15884.44
880.08	15875.63
880.398	15787.49
880.716	15903.65
881.034	15841.96
881.352	15807.61
881.67	15831.11
881.988	15772.81
882.306	15676.99
882.624	15665.24
882.941	15696.88
883.259	15529.87
883.577	15630.66
883.894	15556.09
884.212	15549.08
884.529	15598.8
884.846	15408.3
885.164	15423.21
885.481	15361.74
885.798	15360.16
886.115	15291.69
886.432	15342.08
886.75	15286.72
887.067	15291.24
887.383	15189.09
887.7	15210.11
888.017	15124.69
888.334	15179.83
888.651	14995.42
888.967	15000.62
889.284	14978.02
889.6	14944.13
889.917	14827.07
890.233	14943.9
890.55	14822.77
890.866	14941.19
891.182	14842.66
891.498	14723.34
891.815	14624.14
892.131	14653.29
892.447	14557.92
892.763	14437.7
893.079	14620.07
893.395	14489.22
893.71	14378.49
894.026	14397.7
894.342	14326.97
894.657	14218.04
894.973	14309.79
895.289	14292.62
895.604	14221.43
895.92	14146.18
896.235	14072.96
896.55	14060.31
896.865	14008.56
897.181	13957.71
897.496	13955
897.811	13948.67
898.126	13879.75
898.441	13771.28
898.756	13790.03
899.071	13692.18
899.386	13756.36
899.7	13580.77
900.015	13585.29
900.33	13389.82
900.644	13406.54
900.959	13402.47
901.273	13357.28
901.588	13317.5
901.902	13325.86
902.216	13246.09
902.531	13239.09
902.845	13226.66
903.159	13132.65
903.473	13165.87
903.787	13060.11
904.101	12991.64
904.415	12999.32
904.729	12916.84
905.042	12731.53
905.356	12791.64
905.67	12710.51
905.984	12792.77
906.297	12581.25
906.611	12503.06
906.924	12552.1
907.237	12482.72
907.551	12519.11
907.864	12374.93
908.177	12365.66
908.491	12393.69
908.804	12231.66
909.117	12173.13
909.43	12160.25
909.743	12124.09
910.056	12112.56
910.368	12039.8
910.681	11993.47
910.994	11979.69
911.307	11902.62
911.619	11833.7
911.932	11923.42
912.244	11730.43
912.557	11804.55
912.869	11657.66
913.181	11642.29
913.494	11578.79
913.806	11496.76
914.118	11464.9
914.43	11400.94
914.742	11377.67
915.054	11223.55
915.366	11299.25
915.678	11261.51
915.99	11181.51
916.302	11129.76
916.613	11124.57
916.925	11159.37
917.236	11108.07
917.548	11000.73
917.859	10975.42
918.171	10984.68
918.482	10798.93
918.794	10779.04
919.105	10768.42
919.416	10704.01
919.727	10721.86
920.038	10631.92
920.349	10518.71
920.66	10486.84
920.971	10487.07
921.282	10461.76
921.593	10310.8
921.903	10289.79
922.214	10288.43
922.525	10218.38
922.835	10210.69
923.146	10189.9
923.456	10127.53
923.767	10106.74
924.077	10103.58
924.387	10076.46
924.697	9963.01
925.008	9979.29
925.318	9914.43
925.628	9852.96
925.938	9766.64
926.248	9734.77
926.558	9709.24
926.867	9610.03
927.177	9656.13
927.487	9549.47
927.796	9527.09
928.106	9521.44
928.416	9452.52
928.725	9490.48
929.034	9414.1
929.344	9368.91
929.653	9314.44
929.962	9299.53
930.271	9225.41
930.581	9201.45
930.89	9163.49
931.199	9082.13
931.508	9048.69
931.817	9041.91
932.125	8997.84
932.434	8974.34
932.743	8876.26
933.051	8789.49
933.36	8822.71
933.669	8704.06
933.977	8667.23
934.286	8710.84
934.594	8671.52
934.902	8667.23
935.21	8533.67
935.519	8555.59
935.827	8535.48
936.135	8460.23
936.443	8366.9
936.751	8436.95
937.059	8406.67
937.367	8316.96
937.674	8321.93
937.982	8354.02
938.29	8199.45
938.597	8231.08
938.905	8086.23
939.213	8120.13
939.52	8135.94
939.827	8130.29
940.135	8031.99
940.442	7965.33
940.749	7953.35
941.056	7903.18
941.363	7825.67
941.67	7881.26
941.977	7821.6
942.284	7754.49
942.591	7719.23
942.898	7675.39
943.205	7655.96
943.511	7625.9
943.818	7576.41
944.125	7518.11
944.431	7512.23
944.738	7565.11
945.044	7499.8
945.35	7496.64
945.657	7388.39
945.963	7323.76
946.269	7269.53
946.575	7293.03
946.881	7245.8
947.187	7308.4
947.493	7147.04
947.799	7136.42
948.105	7088.97
948.41	7103.2
948.716	7079.25
949.022	7065.24
949.327	7015.07
949.633	6990.66
949.938	6980.49
950.244	6966.26
950.549	6902.3
950.854	6869.31
951.16	6855.53
951.465	6777.11
951.77	6750.67
952.075	6726.26
952.38	6713.83
952.685	6735.76
952.99	6639.03
953.294	6680.84
953.599	6599.26
953.904	6561.07
954.209	6476.55
954.513	6449.89
954.818	6435.2
955.122	6413.28
955.426	6398.59
955.731	6373.28
956.035	6294.41
956.339	6317.46
956.643	6314.52
956.948	6264.13
957.252	6243.11
957.556	6259.16
957.86	6171.48
958.163	6209.89
958.467	6178.93
958.771	6090.57
959.075	6149.78
959.378	6067.98
959.682	6030.46
959.985	6042.67
960.289	5982.1
960.592	5943.01
960.896	5939.17
961.199	5904.59
961.502	5928.09
961.805	5819.85
962.108	5847.19
962.411	5795.44
962.714	5750.24
963.017	5777.14
963.32	5739.4
963.623	5726.29
963.926	5722.9
964.228	5623.92
964.531	5605.16
964.833	5637.48
965.136	5591.83
965.438	5566.29
965.741	5475
966.043	5516.35
966.345	5430.7
966.648	5420.31
966.95	5414.89
967.252	5423.25
967.554	5332.63
967.856	5349.12
968.158	5280.2
968.46	5270.71
968.761	5248.56
969.063	5257.83
969.365	5214.21
969.666	5199.75
969.968	5162.69
970.269	5112.97
970.571	5116.59
970.872	5139.86
971.174	5062.8
971.475	5083.14
971.776	5014.44
972.077	5028
972.378	4985.74
972.679	4995.01
972.98	5006.76
973.281	4959.76
973.582	4911.62
973.883	4840.66
974.183	4891.96
974.484	4830.27
974.785	4811.29
975.085	4858.06
975.386	4850.61
975.686	4710.05
975.986	4765.86
976.287	4683.15
976.587	4741.68
976.887	4661.91
977.187	4648.8
977.487	4632.76
977.787	4581.46
978.087	4566.09
978.387	4585.76
978.687	4600.9
978.987	4559.54
979.286	4483.84
979.586	4458.07
979.885	4439.77
980.185	4435.25
980.484	4429.38
980.784	4397.96
981.083	4366.78
981.382	4352.77
981.682	4351.41
981.981	4297.63
982.28	4272.77
982.579	4221.7
982.878	4268.02
983.177	4220.34
983.475	4179.21
983.774	4177.86
984.073	4144.86
984.372	4138.99
984.67	4128.59
984.969	4136.28
985.267	4139.89
985.566	4068.25
985.864	4049.72
986.162	4032.78
986.461	4013.34
986.759	4010.4
987.057	3961.59
987.355	3983.74
987.653	3917.75
987.951	3954.81
988.249	3899.45
988.547	3873.23
988.844	3863.74
989.142	3864.19
989.44	3823.29
989.737	3796.4
990.035	3804.08
990.332	3797.53
990.63	3748.94
990.927	3788.26
991.224	3734.03
991.521	3718.21
991.819	3720.92
992.116	3688.15
992.413	3613.58
992.71	3634.59
993.006	3651.54
993.303	3626.01
993.6	3591.88
993.897	3567.48
994.193	3564.99
994.49	3528.38
994.787	3511.89
995.083	3475.28
995.379	3470.3
995.676	3459.68
995.972	3425.56
996.268	3406.8
996.565	3388.72
996.861	3392.79
997.157	3380.59
997.453	3329.07
997.749	3333.36
998.044	3341.27
998.34	3323.19
998.636	3282.74
998.932	3237.54
999.227	3259.46
999.523	3254.49
999.818	3237.99
1000.114	3173.81
1000.409	3220.14
1000.704	3122.97
1001	3158.9
1001.295	3098.11
1001.59	3106.47
1001.885	3089.75
1002.18	3078
1002.475	3059.24
1002.77	3026.47
1003.065	3009.53
1003.359	3005.23
1003.654	2966.59
1003.949	2942.18
1004.243	2988.51
1004.538	2964.33
1004.832	2906.03
1005.127	2887.49
1005.421	2852.47
1005.715	2911.9
1006.009	2805.91
1006.304	2828.29
1006.598	2832.13
1006.892	2793.49
1007.186	2776.54
1007.48	2708.06
1007.773	2727.05
1008.067	2692.02
1008.361	2671
1008.655	2686.14
1008.948	2663.55
1009.242	2649.31
1009.535	2625.58
1009.829	2610.67
1010.122	2591.68
1010.415	2605.02
1010.708	2579.25
1011.001	2556.66
1011.295	2513.27
1011.588	2526.6
1011.881	2476.43
1012.173	2491.12
1012.466	2488.18
1012.759	2475.98
1013.052	2465.13
1013.344	2438.01
1013.637	2432.59
1013.93	2381.97
1014.222	2373.61
1014.514	2354.18
1014.807	2366.38
1015.099	2365.7
1015.391	2312.14
1015.683	2309.43
1015.976	2310.33
1016.268	2275.53
1016.56	2282.09
1016.851	2247.29
1017.143	2240.51
1017.435	2192.6
1017.727	2205.48
1018.018	2212.48
1018.31	2198.47
1018.602	2155.76
1018.893	2134.07
1019.185	2151.24
1019.476	2137.91
1019.767	2097.46
1020.058	2052.71
1020.35	2044.58
1020.641	2054.75
1020.932	2037.57
1021.223	2004.58
1021.514	1988.76
1021.804	1979.5
1022.095	1967.29
1022.386	1975.65
1022.677	1907.63
1022.967	1934.98
1023.258	1912.83
1023.548	1902.44
1023.839	1900.85
1024.129	1887.97
1024.419	1871.93
1024.709	1848.88
1025	1823.57
1025.29	1807.98
1025.58	1795.77
1025.87	1785.38
1026.16	1803.23
1026.449	1785.6
1026.739	1769.56
1027.029	1747.41
1027.319	1727.98
1027.608	1720.29
1027.898	1685.27
1028.187	1704.02
1028.477	1720.75
1028.766	1668.54
1029.055	1672.16
1029.344	1639.39
1029.634	1617.47
1029.923	1660.63
1030.212	1591.03
1030.501	1605.27
1030.79	1562.56
1031.078	1570.02
1031.367	1563.46
1031.656	1539.96
1031.945	1546.29
1032.233	1531.82
1032.522	1512.84
1032.81	1535.89
1033.099	1480.53
1033.387	1475.78
1033.675	1458.61
1033.963	1465.16
1034.251	1460.41
1034.54	1442.11
1034.828	1457.93
1035.116	1432.17
1035.403	1389.91
1035.691	1391.94
1035.979	1390.58
1036.267	1366.4
1036.554	1360.76
1036.842	1363.92
1037.129	1363.02
1037.417	1332.51
1037.704	1372.73
1037.992	1330.47
1038.279	1316.24
1038.566	1322.79
1038.853	1322.79
1039.14	1322.79
