Data from foil_FLMS001491_097.txt Node
Date: Tue Feb 07 11:37:33 GMT 2017
User: dcchb
Spectrometer: FLMS00149
Trigger mode: 0
Integration Time (sec): 2.000000E-2
Scans to average: 10
Electric dark correction enabled: true
Nonlinearity correction enabled: false
Boxcar width: 0
XAxis mode: Wavelengths
Number of Pixels in Spectrum: 2048
>>>>>Begin Spectral Data<<<<<
341.393	-19.91
341.776	-19.91
342.16	-19.91
342.543	-71.89
342.927	-65.34
343.31	-59.91
343.693	-52.68
344.077	-42.74
344.46	-65.34
344.843	-56.75
345.226	-35.06
345.61	-23.98
345.993	-35.28
346.376	2.01
346.759	25.51
347.142	33.64
347.525	23.02
347.908	64.38
348.291	33.64
348.674	85.85
349.057	103.7
349.44	126.75
349.823	163.36
350.206	180.76
350.588	225.95
350.971	276.8
351.354	271.83
351.737	283.81
352.119	310.02
352.502	324.26
352.884	317.03
353.267	331.04
353.65	356.35
354.032	352.5
354.414	359.28
354.797	383.46
355.179	378.72
355.562	397.7
355.944	371.04
356.326	399.74
356.709	397.48
357.091	410.13
357.473	422.79
357.855	429.11
358.238	403.58
358.62	413.52
359.002	408.55
359.384	423.69
359.766	416.68
360.148	411.94
360.53	437.02
360.912	425.5
361.294	413.07
361.676	392.28
362.057	419.62
362.439	410.36
362.821	430.69
363.203	420.53
363.584	426.4
363.966	418.27
364.348	413.97
364.729	408.1
365.111	424.37
365.493	404.48
365.874	425.05
366.256	435.44
366.637	412.16
367.019	429.34
367.4	433.86
367.781	420.75
368.163	434.99
368.544	424.82
368.925	451.49
369.306	421.66
369.688	436.57
370.069	446.74
370.45	419.17
370.831	454.88
371.212	475.67
371.593	456.68
371.974	445.61
372.355	444.25
372.736	453.75
373.117	460.98
373.498	460.52
373.879	477.47
374.26	460.52
374.641	453.29
375.021	459.85
375.402	481.77
375.783	493.52
376.163	524.93
376.544	519.73
376.925	507.3
377.305	478.83
377.686	493.97
378.066	506.85
378.447	525.16
378.827	520.18
379.208	514.31
379.588	510.01
379.968	529.9
380.349	551.82
380.729	550.92
381.109	554.99
381.489	556.57
381.87	551.14
382.25	573.97
382.63	581.43
383.01	580.52
383.39	583.69
383.77	590.92
384.15	604.02
384.53	594.53
384.91	579.17
385.29	615.1
385.67	620.29
386.049	632.5
386.429	611.71
386.809	617.36
387.189	654.19
387.568	647.64
387.948	641.31
388.328	683.8
388.707	684.02
389.087	683.34
389.466	681.99
389.846	710.46
390.225	683.8
390.605	695.32
390.984	697.13
391.363	727.41
391.743	725.83
392.122	727.86
392.501	743.68
392.881	738.26
393.26	757.24
393.639	764.7
394.018	788.43
394.397	807.41
394.776	782.78
395.155	790.91
395.534	833.62
395.913	805.37
396.292	819.16
396.671	880.4
397.05	851.93
397.429	855.77
397.808	870.68
398.186	872.72
398.565	869.78
398.944	893.96
399.323	883.56
399.701	921.98
400.08	905.26
400.458	932.6
400.837	942.55
401.215	943.22
401.594	952.04
401.972	953.62
402.351	975.99
402.729	981.87
403.107	986.84
403.486	1004.69
403.864	1025.26
404.242	1026.61
404.62	1062.99
404.999	1046.27
405.377	1065.48
405.755	1077.23
406.133	1103.67
406.511	1094.41
406.889	1128.3
407.267	1136.67
407.645	1140.05
408.023	1152.48
408.401	1207.85
408.779	1199.04
409.156	1240.17
409.534	1245.36
409.912	1243.1
410.29	1269.99
410.667	1283.55
411.045	1271.58
411.422	1312.03
411.8	1357.68
412.178	1374.62
412.555	1378.69
412.933	1391.8
413.31	1420.05
413.687	1406.71
414.065	1451.68
414.442	1466.37
414.819	1498.01
415.197	1514.28
415.574	1537.78
415.951	1550.89
416.328	1566.94
416.705	1550.67
417.082	1560.16
417.46	1607.84
417.837	1645.35
418.214	1598.57
418.591	1655.75
418.967	1679.93
419.344	1669.31
419.721	1699.14
420.098	1707.72
420.475	1700.94
420.852	1735.97
421.228	1800.6
421.605	1790.66
421.982	1783.2
422.358	1844.89
422.735	1848.06
423.111	1875.85
423.488	1905.01
423.864	1889.41
424.241	1905.68
424.617	1923.09
424.994	1983.2
425.37	1989.98
425.746	1983.2
426.123	2024.78
426.499	2070.2
426.875	2082.4
427.251	2100.26
427.627	2135.51
428.003	2134.38
428.379	2191.55
428.756	2210.31
429.132	2251.66
429.507	2289.63
429.883	2298.67
430.259	2345.22
430.635	2372.11
431.011	2427.25
431.387	2453.92
431.763	2486.91
432.138	2489.4
432.514	2510.41
432.89	2564.2
433.265	2620.92
433.641	2655.27
434.016	2635.16
434.392	2715.15
434.767	2791.76
435.143	2753.8
435.518	2814.59
435.894	2806.23
436.269	2892.78
436.644	2901.36
437.02	2898.43
437.395	2932.78
437.77	2966.9
438.145	3027.24
438.52	3060.91
438.895	3077.86
439.271	3073.34
439.646	3190.85
440.021	3160.79
440.395	3194.92
440.77	3182.94
441.145	3217.29
441.52	3315.36
441.895	3269.49
442.27	3319.88
442.645	3330.51
443.019	3377.28
443.394	3381.58
443.769	3430.62
444.143	3393.1
444.518	3467.9
444.892	3456.83
445.267	3481.69
445.641	3556.94
446.016	3536.83
446.39	3615.02
446.764	3640.1
447.139	3612.08
447.513	3691.4
447.887	3717.39
448.262	3702.47
448.636	3731.63
449.01	3796.48
449.384	3853.2
449.758	3810.94
450.132	3882.81
450.506	3920.09
450.88	3949.25
451.254	3941.11
451.628	4014.33
452.002	4062.24
452.376	4085.51
452.75	4096.36
453.123	4164.61
453.497	4190.82
453.871	4265.4
454.244	4338.61
454.618	4377.03
454.992	4456.13
455.365	4429.23
455.739	4568.67
456.112	4649.57
456.486	4671.26
456.859	4658.15
457.232	4761.65
457.606	4804.82
457.979	4843.23
458.352	4970.91
458.725	5012.95
459.099	5048.65
459.472	5154.86
459.845	5146.5
460.218	5202.77
460.591	5301.98
460.964	5306.05
461.337	5459.72
461.71	5499.71
462.083	5605.93
462.456	5638.47
462.829	5623.1
463.201	5717.11
463.574	5811.34
463.947	5873.94
464.32	5998.23
464.692	6008.85
465.065	6063.32
465.438	6132.92
465.81	6303.08
466.183	6401.61
466.555	6461.5
466.928	6463.08
467.3	6482.97
467.672	6649.97
468.045	6791.21
468.417	6815.39
468.789	6842.28
469.161	6973.57
469.534	7081.37
469.906	7258.54
470.278	7303.28
470.65	7388.7
471.022	7459.44
471.394	7659.21
471.766	7778.75
472.138	7854
472.51	7987.33
472.882	8091.74
473.253	8184.84
473.625	8272.07
473.997	8512.06
474.369	8568.33
474.74	8620.54
475.112	8807.65
475.484	8988.44
475.855	9152.5
476.227	9179.62
476.598	9460.51
476.97	9585.71
477.341	9761.97
477.713	9905.7
478.084	9958.81
478.455	10263.2
478.827	10320.38
479.198	10608.96
479.569	10610.31
479.94	10930.08
480.311	11014.15
480.682	11248.72
481.053	11519.67
481.424	11634.69
481.795	11798.31
482.166	11994.46
482.537	12160.1
482.908	12450.49
483.279	12542.24
483.65	12832.63
484.021	13010.93
484.391	13113.53
484.762	13335.21
485.133	13403.46
485.503	13624.92
485.874	13913.5
486.244	14072.37
486.615	14339.71
486.985	14480.49
487.356	14742.63
487.726	14869.86
488.097	15178.56
488.467	15282.73
488.837	15459
489.207	15696.28
489.578	16023.28
489.948	16169.26
490.318	16374.68
490.688	16386.43
491.058	16694.45
491.428	16945.29
491.798	17035.23
492.168	17402.23
492.538	17432.06
492.908	17625.95
493.278	17890.57
493.648	17973.74
494.017	18215.54
494.387	18368.08
494.757	18493.95
495.126	18719.48
495.496	18693.49
495.866	18881.06
496.235	19061.62
496.605	19302.29
496.974	19464.77
497.344	19770.75
497.713	19735.5
498.082	19904.99
498.452	20103.62
498.821	20176.16
499.19	20177.75
499.559	20488.02
499.928	20556.72
500.298	20785.64
500.667	21026.09
501.036	20937.05
501.405	21172.75
501.774	21245.51
502.143	21327.32
502.512	21500.88
502.88	21721.21
503.249	21732.96
503.618	21984.25
503.987	22128.2
504.356	22246.84
504.724	22400.96
505.093	22401.19
505.462	22702.43
505.83	22772.25
506.199	22902.19
506.567	23208.85
506.936	23244.33
507.304	23530.2
507.672	23572.23
508.041	23614.94
508.409	23918.21
508.777	24134.48
509.145	24186.91
509.514	24338.31
509.882	24519.55
510.25	24619.44
510.618	24804.97
510.986	24918.19
511.354	25168.58
511.722	25311.85
512.09	25555.46
512.458	25508.23
512.826	25919.52
513.193	25983.7
513.561	26117.48
513.929	26386.17
514.297	26674.52
514.664	26689.44
515.032	26925.37
515.4	27046.94
515.767	27157
516.135	27378.91
516.502	27332.59
516.869	27820.03
517.237	27998.33
517.604	27849.63
517.972	28449.17
518.339	28566.68
518.706	28533.01
519.073	28654.81
519.44	28936.84
519.808	29256.15
520.175	29263.61
520.542	29702.69
520.909	29833.76
521.276	29996.92
521.643	30304.03
522.009	30390.59
522.376	30797.35
522.743	30914.41
523.11	31203.9
523.477	31463.78
523.843	31629.42
524.21	31865.8
524.577	32176.53
524.943	32261.04
525.31	32460.59
525.676	32793.91
526.043	32993.68
526.409	33126.78
526.776	33578.07
527.142	33559.09
527.508	33878.18
527.874	34148.9
528.241	34289.01
528.607	34437.94
528.973	34805.16
529.339	34955.89
529.705	35155.21
530.071	35382.77
530.437	35604.23
530.803	35719.26
531.169	36083.09
531.535	35927.16
531.901	36038.57
532.267	36361.05
532.632	36493.7
532.998	36628.16
533.364	36930.3
533.73	37086.23
534.095	37385.43
534.461	37458.65
534.826	37640.34
535.192	37831.52
535.557	38013.89
535.923	38108.12
536.288	38269.93
536.653	38488.9
537.019	38506.76
537.384	38498.39
537.749	38760.76
538.114	38868.78
538.479	39042.56
538.845	39161.2
539.21	39240.52
539.575	39447.97
539.94	39439.84
540.305	39657.46
540.67	39707.4
541.034	39917.57
541.399	39999.82
541.764	40230.1
542.129	40175.64
542.494	40552.35
542.858	40525.69
543.223	40607.04
543.587	40863.53
543.952	40800.48
544.316	40921.16
544.681	40971.32
545.045	41360.92
545.41	41519.78
545.774	41550.97
546.138	41679.55
546.503	41756.39
546.867	41758.2
547.231	42264.17
547.595	42204.29
547.959	42367.67
548.324	42408.8
548.688	42596.14
549.052	42731.28
549.416	42731.96
549.779	42856.7
550.143	43034.55
550.507	43300.53
550.871	43361.77
551.235	43493.52
551.599	43685.6
551.962	43767.63
552.326	43910.91
552.689	44116.33
553.053	44000.85
553.417	44048.08
553.78	44654.16
554.143	44455.98
554.507	44928.96
554.87	44753.15
555.234	45187.03
555.597	44945
555.96	45347.03
556.323	45509.51
556.686	45467.93
557.05	45803.06
557.413	46048.25
557.776	46065.2
558.139	46366.89
558.502	46503.38
558.865	46590.84
559.228	46918.96
559.59	46984.27
559.953	47037.61
560.316	47407.99
560.679	47456.13
561.041	47616.57
561.404	47874.42
561.767	48064.92
562.129	47959.16
562.492	48405.7
562.854	48327.97
563.217	48493.61
563.579	48605.25
563.941	48933.6
564.304	48992.58
564.666	49286.13
565.028	49256.3
565.39	49403.64
565.753	49568.39
566.115	49788.04
566.477	49885.44
566.839	50018.32
567.201	50168.14
567.563	50235.26
567.925	50434.8
568.287	50462.6
568.648	50536.72
569.01	50697.62
569.372	51046.54
569.734	50972.87
570.095	51185.74
570.457	51360.43
570.819	51401.33
571.18	51409.24
571.542	51654.66
571.903	51690.59
572.265	51790.02
572.626	51845.84
572.987	51917.02
573.349	51997.25
573.71	52116.57
574.071	52198.37
574.432	52328.31
574.794	52487.18
575.155	52549.78
575.516	52471.13
575.877	52498.03
576.238	52583
576.599	52745.93
576.96	52686.95
577.32	52754.52
577.681	52883.33
578.042	52919.48
578.403	52978.47
578.763	53026.6
579.124	53073.83
579.485	53187.05
579.845	53135.98
580.206	53136.65
580.566	53135.98
580.927	53178.46
581.287	53330.55
581.648	53206.48
582.008	53418.68
582.368	53340.49
582.728	53397.66
583.089	53312.47
583.449	53273.37
583.809	53449.64
584.169	53411.9
584.529	53315.86
584.889	53590.2
585.249	53388.85
585.609	53336.65
585.969	53502.29
586.329	53413.71
586.688	53450.54
587.048	53453.93
587.408	53377.1
587.768	53367.38
588.127	53333.48
588.487	53376.87
588.846	53579.81
589.206	53448.28
589.565	53363.31
589.925	53533.48
590.284	53500.26
590.643	53537.77
591.003	53465.91
591.362	53578.22
591.721	53534.61
592.08	53540.03
592.44	53635.85
592.799	53542.74
593.158	53539.13
593.517	53484.44
593.876	53573.7
594.235	53495.74
594.593	53521.05
594.952	53671.1
595.311	53518.79
595.67	53628.62
596.029	53718.79
596.387	53735.06
596.746	53840.59
597.104	53632.23
597.463	53618.67
597.822	53799.24
598.18	53626.81
598.538	53611.9
598.897	53811.44
599.255	53569.18
599.613	53968.5
599.972	53730.31
600.33	53882.85
600.688	53712.68
601.046	53827.93
601.404	53959.91
601.762	53879.23
602.12	53930.08
602.478	54028.61
602.836	53931.66
603.194	53856.86
603.552	53994.26
603.91	53839.46
604.268	53947.03
604.625	53932.79
604.983	54103.41
605.341	53953.81
605.698	54079.91
606.056	54137.08
606.413	54130.75
606.771	54244.2
607.128	54289.62
607.485	54077.42
607.843	54145.44
608.2	54298.88
608.557	54314.7
608.914	54207.13
609.272	54433.79
609.629	54407.13
609.986	54461.59
610.343	54412.33
610.7	54536.16
611.057	54517.18
611.414	54398.32
611.771	54533
612.127	54628.59
612.484	54510.85
612.841	54634.24
613.198	54584.53
613.554	54638.54
613.911	54715.37
614.267	54785.88
614.624	54720.34
614.98	54783.62
615.337	54853.9
615.693	54827
616.05	54770.06
616.406	54963.72
616.762	54814.8
617.118	54868.59
617.475	54849.6
617.831	54856.61
618.187	54860.45
618.543	54984.74
618.899	55038.75
619.255	55008.47
619.611	54915.36
619.967	55098.18
620.323	55129.14
620.678	55022.93
621.034	54989.71
621.39	54859.09
621.746	54869.49
622.101	55231.97
622.457	54994.01
622.812	55025.19
623.168	55037.62
623.523	55061.8
623.879	55102.93
624.234	54949.71
624.589	55007.11
624.945	54988.13
625.3	55059.77
625.655	54990.16
626.01	54966.89
626.365	55139.99
626.72	55032.42
627.075	55005.98
627.43	54944.06
627.785	54793.11
628.14	54897.29
628.495	54947.45
628.85	54939.77
629.205	54833.33
629.559	54950.39
629.914	54805.54
630.269	54813.9
630.623	54785.88
630.978	54685.31
631.332	54749.04
631.687	54830.85
632.041	54651.19
632.396	54747.68
632.75	54544.3
633.104	54649.83
633.459	54543.17
633.813	54460.69
634.167	54495.71
634.521	54443.29
634.875	54461.36
635.229	54353.34
635.583	54236.74
635.937	54291.43
636.291	54274.25
636.645	54241.71
636.999	54137.76
637.352	54163.07
637.706	53935.95
638.06	54138.89
638.413	53970.76
638.767	53976.63
639.121	54019.79
639.474	53902.74
639.828	53851.21
640.181	53891.21
640.534	53810.31
640.888	53704.1
641.241	53547.49
641.594	53608.73
641.947	53637.66
642.301	53489.86
642.654	53528.06
643.007	53573.93
643.36	53446.48
643.713	53422.97
644.066	53561.28
644.419	53241.28
644.771	52960.16
645.124	52753.61
645.477	52640.4
645.83	52426.16
646.182	52338.93
646.535	52281.31
646.888	52304.13
647.24	52135.55
647.593	52344.81
647.945	52286.51
648.298	52154.98
648.65	51981.43
649.002	51931.71
649.355	52009.68
649.707	51873.64
650.059	52013.52
650.411	52372.38
650.763	52395.2
651.115	52688.53
651.467	52554.97
651.819	52443.11
652.171	52359.05
652.523	52446.73
652.875	52472.94
653.227	52252.61
653.578	52494.41
653.93	52378.71
654.282	52277.02
654.633	52162.89
654.985	52138.04
655.337	52193.4
655.688	52096
656.039	52222.1
656.391	51794.09
656.742	52053.52
657.094	52019.85
657.445	52056.91
657.796	51977.14
658.147	51809.23
658.498	51773.75
658.849	51923.13
659.2	51696.47
659.551	51640.42
659.902	51828.44
660.253	51717.93
660.604	51773.75
660.955	51529.01
661.306	51740.98
661.656	51572.4
662.007	51650.37
662.358	51678.16
662.708	51522.68
663.059	51527.43
663.409	51270.71
663.76	51558.16
664.11	51504.61
664.461	51524.27
664.811	51423.7
665.161	51353.2
665.511	51443.82
665.862	51354.33
666.212	51423.25
666.562	51393.42
666.912	51418.28
667.262	51225.07
667.612	51240.66
667.962	51185.97
668.312	51059.19
668.662	51206.76
669.011	51263.48
669.361	51143.49
669.711	51148.91
670.06	51004.96
670.41	50927.22
670.76	50883.83
671.109	50960.89
671.459	50993.89
671.808	50839.76
672.157	50844.96
672.507	50682.93
672.856	50686.32
673.205	50885.19
673.554	50760.67
673.904	50694.01
674.253	50955.92
674.602	50693.33
674.951	50163.17
675.3	50015.15
675.649	50470.74
675.998	50408.82
676.346	50501.92
676.695	50588.47
677.044	50257.18
677.393	50325.65
677.741	50431.87
678.09	50306.45
678.438	50245.43
678.787	50196.62
679.135	50334.47
679.484	50079.11
679.832	50109.84
680.181	49848.38
680.529	49934.93
680.877	49870.98
681.225	49668.5
681.573	49977.19
681.922	49693.13
682.27	49534.71
682.618	49565.67
682.966	49435.51
683.314	49477.99
683.661	49286.81
684.009	49113.48
684.357	49069.87
684.705	49139.92
685.053	49129.75
685.4	49101.96
685.748	48869.42
686.095	48772.93
686.443	48861.96
686.79	48562.99
687.138	48640.73
687.485	48635.76
687.832	48490.45
688.18	48441.41
688.527	48200.74
688.874	48149.89
689.221	48159.61
689.568	48036.22
689.915	47931.59
690.262	47895.21
690.609	47824.93
690.956	47630.36
691.303	47612.05
691.65	47431.94
691.997	47379.29
692.344	47087.77
692.69	47088.23
693.037	47076.47
693.383	46710.16
693.73	46775.24
694.077	46612.76
694.423	46574.34
694.769	46310.62
695.116	46250.96
695.462	46201.69
695.808	46059.1
696.155	46161.92
696.501	45968.48
696.847	45773.23
697.193	45506.8
697.539	45434.03
697.885	45324.2
698.231	45220.03
698.577	45257.09
698.923	45170.76
699.269	45011.22
699.614	44817.32
699.96	44590.21
700.306	44651.45
700.651	44455.53
700.997	44293.95
701.342	44229.77
701.688	44113.39
702.033	44208.98
702.379	44072.71
702.724	43780.06
703.069	43891.25
703.415	43491.71
703.76	43473.86
704.105	43406.51
704.45	43379.17
704.795	43027.54
705.14	42841.78
705.485	42937.6
705.83	42695.35
706.175	42906.87
706.52	42622.13
706.865	42632.75
707.209	42489.48
707.554	42319.31
707.899	42331.74
708.243	42020.11
708.588	42123.61
708.932	41842.71
709.277	41831.41
709.621	41779.44
709.966	41419.9
710.31	41630.52
710.654	41210.87
710.998	41188.04
711.342	41108.04
711.687	41066.91
712.031	41160.25
712.375	40769.97
712.719	40887.94
713.063	40650.43
713.407	40835.28
713.75	40623.76
714.094	40585.8
714.438	40307.61
714.782	40416.99
715.125	40238.24
715.469	40187.62
715.812	39989.88
716.156	39735.65
716.499	39795.76
716.843	39714.18
717.186	39602.09
717.53	39791.47
717.873	39826.72
718.216	39552.15
718.559	39384.02
718.902	39279.16
719.246	39226.51
719.589	39142.45
719.932	38915.78
720.275	39025.61
720.617	38920.3
720.96	38883.92
721.303	38820.19
721.646	38653.64
721.989	38580.65
722.331	38476.7
722.674	38365.29
723.016	38341.56
723.359	38226.09
723.701	38332.75
724.044	38024.96
724.386	37829.26
724.729	38105.18
725.071	37916.71
725.413	37983.38
725.755	37787.45
726.097	37659.09
726.439	37401.47
726.782	37539.32
727.124	37703.84
727.465	37296.39
727.807	37231.08
728.149	37286.67
728.491	36997.87
728.833	37172.33
729.175	36966.91
729.516	36979.11
729.858	36908.15
730.199	36822.73
730.541	36823.18
730.882	36660.25
731.224	36763.07
731.565	36476.75
731.906	36556.07
732.248	36456.41
732.589	36279.7
732.93	36088.29
733.271	36262.75
733.612	36102.3
733.953	36229.98
734.294	35915.19
734.635	35893.94
734.976	36005.35
735.317	35637.68
735.658	35725.81
735.999	35671.35
736.339	35598.81
736.68	35521.3
737.021	35457.57
737.361	35268.2
737.702	35449.66
738.042	35490.34
738.383	35244.69
738.723	35275.2
739.063	35057.58
739.404	35211.7
739.744	34846.97
740.084	34838.6
740.424	34894.65
740.764	34664.37
741.104	34917.02
741.444	34659.85
741.784	34577.37
742.124	34545.28
742.464	34546.63
742.804	34435
743.143	34388.9
743.483	34419.18
743.823	34067.1
744.162	34204.72
744.502	34110.49
744.841	33968.8
745.181	33947.55
745.52	33821
745.86	33978.06
746.199	33734.9
746.538	33616.71
746.877	33626.88
747.216	33591.4
747.556	33503.72
747.895	33360
748.234	33338.08
748.573	33147.57
748.911	33159.33
749.25	33215.37
749.589	32976.28
749.928	33189.61
750.267	32934.02
750.605	32996.39
750.944	32877.53
751.283	32767.25
751.621	32738.55
751.96	32545.33
752.298	32551.43
752.636	32529.96
752.975	32330.87
753.313	32312.34
753.651	32273.47
753.989	32118.68
754.327	32035.97
754.666	31955.74
755.004	31835.74
755.342	31986.02
755.679	31866.25
756.017	31516.66
756.355	31823.54
756.693	31471.23
757.031	31540.61
757.368	31334.97
757.706	31257
758.044	31231.24
758.381	31170.23
758.719	30962.1
759.056	31054.07
759.394	30821.08
759.731	30631.48
760.068	30623.35
760.405	30579.05
760.743	30335.67
761.08	30430.81
761.417	30205.28
761.754	30206.64
762.091	30214.09
762.428	29938.85
762.765	29790.37
763.102	29955.57
763.438	29631.96
763.775	29597.39
764.112	29515.81
764.449	29625.63
764.785	29463.38
765.122	29212.99
765.458	28973.67
765.795	28938.87
766.131	28928.02
766.467	28857.74
766.804	28766.22
767.14	28500.47
767.476	28356.51
767.812	28438.09
768.148	28435.83
768.485	28190.19
768.821	28023.42
769.157	27869.52
769.492	27956.75
769.828	27788.62
770.164	27563.31
770.5	27567.83
770.836	27533.94
771.171	27349.54
771.507	27310.21
771.842	27157
772.178	26980.96
772.513	27009.21
772.849	26858.47
773.184	26621.19
773.519	26673.17
773.855	26508.65
774.19	26433.4
774.525	26313.63
774.86	26259.39
775.195	26211.49
775.53	26059.17
775.865	25959.74
776.2	25650.37
776.535	25631.16
776.87	25531.05
777.205	25508.91
777.539	25397.27
777.874	25320.44
778.209	25098.07
778.543	25056.26
778.878	24853.33
779.212	24922.48
779.547	24651.98
779.881	24847.45
780.215	24553.45
780.55	24585.31
780.884	24498.76
781.218	24434.36
781.552	24369.05
781.886	24187.36
782.22	24068.94
782.554	23791.21
782.888	23680.93
783.222	23591.89
783.556	23548.73
783.889	23553.02
784.223	23199.81
784.557	23335.18
784.89	23249.53
785.224	23045.47
785.557	22868.3
785.891	22815.19
786.224	22893.83
786.558	22707.62
786.891	22529.1
787.224	22566.38
787.557	22513.28
787.891	22478.02
788.224	22336.56
788.557	22314.87
788.89	22245.71
789.223	22237.81
789.556	22021.54
789.888	21886.85
790.221	21899.06
790.554	21602.12
790.887	21652.28
791.219	21556.24
791.552	21679.85
791.884	21345.4
792.217	21284.84
792.549	21304.27
792.882	21048.68
793.214	21045.52
793.546	21015.46
793.879	20787.22
794.211	20874.68
794.543	20838.29
794.875	20683.5
795.207	20679.88
795.539	20691.86
795.871	20655.93
796.203	20330.06
796.535	20344.3
796.867	20271.3
797.198	20187.24
797.53	20185.66
797.862	20035.38
798.193	20000.12
798.525	19884.65
798.856	19890.75
799.188	19658.44
799.519	19695.27
799.85	19630.42
800.182	19530.31
800.513	19565.11
800.844	19352.46
801.175	19485.56
801.506	19349.75
801.837	19235.4
802.168	19225.68
802.499	19126.02
802.83	19023.43
803.161	18872.92
803.491	18881.51
803.822	18849.87
804.153	18769.87
804.483	18572.36
804.814	18547.51
805.145	18511.35
805.475	18512.25
805.805	18444.91
806.136	18459.37
806.466	18448.07
806.796	18308.87
807.126	18241.53
807.457	18111.13
807.787	18132.6
808.117	18042.66
808.447	17952.72
808.777	18010.8
809.107	17914.3
809.436	17867.3
809.766	17889.9
810.096	17844.7
810.426	17773.52
810.755	17667.98
811.085	17646.29
811.414	17624.14
811.744	17469.57
812.073	17366.52
812.403	17366.97
812.732	17205.62
813.061	17305.51
813.39	17144.61
813.719	17171.27
814.049	17158.16
814.378	17094.89
814.707	17002.46
815.036	16929.02
815.365	16886.53
815.693	16767.89
816.022	16816.7
816.351	16718.85
816.68	16641.57
817.008	16663.49
817.337	16523.15
817.665	16402.7
817.994	16492.42
818.322	16441.35
818.651	16335.81
818.979	16294.46
819.307	16396.6
819.636	16224.86
819.964	16190.05
820.292	16232.99
820.62	16182.37
820.948	16151.19
821.276	16179.66
821.604	16091.98
821.932	16190.73
822.259	16047.69
822.587	16116.38
822.915	15997.97
823.243	16032.09
823.57	16012.88
823.898	16064.18
824.225	16035.93
824.553	15949.61
824.88	15950.74
825.207	16073.67
825.535	15945.09
825.862	16052.21
826.189	16030.96
826.516	16038.19
826.843	15994.58
827.17	15952.32
827.497	15949.61
827.824	15945.99
828.151	16001.58
828.478	15882.72
828.805	16015.14
829.131	15920.46
829.458	15887.24
829.785	15802.72
830.111	15897.41
830.438	15938.99
830.764	15930.17
831.09	15910.97
831.417	15756.39
831.743	15854.24
832.069	15806.79
832.395	15803.85
832.722	15866
833.048	15647.92
833.374	15731.99
833.7	15738.99
834.026	15652.89
834.351	15764.75
834.677	15708.26
835.003	15719.33
835.329	15725.89
835.654	15710.07
835.98	15567.25
836.306	15538.09
836.631	15590.75
836.956	15626
837.282	15572.67
837.607	15453.12
837.932	15423.52
838.258	15505.78
838.583	15451.54
838.908	15365.67
839.233	15381.26
839.558	15383.75
839.883	15240.47
840.208	15296.29
840.533	15312.34
840.858	15274.37
841.182	15159.57
841.507	15237.09
841.832	15107.6
842.156	15171.32
842.481	15130.65
842.805	15083.19
843.13	14958.22
843.454	14956.87
843.778	14874.38
844.103	14789.41
844.427	14800.94
844.751	14886.81
845.075	14828.73
845.399	14774.5
845.723	14605.24
846.047	14639.81
846.371	14584
846.695	14541.74
847.019	14413.38
847.343	14335.19
847.666	14279.14
847.99	14236.66
848.313	14205.25
848.637	14175.87
848.96	14061.3
849.284	14081.18
849.607	14018.59
849.931	13946.05
850.254	13884.8
850.577	13767.75
850.9	13657.24
851.223	13634.42
851.546	13629.67
851.869	13421.54
852.192	13606.62
852.515	13480.3
852.838	13446.17
853.161	13452.05
853.483	13309.45
853.806	13334.31
854.129	13264.93
854.451	13192.85
854.774	13170.02
855.096	13092.28
855.419	13089.8
855.741	13045.05
856.063	12994.21
856.385	12991.72
856.708	12889.8
857.03	12828.79
857.352	12932.06
857.674	12826.53
857.996	12746.53
858.318	12707.21
858.64	12759.41
858.961	12716.93
859.283	12598.51
859.605	12475.12
859.926	12565.07
860.248	12578.4
860.57	12473.54
860.891	12431.74
861.212	12455.01
861.534	12408.91
861.855	12418.18
862.176	12453.2
862.498	12355.58
862.819	12329.59
863.14	12229.03
863.461	12264.28
863.782	12170.05
864.103	12248.92
864.424	12206.43
864.745	12171.63
865.065	12122.82
865.386	11991.97
865.707	12124.85
866.027	12107.68
866.348	12115.81
866.668	12090.73
866.989	11995.81
867.309	11975.7
867.63	12001.92
867.95	11934.8
868.27	11871.52
868.59	11922.6
868.91	11923.05
869.23	11899.55
869.55	11879.21
869.87	11890.96
870.19	11855.25
870.51	11904.97
870.83	11882.37
871.15	11778.42
871.469	11756.27
871.789	11735.26
872.109	11715.14
872.428	11721.25
872.748	11708.14
873.067	11703.17
873.386	11703.84
873.706	11617.75
874.025	11571.64
874.344	11620.23
874.663	11521.93
874.982	11573.23
875.301	11478.54
875.62	11455.04
875.939	11436.73
876.258	11473.34
876.577	11492.32
876.896	11379.79
877.214	11377.53
877.533	11407.81
877.852	11392.89
878.17	11395.6
878.489	11406.9
878.807	11390.41
879.125	11333.23
879.444	11340.69
879.762	11238.32
880.08	11280.58
880.398	11198.32
880.716	11211.65
881.034	11214.82
881.352	11227.47
881.67	11161.49
881.988	11174.37
882.306	11136.4
882.624	11155.16
882.941	11038.1
883.259	10981.83
883.577	11045.56
883.894	11009.17
884.212	10987.03
884.529	10996.97
884.846	11036.74
885.164	10896.63
885.481	10783.64
885.798	10848.05
886.115	10810.31
886.432	10802.4
886.75	10777.09
887.067	10815.51
887.383	10729.86
887.7	10716.75
888.017	10646.02
888.334	10724.21
888.651	10611.44
888.967	10555.63
889.284	10540.26
889.6	10555.4
889.917	10439.02
890.233	10480.83
890.55	10488.74
890.866	10492.13
891.182	10404.22
891.498	10395.63
891.815	10384.56
892.131	10301.85
892.447	10297.78
892.763	10189.08
893.079	10266.59
893.395	10156.54
893.71	10188.4
894.026	10114.06
894.342	10123.1
894.657	10053.94
894.973	10032.48
895.289	10012.36
895.604	10058.69
895.92	9938.47
896.235	9909.99
896.55	9928.98
896.865	9853.05
897.181	9841.97
897.496	9849.66
897.811	9792.71
898.126	9743.9
898.441	9731.47
898.756	9703.9
899.071	9695.54
899.386	9610.11
899.7	9625.93
900.015	9531.25
900.33	9503
900.644	9497.58
900.959	9519.27
901.273	9453.06
901.588	9398.59
901.902	9380.06
902.216	9341.42
902.531	9291.03
902.845	9295.77
903.159	9286.96
903.473	9289.45
903.787	9208.09
904.101	9127.87
904.415	9120.18
904.729	9040.64
905.042	8981.66
905.356	8990.47
905.67	8942.11
905.984	8983.46
906.297	8912.73
906.611	8825.5
906.924	8860.76
907.237	8883.13
907.551	8824.37
907.864	8790.25
908.177	8768.1
908.491	8751.61
908.804	8658.95
909.117	8654.89
909.43	8583.47
909.743	8496.47
910.056	8529.92
910.368	8490.6
910.681	8498.96
910.994	8376.02
911.307	8474.78
911.619	8321.56
911.932	8335.12
912.244	8322.24
912.557	8277.04
912.869	8247.66
913.181	8195.24
913.494	8154.56
913.806	8061.23
914.118	8077.05
914.43	8044.05
914.742	8068.69
915.054	8037.73
915.366	8002.7
915.678	7942.81
915.99	7898.52
916.302	7816.49
916.613	7793.67
916.925	7852.87
917.236	7801.35
917.548	7672.54
917.859	7712.31
918.171	7673.67
918.482	7644.06
918.794	7644.06
919.105	7592.09
919.416	7479.1
919.727	7512.54
920.038	7462.15
920.349	7447.23
920.66	7412.21
920.971	7340.8
921.282	7369.27
921.593	7293.34
921.903	7253.79
922.214	7265.77
922.525	7213.34
922.835	7167.47
923.146	7177.86
923.456	7131.76
923.767	7089.73
924.077	7089.05
924.387	7064.42
924.697	7001.6
925.008	7005.44
925.318	6911.2
925.628	6941.03
925.938	6870.75
926.248	6840.24
926.558	6843.86
926.867	6803.86
927.177	6794.37
927.487	6701.49
927.796	6659.68
928.106	6689.06
928.416	6685.22
928.725	6642.96
929.034	6634.6
929.344	6588.95
929.653	6521.61
929.962	6441.38
930.271	6479.35
930.581	6484.1
930.89	6414.72
931.199	6462.85
931.508	6360.71
931.817	6418.11
932.125	6362.52
932.434	6369.75
932.743	6278.45
933.051	6238.23
933.36	6179.02
933.669	6202.52
933.977	6122.3
934.286	6143.77
934.594	6192.13
934.902	6070.09
935.21	6048.85
935.519	6076.42
935.827	6013.37
936.135	5955.3
936.443	5918.46
936.751	5935.18
937.059	5913.94
937.367	5900.61
937.674	5840.95
937.982	5853.83
938.29	5821.51
938.597	5751.23
938.905	5764.57
939.213	5710.78
939.52	5708.07
939.827	5720.73
940.135	5615.42
940.442	5656.09
940.749	5616.1
941.056	5610.45
941.363	5526.83
941.67	5574.97
941.977	5488.42
942.284	5490.22
942.591	5457
942.898	5463.56
943.205	5393.28
943.511	5392.6
943.818	5391.02
944.125	5373.39
944.431	5329.55
944.738	5302.66
945.044	5271.02
945.35	5239.61
945.657	5208.87
945.963	5222.21
946.269	5209.33
946.575	5155.77
946.881	5106.5
947.187	5144.47
947.493	5071.02
947.799	5061.31
948.105	5068.09
948.41	5052.27
948.716	5024.7
949.022	4972.72
949.327	4943.8
949.633	4926.17
949.938	4898.83
950.244	4916.9
950.549	4855.89
950.854	4861.54
951.16	4873.06
951.465	4832.39
951.77	4815.21
952.075	4773.41
952.38	4739.73
952.685	4777.02
952.99	4710.58
953.294	4685.95
953.599	4687.08
953.904	4622.68
954.209	4602.79
954.513	4600.75
954.818	4625.16
955.122	4564.37
955.426	4542
955.731	4509.46
956.035	4514.43
956.339	4534.32
956.643	4467.65
956.948	4445.96
957.252	4411.61
957.556	4423.36
957.86	4389.23
958.163	4317.82
958.467	4323.47
958.771	4335.22
959.075	4290.71
959.378	4258.39
959.682	4249.13
959.985	4244.61
960.289	4210.26
960.592	4241.22
960.896	4212.06
961.199	4167.77
961.502	4161.22
961.805	4121.22
962.108	4108.56
962.411	4106.3
962.714	4113.76
963.017	4123.48
963.32	4075.34
963.623	4047.77
963.926	4057.27
964.228	4016.82
964.531	4039.19
964.833	3926.65
965.136	3935.91
965.438	3923.48
965.741	3933.65
966.043	3916.03
966.345	3895.01
966.648	3891.17
966.95	3888.23
967.252	3811.85
967.554	3827.89
967.856	3813.88
968.158	3759.65
968.46	3814.79
968.761	3771.4
969.063	3761.68
969.365	3739.08
969.666	3696.37
969.968	3669.03
970.269	3691.4
970.571	3654.11
970.872	3684.85
971.174	3648.46
971.475	3626.77
971.776	3593.32
972.077	3599.2
972.378	3613.44
972.679	3581.12
972.98	3583.83
973.281	3533.21
973.582	3519.88
973.883	3491.63
974.183	3461.8
974.484	3414.12
974.785	3434.91
975.085	3431.52
975.386	3433.78
975.686	3425.87
975.986	3358.53
976.287	3365.08
976.587	3317.62
976.887	3323.73
977.187	3316.95
977.487	3329.38
977.787	3306.78
978.087	3309.72
978.387	3242.37
978.687	3238.53
978.987	3237.4
979.286	3216.84
979.586	3179.32
979.885	3173.67
980.185	3163.73
980.484	3151.3
980.784	3113.34
981.083	3130.51
981.382	3103.62
981.682	3112.88
981.981	3069.27
982.28	3104.75
982.579	3052.55
982.878	3033.34
983.177	3016.84
983.475	3027.01
983.774	3020.46
984.073	3003.96
984.372	2954.92
984.67	2972.32
984.969	2948.14
985.267	2947.01
985.566	2953.79
985.864	2946.33
986.162	2895.04
986.461	2899.1
986.759	2894.36
987.057	2848.03
987.355	2859.56
987.653	2853.23
987.951	2846.9
988.249	2797.86
988.547	2784.08
988.844	2751.54
989.142	2771.88
989.44	2754.7
989.737	2727.13
990.035	2721.26
990.332	2721.26
990.63	2747.47
990.927	2719.45
991.224	2691.88
991.521	2655.72
991.819	2637.19
992.116	2670.41
992.413	2642.39
992.71	2594.93
993.006	2598.1
993.303	2590.86
993.6	2560.58
993.897	2563.07
994.193	2561.03
994.49	2551.77
994.787	2512
995.083	2521.26
995.379	2492.34
995.676	2501.6
995.972	2481.49
996.268	2479.68
996.565	2437.65
996.861	2429.96
997.157	2413.24
997.453	2406.91
997.749	2421.83
998.044	2377.08
998.34	2406.46
998.636	2376.86
998.932	2365.56
999.227	2342.06
999.523	2350.42
999.818	2310.65
1000.114	2310.65
1000.409	2287.82
1000.704	2295.28
1001	2229.52
1001.295	2265
1001.59	2248.27
1001.885	2239.91
1002.18	2215.73
1002.475	2217.99
1002.77	2200.37
1003.065	2189.74
1003.359	2161.95
1003.654	2176.41
1003.949	2167.37
1004.243	2177.77
1004.538	2138.9
1004.832	2095.06
1005.127	2114.27
1005.421	2121.05
1005.715	2083.53
1006.009	2081.72
1006.304	2093.02
1006.598	2054.61
1006.892	2018
1007.186	2041.73
1007.48	2022.07
1007.773	2000.82
1008.067	2000.15
1008.361	1947.72
1008.655	1950.88
1008.948	1961.73
1009.242	1955.17
1009.535	1916.31
1009.829	1919.24
1010.122	1912.92
1010.415	1876.98
1010.708	1902.97
1011.001	1867.72
1011.295	1862.3
1011.588	1839.92
1011.881	1834.05
1012.173	1845.35
1012.466	1835.18
1012.759	1806.7
1013.052	1809.42
1013.344	1798.12
1013.637	1801.96
1013.93	1787.72
1014.222	1779.13
1014.514	1722.19
1014.807	1717.44
1015.099	1722.41
1015.391	1706.37
1015.683	1724.22
1015.976	1716.99
1016.268	1716.31
1016.56	1646.03
1016.851	1662.07
1017.143	1630.44
1017.435	1638.57
1017.727	1641.06
1018.018	1614.84
1018.31	1620.27
1018.602	1602.64
1018.893	1561.96
1019.185	1583.66
1019.476	1568.29
1019.767	1563.55
1020.058	1549.31
1020.35	1548.18
1020.641	1501.63
1020.932	1510.89
1021.223	1502.76
1021.514	1515.41
1021.804	1454.17
1022.095	1460.05
1022.386	1466.37
1022.677	1446.94
1022.967	1455.98
1023.258	1430.89
1023.548	1431.12
1023.839	1421.4
1024.129	1418.69
1024.419	1365.81
1024.709	1388.86
1025	1418.92
1025.29	1380.05
1025.58	1388.18
1025.87	1342.99
1026.16	1342.76
1026.449	1353.83
1026.739	1333.27
1027.029	1327.17
1027.319	1295.98
1027.608	1298.92
1027.898	1323.33
1028.187	1279.94
1028.477	1274.97
1028.766	1252.82
1029.055	1253.05
1029.344	1258.02
1029.634	1259.15
1029.923	1229.54
1030.212	1224.8
1030.501	1228.64
1030.79	1210.34
1031.078	1191.13
1031.367	1177.79
1031.656	1200.39
1031.945	1161.52
1032.233	1170.34
1032.522	1161.07
1032.81	1152.26
1033.099	1136.67
1033.387	1137.12
1033.675	1099.83
1033.963	1151.35
1034.251	1112.26
1034.54	1128.53
1034.828	1129.66
1035.116	1076.33
1035.403	1084.24
1035.691	1054.86
1035.979	1079.94
1036.267	1056.89
1036.554	1068.42
1036.842	1015.54
1037.129	1019.15
1037.417	1035.88
1037.704	1052.6
1037.992	1041.53
1038.279	1049.44
1038.566	1048.53
1038.853	1048.53
1039.14	1048.53
