Data from foil_FLMS001491_032.txt Node
Date: Tue Feb 07 11:26:14 GMT 2017
User: dcchb
Spectrometer: FLMS00149
Trigger mode: 0
Integration Time (sec): 2.000000E-2
Scans to average: 10
Electric dark correction enabled: true
Nonlinearity correction enabled: false
Boxcar width: 0
XAxis mode: Wavelengths
Number of Pixels in Spectrum: 2048
>>>>>Begin Spectral Data<<<<<
341.393	-8.69
341.776	-8.69
342.16	-8.69
342.543	-85.52
342.927	-59.98
343.31	-69.02
343.693	-66.31
344.077	-82.13
344.46	-66.09
344.843	-52.98
345.226	-32.41
345.61	-31.28
345.993	-34
346.376	17.08
346.759	1.03
347.142	45.1
347.525	21.82
347.908	67.02
348.291	63.85
348.674	92.1
349.057	126.23
349.44	126
349.823	139.56
350.206	176.17
350.588	272.21
350.971	296.39
351.354	292.55
351.737	324.19
352.119	335.03
352.502	324.86
352.884	353.11
353.267	373.9
353.65	355.6
354.032	375.94
354.414	412.09
354.797	401.92
355.179	406.9
355.562	394.92
355.944	408.7
356.326	411.64
356.709	394.69
357.091	437.63
357.473	439.21
357.855	429.95
358.238	438.76
358.62	460.68
359.002	436.73
359.384	435.6
359.766	448.93
360.148	441.92
360.53	440.34
360.912	461.58
361.294	444.64
361.676	446.9
362.057	472.21
362.439	477.85
362.821	473.34
363.203	453
363.584	475.59
363.966	468.14
364.348	450.51
364.729	444.86
365.111	453.9
365.493	464.52
365.874	464.97
366.256	450.51
366.637	462.49
367.019	469.27
367.4	465.88
367.781	484.41
368.163	490.74
368.544	490.06
368.925	481.02
369.306	490.74
369.688	482.15
370.069	497.74
370.45	488.7
370.831	504.52
371.212	515.82
371.593	490.06
371.974	511.07
372.355	520.79
372.736	512.66
373.117	509.72
373.498	523.96
373.879	502.94
374.26	517.63
374.641	506.33
375.021	537.06
375.402	550.17
375.783	564.86
376.163	586.78
376.544	569.15
376.925	572.32
377.305	577.29
377.686	566.67
378.066	578.19
378.447	589.72
378.827	579.09
379.208	597.63
379.588	603.73
379.968	615.48
380.349	612.09
380.729	627.23
381.109	610.51
381.489	625.87
381.87	646.21
382.25	620.22
382.63	617.51
383.01	686.44
383.39	673.56
383.77	660.67
384.15	668.13
384.53	690.96
384.91	685.98
385.29	713.78
385.67	717.62
386.049	725.08
386.429	726.66
386.809	755.36
387.189	754.91
387.568	758.75
387.948	752.42
388.328	752.2
388.707	777.73
389.087	798.98
389.466	792.65
389.846	791.52
390.225	787.23
390.605	793.78
390.984	812.76
391.363	850.95
391.743	859.99
392.122	857.96
392.501	895.92
392.881	894.11
393.26	884.4
393.639	905.64
394.018	923.72
394.397	914.45
394.776	939.76
395.155	917.17
395.534	963.49
395.913	953.1
396.292	993.1
396.671	984.28
397.05	1006.88
397.429	994.68
397.808	1029.25
398.186	1015.24
398.565	1038.07
398.944	1027.44
399.323	1090.04
399.701	1052.08
400.08	1094.34
400.458	1074.22
400.837	1092.98
401.215	1104.73
401.594	1102.02
401.972	1134.56
402.351	1152.19
402.729	1168.01
403.107	1166.2
403.486	1188.34
403.864	1206.88
404.242	1225.41
404.62	1233.32
404.999	1258.63
405.377	1267.21
405.755	1284.61
406.133	1291.39
406.511	1314.44
406.889	1325.06
407.267	1331.84
407.645	1356.93
408.023	1361.22
408.401	1403.71
408.779	1418.17
409.156	1421.11
409.534	1426.3
409.912	1470.82
410.29	1490.03
410.667	1509.01
411.045	1571.39
411.422	1568.67
411.8	1568.67
412.178	1591.27
412.555	1618.39
412.933	1644.38
413.31	1685.51
413.687	1695.9
414.065	1727.09
414.442	1735.67
414.819	1760.08
415.197	1754.21
415.574	1816.12
415.951	1810.93
416.328	1837.59
416.705	1842.56
417.082	1862.23
417.46	1922.34
417.837	1908.1
418.214	1936.8
418.591	1959.4
418.967	1954.65
419.344	1997.81
419.721	2010.24
420.098	2019.74
420.475	2065.84
420.852	2037.36
421.228	2099.96
421.605	2083.69
421.982	2119.39
422.358	2174.76
422.735	2184.25
423.111	2172.95
423.488	2229.45
423.864	2257.92
424.241	2268.99
424.617	2299.73
424.994	2337.24
425.37	2352.16
425.746	2323.23
426.123	2376.34
426.499	2374.53
426.875	2419.27
427.251	2454.53
427.627	2543.56
428.003	2570.91
428.379	2614.52
428.756	2628.76
429.132	2680.06
429.507	2700.62
429.883	2731.81
430.259	2768.87
430.635	2804.12
431.011	2824.91
431.387	2915.76
431.763	2904.23
432.138	2928.64
432.514	3011.12
432.89	3009.77
433.265	3064
433.641	3135.64
434.016	3138.8
434.392	3225.35
434.767	3292.24
435.143	3266.03
435.518	3301.06
435.894	3328.18
436.269	3401.17
436.644	3442.97
437.02	3463.09
437.395	3486.59
437.77	3576.53
438.145	3597.09
438.52	3627.15
438.895	3684.32
439.271	3639.58
439.646	3771.55
440.021	3750.99
440.395	3801.61
440.77	3777.43
441.145	3804.77
441.52	3908.72
441.895	3887.03
442.27	3954.83
442.645	3936.97
443.019	4021.26
443.394	3986.46
443.769	4040.7
444.143	4052.45
444.518	4141.71
444.892	4080.7
445.267	4133.8
445.641	4195.95
446.016	4202.95
446.39	4216.97
446.764	4270.98
447.139	4268.49
447.513	4300.8
447.887	4356.17
448.262	4351.2
448.636	4384.64
449.01	4413.8
449.384	4501.03
449.758	4552.1
450.132	4586.22
450.506	4647.01
450.88	4683.39
451.254	4670.51
451.628	4756.39
452.002	4777.85
452.376	4857.17
452.75	4901.24
453.123	4913.44
453.497	4987.79
453.871	5028.92
454.244	5115.02
454.618	5149.14
454.992	5258.52
455.365	5261.68
455.739	5381.23
456.112	5435.46
456.486	5409.48
456.859	5504.62
457.232	5703.93
457.606	5651.5
457.979	5676.81
458.352	5837.26
458.725	5914.32
459.099	5907.77
459.472	6070.93
459.845	6120.42
460.218	6150.25
460.591	6233.86
460.964	6262.56
461.337	6364.93
461.71	6505.94
462.083	6598.37
462.456	6546.17
462.829	6634.75
463.201	6773.06
463.574	6813.96
463.947	6906.61
464.32	7005.14
464.692	7090.79
465.065	7161.75
465.438	7216.89
465.81	7403.32
466.183	7414.85
466.555	7557.22
466.928	7688.51
467.3	7670.21
467.672	7817.1
468.045	7994.27
468.417	7968.28
468.789	8065.9
469.161	8212.79
469.534	8323.75
469.906	8577.75
470.278	8503.18
470.65	8703.85
471.022	8813.68
471.394	8973.45
471.766	9043.96
472.138	9163.28
472.51	9284.4
472.882	9490.05
473.253	9647.78
473.625	9760.32
473.997	9982.24
474.369	10083.7
474.74	10212.97
475.112	10366.18
475.484	10532.96
475.855	10621.99
476.227	10813.85
476.598	11173.17
476.97	11195.76
477.341	11440.73
477.713	11660.84
478.084	11657.67
478.455	12052.24
478.827	12087.27
479.198	12497.2
479.569	12442.29
479.94	12875.72
480.311	12957.53
480.682	13254.24
481.053	13501.02
481.424	13736.49
481.795	13855.36
482.166	14108
482.537	14189.13
482.908	14571.5
483.279	14642
483.65	15020.07
484.021	15251.03
484.391	15392.72
484.762	15535.54
485.133	15684.23
485.503	15993.15
485.874	16315.86
486.244	16460.94
486.615	16891.66
486.985	16969.62
487.356	17245.78
487.726	17429.5
488.097	17798.08
488.467	17860.9
488.837	18140.67
489.207	18414.11
489.578	18763.48
489.948	18894.77
490.318	19094.54
490.688	19250.24
491.058	19533.62
491.428	19794.41
491.798	19965.7
492.168	20356.2
492.538	20462.64
492.908	20656.31
493.278	20922.51
493.648	21024.66
494.017	21242.05
494.387	21570.63
494.757	21638.65
495.126	21857.18
495.496	21949.83
495.866	22045.42
496.235	22340.1
496.605	22494.68
496.974	22811.28
497.344	22850.83
497.713	23076.36
498.082	23175.11
498.452	23565.16
498.821	23569.9
499.19	23540.3
499.559	23991.81
499.928	24099.15
500.298	24252.37
500.667	24515.19
501.036	24487.39
501.405	24662.76
501.774	24745.69
502.143	25093.48
502.512	25127.83
502.88	25395.62
503.249	25468.16
503.618	25723.97
503.987	25950.41
504.356	25942.5
504.724	26092.1
505.093	26364.63
505.462	26457.51
505.83	26585.42
506.199	26804.62
506.567	27137.04
506.936	27083.93
507.304	27427.88
507.672	27502
508.041	27751.49
508.409	27953.29
508.777	28171.36
509.145	28330.46
509.514	28400.51
509.882	28763.44
510.25	28753.95
510.618	29120.49
510.986	29142.19
511.354	29483.87
511.722	29646.58
512.09	30017.87
512.458	29954.14
512.826	30263.29
513.193	30332.44
513.561	30589.15
513.929	30825.53
514.297	31154.56
514.664	31284.73
515.032	31425.06
515.4	31664.61
515.767	31808.56
516.135	32117.02
516.502	31948.21
516.869	32719.04
517.237	32709.55
517.604	32724.69
517.972	33291.23
518.339	33467.04
518.706	33412.81
519.073	33707.94
519.44	33959.69
519.808	34278.32
520.175	34392.44
520.542	34842.15
520.909	34987.68
521.276	35057.96
521.643	35351.74
522.009	35690.26
522.376	35916.24
522.743	36145.84
523.11	36492.27
523.477	36836.22
523.843	37057.01
524.21	37476.43
524.577	37756.87
524.943	37896.08
525.31	37993.48
525.676	38471.66
526.043	38691.77
526.409	38857.18
526.776	39284.52
527.142	39431.18
527.508	39633.21
527.874	40013.31
528.241	40277.03
528.607	40363.36
528.973	40824.82
529.339	40926.51
529.705	41289.89
530.071	41589.99
530.437	41771.91
530.803	41857.78
531.169	42155.4
531.535	42148.62
531.901	42407.37
532.267	42517.88
532.632	42903.18
532.998	42959.45
533.364	43260.68
533.73	43312.43
534.095	43916.26
534.461	43728.47
534.826	44098.4
535.192	44268.57
535.557	44575
535.923	44652.06
536.288	44853.19
536.653	44943.13
537.019	45017.7
537.384	45163.91
537.749	45479.38
538.114	45454.98
538.479	45544.69
538.845	45902.65
539.21	45849.54
539.575	46291.34
539.94	46318.68
540.305	46612.01
540.67	46630.77
541.034	46748.28
541.399	47026.69
541.764	46990.53
542.129	47299.9
542.494	47341.48
542.858	47554.36
543.223	47593
543.587	47857.63
543.952	47826.44
544.316	47972.2
544.681	47935.59
545.045	48247.67
545.41	48493.32
545.774	48542.13
546.138	48599.53
546.503	48757.72
546.867	48885.17
547.231	49212.62
547.595	49207.19
547.959	49378.72
548.324	49387.53
548.688	49476.57
549.052	49709.1
549.416	49876.33
549.779	49839.95
550.143	50004.24
550.507	50344.11
550.871	50415.98
551.235	50475.64
551.599	50746.14
551.962	50788.17
552.326	50904.33
552.689	51124.21
553.053	51113.59
553.417	51214.37
553.78	51675.38
554.143	51441.94
554.507	51769.39
554.87	51741.37
555.234	51978.42
555.597	51967.12
555.96	52205.53
556.323	52260.67
556.686	52313.1
557.05	52718.06
557.413	52744.95
557.776	52777.27
558.139	53090.03
558.502	53161.44
558.865	53302.23
559.228	53507.65
559.59	53581.09
559.953	53577.93
560.316	53941.76
560.679	53943.12
561.041	54143.11
561.404	54365.93
561.767	54470.11
562.129	54390.11
562.492	54772.7
562.854	54757.33
563.217	54797.1
563.579	54935.63
563.941	55152.8
564.304	55194.61
564.666	55447.26
565.028	55481.38
565.39	55626.69
565.753	55844.31
566.115	55924.76
566.477	56009.5
566.839	56024.42
567.201	56310.74
567.563	56296.95
567.925	56504.63
568.287	56481.35
568.648	56628.02
569.01	56724.06
569.372	56894.9
569.734	56880.21
570.095	57010.61
570.457	57112.07
570.819	57163.37
571.18	57288.56
571.542	57354.1
571.903	57410.82
572.265	57479.75
572.626	57613.3
572.987	57681.1
573.349	57785.5
573.71	57849.91
574.071	57937.36
574.432	58055.32
574.794	58201.53
575.155	58115.89
575.516	58120.86
575.877	58233.17
576.238	58269.33
576.599	58369.21
576.96	58384.13
577.32	58485.59
577.681	58529.44
578.042	58595.87
578.403	58541.86
578.763	58597.91
579.124	58609.89
579.485	58763.78
579.845	58833.83
580.206	58792.93
580.566	58784.12
580.927	58782.54
581.287	58929.65
581.648	58841.97
582.008	58941.18
582.368	58904.12
582.728	58935.75
583.089	59004
583.449	58960.16
583.809	59052.81
584.169	59060.72
584.529	59018.69
584.889	59234.05
585.249	59074.28
585.609	58981.18
585.969	59068.4
586.329	59103.66
586.688	59119.48
587.048	59110.66
587.408	58990.44
587.768	58988.63
588.127	59055.98
588.487	59066.37
588.846	59176.88
589.206	59075.64
589.565	59122.41
589.925	59225.01
590.284	59075.64
590.643	59154.73
591.003	59214.16
591.362	59306.36
591.721	59210.55
592.08	59234.28
592.44	59269.53
592.799	59265.69
593.158	59231.79
593.517	59218.23
593.876	59258.23
594.235	59169.42
594.593	59237.21
594.952	59263.2
595.311	59179.59
595.67	59271.79
596.029	59369.19
596.387	59373.71
596.746	59470.2
597.104	59325.12
597.463	59324.44
597.822	59489.64
598.18	59369.19
598.538	59432.69
598.897	59612.8
599.255	59446.7
599.613	59719.69
599.972	59577.32
600.33	59526.7
600.688	59508.84
601.046	59569.63
601.404	59540.71
601.762	59545.23
602.12	59658.9
602.478	59659.8
602.836	59686.02
603.194	59535.28
603.552	59591.78
603.91	59566.92
604.268	59672.23
604.625	59614.6
604.983	59680.37
605.341	59605.57
605.698	59790.87
606.056	59844.88
606.413	59797.42
606.771	59886.46
607.128	59897.31
607.485	59848.72
607.843	59904.99
608.2	59978.89
608.557	60122.84
608.914	59975.73
609.272	60074.25
609.629	60126.91
609.986	60231.76
610.343	60095.72
610.7	60287.81
611.057	60192.44
611.414	60210.97
611.771	60217.3
612.127	60303.4
612.484	60197.87
612.841	60380.69
613.198	60308.6
613.554	60316.51
613.911	60403.28
614.267	60424.75
614.624	60435.6
614.98	60443.06
615.337	60598.76
615.693	60544.75
616.05	60535.94
616.406	60688.25
616.762	60531.42
617.118	60537.52
617.475	60588.14
617.831	60570.29
618.187	60613.67
618.543	60643.28
618.899	60790.17
619.255	60739.1
619.611	60677.18
619.967	60739.32
620.323	60784.29
620.678	60765.08
621.034	60730.28
621.39	60667.91
621.746	60645.54
622.101	60892.76
622.457	60707.68
622.812	60744.97
623.168	60872.42
623.523	60829.26
623.879	60911.07
624.234	60717.85
624.589	60847.34
624.945	60806.21
625.3	60830.17
625.655	60847.57
626.01	60855.48
626.365	60864.74
626.72	60822.48
627.075	60704.97
627.43	60762.15
627.785	60732.99
628.14	60740.9
628.495	60809.38
628.85	60692.09
629.205	60630.85
629.559	60755.59
629.914	60579.33
630.269	60711.98
630.623	60606.22
630.978	60547.91
631.332	60666.33
631.687	60778.64
632.041	60627.01
632.396	60603.96
632.75	60563.28
633.104	60582.49
633.459	60433.79
633.813	60421.36
634.167	60459.1
634.521	60358.31
634.875	60365.77
635.229	60276.73
635.583	60206.68
635.937	60298.65
636.291	60209.62
636.645	60216.4
636.999	60115.16
637.352	60150.18
637.706	60036.97
638.06	60084.87
638.413	60019.34
638.767	59967.36
639.121	60063.86
639.474	59966.91
639.828	59938.66
640.181	59990.19
640.534	60020.7
640.888	59864.32
641.241	59815.05
641.594	59837.42
641.947	59922.85
642.301	59841.04
642.654	59777.31
643.007	59752.68
643.36	59843.07
643.713	59701.16
644.066	59777.09
644.419	59536.64
644.771	59309.98
645.124	59003.77
645.477	58859.37
645.83	58740.96
646.182	58789.54
646.535	58806.49
646.888	58884.45
647.24	58840.84
647.593	59016.88
647.945	58978.24
648.298	58782.08
648.65	58707.28
649.002	58623.67
649.355	58678.36
649.707	58544.58
650.059	58538.25
650.411	58811.01
650.763	58869.09
651.115	59184.11
651.467	59059.37
651.819	59175.29
652.171	58971.01
652.523	58944.57
652.875	58957.45
653.227	58817.56
653.578	59046.48
653.93	58890.56
654.282	58805.13
654.633	58756.55
654.985	58807.17
655.337	58834.29
655.688	58814.85
656.039	58829.09
656.391	58707.96
656.742	58708.64
657.094	58717.23
657.445	58714.74
657.796	58650.56
658.147	58638.13
658.498	58565.14
658.849	58654.18
659.2	58630.45
659.551	58524.24
659.902	58656.66
660.253	58578.25
660.604	58590.9
660.955	58524.24
661.306	58553.16
661.656	58541.19
662.007	58484.47
662.358	58460.51
662.708	58452.83
663.059	58425.26
663.409	58335.09
663.76	58435.2
664.11	58408.99
664.461	58536.22
664.811	58376.45
665.161	58363.11
665.511	58269.33
665.862	58320.18
666.212	58291.25
666.562	58388.87
666.912	58199.5
667.262	58189.78
667.612	58257.13
667.962	58218.71
668.312	58170.35
668.662	58310.23
669.011	58191.59
669.361	58168.32
669.711	58227.07
670.06	58130.35
670.41	58077.7
670.76	58087.87
671.109	58213.74
671.459	58058.04
671.808	58030.01
672.157	58119.95
672.507	57893.52
672.856	57861.2
673.205	58046.96
673.554	58112.5
673.904	57985.27
674.253	58158.6
674.602	58020.97
674.951	57683.13
675.3	57450.37
675.649	57916.8
675.998	57888.1
676.346	57863.46
676.695	57854.2
677.044	57723.81
677.393	57792.73
677.741	57786.18
678.09	57695.79
678.438	57588.44
678.787	57654.66
679.135	57644.71
679.484	57525.62
679.832	57628.44
680.181	57395.91
680.529	57459.86
680.877	57386.64
681.225	57386.64
681.573	57439.52
681.922	57292.86
682.27	57217.15
682.618	57197.27
682.966	57162.69
683.314	57162.01
683.661	56983.94
684.009	56985.07
684.357	56903.49
684.705	56859.65
685.053	56913.88
685.4	56909.37
685.748	56689.48
686.095	56706.66
686.443	56640.67
686.79	56637.96
687.138	56677.73
687.485	56637.51
687.832	56481.81
688.18	56533.33
688.527	56406.55
688.874	56357.06
689.221	56289.95
689.568	56240
689.915	56131.76
690.262	56135.37
690.609	56081.59
690.956	56030.97
691.303	55989.84
691.65	55880.92
691.997	55712.33
692.344	55679.79
692.69	55614.94
693.037	55604.31
693.383	55291.78
693.73	55346.92
694.077	55242.97
694.423	55279.8
694.769	55202.07
695.116	55096.31
695.462	55018.79
695.808	54935.18
696.155	55032.58
696.501	54806.14
696.847	54808.63
697.193	54549.65
697.539	54614.28
697.885	54453.16
698.231	54413.61
698.577	54413.84
698.923	54250.68
699.269	54112.83
699.614	53945.15
699.96	53981.31
700.306	53963.45
700.651	53825.83
700.997	53666.06
701.342	53729.56
701.688	53702.67
702.033	53620.86
702.379	53632.16
702.724	53446.86
703.069	53545.84
703.415	53162.12
703.76	53264.04
704.105	53182.01
704.45	53032.63
704.795	52866.08
705.14	52823.14
705.485	52799.19
705.83	52691.4
706.175	52743.6
706.52	52523.27
706.865	52363.04
707.209	52327.11
707.554	52244.4
707.899	52417.28
708.243	52138.19
708.588	52127.57
708.932	51849.61
709.277	51904.3
709.621	51892.77
709.966	51641.71
710.31	51780.69
710.654	51483.75
710.998	51603.06
711.342	51509.73
711.687	51340.02
712.031	51102.06
712.375	51093.92
712.719	51193.58
713.063	50927.6
713.407	51102.06
713.75	50855.97
714.094	50925.34
714.438	50862.52
714.782	50806.02
715.125	50578.01
715.469	50656.65
715.812	50347.96
716.156	50342.31
716.499	50327.17
716.843	50243.33
717.186	50047.62
717.53	50116.55
717.873	50221.18
718.216	50129.66
718.559	49984.8
718.902	49714.53
719.246	49693.51
719.589	49631.82
719.932	49481.09
720.275	49509.11
720.617	49586.39
720.96	49413.74
721.303	49368.09
721.646	49342.78
721.989	49095.11
722.331	49305.05
722.674	49108.44
723.016	49049.68
723.359	48829.13
723.701	48987.31
724.044	48679.3
724.386	48548.91
724.729	48738.51
725.071	48607.44
725.413	48607.89
725.755	48518.17
726.097	48223.49
726.439	48113.44
726.782	48150.95
727.124	48225.53
727.465	47904.86
727.807	47948.02
728.149	47908.47
728.491	47728.82
728.833	47717.97
729.175	47542.61
729.516	47573.79
729.858	47516.17
730.199	47415.38
730.541	47317.75
730.882	47289.96
731.224	47497.41
731.565	47090.41
731.906	47281.37
732.248	47141.49
732.589	46973.58
732.93	46723.87
733.271	46981.04
733.612	46994.6
733.953	46960.02
734.294	46677.77
734.635	46544.89
734.976	46757.32
735.317	46483.2
735.658	46568.85
735.999	46628.05
736.339	46422.18
736.68	46413.82
737.021	46298.34
737.361	46133.6
737.702	46256.54
738.042	45993.04
738.383	45880.5
738.723	45971.8
739.063	45785.36
739.404	45854.51
739.744	45627.85
740.084	45535.2
740.424	45682.99
740.764	45539.04
741.104	45603
741.444	45299.73
741.784	45305.38
742.124	45311.7
742.464	45240.52
742.804	45108.09
743.143	45045.5
743.483	45176.57
743.823	44891.83
744.162	44862.9
744.502	44865.39
744.841	44562.12
745.181	44797.82
745.52	44497.49
745.86	44695.68
746.199	44362.12
746.538	44298.17
746.877	44396.25
747.216	44356.25
747.556	44096.59
747.895	44090.27
748.234	43866.54
748.573	43997.84
748.911	43833.32
749.25	43789.94
749.589	43762.14
749.928	43791.29
750.267	43796.94
750.605	43590.17
750.944	43455.71
751.283	43420.45
751.621	43503.39
751.96	43100.01
752.298	42942.27
752.636	43007.13
752.975	42925.33
753.313	42644.88
753.651	42792
753.989	42772.56
754.327	42603.75
754.666	42248.28
755.004	42326.92
755.342	42387.94
755.679	42236.3
756.017	41926.26
756.355	42120.6
756.693	41777.11
757.031	41907.73
757.368	41583.44
757.706	41564.23
758.044	41303.45
758.381	41428.64
758.719	41253.05
759.056	41076.34
759.394	41047.41
759.731	40862.1
760.068	40731.94
760.405	40762.45
760.743	40720.19
761.08	40680.87
761.417	40352.74
761.754	40332.85
762.091	40251.05
762.428	40181.9
762.765	39697.16
763.102	39820.1
763.438	39611.29
763.775	39345.08
764.112	39519.77
764.449	39440.67
764.785	39263.28
765.122	38906.45
765.458	38811.99
765.795	38641.82
766.131	38553.69
766.467	38387.82
766.804	38314.6
767.14	38013.36
767.476	38286.35
767.812	38063.76
768.148	37985.34
768.485	37808.62
768.821	37653.83
769.157	37383.78
769.492	37415.41
769.828	37484.57
770.164	37061.3
770.5	36999.83
770.836	36879.16
771.171	36639.84
771.507	36687.98
771.842	36470.13
772.178	36492.5
772.513	36474.42
772.849	36269.23
773.184	35983.14
773.519	36006.86
773.855	35654.78
774.19	35588.57
774.525	35476.71
774.86	35468.57
775.195	35392.42
775.53	35189.94
775.865	35023.16
776.2	34786.78
776.535	34560.8
776.87	34616.39
777.205	34387.47
777.539	34258.66
777.874	34279.45
778.209	34021.38
778.543	33837.88
778.878	33660.48
779.212	33557.89
779.547	33434.95
779.881	33507.04
780.215	33314.96
780.55	33240.16
780.884	33016.66
781.218	32971.01
781.552	32917.45
781.886	32822.99
782.22	32528.31
782.554	32491.7
782.888	32292.16
783.222	32144.82
783.556	31916.35
783.889	31997.25
784.223	31799.74
784.557	31555.91
784.89	31675.23
785.224	31456.48
785.557	31326.99
785.891	31215.35
786.224	31127.44
786.558	30991.4
786.891	30747.34
787.224	30649.26
787.557	30642.94
787.891	30590.28
788.224	30415.82
788.557	30571.3
788.89	30216.96
789.223	30354.58
789.556	30194.14
789.888	30079.11
790.221	29892.67
790.554	29674.38
790.887	29617.2
791.219	29465.12
791.552	29447.49
791.884	29271.67
792.217	29318.23
792.549	29184.44
792.882	28994.17
793.214	28740.61
793.546	28718.69
793.879	28610.45
794.211	28442.32
794.543	28560.51
794.875	28414.97
795.207	28497.91
795.539	28325.71
795.871	28215.88
796.203	27878.49
796.535	27826.74
796.867	27753.07
797.198	27823.8
797.53	27869.45
797.862	27634.43
798.193	27576.13
798.525	27287.32
798.856	27380.42
799.188	27114.89
799.519	26919.87
799.85	26904.05
800.182	26869.7
800.513	26778.41
800.844	26596.49
801.175	26593.55
801.506	26646.43
801.837	26403.27
802.168	26440.56
802.499	26344.07
802.83	26075.37
803.161	26066.33
803.491	26118.31
803.822	26109.95
804.153	25922.84
804.483	25774.14
804.814	25573.24
805.145	25583.18
805.475	25541.83
805.805	25415.73
806.136	25479.91
806.466	25441.27
806.796	25242.63
807.126	25187.94
807.457	25037.21
807.787	25066.36
808.117	24986.14
808.447	24918.57
808.777	25003.99
809.107	24860.04
809.436	24737.56
809.766	24686.26
810.096	24625.47
810.426	24461.18
810.755	24534.62
811.085	24499.82
811.414	24323.56
811.744	24131.47
812.073	24045.6
812.403	23997.69
812.732	23877.24
813.061	23962.43
813.39	23749.11
813.719	23793.4
814.049	23841.99
814.378	23587.98
814.707	23601.99
815.036	23516.12
815.365	23297.59
815.693	23180.53
816.022	23371.49
816.351	23145.96
816.68	23022.8
817.008	23152.74
817.337	22875.23
817.665	22833.43
817.994	22952.74
818.322	22989.13
818.651	22783.26
818.979	22677.72
819.307	22792.97
819.636	22670.94
819.964	22475.47
820.292	22602.24
820.62	22491.06
820.948	22420.33
821.276	22487.22
821.604	22480.44
821.932	22568.12
822.259	22616.71
822.587	22462.36
822.915	22383.72
823.243	22447.67
823.57	22330.84
823.898	22374.45
824.225	22331.52
824.553	22295.81
824.88	22391.63
825.207	22390.5
825.535	22276.83
825.862	22322.03
826.189	22279.32
826.516	22393.44
826.843	22362.48
827.17	22383.72
827.497	22529.93
827.824	22411.97
828.151	22349.6
828.478	22340.33
828.805	22362.48
829.131	22230.28
829.458	22216.49
829.785	22018.31
830.111	22104.63
830.438	22189.6
830.764	22197.28
831.09	22300.56
831.417	22030.51
831.743	22178.08
832.069	22152.09
832.395	22187.11
832.722	22208.13
833.048	22051.75
833.374	22120
833.7	21962.26
834.026	21947.12
834.351	22036.38
834.677	21893.56
835.003	21949.83
835.329	21937.18
835.654	21964.3
835.98	21857.63
836.306	21892.21
836.631	21852.89
836.956	21954.35
837.282	21844.75
837.607	21637.07
837.932	21717.3
838.258	21722.95
838.583	21762.04
838.908	21565.66
839.233	21655.6
839.558	21545.32
839.883	21473.91
840.208	21507.13
840.533	21467.59
840.858	21329.96
841.182	21435.04
841.507	21503.52
841.832	21310.08
842.156	21191.66
842.481	21223.52
842.805	21233.92
843.13	21212.45
843.454	21027.37
843.778	21144.88
844.103	21058.78
844.427	20965.68
844.751	20966.36
845.075	20824.89
845.399	20863.76
845.723	20724.1
846.047	20697.44
846.371	20535.86
846.695	20488.63
847.019	20362.3
847.343	20404.56
847.666	20208.64
847.99	20137
848.313	20168.18
848.637	19986.95
848.96	20018.36
849.284	19984.23
849.607	19733.85
849.931	19717.57
850.254	19504.02
850.577	19492.27
850.9	19283.01
851.223	19380.63
851.546	19429.22
851.869	19242.33
852.192	19238.04
852.515	19014.77
852.838	19061.09
853.161	19111.26
853.483	19015.22
853.806	18925.05
854.129	18778.39
854.451	18710.6
854.774	18745.85
855.096	18652.29
855.419	18638.96
855.741	18548.34
856.063	18361.68
856.385	18368.23
856.708	18418.4
857.03	18297.05
857.352	18480.09
857.674	18233.77
857.996	18115.81
858.318	18012.08
858.64	18046.21
858.961	18044.62
859.283	17899.32
859.605	17895.48
859.926	17981.35
860.248	17822.03
860.57	17709.27
860.891	17695.71
861.212	17679.66
861.534	17594.92
861.855	17576.61
862.176	17600.34
862.498	17584.3
862.819	17589.95
863.14	17561.02
863.461	17485.09
863.782	17338.43
864.103	17428.14
864.424	17349.28
864.745	17338.43
865.065	17254.59
865.386	17236.28
865.707	17236.06
866.027	17213.69
866.348	17208.71
866.668	17213.69
866.989	17144.76
867.309	17031.77
867.63	17042.62
867.95	17044.42
868.27	16924.2
868.59	17015.05
868.91	16989.96
869.23	16997.65
869.55	16917.65
869.87	17020.24
870.19	16941.83
870.51	16931.66
870.83	16835.39
871.15	16817.54
871.469	16943.86
871.789	16812.11
872.109	16831.1
872.428	16716.3
872.748	16749.07
873.067	16735.51
873.386	16711.33
873.706	16644.66
874.025	16570.54
874.344	16595.85
874.663	16604.89
874.982	16615.51
875.301	16513.82
875.62	16477.66
875.939	16470.65
876.258	16578.22
876.577	16453.48
876.896	16432.92
877.214	16312.92
877.533	16297.33
877.852	16243.09
878.17	16240.38
878.489	16134.62
878.807	16265.01
879.125	16211.9
879.444	16171.45
879.762	16163.32
880.08	16109.53
880.398	16093.49
880.716	16206.93
881.034	16090.33
881.352	16131.23
881.67	16032.93
881.988	16139.36
882.306	16051.23
882.624	15926.49
882.941	15859.6
883.259	15805.36
883.577	15785.93
883.894	15837
884.212	15821.41
884.529	15701.86
884.846	15779.37
885.164	15773.72
885.481	15659.15
885.798	15697.79
886.115	15574.18
886.432	15710.45
886.75	15590.9
887.067	15589.77
887.383	15431.59
887.7	15535.99
888.017	15435.2
888.334	15480.4
888.651	15325.15
888.967	15366.5
889.284	15237.01
889.6	15211.03
889.917	15050.8
890.233	15048.09
890.55	15033.18
890.866	15164.7
891.182	15035.66
891.498	14982.56
891.815	14908.66
892.131	14887.87
892.447	14802.45
892.763	14806.52
893.079	14762.68
893.395	14794.31
893.71	14750.47
894.026	14817.36
894.342	14721.77
894.657	14544.83
894.973	14549.12
895.289	14525.17
895.604	14515
895.92	14375.57
896.235	14277.27
896.55	14360.88
896.865	14270.49
897.181	14357.49
897.496	14428.22
897.811	14281.56
898.126	14212.63
898.441	14092.64
898.756	14055.8
899.071	13910.95
899.386	13952.3
899.7	13882.02
900.015	13797.05
900.33	13816.04
900.644	13781.69
900.959	13683.61
901.273	13732.65
901.588	13559.77
901.902	13489.94
902.216	13518.64
902.531	13395.71
902.845	13390.74
903.159	13363.39
903.473	13323.39
903.787	13252.21
904.101	13193
904.415	13208.59
904.729	13127.92
905.042	13065.55
905.356	13050.63
905.67	13061.03
905.984	13042.95
906.297	12982.84
906.611	12896.51
906.924	12832.11
907.237	12780.81
907.551	12771.09
907.864	12765.67
908.177	12714.37
908.491	12642.73
908.804	12509.18
909.117	12483.41
909.43	12390.54
909.743	12323.87
910.056	12308.5
910.368	12330.42
910.681	12177.43
910.994	12163.65
911.307	12136.98
911.619	12058.34
911.932	12053.82
912.244	11877.78
912.557	11933.6
912.869	11871.68
913.181	11872.58
913.494	11808.86
913.806	11771.12
914.118	11675.53
914.43	11634.17
914.742	11651.57
915.054	11528.64
915.366	11580.61
915.678	11451.58
915.99	11465.36
916.302	11390.34
916.613	11406.61
916.925	11307.63
917.236	11304.01
917.548	11183.34
917.859	11168.65
918.171	11212.71
918.482	11000.06
918.794	10960.52
919.105	10966.62
919.416	10881.42
919.727	10891.37
920.038	10826.51
920.349	10728.21
920.66	10662.45
920.971	10682.56
921.282	10632.62
921.593	10574.76
921.903	10514.88
922.214	10596.46
922.525	10545.39
922.835	10544.71
923.146	10424.03
923.456	10429.68
923.767	10419.06
924.077	10314.66
924.387	10291.61
924.697	10200.08
925.008	10140.65
925.318	10114.21
925.628	10087.55
925.938	10043.7
926.248	9932.97
926.558	9973.88
926.867	9917.83
927.177	9892.07
927.487	9876.93
927.796	9744.96
928.106	9675.35
928.416	9670.16
928.725	9675.58
929.034	9601.46
929.344	9653.88
929.653	9522.36
929.962	9469.71
930.271	9417.05
930.581	9356.94
930.89	9412.08
931.199	9320.56
931.508	9363.95
931.817	9229.49
932.125	9218.87
932.434	9230.39
932.743	9085.09
933.051	9106.55
933.36	9015.94
933.669	8990.17
933.977	8977.07
934.286	8910.63
934.594	8907.01
934.902	8809.39
935.21	8738.43
935.519	8766.9
935.827	8678.77
936.135	8629.73
936.443	8621.14
936.751	8607.81
937.059	8647.36
937.367	8500.92
937.674	8519.23
937.982	8483.52
938.29	8425.22
938.597	8467.48
938.905	8371.21
939.213	8277.42
939.52	8323.98
939.827	8320.81
940.135	8196.52
940.442	8171.89
940.749	8170.31
941.056	8117.2
941.363	8051.67
941.67	8063.42
941.977	8004.66
942.284	7908.85
942.591	7898
942.898	7829.07
943.205	7898.68
943.511	7832.46
943.818	7813.93
944.125	7744.33
944.431	7687.38
944.738	7728.74
945.044	7709.75
945.35	7633.37
945.657	7572.36
945.963	7496.2
946.269	7519.03
946.575	7445.36
946.881	7463.21
947.187	7505.01
947.493	7361.06
947.799	7356.32
948.105	7348.86
948.41	7238.81
948.716	7255.76
949.022	7220.95
949.327	7189.77
949.633	7140.73
949.938	7105.03
950.244	7156.78
950.549	7091.92
950.854	7040.39
951.16	7010.34
951.465	6918.82
951.77	6976.21
952.075	6814.41
952.38	6773.51
952.685	6854.18
952.99	6791.13
953.294	6810.57
953.599	6779.38
953.904	6707.97
954.209	6688.76
954.513	6683.79
954.818	6636.79
955.122	6630.46
955.426	6623.23
955.731	6616.68
956.035	6526.06
956.339	6454.19
956.643	6467.75
956.948	6440.41
957.252	6435.44
957.556	6354.99
957.86	6271.37
958.163	6251.49
958.467	6201.32
958.771	6244.48
959.075	6281.09
959.378	6212.17
959.682	6267.98
959.985	6122.23
960.289	6095.33
960.592	6079.29
960.896	6074.09
961.199	5990.48
961.502	5995.9
961.805	6003.36
962.108	6023.7
962.411	6007.65
962.714	5938.28
963.017	5880.88
963.32	5831.39
963.623	5807.43
963.926	5834.1
964.228	5774.44
964.531	5803.59
964.833	5808.11
965.136	5674.33
965.438	5648.34
965.741	5636.14
966.043	5616.02
966.345	5582.13
966.648	5603.14
966.95	5575.57
967.252	5502.81
967.554	5489.25
967.856	5467.78
968.158	5417.84
968.46	5371.74
968.761	5378.06
969.063	5390.95
969.365	5347.56
969.666	5344.39
969.968	5291.51
970.269	5340.55
970.571	5329.7
970.872	5259.88
971.174	5207.67
971.475	5265.98
971.776	5183.72
972.077	5173.78
972.378	5107.34
972.679	5105.76
972.98	5083.84
973.281	5074.57
973.582	5105.08
973.883	5001.58
974.183	4976.49
974.484	4992.99
974.785	4957.96
975.085	4907.79
975.386	4923.39
975.686	4856.04
975.986	4852.43
976.287	4851.07
976.587	4764.97
976.887	4808.59
977.187	4790.06
977.487	4746.44
977.787	4741.92
978.087	4707.57
978.387	4681.13
978.687	4649.72
978.987	4617.18
979.286	4548.26
979.586	4612.21
979.885	4573.11
980.185	4531.08
980.484	4508.26
980.784	4504.64
981.083	4577.86
981.382	4523.85
981.682	4428.26
981.981	4417.86
982.28	4456.06
982.579	4393.68
982.878	4374.48
983.177	4335.83
983.475	4333.8
983.774	4289.96
984.073	4212.22
984.372	4240.02
984.67	4251.77
984.969	4213.8
985.267	4206.8
985.566	4151.66
985.864	4148.04
986.162	4107.36
986.461	4115.73
986.759	4097.87
987.057	4023.75
987.355	4069.17
987.653	4065.56
987.951	4048.38
988.249	4029.63
988.547	3988.5
988.844	3973.58
989.142	3957.09
989.44	3880.48
989.737	3921.61
990.035	3876.18
990.332	3885.9
990.63	3854.49
990.927	3868.95
991.224	3863.98
991.521	3830.53
991.819	3777.2
992.116	3728.84
992.413	3766.81
992.71	3710.09
993.006	3738.33
993.303	3653.14
993.6	3698.79
993.897	3641.84
994.193	3623.99
994.49	3637.09
994.787	3595.96
995.083	3596.42
995.379	3558
995.676	3595.06
995.972	3548.73
996.268	3481.39
996.565	3464.67
996.861	3442.97
997.157	3482.07
997.453	3438
997.749	3442.75
998.044	3416.76
998.34	3384.67
998.636	3358.91
998.932	3339.93
999.227	3319.81
999.523	3341.73
999.818	3281.85
1000.114	3270.32
1000.409	3246.14
1000.704	3219.03
1001	3180.16
1001.295	3178.8
1001.59	3133.83
1001.885	3147.39
1002.18	3119.37
1002.475	3068.07
1002.77	3097.45
1003.065	3076.2
1003.359	3113.49
1003.654	3054.51
1003.949	3044.34
1004.243	3035.98
1004.538	2968.64
1004.832	2981.52
1005.127	2953.72
1005.421	2962.08
1005.715	2946.04
1006.009	2892.48
1006.304	2903.1
1006.598	2877.79
1006.892	2858.36
1007.186	2865.81
1007.48	2814.06
1007.773	2850.9
1008.067	2810.45
1008.361	2769.32
1008.655	2720.96
1008.948	2732.71
1009.242	2714.63
1009.535	2669.89
1009.829	2705.59
1010.122	2668.31
1010.415	2653.62
1010.708	2598.48
1011.001	2609.55
1011.295	2596.44
1011.588	2586.5
1011.881	2574.07
1012.173	2540.63
1012.466	2534.3
1012.759	2527.52
1013.052	2490.23
1013.344	2498.59
1013.637	2471.47
1013.93	2457.69
1014.222	2466.95
1014.514	2420.85
1014.807	2433.28
1015.099	2399.16
1015.391	2415.66
1015.683	2389.44
1015.976	2386.73
1016.268	2347.41
1016.56	2313.29
1016.851	2310.8
1017.143	2311.25
1017.435	2294.53
1017.727	2226.96
1018.018	2244.14
1018.31	2234.19
1018.602	2248.66
1018.893	2226.96
1019.185	2144.48
1019.476	2188.09
1019.767	2136.79
1020.058	2134.08
1020.35	2126.4
1020.641	2123.24
1020.932	2066.29
1021.223	2099.73
1021.514	2026.51
1021.804	2061.99
1022.095	1993.97
1022.386	2039.85
1022.677	1995.33
1022.967	1978.38
1023.258	1969.11
1023.548	1963.24
1023.839	1957.14
1024.129	1944.03
1024.419	1902
1024.709	1902.45
1025	1910.36
1025.29	1891.83
1025.58	1876.24
1025.87	1816.8
1026.16	1815.67
1026.449	1817.71
1026.739	1790.81
1027.029	1796.46
1027.319	1767.54
1027.608	1767.09
1027.898	1761.21
1028.187	1744.71
1028.477	1738.16
1028.766	1720.76
1029.055	1703.13
1029.344	1704.04
1029.634	1676.47
1029.923	1676.69
1030.212	1678.05
1030.501	1670.14
1030.79	1643.47
1031.078	1591.72
1031.367	1633.08
1031.656	1598.73
1031.945	1578.16
1032.233	1597.6
1032.522	1569.8
1032.81	1532.74
1033.099	1519.64
1033.387	1502.91
1033.675	1516.7
1033.963	1462.69
1034.251	1509.01
1034.54	1463.59
1034.828	1460.65
1035.116	1473.08
1035.403	1473.31
1035.691	1433.76
1035.979	1433.08
1036.267	1419.75
1036.554	1408.45
1036.842	1367.55
1037.129	1375.46
1037.417	1368
1037.704	1359.41
1037.992	1384.72
1038.279	1341.79
1038.566	1345.18
1038.853	1345.18
1039.14	1345.18
