Data from foil_FLMS001491_020.txt Node
Date: Tue Feb 07 11:25:29 GMT 2017
User: dcchb
Spectrometer: FLMS00149
Trigger mode: 0
Integration Time (sec): 2.000000E-2
Scans to average: 10
Electric dark correction enabled: true
Nonlinearity correction enabled: false
Boxcar width: 0
XAxis mode: Wavelengths
Number of Pixels in Spectrum: 2048
>>>>>Begin Spectral Data<<<<<
341.393	-10.32
341.776	-10.32
342.16	-10.32
342.543	-41.96
342.927	-69.76
343.31	-53.26
343.693	-58.01
344.077	-60.04
344.46	-70.66
344.843	-48.97
345.226	-34.05
345.61	-25.24
345.993	-19.36
346.376	-12.58
346.759	26.06
347.142	5.95
347.525	36
347.908	55.21
348.291	84.14
348.674	72.84
349.057	101.99
349.44	113.97
349.823	134.53
350.206	172.72
350.588	238.93
350.971	253.85
351.354	273.51
351.737	268.76
352.119	288.42
352.502	307.86
352.884	306.05
353.267	313.96
353.65	334.98
354.032	353.51
354.414	342.66
354.797	343.11
355.179	383.79
355.562	363.68
355.944	372.04
356.326	372.94
356.709	399.38
357.091	399.16
357.473	390.12
357.855	404.81
358.238	385.6
358.62	394.64
359.002	400.51
359.384	418.82
359.766	403.9
360.148	398.03
360.53	415.88
360.912	393.96
361.294	399.61
361.676	419.49
362.057	413.39
362.439	391.7
362.821	392.83
363.203	417.91
363.584	393.96
363.966	412.72
364.348	408.42
364.729	407.07
365.111	412.49
365.493	411.59
365.874	419.27
366.256	407.52
366.637	405.26
367.019	413.39
367.4	400.06
367.781	414.52
368.163	419.04
368.544	407.29
368.925	416.78
369.306	435.99
369.688	439.83
370.069	427.86
370.45	413.39
370.831	414.07
371.212	440.96
371.593	412.94
371.974	433.73
372.355	433.28
372.736	441.41
373.117	431.47
373.498	470.11
373.879	464.92
374.26	451.81
374.641	445.93
375.021	438.25
375.402	439.16
375.783	495.42
376.163	505.82
376.544	490.45
376.925	468.98
377.305	507.4
377.686	475.09
378.066	491.13
378.447	498.59
378.827	492.94
379.208	532.71
379.588	523.22
379.968	518.25
380.349	522.54
380.729	534.07
381.109	523.22
381.489	548.98
381.87	560.96
382.25	544.46
382.63	553.05
383.01	572.71
383.39	558.93
383.77	574.74
384.15	565.93
384.53	584.91
384.91	584.91
385.29	614.29
385.67	606.61
386.049	593.28
386.429	610.9
386.809	632.82
387.189	634.63
387.568	608.19
387.948	638.7
388.328	648.87
388.707	673.95
389.087	657.91
389.466	673.27
389.846	691.58
390.225	682.09
390.605	694.06
390.984	710.33
391.363	704.91
391.743	729.77
392.122	733.38
392.501	727.96
392.881	750.33
393.26	755.3
393.639	748.75
394.018	773.61
394.397	767.96
394.776	784.68
395.155	793.95
395.534	789.2
395.913	809.31
396.292	795.76
396.671	808.18
397.05	836.21
397.429	846.6
397.808	849.09
398.186	870.33
398.565	889.99
398.944	889.31
399.323	899.48
399.701	868.75
400.08	890.22
400.458	895.19
400.837	927.28
401.215	935.19
401.594	960.95
401.972	934.51
402.351	941.51
402.729	979.25
403.107	984
403.486	1016.77
403.864	987.84
404.242	1010.67
404.62	1016.77
404.999	1016.32
405.377	1034.17
405.755	1068.07
406.133	1060.38
406.511	1069.42
406.889	1091.79
407.267	1132.47
407.645	1110.55
408.023	1159.59
408.401	1157.33
408.779	1176.54
409.156	1183.77
409.534	1200.04
409.912	1232.13
410.29	1272.58
410.667	1263.99
411.045	1291.79
411.422	1302.18
411.8	1299.02
412.178	1348.06
412.555	1341.73
412.933	1348.06
413.31	1406.36
413.687	1430.77
414.065	1410.65
414.442	1426.02
414.819	1450.2
415.197	1447.26
415.574	1467.15
415.951	1492.69
416.328	1514.38
416.705	1530.2
417.082	1534.72
417.46	1557.54
417.837	1572.01
418.214	1602.06
418.591	1597.32
418.967	1629.41
419.344	1606.13
419.721	1652.46
420.098	1672.34
420.475	1690.42
420.852	1709.4
421.228	1745.11
421.605	1742.17
421.982	1739.91
422.358	1781.72
422.735	1791.21
423.111	1795.5
423.488	1817.2
423.864	1860.13
424.241	1866.91
424.617	1894.71
424.994	1926.35
425.37	1910.3
425.746	1926.8
426.123	1961.6
426.499	1983.97
426.875	1999.79
427.251	1999.79
427.627	2104.65
428.003	2159.34
428.379	2128.15
428.756	2154.14
429.132	2176.06
429.507	2251.54
429.883	2240.01
430.259	2294.25
430.635	2317.07
431.011	2359.78
431.387	2416.5
431.763	2415.83
432.138	2451.98
432.514	2517.29
432.89	2496.28
433.265	2574.47
433.641	2592.32
434.016	2601.36
434.392	2648.81
434.767	2718.87
435.143	2672.54
435.518	2760.68
435.894	2795.25
436.269	2844.97
436.644	2862.14
437.02	2890.84
437.395	2915.93
437.77	2915.02
438.145	3000.44
438.52	3015.58
438.895	3043.38
439.271	3053.78
439.646	3143.94
440.021	3139.42
440.395	3175.81
440.77	3157.73
441.145	3228.23
441.52	3250.83
441.895	3263.49
442.27	3286.31
442.645	3285.86
443.019	3402.24
443.394	3369.47
443.769	3426.42
444.143	3382.35
444.518	3474.33
444.892	3513.2
445.267	3513.65
445.641	3543.71
446.016	3591.61
446.39	3630.71
446.764	3636.59
447.139	3620.09
447.513	3694.21
447.887	3729.46
448.262	3751.38
448.636	3776.92
449.01	3844.49
449.384	3906.86
449.758	3884.94
450.132	3947.76
450.506	3973.75
450.88	4017.59
451.254	4044.03
451.628	4058.04
452.002	4155.22
452.376	4171.94
452.75	4200.41
453.123	4196.8
453.497	4291.94
453.871	4293.74
454.244	4391.37
454.618	4406.06
454.992	4526.05
455.365	4509.56
455.739	4635.88
456.112	4646.73
456.486	4677.01
456.859	4698.03
457.232	4784.58
457.606	4770.34
457.979	4888.76
458.352	4956.78
458.725	5029.32
459.099	5063.89
459.472	5125.13
459.845	5181.4
460.218	5207.62
460.591	5286.03
460.964	5271.57
461.337	5412.13
461.71	5455.75
462.083	5578.68
462.456	5547.95
462.829	5590.88
463.201	5650.32
463.574	5723.31
463.947	5774.83
464.32	5898.9
464.692	5917.2
465.065	5977.77
465.438	6088.72
465.81	6188.83
466.183	6237.42
466.555	6368.94
466.928	6419.56
467.3	6400.81
467.672	6494.36
468.045	6645.32
468.417	6660.46
468.789	6747.69
469.161	6845.09
469.534	6887.12
469.906	7042.15
470.278	7077.4
470.65	7261.8
471.022	7354.68
471.394	7448.01
471.766	7538.63
472.138	7626.31
472.51	7772.3
472.882	7879.41
473.253	7950.37
473.625	8079.18
473.997	8299.29
474.369	8361.43
474.74	8389.68
475.112	8567.08
475.484	8696.34
475.855	8828.31
476.227	8944.47
476.598	9202.54
476.97	9258.58
477.341	9453.61
477.713	9598.91
478.084	9680.27
478.455	9932.69
478.827	9948.51
479.198	10268.73
479.569	10306.01
479.94	10569.28
480.311	10647.25
480.682	10967.47
481.053	11159.78
481.424	11312.99
481.795	11431.86
482.166	11649.71
482.537	11656.26
482.908	12043.82
483.279	12142.12
483.65	12392.74
484.021	12601.77
484.391	12719.96
484.762	12839.73
485.133	13021.88
485.503	13237.69
485.874	13440.85
486.244	13625.25
486.615	13865.24
486.985	14107.27
487.356	14345.23
487.726	14455.51
488.097	14679.46
488.467	14749.51
488.837	15036.06
489.207	15300.91
489.578	15424.52
489.948	15600.56
490.318	15876.04
490.688	15921.46
491.058	16212.75
491.428	16396.93
491.798	16505.85
492.168	16843.02
492.538	16928.44
492.908	17185.38
493.278	17344.25
493.648	17427.86
494.017	17678.93
494.387	17848.87
494.757	17957.56
495.126	18111.23
495.496	18235.75
495.866	18409.76
496.235	18631.67
496.605	18711.89
496.974	18800.03
497.344	19058.78
497.713	19211.32
498.082	19228.27
498.452	19520.01
498.821	19620.8
499.19	19682.72
499.559	19951.64
499.928	20050.84
500.298	20235.92
500.667	20407.9
501.036	20410.38
501.405	20616.7
501.774	20726.53
502.143	21004.94
502.512	20931.95
502.88	21213.75
503.249	21146.18
503.618	21383.24
503.987	21450.35
504.356	21652.38
504.724	21742.78
505.093	21932.15
505.462	22046.27
505.83	22125.36
506.199	22372.82
506.567	22644.45
506.936	22750.88
507.304	22923.76
507.672	23083.08
508.041	23160.59
508.409	23352
508.777	23582.73
509.145	23738.2
509.514	23756.73
509.882	23914.24
510.25	24040.57
510.618	24173.9
510.986	24411.86
511.354	24641.23
511.722	24667.44
512.09	24918.74
512.458	24955.12
512.826	25391.04
513.193	25436.92
513.561	25476.46
513.929	25698.38
514.297	25990.12
514.664	26207.29
515.032	26259.04
515.4	26409.09
515.767	26689.99
516.135	26779.03
516.502	26729.31
516.869	27335.4
517.237	27359.58
517.604	27362.06
517.972	27765.67
518.339	27988.26
518.706	28025.77
519.073	28232.32
519.44	28326.33
519.808	28802.25
520.175	28703.04
520.542	29117.95
520.909	29220.32
521.276	29392.74
521.643	29691.49
522.009	29875.67
522.376	29974.2
522.743	30277.92
523.11	30586.39
523.477	30747.06
523.843	30956.77
524.21	31377.32
524.577	31572.12
524.943	31652.8
525.31	31852.34
525.676	32110.19
526.043	32338.88
526.409	32624.07
526.776	32996.27
527.142	33078.97
527.508	33239.2
527.874	33405.97
528.241	33747.43
528.607	33657.94
528.973	34003.47
529.339	34164.37
529.705	34403.46
530.071	34775.88
530.437	34882.77
530.803	35064.01
531.169	35285.92
531.535	35301.52
531.901	35453.83
532.267	35645.46
532.632	35994.6
532.998	35990.76
533.364	36396.18
533.73	36324.99
534.095	36583.74
534.461	36781.93
534.826	36931.53
535.192	37033.22
535.557	37255.36
535.923	37334.68
536.288	37567.67
536.653	37712.07
537.019	37687.89
537.384	37801.56
537.749	38058.28
538.114	38097.83
538.479	38221.44
538.845	38483.13
539.21	38399.06
539.575	38647.64
539.94	38820.29
540.305	39090.12
540.67	38920.63
541.034	39150.45
541.399	39357
541.764	39422.99
542.129	39574.4
542.494	39729.2
542.858	39756.09
543.223	39847.16
543.587	40211.44
543.952	40011.45
544.316	40262.97
544.681	40221.84
545.045	40495.28
545.41	40796.74
545.774	40787.92
546.138	40818.21
546.503	40968.71
546.867	41070.86
547.231	41438.08
547.595	41449.15
547.959	41665.64
548.324	41597.85
548.688	41869.03
549.052	41885.97
549.416	42227.66
549.779	42119.19
550.143	42226.53
550.507	42510.59
550.871	42474.21
551.235	42775.44
551.599	42839.4
551.962	42943.8
552.326	43128.65
552.689	43398.03
553.053	43144.25
553.417	43475.76
553.78	43802.76
554.143	43666.72
554.507	43950.55
554.87	44155.97
555.234	44528.17
555.597	44273.93
555.96	44601.16
556.323	44782.62
556.686	44836.63
557.05	45138.77
557.413	45099.45
557.776	45366.11
558.139	45621.02
558.502	45694.01
558.865	45688.81
559.228	46107.33
559.59	46217.61
559.953	46329.47
560.316	46727.88
560.679	46778.73
561.041	46947.54
561.404	47073.41
561.767	47311.82
562.129	47178.27
562.492	47616.9
562.854	47667.52
563.217	47674.52
563.579	47890.79
563.941	48137.79
564.304	48244.45
564.666	48538.23
565.028	48514.05
565.39	48808.05
565.753	48977.31
566.115	49037.65
566.477	49213.69
566.839	49185.9
567.201	49475.61
567.563	49516.06
567.925	49839.21
568.287	49864.75
568.648	49985.65
569.01	50073.33
569.372	50401.01
569.734	50332.76
570.095	50476.48
570.457	50520.32
570.819	50648
571.18	50691.39
571.542	50916.47
571.903	50913.08
572.265	51017.26
572.626	51163.92
572.987	51170.7
573.349	51330.92
573.71	51366.4
574.071	51445.05
574.432	51563.91
574.794	51758.71
575.155	51790.12
575.516	51727.75
575.877	51854.07
576.238	51930.68
576.599	52094.29
576.96	51967.29
577.32	52084.58
577.681	52238.47
578.042	52190.56
578.403	52249.77
578.763	52245.93
579.124	52357.56
579.485	52480.95
579.845	52558.24
580.206	52588.29
580.566	52458.8
580.927	52504.23
581.287	52692.7
581.648	52453.15
582.008	52671.91
582.368	52587.61
582.728	52757.33
583.089	52590.33
583.449	52590.33
583.809	52627.61
584.169	52668.29
584.529	52633.49
584.889	52826.25
585.249	52649.53
585.609	52550.78
585.969	52756.88
586.329	52690.21
586.688	52711.45
587.048	52726.82
587.408	52683.88
587.768	52603.66
588.127	52599.37
588.487	52526.83
588.846	52795.97
589.206	52569.31
589.565	52683.43
589.925	52770.89
590.284	52748.51
590.643	52724.33
591.003	52767.95
591.362	52826.93
591.721	52794.84
592.08	52798.68
592.44	52861.51
592.799	52797.33
593.158	52677.56
593.517	52687.72
593.876	52717.33
594.235	52599.59
594.593	52828.96
594.952	52784.22
595.311	52633.04
595.67	52748.06
596.029	52823.77
596.387	52911.67
596.746	52953.25
597.104	52821.28
597.463	52833.03
597.822	52913.48
598.18	52772.47
598.538	52722.3
598.897	52974.95
599.255	52629.2
599.613	53177.66
599.972	52845.46
600.33	53017.89
600.688	52804.11
601.046	52914.16
601.404	53098.79
601.762	52992.8
602.12	53182.85
602.478	53077.55
602.836	53157.32
603.194	52933.14
603.552	53122.52
603.91	52950.54
604.268	53153.93
604.625	53058.34
604.983	53204.55
605.341	52947.6
605.698	53160.93
606.056	53240.93
606.413	53235.06
606.771	53259.91
607.128	53274.38
607.485	53177.43
607.843	53203.64
608.2	53353.47
608.557	53330.65
608.914	53315.5
609.272	53424.88
609.629	53445.44
609.986	53530.41
610.343	53430.3
610.7	53513.47
611.057	53498.78
611.414	53598.66
611.771	53529.96
612.127	53678.21
612.484	53595.72
612.841	53694.25
613.198	53522.28
613.554	53653.58
613.911	53832.78
614.267	53702.84
614.624	53756.62
614.98	53662.16
615.337	53873.46
615.693	53851.31
616.05	53853.34
616.406	53972.66
616.762	53895.15
617.118	53865.09
617.475	53858.77
617.831	53997.75
618.187	53911.2
618.543	53846.34
618.899	54111.42
619.255	53950.29
619.611	53887.47
619.967	54000.23
620.323	54060.12
620.678	53913.23
621.034	53821.25
621.39	53872.33
621.746	53901.48
622.101	54105.77
622.457	53880.91
622.812	54003.17
623.168	54012.21
623.523	53959.78
623.879	54044.07
624.234	53889.28
624.589	53952.32
624.945	53977.18
625.3	53935.15
625.655	53957.3
626.01	53905.32
626.365	53904.19
626.72	53873
627.075	53819.22
627.43	53893.12
627.785	53750.75
628.14	53793.68
628.495	53830.75
628.85	53724.08
629.205	53647.93
629.559	53865.09
629.914	53807.02
630.269	53652.67
630.623	53669.39
630.978	53589.4
631.332	53582.39
631.687	53653.35
632.041	53489.51
632.396	53527.7
632.75	53322.28
633.104	53506.46
633.459	53245
633.813	53271.21
634.167	53225.79
634.521	53335.62
634.875	53247.48
635.229	53087.94
635.583	53004.78
635.937	52967.27
636.291	52992.35
636.645	52945.8
636.999	52849.3
637.352	52835.97
637.706	52631.46
638.06	52774.28
638.413	52703.09
638.767	52682.98
639.121	52593.04
639.474	52409.99
639.828	52538.12
640.181	52537.22
640.534	52329.99
640.888	52320.95
641.241	52203.44
641.594	52166.16
641.947	52260.17
642.301	52199.38
642.654	52192.6
643.007	52098.36
643.36	52065.82
643.713	52029.21
644.066	52127.51
644.419	51820.18
644.771	51654.08
645.124	51292.06
645.477	51135
645.83	50908.79
646.182	50873.08
646.535	50779.53
646.888	50837.83
647.24	50677.16
647.593	50897.72
647.945	50843.48
648.298	50673.77
648.65	50445.75
649.002	50344.51
649.355	50396.94
649.707	50372.98
650.059	50548.12
650.411	50874.67
650.763	50858.17
651.115	51227.65
651.467	51036.92
651.819	51026.07
652.171	50879.64
652.523	50785.85
652.875	50764.39
653.227	50705.4
653.578	50952.18
653.93	50722.13
654.282	50598.06
654.633	50459.08
654.985	50551.51
655.337	50508.57
655.688	50526.2
656.039	50609.36
656.391	50313.55
656.742	50355.13
657.094	50352.64
657.445	50375.92
657.796	50175.47
658.147	50169.82
658.498	50096.83
658.849	50273.1
659.2	50162.59
659.551	50081.47
659.902	50104.29
660.253	50022.26
660.604	50142.26
660.955	49930.51
661.306	50074.01
661.656	49911.53
662.007	49962.15
662.358	50025.2
662.708	49881.24
663.059	49865.2
663.409	49684.64
663.76	49876.95
664.11	49669.27
664.461	49718.09
664.811	49613.46
665.161	49625.21
665.511	49590.18
665.862	49555.83
666.212	49646.67
666.562	49547.02
666.912	49520.35
667.262	49372.11
667.612	49584.76
667.962	49553.57
668.312	49402.16
668.662	49547.69
669.011	49486.23
669.361	49271.54
669.711	49304.76
670.06	49135.28
670.41	49100.02
670.76	49158.55
671.109	49234.48
671.459	49012.57
671.808	49006.24
672.157	49120.81
672.507	48774.16
672.856	48780.26
673.205	48885.79
673.554	49002.17
673.904	48797.43
674.253	48935.28
674.602	48770.77
674.951	48233.38
675.3	48220.27
675.649	48705.23
675.998	48631.11
676.346	48559.02
676.695	48776.87
677.044	48476.31
677.393	48573.26
677.741	48545.69
678.09	48250.1
678.438	48163.32
678.787	48340.95
679.135	48332.81
679.484	47825.03
679.832	48189.99
680.181	47881.75
680.529	47955.65
680.877	47784.8
681.225	47854.63
681.573	47987.74
681.922	47635.88
682.27	47684.47
682.618	47641.53
682.966	47449.9
683.314	47621.19
683.661	47478.37
684.009	47256.68
684.357	47106.63
684.705	46953.86
685.053	47089.45
685.4	46959.29
685.748	46788.44
686.095	46931.49
686.443	46738.5
686.79	46678.39
687.138	46841.78
687.485	46702.8
687.832	46466.87
688.18	46516.59
688.527	46290.38
688.874	46094.9
689.221	46171.74
689.568	45937.85
689.915	45789.15
690.262	45745.08
690.609	45702.37
690.956	45702.15
691.303	45552.55
691.65	45386.9
691.997	45384.19
692.344	45077.3
692.69	44887.7
693.037	44924.31
693.383	44681.61
693.73	44820.14
694.077	44514.61
694.423	44369.53
694.769	44407.49
695.116	44166.82
695.462	44171.79
695.808	43994.85
696.155	44030.55
696.501	43689.09
696.847	43799.82
697.193	43337.91
697.539	43635.08
697.885	43250.23
698.231	43129.11
698.577	42976.57
698.923	43091.14
699.269	42824.03
699.614	42540.42
699.96	42571.61
700.306	42423.81
700.651	42346.53
700.997	42189.24
701.342	42030.6
701.688	42063.15
702.033	41901.79
702.379	41951.28
702.724	41720.1
703.069	41890.49
703.415	41312.2
703.76	41461.13
704.105	41381.81
704.45	41241.92
704.795	40936.4
705.14	40952.21
705.485	40893.23
705.83	40768.49
706.175	40641.94
706.52	40575.5
706.865	40395.17
707.209	40308.39
707.554	40070.88
707.899	40354.26
708.243	40115.4
708.588	39977.55
708.932	39716.31
709.277	39705.02
709.621	39651.68
709.966	39422.76
710.31	39509.31
710.654	39031.13
710.998	39246.72
711.342	39150
711.687	39068.42
712.031	38998.37
712.375	38746.85
712.719	38818.94
713.063	38677.92
713.407	38887.18
713.75	38641.31
714.094	38517.25
714.438	38268.67
714.782	38389.34
715.125	38263.92
715.469	38304.15
715.812	38094.66
716.156	37809.7
716.499	37836.36
716.843	37829.81
717.186	37504.85
717.53	37731.51
717.873	37637.27
718.216	37503.49
718.559	37381.69
718.902	37150.51
719.246	37388.92
719.589	37219.43
719.932	36957.97
720.275	37062.37
720.617	36915.03
720.96	36751.65
721.303	36736.51
721.646	36809.05
721.989	36598.88
722.331	36685.66
722.674	36574.02
723.016	36566.79
723.359	36416.97
723.701	36313.01
724.044	36049.07
724.386	35978.11
724.729	36092.68
725.071	35985.34
725.413	35789.19
725.755	35767.94
726.097	35601.17
726.439	35499.48
726.782	35550.32
727.124	35727.27
727.465	35525.24
727.807	35352.36
728.149	35389.42
728.491	35183.33
728.833	35338.58
729.175	35127.73
729.516	35249.09
729.858	35050.9
730.199	34999.6
730.541	34797.57
730.882	34874.63
731.224	34811.36
731.565	34631.93
731.906	34696.79
732.248	34644.13
732.589	34419.28
732.93	34379.05
733.271	34344.03
733.612	34375.44
733.953	34328.89
734.294	34217.02
734.635	34144.94
734.976	34120.08
735.317	33994.43
735.658	33970.25
735.999	33994.21
736.339	33826.98
736.68	33995.33
737.021	33740.2
737.361	33581.11
737.702	33800.76
738.042	33606.64
738.383	33424.05
738.723	33515.57
739.063	33373.66
739.404	33517.38
739.744	33292.08
740.084	33111.06
740.424	33180.89
740.764	33099.99
741.104	33178.63
741.444	33052.08
741.784	32901.13
742.124	33085.08
742.464	32880.79
742.804	32784.75
743.143	32614.35
743.483	32635.6
743.823	32552.44
744.162	32451.65
744.502	32608.25
744.841	32499.78
745.181	32481.48
745.52	32198.09
745.86	32104.99
746.199	32240.35
746.538	32082.84
746.877	32089.62
747.216	32075.16
747.556	31970.98
747.895	31800.82
748.234	31630.2
748.573	31697.77
748.911	31660.93
749.25	31521.28
749.589	31322.41
749.928	31446.25
750.267	31493.03
750.605	31347.04
750.944	31225.01
751.283	31181.4
751.621	31366.25
751.96	31055.07
752.298	31019.82
752.636	31018.69
752.975	30837.68
753.313	30658.7
753.651	30942.08
753.989	30716.78
754.327	30618.7
754.666	30502.32
755.004	30436.78
755.342	30354.75
755.679	30308.88
756.017	30102.33
756.355	30238.37
756.693	30064.14
757.031	30053.97
757.368	29888.78
757.706	29780.53
758.044	29686.52
758.381	29641.78
758.719	29568.56
759.056	29554.1
759.394	29462.12
759.731	29178.06
760.068	29016.48
760.405	29159.3
760.743	28984.39
761.08	29116.14
761.417	28888.35
761.754	28828.69
762.091	28688.36
762.428	28722.48
762.765	28415.82
763.102	28513.45
763.438	28341.7
763.775	28110.07
764.112	28089.73
764.449	28139.22
764.785	27989.39
765.122	27849.73
765.458	27699
765.795	27679.34
766.131	27512.34
766.467	27545.34
766.804	27290.65
767.14	27047.72
767.476	27045.69
767.812	27014.73
768.148	27022.18
768.485	26909.65
768.821	26794.39
769.157	26743.32
769.492	26537.68
769.828	26632.36
770.164	26396.66
770.5	26299.27
770.836	26266.95
771.171	26056.79
771.507	26060.4
771.842	25954.87
772.178	25838.71
772.513	25765.95
772.849	25628.55
773.184	25649.34
773.519	25518.95
773.855	25409.35
774.19	25263.36
774.525	25215
774.86	25178.62
775.195	25184.95
775.53	25019.53
775.865	24921.22
776.2	24723.04
776.535	24509.03
776.87	24493.66
777.205	24413.89
777.539	24233.33
777.874	24266.1
778.209	24120.57
778.543	23995.6
778.878	23962.38
779.212	23998.08
779.547	23684.42
779.881	23709.73
780.215	23524.65
780.55	23675.15
780.884	23382.05
781.218	23400.81
781.552	23222.74
781.886	23151.55
782.22	23028.62
782.554	22933.25
782.888	22782.3
783.222	22704.11
783.556	22492.36
783.889	22512.92
784.223	22437.67
784.557	22424.11
784.89	22445.81
785.224	22178.47
785.557	21999.27
785.891	22002.43
786.224	22034.97
786.558	21944.58
786.891	21794.3
787.224	21648.09
787.557	21684.92
787.891	21618.03
788.224	21527.41
788.557	21411.71
788.89	21370.58
789.223	21451.48
789.556	21174.66
789.888	21035.9
790.221	21023.92
790.554	20896.47
790.887	20871.84
791.219	20710.71
791.552	20840.2
791.884	20676.36
792.217	20593.88
792.549	20449.25
792.882	20348.69
793.214	20242.02
793.546	20292.42
793.879	20128.58
794.211	20074.57
794.543	20059.43
794.875	19983.27
795.207	20040.45
795.539	19812.66
795.871	19816.05
796.203	19691.76
796.535	19644.53
796.867	19542.61
797.198	19447.24
797.53	19442.95
797.862	19348.26
798.193	19330.86
798.525	19214.71
798.856	19105.56
799.188	18854.72
799.519	18978.55
799.85	18797.54
800.182	18868.5
800.513	18870.08
800.844	18624.89
801.175	18692.23
801.506	18805
801.837	18579.02
802.168	18623.31
802.499	18468.74
802.83	18408.4
803.161	18283.21
803.491	18329.98
803.822	18268.74
804.153	18145.81
804.483	17944.68
804.814	17946.94
805.145	17911.69
805.475	17882.99
805.805	17753.5
806.136	17777.91
806.466	17724.35
806.796	17768.19
807.126	17638.48
807.457	17562.55
807.787	17457.01
808.117	17330.91
808.447	17292.05
808.777	17319.62
809.107	17200.07
809.436	17224.93
809.766	17292.05
810.096	17119.62
810.426	17017.93
810.755	17112.16
811.085	17001.43
811.414	16884.37
811.744	16803.7
812.073	16717.15
812.403	16793.53
812.732	16665.4
813.061	16655.23
813.39	16630.82
813.719	16584.27
814.049	16654.1
814.378	16438.96
814.707	16392.18
815.036	16433.08
815.365	16376.59
815.693	16147.89
816.022	16278.29
816.351	16191.74
816.68	16143.37
817.008	16149.93
817.337	16034.68
817.665	15863.38
817.994	15940.67
818.322	16040.33
818.651	15812.08
818.979	15739.77
819.307	15895.47
819.636	15823.61
819.964	15674.46
820.292	15708.36
820.62	15692.99
820.948	15706.32
821.276	15684.63
821.604	15613.67
821.932	15666.33
822.259	15578.64
822.587	15661.35
822.915	15556.72
823.243	15537.29
823.57	15431.3
823.898	15627.46
824.225	15430.4
824.553	15516.05
824.88	15529.15
825.207	15607.57
825.535	15412.09
825.862	15596.95
826.189	15475.82
826.516	15562.6
826.843	15622.26
827.17	15541.81
827.497	15491.87
827.824	15398.31
828.151	15448.25
828.478	15452.32
828.805	15526.89
829.131	15403.96
829.458	15369.16
829.785	15339.33
830.111	15308.14
830.438	15441.47
830.764	15456.61
831.09	15363.28
831.417	15294.13
831.743	15360.57
832.069	15426.11
832.395	15236.05
832.722	15300.23
833.048	15264.53
833.374	15366.45
833.7	15328.71
834.026	15235.15
834.351	15276.28
834.677	15265.21
835.003	15294.13
835.329	15231.53
835.654	15176.17
835.98	15116.51
836.306	15154.7
836.631	15144.31
836.956	15163.74
837.282	15057.08
837.607	15013.24
837.932	15029.28
838.258	15014.14
838.583	15010.52
838.908	14989.06
839.233	15020.01
839.558	14947.02
839.883	14846.23
840.208	14764.88
840.533	14853.92
840.858	14814.37
841.182	14811.21
841.507	14829.51
841.832	14639.69
842.156	14677.2
842.481	14539.12
842.805	14619.57
843.13	14540.93
843.454	14463.19
843.778	14494.6
844.103	14392.91
844.427	14502.97
844.751	14359.69
845.075	14453.93
845.399	14338
845.723	14281.05
846.047	14271.11
846.371	14204.22
846.695	14206.7
847.019	14003.09
847.343	13976.2
847.666	13943.88
847.99	13867.73
848.313	13855.98
848.637	13761.29
848.96	13789.09
849.284	13765.58
849.607	13661.18
849.931	13632.25
850.254	13642.65
850.577	13442.66
850.9	13311.36
851.223	13348.87
851.546	13302.55
851.869	13177.58
852.192	13315.65
852.515	13167.41
852.838	13086.51
853.161	13037.92
853.483	12993.85
853.806	12941.65
854.129	12973.06
854.451	12891.94
854.774	12790.69
855.096	12775.78
855.419	12716.35
855.741	12694.2
856.063	12611.49
856.385	12654.43
856.708	12582.79
857.03	12539.18
857.352	12596.12
857.674	12471.16
857.996	12466.86
858.318	12398.16
858.64	12294.66
858.961	12275.68
859.283	12245.17
859.605	12221.9
859.926	12246.53
860.248	12224.83
860.57	12174.89
860.891	12220.31
861.212	12162.01
861.534	12139.86
861.855	12123.37
862.176	12083.82
862.498	12135.34
862.819	12102.8
863.14	12048.12
863.461	11980.55
863.782	11996.59
864.103	11934.9
864.424	11902.36
864.745	11996.37
865.065	11977.83
865.386	11879.31
865.707	11916.14
866.027	11860.78
866.348	11806.31
866.668	11899.19
866.989	11763.38
867.309	11647.9
867.63	11642.93
867.95	11671.4
868.27	11578.3
868.59	11633.66
868.91	11615.13
869.23	11644.28
869.55	11613.1
869.87	11657.62
870.19	11607.68
870.51	11616.04
870.83	11589.14
871.15	11464.63
871.469	11569.71
871.789	11540.11
872.109	11471.63
872.428	11429.6
872.748	11486.32
873.067	11368.59
873.386	11476.38
873.706	11365.65
874.025	11267.57
874.344	11292.43
874.663	11270.51
874.982	11320.45
875.301	11301.69
875.62	11286.1
875.939	11144.64
876.258	11239.32
876.577	11271.64
876.896	11234.8
877.214	11189.15
877.533	11195.71
877.852	11187.57
878.17	11179.44
878.489	11138.76
878.807	11144.18
879.125	11064.19
879.444	11072.1
879.762	11095.15
880.08	11086.11
880.398	10921.37
880.716	11026
881.034	10951.65
881.352	10927.47
881.67	10959.33
881.988	11001.59
882.306	10875.72
882.624	10886.56
882.941	10833.01
883.259	10832.1
883.577	10901.25
883.894	10813.35
884.212	10791.43
884.529	10801.37
884.846	10755.95
885.164	10715.27
885.481	10575.39
885.798	10706
886.115	10600.7
886.432	10535.84
886.75	10526.35
887.067	10523.64
887.383	10440.47
887.7	10448.38
888.017	10464.43
888.334	10526.35
888.651	10484.77
888.967	10422.85
889.284	10393.92
889.6	10342.62
889.917	10263.08
890.233	10243.87
890.55	10238.9
890.866	10304.88
891.182	10202.51
891.498	10161.39
891.815	10147.83
892.131	10116.87
892.447	10167.26
892.763	10051.33
893.079	10044.55
893.395	10014.72
893.71	10016.98
894.026	10001.16
894.342	9952.58
894.657	9884.1
894.973	9901.05
895.289	9855.4
895.604	9801.39
895.92	9798.46
896.235	9686.82
896.55	9697.89
896.865	9696.99
897.181	9667.39
897.496	9664.9
897.811	9565.92
898.126	9607.05
898.441	9546.94
898.756	9569.99
899.071	9488.63
899.386	9470.78
899.7	9446.15
900.015	9355.98
900.33	9323.22
900.644	9318.02
900.959	9360.05
901.273	9271.24
901.588	9213.16
901.902	9219.72
902.216	9187.85
902.531	9137.23
902.845	9173.39
903.159	9036.44
903.473	9043.22
903.787	9015.88
904.101	8969.1
904.415	8956.45
904.729	8839.39
905.042	8818.37
905.356	8822.21
905.67	8776.56
905.984	8834.41
906.297	8774.08
906.611	8706.06
906.924	8803
907.237	8642.1
907.551	8620.41
907.864	8624.7
908.177	8590.81
908.491	8575.44
908.804	8491.15
909.117	8448.66
909.43	8460.19
909.743	8345.16
910.056	8314.2
910.368	8320.98
910.681	8343.81
910.994	8278.05
911.307	8212.51
911.619	8160.76
911.932	8213.64
912.244	8079.18
912.557	8143.36
912.869	8101.55
913.181	8085.73
913.494	8002.35
913.806	7929.81
914.118	7894.33
914.43	7853.42
914.742	7886.87
915.054	7861.56
915.366	7823.59
915.678	7822.24
915.99	7712.86
916.302	7719.87
916.613	7647.1
916.925	7590.83
917.236	7637.61
917.548	7592.87
917.859	7622.24
918.171	7533.21
918.482	7489.82
918.794	7437.62
919.105	7416.6
919.416	7370.27
919.727	7448.69
920.038	7364.4
920.349	7304.96
920.66	7218.19
920.971	7264.96
921.282	7205.3
921.593	7232.2
921.903	7163.72
922.214	7104.29
922.525	7102.48
922.835	7078.98
923.146	6983.39
923.456	7015.93
923.767	6956.95
924.077	6965.09
924.387	6892.77
924.697	6874.92
925.008	6903.62
925.318	6883.73
925.628	6841.02
925.938	6815.03
926.248	6705.88
926.558	6689.16
926.867	6725.77
927.177	6678.31
927.487	6585.89
927.796	6598.99
928.106	6550.86
928.416	6523.97
928.725	6523.51
929.034	6492.56
929.344	6516.28
929.653	6509.73
929.962	6428.83
930.271	6392.67
930.581	6359.45
930.89	6292.79
931.199	6259.79
931.508	6310.41
931.817	6284.43
932.125	6215.27
932.434	6243.3
932.743	6161.49
933.051	6146.8
933.36	6102.74
933.669	6029.74
933.977	6029.06
934.286	6034.71
934.594	6035.17
934.902	5986.13
935.21	5992.46
935.519	5948.61
935.827	5939.12
936.135	5907.94
936.443	5807.83
936.751	5773.25
937.059	5808.73
937.367	5725.12
937.674	5778.68
937.982	5784.55
938.29	5705.68
938.597	5729.19
938.905	5666.36
939.213	5621.62
939.52	5627.72
939.827	5596.31
940.135	5584.33
940.442	5531.68
940.749	5525.35
941.056	5521.73
941.363	5495.29
941.67	5407.61
941.977	5423.2
942.284	5391.57
942.591	5380.95
942.898	5342.08
943.205	5346.82
943.511	5280.16
943.818	5321.51
944.125	5258.46
944.431	5243.1
944.738	5223.44
945.044	5249.42
945.35	5174.17
945.657	5142.53
945.963	5167.17
946.269	5126.72
946.575	5121.07
946.881	5044.91
947.187	5065.7
947.493	5004.46
947.799	5054.4
948.105	4964.91
948.41	4896.67
948.716	4967.85
949.022	4901.64
949.327	4900.51
949.633	4850.56
949.938	4831.81
950.244	4873.84
950.549	4806.27
950.854	4764.69
951.16	4777.57
951.465	4766.27
951.77	4725.6
952.075	4713.62
952.38	4633.85
952.685	4630.68
952.99	4599.95
953.294	4564.47
953.599	4628.65
953.904	4553.4
954.209	4544.36
954.513	4564.24
954.818	4519.5
955.122	4496.68
955.426	4522.89
955.731	4457.13
956.035	4400.86
956.339	4425.26
956.643	4402.67
956.948	4397.47
957.252	4382.1
957.556	4358.37
957.86	4292.61
958.163	4299.17
958.467	4308.21
958.771	4222.33
959.075	4234.76
959.378	4246.51
959.682	4230.47
959.985	4187.98
960.289	4207.42
960.592	4195.44
960.896	4157.7
961.199	4083.58
961.502	4114.99
961.805	4092.17
962.108	4052.85
962.411	4025.95
962.714	4027.31
963.017	4027.76
963.32	4023.47
963.623	4008.55
963.926	3987.31
964.228	3947.31
964.531	3899.4
964.833	3891.04
965.136	3862.34
965.438	3876.58
965.741	3866.18
966.043	3885.17
966.345	3854.66
966.648	3781.21
966.95	3802.46
967.252	3812.85
967.554	3801.78
967.856	3780.54
968.158	3710.93
968.46	3709.13
968.761	3700.99
969.063	3674.78
969.365	3662.8
969.666	3632.52
969.968	3588.22
970.269	3590.03
970.571	3602.24
970.872	3594.1
971.174	3548
971.475	3559.07
971.776	3569.92
972.077	3507.77
972.378	3526.53
972.679	3486.98
972.98	3505.06
973.281	3453.31
973.582	3479.98
973.883	3434.1
974.183	3434.56
974.484	3418.74
974.785	3357.27
975.085	3402.69
975.386	3402.69
975.686	3312.75
975.986	3350.04
976.287	3293.54
976.587	3290.38
976.887	3270.27
977.187	3258.52
977.487	3261.68
977.787	3185.3
978.087	3209.48
978.387	3204.96
978.687	3205.64
978.987	3208.8
979.286	3161.57
979.586	3180.33
979.885	3143.26
980.185	3090.16
980.484	3110.27
980.784	3097.39
981.083	3101.91
981.382	3063.72
981.682	3072.08
981.981	3033.21
982.28	3013.32
982.579	3030.95
982.878	3030.95
983.177	2999.77
983.475	2968.58
983.774	2931.07
984.073	2948.24
984.372	2919.99
984.67	2931.97
984.969	2927.45
985.267	2900.11
985.566	2907.56
985.864	2895.14
986.162	2847.23
986.461	2844.06
986.759	2843.16
987.057	2830.05
987.355	2792.77
987.653	2812.88
987.951	2732.88
988.249	2708.93
988.547	2756.38
988.844	2713.67
989.142	2721.13
989.44	2697.63
989.737	2688.59
990.035	2679.55
990.332	2644.75
990.63	2684.52
990.927	2644.07
991.224	2650.62
991.521	2604.97
991.819	2595.03
992.116	2588.25
992.413	2614.24
992.71	2559.33
993.006	2541.02
993.303	2568.36
993.6	2553.45
993.897	2500.34
994.193	2494.69
994.49	2481.14
994.787	2464.19
995.083	2452.66
995.379	2475.94
995.676	2411.53
995.972	2429.16
996.268	2428.93
996.565	2412.44
996.861	2404.75
997.157	2396.62
997.453	2353.46
997.749	2343.29
998.044	2325.66
998.34	2314.13
998.636	2333.79
998.932	2297.86
999.227	2302.16
999.523	2268.03
999.818	2328.6
1000.114	2261.93
1000.409	2250.63
1000.704	2233.91
1001	2216.28
1001.295	2227.58
1001.59	2207.7
1001.885	2204.31
1002.18	2166.79
1002.475	2159.34
1002.77	2140.35
1003.065	2153.01
1003.359	2138.55
1003.654	2120.24
1003.949	2106.68
1004.243	2119.11
1004.538	2090.64
1004.832	2094.7
1005.127	2036.85
1005.421	2074.59
1005.715	2023.52
1006.009	2051.09
1006.304	2012
1006.598	1983.97
1006.892	1984.2
1007.186	2004.09
1007.48	1968.15
1007.773	1961.37
1008.067	1948.72
1008.361	1910.98
1008.655	1913.24
1008.948	1897.65
1009.242	1915.05
1009.535	1882.06
1009.829	1848.84
1010.122	1882.96
1010.415	1873.47
1010.708	1870.53
1011.001	1821.49
1011.295	1821.04
1011.588	1837.54
1011.881	1817.42
1012.173	1788.5
1012.466	1805.67
1012.759	1793.92
1013.052	1784.43
1013.344	1776.97
1013.637	1801.15
1013.93	1749.86
1014.222	1732
1014.514	1731.1
1014.807	1693.59
1015.099	1725.67
1015.391	1687.03
1015.683	1693.36
1015.976	1654.49
1016.268	1671.67
1016.56	1620.59
1016.851	1635.51
1017.143	1628.28
1017.435	1605.68
1017.727	1597.09
1018.018	1611.1
1018.31	1565
1018.602	1576.75
1018.893	1554.38
1019.185	1562.74
1019.476	1538.34
1019.767	1539.47
1020.058	1513.03
1020.35	1506.92
1020.641	1495.17
1020.932	1461.5
1021.223	1491.1
1021.514	1475.06
1021.804	1462.63
1022.095	1450.88
1022.386	1410.65
1022.677	1415.85
1022.967	1428.06
1023.258	1377.44
1023.548	1409.53
1023.839	1395.06
1024.129	1395.06
1024.419	1387.38
1024.709	1363.42
1025	1361.62
1025.29	1337.89
1025.58	1339.92
1025.87	1339.02
1026.16	1311.9
1026.449	1303.31
1026.739	1287.27
1027.029	1290.66
1027.319	1264.9
1027.608	1269.87
1027.898	1277.78
1028.187	1262.86
1028.477	1270.77
1028.766	1247.5
1029.055	1198.23
1029.344	1238.91
1029.634	1209.53
1029.923	1216.08
1030.212	1186.71
1030.501	1191.23
1030.79	1203.43
1031.078	1191.23
1031.367	1152.36
1031.656	1154.84
1031.945	1171.34
1032.233	1165.92
1032.522	1157.1
1032.81	1111.68
1033.099	1142.64
1033.387	1132.47
1033.675	1104.45
1033.963	1109.65
1034.251	1129.53
1034.54	1085.24
1034.828	1110.32
1035.116	1070.1
1035.403	1085.01
1035.691	1056.31
1035.979	1049.31
1036.267	1040.95
1036.554	1028.74
1036.842	1046.37
1037.129	1038.91
1037.417	1021.74
1037.704	1017.67
1037.992	1000.72
1038.279	976.09
1038.566	999.59
1038.853	999.59
1039.14	999.59
