Data from foil_FLMS001491_042.txt Node
Date: Tue Feb 07 11:26:56 GMT 2017
User: dcchb
Spectrometer: FLMS00149
Trigger mode: 0
Integration Time (sec): 2.000000E-2
Scans to average: 10
Electric dark correction enabled: true
Nonlinearity correction enabled: false
Boxcar width: 0
XAxis mode: Wavelengths
Number of Pixels in Spectrum: 2048
>>>>>Begin Spectral Data<<<<<
341.393	-5.64
341.776	-5.64
342.16	-5.64
342.543	-57.16
342.927	-81.57
343.31	-82.24
343.693	-70.94
344.077	-59.65
344.46	-52.41
344.843	-27.78
345.226	-40.21
345.61	-11.29
345.993	-18.97
346.376	-26.2
346.759	7.92
347.142	13.57
347.525	51.76
347.908	49.28
348.291	80.01
348.674	101.25
349.057	85.89
349.44	127.02
349.823	141.93
350.206	161.59
350.588	258.31
350.971	270.29
351.354	294.02
351.737	269.16
352.119	309.38
352.502	323.4
352.884	316.84
353.267	350.06
353.65	366.11
354.032	368.82
354.414	379.89
354.797	384.64
355.179	371.76
355.562	401.36
355.944	389.38
356.326	392.09
356.709	380.57
357.091	418.76
357.473	427.57
357.855	417.18
358.238	423.05
358.62	410.17
359.002	416.05
359.384	417.18
359.766	392.77
360.148	413.56
360.53	416.5
360.912	425.77
361.294	413.79
361.676	419.44
362.057	409.72
362.439	406.78
362.821	409.49
363.203	410.4
363.584	430.06
363.966	414.24
364.348	408.36
364.729	446.1
365.111	412.21
365.493	415.82
365.874	413.34
366.256	419.44
366.637	432.77
367.019	422.83
367.4	453.11
367.781	448.82
368.163	431.42
368.544	429.16
368.925	419.21
369.306	448.36
369.688	448.14
370.069	447.69
370.45	444.52
370.831	444.52
371.212	450.17
371.593	452.21
371.974	455.82
372.355	455.37
372.736	454.01
373.117	456.73
373.498	467.12
373.879	469.38
374.26	427.8
374.641	431.64
375.021	459.89
375.402	477.74
375.783	486.56
376.163	515.03
376.544	504.86
376.925	486.33
377.305	500.11
377.686	481.58
378.066	530.62
378.447	507.12
378.827	481.13
379.208	519.32
379.588	514.58
379.968	527.46
380.349	545.08
380.729	536.72
381.109	530.62
381.489	553.22
381.87	556.38
382.25	580.79
382.63	549.6
383.01	558.87
383.39	574.01
383.77	598.19
384.15	596.83
384.53	616.95
384.91	617.4
385.29	615.37
385.67	603.84
386.049	616.27
386.429	612.43
386.809	635.7
387.189	658.98
387.568	654.01
387.948	652.43
388.328	651.97
388.707	654.91
389.087	674.35
389.466	672.09
389.846	686.1
390.225	703.5
390.605	704.63
390.984	701.46
391.363	699.88
391.743	715.48
392.122	723.84
392.501	740.79
392.881	737.62
393.26	774.91
393.639	780.56
394.018	771.97
394.397	786.66
394.776	782.14
395.155	790.73
395.534	793.89
395.913	789.15
396.292	806.77
396.671	839.99
397.05	823.95
397.429	815.59
397.808	840.44
398.186	861.01
398.565	866.21
398.944	876.83
399.323	886.32
399.701	870.05
400.08	891.29
400.458	909.14
400.837	921.35
401.215	929.71
401.594	925.64
401.972	920.67
402.351	947.33
402.729	968.58
403.107	956.15
403.486	970.16
403.864	970.84
404.242	984.17
404.62	1004.51
404.999	1009.25
405.377	1040.89
405.755	1048.35
406.133	1041.34
406.511	1044.05
406.889	1064.84
407.267	1094.45
407.645	1115.92
408.023	1117.05
408.401	1136.71
408.779	1148.68
409.156	1168.57
409.534	1166.09
409.912	1182.13
410.29	1204.28
410.667	1216.25
411.045	1230.26
411.422	1258.96
411.8	1276.14
412.178	1311.62
412.555	1308
412.933	1313.88
413.31	1366.76
413.687	1385.97
414.065	1371.28
414.442	1401.11
414.819	1411.5
415.197	1427.1
415.574	1443.37
415.951	1460.77
416.328	1491.73
416.705	1481.33
417.082	1507.55
417.46	1495.57
417.837	1534.44
418.214	1514.1
418.591	1550.26
418.967	1549.35
419.344	1624.15
419.721	1601.33
420.098	1609.69
420.475	1626.19
420.852	1653.53
421.228	1682
421.605	1682.23
421.982	1691.04
422.358	1672.29
422.735	1731.49
423.111	1725.39
423.488	1798.61
423.864	1770.59
424.241	1807.88
424.617	1807.42
424.994	1825.05
425.37	1855.11
425.746	1892.17
426.123	1900.3
426.499	1889.91
426.875	1908.21
427.251	1960.64
427.627	2019.62
428.003	1998.15
428.379	2034.99
428.756	2058.49
429.132	2094.65
429.507	2120.64
429.883	2133.74
430.259	2201.99
430.635	2208.09
431.011	2198.83
431.387	2262.1
431.763	2302.1
432.138	2341.42
432.514	2333.74
432.89	2347.75
433.265	2428.65
433.641	2429.1
434.016	2483.34
434.392	2511.36
434.767	2556.78
435.143	2548.87
435.518	2596.78
435.894	2584.8
436.269	2650.34
436.644	2713.39
437.02	2725.37
437.395	2727.85
437.77	2786.61
438.145	2799.26
438.52	2857.57
438.895	2865.25
439.271	2874.06
439.646	2944.12
440.021	2932.37
440.395	2973.27
440.77	2967.85
441.145	3003.78
441.52	3054.85
441.895	3107.28
442.27	3088.29
442.645	3136.2
443.019	3181.63
443.394	3149.31
443.769	3165.58
444.143	3167.39
444.518	3203.77
444.892	3238.8
445.267	3252.81
445.641	3307.27
446.016	3340.94
446.39	3379.59
446.764	3345.46
447.139	3352.69
447.513	3414.84
447.887	3455.97
448.262	3438.79
448.636	3466.82
449.01	3550.43
449.384	3592.24
449.758	3584.78
450.132	3672.91
450.506	3638.79
450.88	3702.97
451.254	3679.69
451.628	3724.21
452.002	3792.91
452.376	3837.88
452.75	3822.96
453.123	3923.07
453.497	3895.5
453.871	3996.75
454.244	4030.19
454.618	4043.07
454.992	4134.82
455.365	4074.03
455.739	4231.77
456.112	4249.62
456.486	4313.35
456.859	4320.8
457.232	4403.51
457.606	4422.72
457.979	4443.74
458.352	4525.54
458.725	4612.32
459.099	4622.49
459.472	4689.61
459.845	4778.65
460.218	4799.44
460.591	4843.73
460.964	4881.92
461.337	4965.31
461.71	5033.33
462.083	5086.66
462.456	5107.68
462.829	5158.07
463.201	5186.54
463.574	5247.33
463.947	5298.63
464.32	5374.34
464.692	5466.76
465.065	5488.23
465.438	5569.36
465.81	5603.03
466.183	5744.95
466.555	5823.59
466.928	5834.21
467.3	5870.82
467.672	5954.21
468.045	6131.38
468.417	6146.97
468.789	6180.19
469.161	6180.42
469.534	6343.8
469.906	6467.41
470.278	6548.99
470.65	6549.45
471.022	6702.21
471.394	6812.49
471.766	6879.83
472.138	6977.01
472.51	7090.22
472.882	7273.72
473.253	7338.8
473.625	7416.54
473.997	7581.06
474.369	7612.92
474.74	7652.02
475.112	7876.64
475.484	7941.27
475.855	8129.97
476.227	8184.43
476.598	8426.91
476.97	8444.99
477.341	8653.57
477.713	8776.96
478.084	8781.03
478.455	9056.73
478.827	9182.15
479.198	9476.15
479.569	9397.73
479.94	9667.56
480.311	9743.03
480.682	9970.6
481.053	10204.72
481.424	10404.94
481.795	10477.48
482.166	10557.93
482.537	10736.23
482.908	10970.12
483.279	11032.94
483.65	11256.44
484.021	11439.49
484.391	11608.75
484.762	11794.28
485.133	11776.43
485.503	12013.71
485.874	12332.57
486.244	12385.45
486.615	12624.31
486.985	12762.39
487.356	12986.79
487.726	13098.65
488.097	13312.21
488.467	13455.25
488.837	13668.13
489.207	13880.1
489.578	14021.57
489.948	14197.38
490.318	14530.03
490.688	14471.05
491.058	14739.51
491.428	14953.29
491.798	15045.04
492.168	15349.44
492.538	15421.98
492.908	15455.43
493.278	15707.4
493.648	15765.48
494.017	15897.45
494.387	16152.58
494.757	16321.39
495.126	16475.06
495.496	16487.49
495.866	16634.83
496.235	16822.4
496.605	17035.27
496.974	17131.32
497.344	17193.46
497.713	17390.74
498.082	17488.82
498.452	17714.8
498.821	17836.61
499.19	17823.95
499.559	17972.65
499.928	18246.31
500.298	18235.24
500.667	18377.38
501.036	18448.34
501.405	18592.07
501.774	18691.05
502.143	18842.46
502.512	18870.93
502.88	19204.48
503.249	19238.38
503.618	19348.21
503.987	19382.33
504.356	19548.65
504.724	19707.52
505.093	19746.61
505.462	19917.68
505.83	20096.43
506.199	20159.48
506.567	20521.28
506.936	20556.99
507.304	20761.28
507.672	20890.54
508.041	20960.14
508.409	21090.98
508.777	21331.66
509.145	21462.05
509.514	21493.46
509.882	21614.81
510.25	21750.85
510.618	21976.39
510.986	22011.64
511.354	22264.29
511.722	22385.41
512.09	22611.62
512.458	22626.54
512.826	22921.45
513.193	22914.67
513.561	23088.45
513.929	23341.1
514.297	23561.65
514.664	23709.9
515.032	23731.37
515.4	24000.51
515.767	24173.84
516.135	24292.26
516.502	24244.12
516.869	24760.49
517.237	24723.66
517.604	24771.57
517.972	25109.64
518.339	25244.1
518.706	25409.74
519.073	25427.14
519.44	25641.83
519.808	26033.23
520.175	26049.72
520.542	26423.95
520.909	26505.53
521.276	26522.48
521.643	26811.51
522.009	27066.65
522.376	27308.45
522.743	27314.1
523.11	27733.75
523.477	27908.88
523.843	28070.01
524.21	28390.68
524.577	28412.83
524.943	28833.61
525.31	28937.78
525.676	29167.61
526.043	29333.71
526.409	29607.15
526.776	29936.4
527.142	29881.94
527.508	30105.89
527.874	30494.81
528.241	30629.49
528.607	30717.17
528.973	31000.78
529.339	30995.81
529.705	31375.23
530.071	31579.07
530.437	31680.99
530.803	32014.54
531.169	32147.42
531.535	32021.55
531.901	32266.96
532.267	32555.77
532.632	32638.25
532.998	32769.55
533.364	32986.04
533.73	33135.41
534.095	33465.12
534.461	33500.6
534.826	33738.79
535.192	33866.24
535.557	34191.88
535.923	34078.44
536.288	34341.26
536.653	34379
537.019	34414.7
537.384	34632.1
537.749	34925.2
538.114	34896.95
538.479	34897.18
538.845	35111.18
539.21	35145.53
539.575	35276.6
539.94	35404.05
540.305	35664.39
540.67	35800.43
541.034	35935.34
541.399	35993.19
541.764	36258.95
542.129	36306.4
542.494	36360.87
542.858	36543.23
543.223	36575.55
543.587	36886.5
543.952	36920.85
544.316	37011.47
544.681	37009.66
545.045	37361.74
545.41	37578.01
545.774	37652.13
546.138	37583.21
546.503	37727.16
546.867	37807.61
547.231	38091.22
547.595	38155.17
547.959	38327.59
548.324	38483.97
548.688	38554.93
549.052	38703.4
549.416	38967.8
549.779	39063.62
550.143	39202.6
550.507	39411.63
550.871	39427.23
551.235	39515.59
551.599	39813.2
551.962	39969.36
552.326	39970.26
552.689	40255.45
553.053	40148.34
553.417	40316.02
553.78	40826.29
554.143	40706.74
554.507	40953.51
554.87	41020.4
555.234	41374.75
555.597	41267.63
555.96	41456.78
556.323	41827.61
556.686	41798.46
557.05	42079.59
557.413	42115.74
557.776	42215.18
558.139	42687.03
558.502	42674.15
558.865	42840.7
559.228	43204.98
559.59	43256.05
559.953	43277.29
560.316	43888.58
560.679	43888.35
561.041	44061.68
561.404	44260.09
561.767	44489.24
562.129	44428.9
562.492	44935.56
562.854	44805.39
563.217	44987.76
563.579	45234.08
563.941	45481.53
564.304	45570.34
564.666	45931.24
565.028	45877.68
565.39	46064.57
565.753	46326.48
566.115	46515.85
566.477	46699.58
566.839	46733.25
567.201	47109.28
567.563	47123.97
567.925	47314.93
568.287	47473.34
568.648	47660.68
569.01	47854.35
569.372	48011.86
569.734	47928.92
570.095	48276.03
570.457	48480.32
570.819	48469.47
571.18	48567.1
571.542	48747.43
571.903	48805.51
572.265	48890.93
572.626	49087.31
572.987	49179.51
573.349	49304.25
573.71	49391.03
574.071	49574.3
574.432	49663.34
574.794	49911.02
575.155	49870.34
575.516	49713.06
575.877	50008.64
576.238	50132.71
576.599	50199.6
576.96	50196.43
577.32	50269.65
577.681	50366.37
578.042	50476.43
578.403	50473.04
578.763	50433.49
579.124	50698.34
579.485	50688.4
579.845	50737.89
580.206	50786.25
580.566	50826.7
580.927	50823.31
581.287	50898.34
581.648	50863.76
582.008	50989.63
582.368	50896.98
582.728	51075.06
583.089	50919.35
583.449	50883.2
583.809	51106.92
584.169	51129.74
584.529	51049.75
584.889	51237.76
585.249	51175.17
585.609	51023.31
585.969	51176.75
586.329	51016.53
586.688	51202.96
587.048	51165.67
587.408	51164.09
587.768	51108.95
588.127	51087.26
588.487	51071.67
588.846	51354.14
589.206	51162.06
589.565	51170.19
589.925	51361.38
590.284	51228.95
590.643	51244.54
591.003	51342.17
591.362	51404.54
591.721	51266.69
592.08	51290.19
592.44	51459.23
592.799	51456.51
593.158	51404.09
593.517	51355.27
593.876	51427.81
594.235	51378.1
594.593	51400.92
594.952	51387.36
595.311	51299.68
595.67	51448.15
596.029	51424.88
596.387	51593.01
596.746	51609.73
597.104	51509.85
597.463	51522.73
597.822	51708.03
598.18	51532.22
598.538	51472.33
598.897	51699.67
599.255	51438.89
599.613	51929.5
599.972	51654.25
600.33	51769.5
600.688	51607.24
601.046	51831.42
601.404	51915.94
601.762	51767.92
602.12	51891.76
602.478	51858.99
602.836	51914.81
603.194	51738.54
603.552	51868.25
603.91	51768.6
604.268	52078.19
604.625	51835.71
604.983	51987.8
605.341	51893.56
605.698	52091.98
606.056	52155.25
606.413	52101.47
606.771	52250.62
607.128	52248.81
607.485	52106.44
607.843	52221.24
608.2	52298.07
608.557	52350.73
608.914	52137.4
609.272	52362.03
609.629	52500.55
609.986	52563.83
610.343	52434.79
610.7	52621.91
611.057	52593.43
611.414	52618.52
611.771	52624.85
612.127	52741.45
612.484	52749.81
612.841	52798.17
613.198	52615.81
613.554	52673.88
613.911	52908.23
614.267	52793.65
614.624	52825.29
614.98	52845.18
615.337	53040.43
615.693	52977.15
616.05	52957.72
616.406	53115.23
616.762	52966.08
617.118	52982.35
617.475	53043.37
617.831	53144.15
618.187	53138.5
618.543	53134.66
618.899	53187.99
619.255	53189.35
619.611	53131.05
619.967	53322.68
620.323	53403.58
620.678	53240.87
621.034	53127.66
621.39	53165.17
621.746	53060.99
622.101	53448.33
622.457	53218.05
622.812	53288.33
623.168	53254.21
623.523	53286.3
623.879	53322
624.234	53187.54
624.589	53292.4
624.945	53322.23
625.3	53256.01
625.655	53260.08
626.01	53212.85
626.365	53298.5
626.72	53232.06
627.075	53254.43
627.43	53228.45
627.785	53181.44
628.14	53209.91
628.495	53309.8
628.85	53155.45
629.205	52996.81
629.559	53190.03
629.914	53011.28
630.269	53024.16
630.623	52966.31
630.978	52912.75
631.332	53044.5
631.687	53064.16
632.041	52837.27
632.396	52947.55
632.75	52796.14
633.104	52913.65
633.459	52753.66
633.813	52697.84
634.167	52770.6
634.521	52666.2
634.875	52797.27
635.229	52672.53
635.583	52451.06
635.937	52481.57
636.291	52446.09
636.645	52545.3
636.999	52411.52
637.352	52428.01
637.706	52240
638.06	52399.77
638.413	52252.65
638.767	52152.32
639.121	52154.57
639.474	52068.48
639.828	52051.98
640.181	52017.4
640.534	52123.84
640.888	51988.25
641.241	51820.57
641.594	51798.65
641.947	51931.53
642.301	51712.78
642.654	51829.61
643.007	51769.05
643.36	51720.24
643.713	51746.68
644.066	51880.23
644.419	51478.66
644.771	51080.7
645.124	50739.47
645.477	50544
645.83	50471
646.182	50419.48
646.535	50498.12
646.888	50605.01
647.24	50602.75
647.593	50813.14
647.945	50708.06
648.298	50574.73
648.65	50432.59
649.002	50183.33
649.355	50356.43
649.707	50216.32
650.059	50206.38
650.411	50486.14
650.763	50699.02
651.115	50922.29
651.467	50857.66
651.819	50816.76
652.171	50709.87
652.523	50622.19
652.875	50573.6
653.227	50556.88
653.578	50845.23
653.93	50635.97
654.282	50471.23
654.633	50414.28
654.985	50552.58
655.337	50497.67
655.688	50429.42
656.039	50469.2
656.391	50131.13
656.742	50169.54
657.094	50377.9
657.445	50350.1
657.796	50200.28
658.147	50145.59
658.498	50079.6
658.849	50228.75
659.2	50137.45
659.551	50178.36
659.902	50120.73
660.253	49962.54
660.604	50033.05
660.955	49960.51
661.306	50068.08
661.656	50033.95
662.007	49911.7
662.358	49772.04
662.708	49873.73
663.059	49758.03
663.409	49565.49
663.76	49943.33
664.11	49842.32
664.461	49892.04
664.811	49920.06
665.161	49716
665.511	49660.18
665.862	49743.79
666.212	49711.48
666.562	49737.92
666.912	49727.52
667.262	49616.56
667.612	49576.56
667.962	49577.47
668.312	49573.63
668.662	49705.6
669.011	49476.91
669.361	49431.03
669.711	49427.42
670.06	49299.96
670.41	49264.03
670.76	49221.32
671.109	49420.64
671.459	49274.2
671.808	49048.89
672.157	49240.53
672.507	48912.85
672.856	48986.07
673.205	49121.43
673.554	49247.53
673.904	49081.66
674.253	49273.75
674.602	49140.42
674.951	48569.13
675.3	48380.66
675.649	48937.03
675.998	48784.27
676.346	48906.98
676.695	48912.85
677.044	48604.61
677.393	48806.64
677.741	48817.49
678.09	48570.71
678.438	48459.3
678.787	48632.86
679.135	48690.03
679.484	48417.05
679.832	48575.23
680.181	48278.74
680.529	48443.03
680.877	48331.62
681.225	48132.31
681.573	48282.81
681.922	48035.36
682.27	48133.44
682.618	48118.97
682.966	47975.7
683.314	48013.67
683.661	47902.94
684.009	47748.59
684.357	47611.64
684.705	47533.91
685.053	47533.68
685.4	47364.64
685.748	47365.1
686.095	47241.94
686.443	47235.61
686.79	47028.83
687.138	47091.43
687.485	47079.23
687.832	46975.95
688.18	46981.15
688.527	46698
688.874	46707.49
689.221	46573.03
689.568	46300.94
689.915	46225.01
690.262	46311.79
690.609	46245.13
690.956	46077.9
691.303	46076.09
691.65	45927.62
691.997	45896.89
692.344	45637.01
692.69	45503.22
693.037	45606.72
693.383	45206.28
693.73	45323.34
694.077	45043.12
694.423	45126.51
694.769	45014.42
695.116	44804.26
695.462	44773.53
695.808	44529.46
696.155	44691.04
696.501	44349.58
696.847	44368.11
697.193	44088.12
697.539	44223.71
697.885	44005.64
698.231	43739.2
698.577	43778.52
698.923	43731.52
699.269	43491.07
699.614	43465.76
699.96	43343.73
700.306	43292.89
700.651	43137.41
700.997	42938.55
701.342	43009.05
701.688	42996.4
702.033	42626.92
702.379	42798.66
702.724	42494.04
703.069	42518.67
703.415	41976.31
703.76	42035.29
704.105	42223.54
704.45	41921.62
704.795	41705.13
705.14	41692.25
705.485	41697
705.83	41443.9
706.175	41559.15
706.52	41393.5
706.865	41271.7
707.209	41201.19
707.554	41111.7
707.899	41081.65
708.243	40881.88
708.588	40838.49
708.932	40612.28
709.277	40410.7
709.621	40507.2
709.966	40271.72
710.31	40245.51
710.654	40062.46
710.998	40234.66
711.342	40183.82
711.687	39765.3
712.031	39769.36
712.375	39683.72
712.719	39779.99
713.063	39721.46
713.407	39706.54
713.75	39339.77
714.094	39347.91
714.438	39335.93
714.782	39223.39
715.125	39048.7
715.469	39146.78
715.812	38886
716.156	38646.91
716.499	38713.8
716.843	38726.91
717.186	38532.79
717.53	38806
717.873	38576.85
718.216	38395.84
718.559	38276.07
718.902	38050.77
719.246	38210.31
719.589	38191.33
719.932	37890.32
720.275	37889.41
720.617	37796.53
720.96	37701.85
721.303	37678.57
721.646	37751.56
721.989	37462.98
722.331	37614.17
722.674	37576.43
723.016	37473.61
723.359	37410.33
723.701	37418.69
724.044	37049.89
724.386	36891.7
724.729	37098.47
725.071	37041.75
725.413	36868.65
725.755	36904.35
726.097	36811.48
726.439	36496.23
726.782	36723.79
727.124	36644.7
727.465	36532.39
727.807	36426.17
728.149	36426.85
728.491	36391.83
728.833	36374.88
729.175	36185.5
729.516	36164.71
729.858	36007.88
730.199	36118.16
730.541	35943.25
730.882	35959.75
731.224	35994.1
731.565	35743.48
731.906	35737.61
732.248	35800.43
732.589	35494.22
732.93	35364.96
733.271	35466.88
733.612	35456.48
733.953	35366.32
734.294	35260.33
734.635	35173.33
734.976	35262.82
735.317	35106.21
735.658	35061.69
735.999	35074.35
736.339	34903.73
736.68	34931.98
737.021	34892.88
737.361	34744.41
737.702	34945.54
738.042	34741.7
738.383	34617.18
738.723	34678.2
739.063	34447.47
739.404	34519.56
739.744	34385.78
740.084	34293.12
740.424	34318.43
740.764	34215.16
741.104	34385.78
741.444	34102.62
741.784	33917.77
742.124	34016.52
742.464	33952.12
742.804	33796.64
743.143	33815.62
743.483	33730.65
743.823	33735.62
744.162	33619.92
744.502	33690.2
744.841	33566.36
745.181	33505.57
745.52	33395.07
745.86	33479.59
746.199	33297.44
746.538	33229.87
746.877	33360.04
747.216	33312.13
747.556	33084.57
747.895	33129.99
748.234	32921.41
748.573	32814.52
748.911	32734.29
749.25	32630.12
749.589	32563.23
749.928	32654.52
750.267	32611.13
750.605	32461.76
750.944	32457.47
751.283	32191.26
751.621	32368.88
751.96	32172.5
752.298	32125.95
752.636	32132.5
752.975	32029.91
753.313	31836.47
753.651	31943.81
753.989	31641.44
754.327	31645.51
754.666	31518.96
755.004	31616.58
755.342	31676.47
755.679	31564.16
756.017	31301.11
756.355	31534.78
756.693	31203.04
757.031	31308.12
757.368	30984.74
757.706	31059.54
758.044	30841.92
758.381	30838.98
758.719	30668.59
759.056	30754.69
759.394	30558.98
759.731	30347.46
760.068	30426.78
760.405	30253.46
760.743	30185.66
761.08	30203.74
761.417	30003.97
761.754	29986.8
762.091	29974.82
762.428	29821.15
762.765	29574.15
763.102	29565.34
763.438	29526.47
763.775	29309.3
764.112	29403.08
764.449	29469.75
764.785	29251.22
765.122	29158.8
765.458	29039.48
765.795	28987.5
766.131	28857.11
766.467	28606.72
766.804	28437.46
767.14	28463.22
767.476	28430.68
767.812	28239.72
768.148	28204.92
768.485	28173.06
768.821	27900.3
769.157	27899.85
769.492	27815.55
769.828	27726.52
770.164	27602.9
770.5	27630.93
770.836	27562.23
771.171	27367.88
771.507	27192.52
771.842	27052.18
772.178	27061.22
772.513	26926.99
772.849	26949.36
773.184	26786.43
773.519	26713.21
773.855	26496.72
774.19	26499.2
774.525	26322.26
774.86	26346.67
775.195	26263.5
775.53	26035.26
775.865	25880.01
776.2	25763.86
776.535	25610.64
776.87	25614.71
777.205	25561.6
777.539	25462.4
777.874	25324.77
778.209	25178.79
778.543	25160.03
778.878	24953.93
779.212	25057.21
779.547	24803.66
779.881	24852.02
780.215	24610.67
780.55	24644.79
780.884	24527.28
781.218	24462.87
781.552	24528.41
781.886	24332.03
782.22	24230.34
782.554	24198.93
782.888	23927.07
783.222	23831.93
783.556	23823.79
783.889	23600.98
784.223	23496.35
784.557	23455.89
784.89	23403.24
785.224	23223.58
785.557	23155.11
785.891	23160.08
786.224	23050.48
786.558	23079.63
786.891	22891.84
787.224	22800.09
787.557	22673.77
787.891	22617.95
788.224	22589.02
788.557	22473.55
788.89	22491.4
789.223	22468.12
789.556	22146.1
789.888	22191.07
790.221	22097.06
790.554	21902.94
790.887	21831.76
791.219	21746.56
791.552	21671.08
791.884	21586.79
792.217	21646.68
792.549	21425.21
792.882	21393.58
793.214	21349.51
793.546	21362.16
793.879	21161.94
794.211	21053.7
794.543	21113.13
794.875	21021.83
795.207	21112.23
795.539	21015.51
795.871	20814.38
796.203	20747.94
796.535	20601.73
796.867	20566.48
797.198	20485.58
797.53	20409.42
797.862	20275.64
798.193	20351.12
798.525	20245.13
798.856	20314.51
799.188	19994.97
799.519	20029.77
799.85	19871.13
800.182	19864.58
800.513	19793.62
800.844	19749.78
801.175	19692.83
801.506	19651.7
801.837	19590.01
802.168	19550.23
802.499	19492.16
802.83	19361.31
803.161	19234.31
803.491	19246.97
803.822	19187.08
804.153	19160.87
804.483	19050.13
804.814	19004.49
805.145	19009.46
805.475	18802.01
805.805	18741.44
806.136	18780.09
806.466	18710.48
806.796	18740.99
807.126	18627.77
807.457	18480.66
807.787	18457.61
808.117	18360.89
808.447	18379.64
808.777	18416.71
809.107	18190.04
809.436	18167.9
809.766	18229.59
810.096	18112.08
810.426	18048.35
810.755	18009.71
811.085	18092.42
811.414	17951.41
811.744	17778.76
812.073	17792.54
812.403	17675.03
812.732	17685.42
813.061	17693.11
813.39	17548.71
813.719	17498.99
814.049	17573.79
814.378	17490.63
814.707	17358.43
815.036	17405.21
815.365	17273.91
815.693	17122.05
816.022	17194.82
816.351	17151.65
816.68	17051.09
817.008	17182.84
817.337	16943.52
817.665	16953.47
817.994	16886.58
818.322	16939.91
818.651	16892.9
818.979	16683.42
819.307	16836.41
819.636	16727.94
819.964	16609.97
820.292	16693.36
820.62	16638.45
820.948	16591.89
821.276	16626.92
821.604	16567.04
821.932	16577.66
822.259	16645
822.587	16546.7
822.915	16419.47
823.243	16575.17
823.57	16478.9
823.898	16470.09
824.225	16460.82
824.553	16520.03
824.88	16523.87
825.207	16510.54
825.535	16505.34
825.862	16534.27
826.189	16339.7
826.516	16479.58
826.843	16405.91
827.17	16563.42
827.497	16426.93
827.824	16440.71
828.151	16542.86
828.478	16379.7
828.805	16505.79
829.131	16336.08
829.458	16254.05
829.785	16303.77
830.111	16366.14
830.438	16437.32
830.764	16466.93
831.09	16423.99
831.417	16287.95
831.743	16427.6
832.069	16389.19
832.395	16306.48
832.722	16264.67
833.048	16187.16
833.374	16349.41
833.7	16259.47
834.026	16238.68
834.351	16377.89
834.677	16290.43
835.003	16203.43
835.329	16292.69
835.654	16166.14
835.98	16094.51
836.306	16180.15
836.631	16084.56
836.956	16173.6
837.282	16125.47
837.607	16073.49
837.932	16038.01
838.258	16002.76
838.583	16018.8
838.908	15926.38
839.233	15891.12
839.558	15887.05
839.883	15822.2
840.208	15826.49
840.533	15869.88
840.858	15812.25
841.182	15822.42
841.507	15754.18
841.832	15617.91
842.156	15676.44
842.481	15658.59
842.805	15597.8
843.13	15567.06
843.454	15529.1
843.778	15530.68
844.103	15521.87
844.427	15468.99
844.751	15399.61
845.075	15381.3
845.399	15358.93
845.723	15195.09
846.047	15261.99
846.371	15131.82
846.695	15143.34
847.019	14999.62
847.343	15040.97
847.666	14994.42
847.99	14811.38
848.313	14851.6
848.637	14691.15
848.96	14666.3
849.284	14725.5
849.607	14597.37
849.931	14518.28
850.254	14537.94
850.577	14402.57
850.9	14390.82
851.223	14336.81
851.546	14306.53
851.869	14109.47
852.192	14162.35
852.515	14018.85
852.838	14061.79
853.161	14013.66
853.483	14002.58
853.806	13870.16
854.129	13862.93
854.451	13761.01
854.774	13699.77
855.096	13733.21
855.419	13751.06
855.741	13649.82
856.063	13621.35
856.385	13540.45
856.708	13539.32
857.03	13485.99
857.352	13504.74
857.674	13417.51
857.996	13350.62
858.318	13248.48
858.64	13229.27
858.961	13228.82
859.283	13238.54
859.605	13196.73
859.926	13125.77
860.248	13060.46
860.57	13135.94
860.891	13168.03
861.212	13010.97
861.534	13032.67
861.855	13045.09
862.176	13049.61
862.498	12995.38
862.819	13022.27
863.14	12920.58
863.461	12873.8
863.782	12918.32
864.103	12965.77
864.424	12891.43
864.745	12822.05
865.065	12795.38
865.386	12723.3
865.707	12737.98
866.027	12809.39
866.348	12732.33
866.668	12628.38
866.989	12649.17
867.309	12631.09
867.63	12664.31
867.95	12515.62
868.27	12501.61
868.59	12492.12
868.91	12472.91
869.23	12481.27
869.55	12442.85
869.87	12552.68
870.19	12499.8
870.51	12545.22
870.83	12467.03
871.15	12347.71
871.469	12448.95
871.789	12420.48
872.109	12315.17
872.428	12312.01
872.748	12387.94
873.067	12342.29
873.386	12327.83
873.706	12259.8
874.025	12158.11
874.344	12207.15
874.663	12230.43
874.982	12103.42
875.301	12171.22
875.62	12113.59
875.939	12091.67
876.258	12145.68
876.577	12140.26
876.896	12158.11
877.214	12071.56
877.533	12181.61
877.852	12038.79
878.17	12045.12
878.489	12020.04
878.807	12033.14
879.125	11987.95
879.444	12035.86
879.762	11923.77
880.08	11863.21
880.398	11885.35
880.716	11952.92
881.034	11817.78
881.352	11844.67
881.67	11811.68
881.988	11856.43
882.306	11786.6
882.624	11844.45
882.941	11755.64
883.259	11765.81
883.577	11687.84
883.894	11674.74
884.212	11685.13
884.529	11651.91
884.846	11573.95
885.164	11613.95
885.481	11580.05
885.798	11552.03
886.115	11485.59
886.432	11429.77
886.75	11444.68
887.067	11374.18
887.383	11393.61
887.7	11415.99
888.017	11372.14
888.334	11295.99
888.651	11298.47
888.967	11193.17
889.284	11255.09
889.6	11207.63
889.917	11056.45
890.233	11167.63
890.55	11110.91
890.866	11192.04
891.182	11067.07
891.498	11034.98
891.815	10993.62
892.131	10965.38
892.447	10879.73
892.763	10890.8
893.079	10840.41
893.395	10830.24
893.71	10857.36
894.026	10848.77
894.342	10813.29
894.657	10647.19
894.973	10601.09
895.289	10630.7
895.604	10700.3
895.92	10585.05
896.235	10528.32
896.55	10532.17
896.865	10505.73
897.181	10374.2
897.496	10541.66
897.811	10357.71
898.126	10322.68
898.441	10345.5
898.756	10307.54
899.071	10308.44
899.386	10291.04
899.7	10146.87
900.015	10045.63
900.33	10103.03
900.644	10091.5
900.959	10080.88
901.273	10067.32
901.588	10031.84
901.902	10017.38
902.216	9958.17
902.531	9897.38
902.845	9917.27
903.159	9853.54
903.473	9819.87
903.787	9783.49
904.101	9660.78
904.415	9719.53
904.729	9674.56
905.042	9641.79
905.356	9642.7
905.67	9506.66
905.984	9545.75
906.297	9504.62
906.611	9443.61
906.924	9440.44
907.237	9368.36
907.551	9286.78
907.864	9353.89
908.177	9288.36
908.491	9290.62
908.804	9206.33
909.117	9154.35
909.43	9157.06
909.743	9105.54
910.056	9069.38
910.368	9026.9
910.681	8954.35
910.994	8960.46
911.307	8958.87
911.619	8868.48
911.932	8839.1
912.244	8829.61
912.557	8870.97
912.869	8820.35
913.181	8763.85
913.494	8764.3
913.806	8711.65
914.118	8716.85
914.43	8562.95
914.742	8635.49
915.054	8494.25
915.366	8474.59
915.678	8429.4
915.99	8471.43
916.302	8391.88
916.613	8411.54
916.925	8374.48
917.236	8342.39
917.548	8328.61
917.859	8290.87
918.171	8182.17
918.482	8190.53
918.794	8083.64
919.105	8051.33
919.416	8038.9
919.727	8046.13
920.038	8011.33
920.349	7916.19
920.66	7929.07
920.971	7884.1
921.282	7855.4
921.593	7749.19
921.903	7823.76
922.214	7764.1
922.525	7754.84
922.835	7719.36
923.146	7582.19
923.456	7598.68
923.767	7601.4
924.077	7591.45
924.387	7472.13
924.697	7497.22
925.008	7440.95
925.318	7385.81
925.628	7388.07
925.938	7321.63
926.248	7344.68
926.558	7333.15
926.867	7218.13
927.177	7254.29
927.487	7181.75
927.796	7093.84
928.106	7148.98
928.416	7123.44
928.725	7082.09
929.034	7054.74
929.344	7016.1
929.653	6975.2
929.962	6959.61
930.271	6932.04
930.581	6915.54
930.89	6850.68
931.199	6866.27
931.508	6835.31
931.817	6783.56
932.125	6807.52
932.434	6717.8
932.743	6641.2
933.051	6719.84
933.36	6680.29
933.669	6598.26
933.977	6617.69
934.286	6624.92
934.594	6548.54
934.902	6521.88
935.21	6454.53
935.519	6451.37
935.827	6455.66
936.135	6421.31
936.443	6365.72
936.751	6347.19
937.059	6298.61
937.367	6277.82
937.674	6286.4
937.982	6254.09
938.29	6173.19
938.597	6166.86
938.905	6200.98
939.213	6102.9
939.52	6120.08
939.827	6083.47
940.135	6006.18
940.442	6050.48
940.749	6009.8
941.056	5988.78
941.363	5911.72
941.67	5908.56
941.977	5899.07
942.284	5838.96
942.591	5855
942.898	5790.37
943.205	5830.6
943.511	5811.84
943.818	5747.43
944.125	5743.82
944.431	5712.63
944.738	5635.8
945.044	5621.79
945.35	5615.46
945.657	5539.53
945.963	5556.25
946.269	5506.54
946.575	5522.58
946.881	5506.31
947.187	5484.16
947.493	5419.98
947.799	5422.47
948.105	5386.54
948.41	5361.68
948.716	5376.37
949.022	5327.78
949.327	5314.9
949.633	5242.14
949.938	5293.21
950.244	5249.82
950.549	5225.64
950.854	5225.19
951.16	5191.97
951.465	5166.88
951.77	5142.48
952.075	5081.01
952.38	5045.31
952.685	5119.43
952.99	5014.57
953.294	5003.95
953.599	4950.17
953.904	4972.31
954.209	4900.22
954.513	4896.83
954.818	4909.72
955.122	4854.58
955.426	4862.71
955.731	4822.49
956.035	4852.99
956.339	4770.96
956.643	4758.99
956.948	4798.08
957.252	4714.24
957.556	4756.27
957.86	4697.74
958.163	4722.15
958.467	4644.41
958.771	4667.24
959.075	4691.42
959.378	4578.88
959.682	4600.12
959.985	4572.78
960.289	4528.93
960.592	4526.22
960.896	4451.2
961.199	4464.08
961.502	4522.61
961.805	4406.68
962.108	4414.59
962.411	4395.83
962.714	4355.38
963.017	4359.22
963.32	4373.91
963.623	4345.89
963.926	4306.12
964.228	4278.77
964.531	4267.02
964.833	4265.89
965.136	4272.22
965.438	4245.1
965.741	4197.42
966.043	4153.13
966.345	4126.69
966.648	4126.69
966.95	4127.14
967.252	4096.86
967.554	4108.83
967.856	4081.49
968.158	4066.8
968.46	4103.18
968.761	4033.58
969.063	4026.35
969.365	3955.39
969.666	3974.37
969.968	3926.92
970.269	3947.03
970.571	3931.44
970.872	3898.44
971.174	3842.4
971.475	3919.91
971.776	3869.97
972.077	3822.96
972.378	3806.69
972.679	3758.79
972.98	3759.01
973.281	3777.32
973.582	3777.32
973.883	3735.51
974.183	3701.39
974.484	3697.09
974.785	3686.92
975.085	3671.56
975.386	3646.92
975.686	3669.3
975.986	3602.18
976.287	3588.62
976.587	3592.24
976.887	3570.77
977.187	3547.94
977.487	3570.09
977.787	3502.52
978.087	3489.87
978.387	3455.29
978.687	3462.97
978.987	3438.79
979.286	3469.75
979.586	3404.9
979.885	3420.94
980.185	3368.97
980.484	3364.45
980.784	3358.12
981.083	3313.6
981.382	3321.73
981.682	3340.94
981.981	3331.45
982.28	3280.83
982.579	3231.34
982.878	3294.39
983.177	3265.24
983.475	3240.83
983.774	3208.07
984.073	3226.6
984.372	3193.6
984.67	3186.6
984.969	3184.56
985.267	3141.85
985.566	3134.85
985.864	3112.7
986.162	3098.92
986.461	3077.22
986.759	3049.88
987.057	3007.62
987.355	3035.87
987.653	3015.75
987.951	3023.89
988.249	3018.69
988.547	2999.48
988.844	3002.2
989.142	2961.97
989.44	2943.67
989.737	2918.13
990.035	2875.87
990.332	2919.26
990.63	2908.19
990.927	2881.97
991.224	2879.26
991.521	2873.61
991.819	2881.97
992.116	2855.31
992.413	2861.86
992.71	2814.4
993.006	2797
993.303	2780.96
993.6	2760.17
993.897	2771.69
994.193	2746.83
994.49	2737.57
994.787	2754.29
995.083	2687.85
995.379	2659.83
995.676	2661.87
995.972	2655.99
996.268	2612.37
996.565	2613.5
996.861	2597.01
997.157	2582.55
997.453	2562.88
997.749	2578.25
998.044	2544.81
998.34	2513.85
998.636	2548.65
998.932	2523.79
999.227	2484.24
999.523	2498.03
999.818	2467.29
1000.114	2453.28
1000.409	2449.67
1000.704	2429.55
1001	2443.34
1001.295	2414.64
1001.59	2392.04
1001.885	2373.74
1002.18	2340.07
1002.475	2369.44
1002.77	2332.16
1003.065	2303.23
1003.359	2315.66
1003.654	2329.9
1003.949	2284.7
1004.243	2268.66
1004.538	2237.92
1004.832	2249.22
1005.127	2238.83
1005.421	2250.58
1005.715	2198.15
1006.009	2206.06
1006.304	2161.77
1006.598	2169.67
1006.892	2189.34
1007.186	2157.02
1007.48	2154.53
1007.773	2115.89
1008.067	2097.13
1008.361	2109.34
1008.655	2075.89
1008.948	2088.09
1009.242	2051.94
1009.535	2038.15
1009.829	2029.79
1010.122	2020.75
1010.415	1995.89
1010.708	1991.83
1011.001	2002.9
1011.295	1987.98
1011.588	1996.8
1011.881	1931.71
1012.173	1946.18
1012.466	1948.66
1012.759	1942.34
1013.052	1944.82
1013.344	1917.25
1013.637	1904.82
1013.93	1867.31
1014.222	1870.93
1014.514	1836.12
1014.807	1828.21
1015.099	1840.64
1015.391	1802.9
1015.683	1835.45
1015.976	1819.85
1016.268	1817.37
1016.56	1730.59
1016.851	1752.96
1017.143	1773.07
1017.435	1736.24
1017.727	1739.4
1018.018	1733.3
1018.31	1698.27
1018.602	1715
1018.893	1697.37
1019.185	1661.67
1019.476	1675
1019.767	1652.17
1020.058	1648.33
1020.35	1605.17
1020.641	1602.01
1020.932	1586.87
1021.223	1609.69
1021.514	1588.67
1021.804	1567.2
1022.095	1585.06
1022.386	1533.08
1022.677	1567.88
1022.967	1517.26
1023.258	1505.51
1023.548	1496.92
1023.839	1486.3
1024.129	1461.67
1024.419	1480.2
1024.709	1447.66
1025	1438.62
1025.29	1467.77
1025.58	1411.05
1025.87	1445.63
1026.16	1392.52
1026.449	1422.58
1026.739	1428
1027.029	1419.19
1027.319	1410.15
1027.608	1344.61
1027.898	1370.15
1028.187	1324.05
1028.477	1357.94
1028.766	1322.01
1029.055	1300.54
1029.344	1310.26
1029.634	1279.08
1029.923	1275.91
1030.212	1279.75
1030.501	1258.29
1030.79	1273.2
1031.078	1259.42
1031.367	1258.29
1031.656	1288.34
1031.945	1242.02
1032.233	1242.24
1032.522	1206.08
1032.81	1206.08
1033.099	1213.09
1033.387	1188.23
1033.675	1178.51
1033.963	1168.12
1034.251	1174.45
1034.54	1162.7
1034.828	1161.34
1035.116	1147.78
1035.403	1126.76
1035.691	1099.87
1035.979	1119.98
1036.267	1140.1
1036.554	1107.56
1036.842	1095.58
1037.129	1095.13
1037.417	1082.47
1037.704	1057.61
1037.992	1069.14
1038.279	1073.66
1038.566	1045.18
1038.853	1045.18
1039.14	1045.18
