Data from foil_FLMS001491_015.txt Node
Date: Tue Feb 07 11:25:28 GMT 2017
User: dcchb
Spectrometer: FLMS00149
Trigger mode: 0
Integration Time (sec): 2.000000E-2
Scans to average: 10
Electric dark correction enabled: true
Nonlinearity correction enabled: false
Boxcar width: 0
XAxis mode: Wavelengths
Number of Pixels in Spectrum: 2048
>>>>>Begin Spectral Data<<<<<
341.393	14
341.776	14
342.16	14
342.543	-34.14
342.927	-82.95
343.31	-75.94
343.693	-68.94
344.077	-70.97
344.46	-49.28
344.843	-71.65
345.226	-40.92
345.61	-31.65
345.993	-3.63
346.376	-24.19
346.759	-2.5
347.142	24.84
347.525	58.29
347.908	51.28
348.291	90.38
348.674	89.48
349.057	125.41
349.44	138.29
349.823	140.32
350.206	169.25
350.588	229.58
350.971	263.93
351.354	249.47
351.737	285.4
352.119	316.59
352.502	301.45
352.884	347.32
353.267	325.18
353.65	340.77
354.032	356.36
354.414	354.33
354.797	388.9
355.179	385.06
355.562	387.55
355.944	377.38
356.326	391.16
356.709	385.74
357.091	381.22
357.473	416.47
357.855	402.46
358.238	396.81
358.62	419.64
359.002	392.07
359.384	401.33
359.766	392.74
360.148	418.96
360.53	409.01
360.912	406.08
361.294	411.5
361.676	405.62
362.057	409.24
362.439	423.7
362.821	418.96
363.203	437.04
363.584	408.11
363.966	415.34
364.348	425.29
364.729	426.64
365.111	420.09
365.493	428.45
365.874	407.43
366.256	431.39
366.637	434.32
367.019	416.92
367.4	423.7
367.781	397.04
368.163	422.57
368.544	421.22
368.925	410.6
369.306	459.63
369.688	432.97
370.069	429.35
370.45	445.4
370.831	449.47
371.212	438.39
371.593	460.09
371.974	449.69
372.355	451.73
372.736	445.85
373.117	466.19
373.498	454.21
373.879	450.82
374.26	443.82
374.641	451.73
375.021	444.49
375.402	476.58
375.783	511.38
376.163	530.59
376.544	509.8
376.925	500.76
377.305	506.41
377.686	482.91
378.066	518.62
378.447	518.84
378.827	508.45
379.208	504.83
379.588	510.93
379.968	503.48
380.349	550.48
380.729	545.06
381.109	533.76
381.489	564.49
381.87	535.57
382.25	535.34
382.63	556.81
383.01	570.37
383.39	566.07
383.77	562.23
384.15	582.8
384.53	564.04
384.91	586.19
385.29	591.61
385.67	615.11
386.049	624.6
386.429	637.71
386.809	618.27
387.189	620.08
387.568	651.27
387.948	652.17
388.328	662.34
388.707	685.84
389.087	669.8
389.466	679.97
389.846	678.61
390.225	703.47
390.605	712.28
390.984	706.63
391.363	728.78
391.743	715.67
392.122	737.37
392.501	747.99
392.881	773.3
393.26	763.58
393.639	769.68
394.018	799.29
394.397	788.44
394.776	792.96
395.155	803.81
395.534	797.03
395.913	831.38
396.292	814.65
396.671	833.86
397.05	859.17
397.429	853.97
397.808	845.39
398.186	871.6
398.565	858.72
398.944	861.43
399.323	882.9
399.701	903.24
400.08	885.39
400.458	914.99
400.837	910.24
401.215	956.8
401.594	943.46
401.972	959.73
402.351	973.97
402.729	963.8
403.107	1002.9
403.486	987.3
403.864	1021.2
404.242	1010.35
404.62	1023.91
404.999	1032.73
405.377	1066.62
405.755	1056.91
406.133	1050.81
406.511	1112.72
406.889	1131.26
407.267	1109.56
407.645	1135.1
408.023	1131.71
408.401	1153.18
408.779	1202.89
409.156	1173.29
409.534	1214.19
409.912	1239.95
410.29	1277.24
410.667	1258.94
411.045	1279.27
411.422	1300.74
411.8	1330.12
412.178	1333.51
412.555	1357.24
412.933	1358.37
413.31	1400.63
413.687	1418.25
414.065	1444.24
414.442	1466.84
414.819	1465.94
415.197	1435.88
415.574	1488.08
415.951	1494.18
416.328	1503.9
416.705	1528.53
417.082	1516.56
417.46	1559.04
417.837	1601.98
418.214	1592.49
418.591	1619.6
418.967	1625.03
419.344	1660.28
419.721	1681.07
420.098	1700.28
420.475	1726.27
420.852	1726.27
421.228	1734.63
421.605	1766.27
421.982	1757.91
422.358	1757
422.735	1825.93
423.111	1802.88
423.488	1861.63
423.864	1864.12
424.241	1884.68
424.617	1895.53
424.994	1908.64
425.37	1955.64
425.746	1954.51
426.123	2001.74
426.499	2010.1
426.875	2000.61
427.251	2110.89
427.627	2120.83
428.003	2120.38
428.379	2132.81
428.756	2200.38
429.132	2233.83
429.507	2250.55
429.883	2284.67
430.259	2304.33
430.635	2319.92
431.011	2372.58
431.387	2384.56
431.763	2475.4
432.138	2452.8
432.514	2517.66
432.89	2500.49
433.265	2591.56
433.641	2597.66
434.016	2610.54
434.392	2679.92
434.767	2715.39
435.143	2740.48
435.518	2747.03
435.894	2794.26
436.269	2819.57
436.644	2897.54
437.02	2917.65
437.395	2890.98
437.77	2917.88
438.145	3029.51
438.52	3025.67
438.895	3062.05
439.271	3086.46
439.646	3133.01
440.021	3174.37
440.395	3190.41
440.77	3192.67
441.145	3256.4
441.52	3290.52
441.895	3308.15
442.27	3348.15
442.645	3320.58
443.019	3393.34
443.394	3390.63
443.769	3464.3
444.143	3468.37
444.518	3520.57
444.892	3456.84
445.267	3559.89
445.641	3565.32
446.016	3582.49
446.39	3644.18
446.764	3672.43
447.139	3672.43
447.513	3698.19
447.887	3737.29
448.262	3794.69
448.636	3804.41
449.01	3853.67
449.384	3901.8
449.758	3922.59
450.132	3982.71
450.506	3974.8
450.88	4013.89
451.254	4014.34
451.628	4130.27
452.002	4141.57
452.376	4173.21
452.75	4213.21
453.123	4238.97
453.497	4306.77
453.871	4338.18
454.244	4438.51
454.618	4442.81
454.992	4485.07
455.365	4518.96
455.739	4674.21
456.112	4662.46
456.486	4690.48
456.859	4710.6
457.232	4802.12
457.606	4788.33
457.979	4852.29
458.352	5000.53
458.725	5017.71
459.099	5027.42
459.472	5185.61
459.845	5214.54
460.218	5244.59
460.591	5269
460.964	5287.08
461.337	5400.07
461.71	5522.55
462.083	5552.83
462.456	5522.1
462.829	5629.44
463.201	5718.48
463.574	5729.78
463.947	5733.39
464.32	5913.95
464.692	5998.92
465.065	6031.47
465.438	6074.18
465.81	6186.04
466.183	6222.2
466.555	6365.24
466.928	6419.25
467.3	6425.58
467.672	6548.51
468.045	6689.08
468.417	6715.74
468.789	6779.47
469.161	6818.34
469.534	6986.69
469.906	7103.3
470.278	7084.77
470.65	7231.21
471.022	7376.52
471.394	7486.34
471.766	7531.54
472.138	7645.21
472.51	7820.35
472.882	7934.69
473.253	8026.89
473.625	8144.86
473.997	8256.27
474.369	8375.58
474.74	8367.9
475.112	8533.77
475.484	8678.4
475.855	8901.9
476.227	8955.91
476.598	9209.01
476.97	9254.66
477.341	9474.31
477.713	9653.07
478.084	9661.2
478.455	9891.7
478.827	9987.29
479.198	10284.46
479.569	10284.46
479.94	10574.62
480.311	10715.18
480.682	10922.86
481.053	11207.15
481.424	11330.31
481.795	11427.26
482.166	11639.91
482.537	11802.16
482.908	12016.85
483.279	12180.68
483.65	12384.97
484.021	12668.13
484.391	12726.66
484.762	12897.05
485.133	13017.04
485.503	13242.35
485.874	13564.37
486.244	13586.07
486.615	13854.08
486.985	14144.7
487.356	14291.81
487.726	14457.68
488.097	14730.9
488.467	14775.42
488.837	15047.27
489.207	15249.3
489.578	15451.11
489.948	15656.3
490.318	15851.77
490.688	15943.75
491.058	16098.09
491.428	16351.19
491.798	16539.66
492.168	16877.06
492.538	17001.35
492.908	17227.78
493.278	17472.75
493.648	17386.87
494.017	17637.94
494.387	17856.92
494.757	18077.7
495.126	18231.14
495.496	18215.1
495.866	18479.95
496.235	18614.41
496.605	18819.15
496.974	18856.89
497.344	19132.82
497.713	19157.67
498.082	19349.99
498.452	19547.27
498.821	19644.44
499.19	19835.85
499.559	20022.28
499.928	20029.74
500.298	20173.01
500.667	20459.56
501.036	20463.63
501.405	20618.88
501.774	20793.79
502.143	20903.84
502.512	20986.33
502.88	21134.8
503.249	21255.02
503.618	21372.98
503.987	21556.26
504.356	21713.54
504.724	21804.61
505.093	22016.36
505.462	22060.2
505.83	22233.3
506.199	22422.22
506.567	22801.87
506.936	22687.07
507.304	22946.95
507.672	23174.74
508.041	23254.97
508.409	23406.15
508.777	23645.47
509.145	23764.11
509.514	23830.77
509.882	24040.94
510.25	24109.86
510.618	24204.32
510.986	24331.1
511.354	24644.54
511.722	24872.55
512.09	25077.29
512.458	25124.3
512.826	25330.62
513.193	25482.93
513.561	25621.69
513.929	25757.95
514.297	26000.88
514.664	26286.53
515.032	26249.92
515.4	26555.45
515.767	26808.09
516.135	26924.48
516.502	26764.71
516.869	27286.95
517.237	27317.23
517.604	27400.85
517.972	27764.45
518.339	27965.13
518.706	27963.09
519.073	28258.9
519.44	28418.9
519.808	28790.19
520.175	28762.39
520.542	29027.02
520.909	29316.28
521.276	29324.86
521.643	29723.5
522.009	29952.19
522.376	30184.73
522.743	30316.7
523.11	30624.72
523.477	30994.65
523.843	31138.38
524.21	31437.8
524.577	31587.63
524.943	31760.05
525.31	31903.55
525.676	32191.68
526.043	32433.03
526.409	32674.83
526.776	32886.58
527.142	32999.12
527.508	33299.68
527.874	33558.65
528.241	33691.53
528.607	33825.09
528.973	34088.81
529.339	34077.28
529.705	34532.19
530.071	34877.03
530.437	34829.8
530.803	35124.03
531.169	35268.89
531.535	35291.04
531.901	35478.6
532.267	35691.48
532.632	36008.3
532.998	35936.22
533.364	36285.13
533.73	36343.89
534.095	36685.35
534.461	36846.93
534.826	36980.71
535.192	36972.57
535.557	37286.24
535.923	37315.84
536.288	37521.49
536.653	37752.21
537.019	37782.27
537.384	37891.87
537.749	38069.04
538.114	38231.97
538.479	38225.2
538.845	38516.49
539.21	38445.3
539.575	38746.09
539.94	38769.59
540.305	39098.39
540.67	39037.83
541.034	39305.62
541.399	39411.38
541.764	39285.73
542.129	39728.66
542.494	39671.49
542.858	39887.52
543.223	39867.86
543.587	40170
543.952	40106.05
544.316	40361.86
544.681	40339.94
545.045	40649.99
545.41	40816.99
545.774	40809.53
546.138	40946.03
546.503	41028.96
546.867	41089.3
547.231	41383.98
547.595	41463.75
547.959	41687.25
548.324	41753.24
548.688	41907.58
549.052	42112.55
549.416	42235.26
549.779	42090.63
550.143	42310.51
550.507	42508.25
550.871	42891.51
551.235	42618.3
551.599	42870.05
551.962	43038.85
552.326	43155.24
552.689	43406.08
553.053	43337.15
553.417	43417.38
553.78	44056
554.143	43694.43
554.507	44035.21
554.87	44153.63
555.234	44471.36
555.597	44298.71
555.96	44486.27
556.323	44760.62
556.686	44836.55
557.05	45181.85
557.413	45295.97
557.776	45344.1
558.139	45638.79
558.502	45743.19
558.865	45767.6
559.228	46054.59
559.59	46415.94
559.953	46382.72
560.316	46687.8
560.679	46688.7
561.041	47035.36
561.404	47081.01
561.767	47408.23
562.129	47381.34
562.492	47754.89
562.854	47680.31
563.217	47857.03
563.579	47993.98
563.941	48195.55
564.304	48311.26
564.666	48504.25
565.028	48658.82
565.39	48791.02
565.753	48992.82
566.115	49064.68
566.477	49232.59
566.839	49306.49
567.201	49445.69
567.563	49685.01
567.925	49948.28
568.287	49796.42
568.648	49930.42
569.01	50186.46
569.372	50364.09
569.734	50196.86
570.095	50546.91
570.457	50624.42
570.819	50676.85
571.18	50836.16
571.542	50965.65
571.903	50960.68
572.265	51080.9
572.626	51115.25
572.987	51175.36
573.349	51334.23
573.71	51475.92
574.071	51500.33
574.432	51585.75
574.794	51933.76
575.155	51828
575.516	51780.55
575.877	51960.43
576.238	52049.01
576.599	52093.76
576.96	52030.93
577.32	52076.58
577.681	52243.13
578.042	52296.01
578.403	52298.05
578.763	52280.87
579.124	52350.47
579.485	52546.17
579.845	52576
580.206	52628.21
580.566	52566.97
580.927	52577.36
581.287	52666.17
581.648	52532.16
582.008	52699.39
582.368	52641.77
582.728	52663.23
583.089	52692.16
583.449	52647.87
583.809	52641.09
584.169	52694.42
584.529	52759.05
584.889	52904.58
585.249	52665.04
585.609	52716.79
585.969	52821.65
586.329	52706.17
586.688	52907.52
587.048	52786.85
587.408	52657.36
587.768	52761.31
588.127	52663.01
588.487	52631.14
588.846	52879.27
589.206	52752.72
589.565	52767.19
589.925	52876.56
590.284	52723.35
590.643	52809.67
591.003	52858.93
591.362	52948.65
591.721	52742.78
592.08	52873.4
592.44	52910.46
592.799	52904.13
593.158	52724.7
593.517	52759.73
593.876	52818.94
594.235	52780.29
594.593	52809.67
594.952	52822.33
595.311	52729.67
595.67	52855.09
596.029	52971.02
596.387	52956.11
596.746	52954.75
597.104	52832.04
597.463	52843.57
597.822	52957.46
598.18	52788.88
598.538	52824.59
598.897	53012.15
599.255	52752.05
599.613	53107.97
599.972	53067.29
600.33	52928.76
600.688	52901.42
601.046	53022.09
601.404	53072.49
601.762	53073.84
602.12	53220.51
602.478	53164.69
602.836	53149.77
603.194	52974.19
603.552	53066.16
603.91	53018.03
604.268	53178.47
604.625	53013.73
604.983	53204.01
605.341	53031.59
605.698	53262.54
606.056	53262.31
606.413	53239.49
606.771	53267.06
607.128	53380.73
607.485	53230.9
607.843	53243.56
608.2	53417.11
608.557	53441.07
608.914	53394.97
609.272	53478.58
609.629	53574.17
609.986	53596.09
610.343	53504.79
610.7	53655.3
611.057	53619.14
611.414	53507.05
611.771	53686.71
612.127	53672.92
612.484	53591.57
612.841	53814.62
613.198	53653.49
613.554	53599.48
613.911	53850.1
614.267	53803.54
614.624	53778.23
614.98	53835.63
615.337	53932.35
615.693	53921.51
616.05	53829.98
616.406	53971.22
616.762	53917.89
617.118	53896.2
617.475	53919.47
617.831	54003.76
618.187	53958.57
618.543	53901.39
618.899	54105.91
619.255	53987.04
619.611	53907.27
619.967	54147.94
620.323	54021.84
620.678	53916.08
621.034	53874.05
621.39	53906.82
621.746	53881.51
622.101	54196.75
622.457	53966.93
622.812	54011.9
623.168	54065.23
623.523	53996.08
623.879	54053.71
624.234	53820.27
624.589	54031.79
624.945	53965.57
625.3	53987.27
625.655	53912.47
626.01	53968.06
626.365	53984.33
626.72	53921.51
627.075	53906.59
627.43	53825.24
627.785	53749.31
628.14	53881.73
628.495	53904.11
628.85	53895.29
629.205	53744.11
629.559	53891.45
629.914	53719.93
630.269	53749.31
630.623	53695.3
630.978	53597.9
631.332	53665.02
631.687	53741.4
632.041	53565.36
632.396	53559.48
632.75	53418.92
633.104	53542.08
633.459	53394.06
633.813	53413.72
634.167	53227.96
634.521	53233.16
634.875	53277.91
635.229	53267.96
635.583	53018.93
635.937	53031.59
636.291	52971.7
636.645	53013.51
636.999	52914.3
637.352	52900.06
637.706	52789.78
638.06	52835.66
638.413	52767.19
638.767	52738.71
639.121	52750.24
639.474	52463.01
639.828	52568.77
640.181	52552.73
640.534	52508.89
640.888	52314.09
641.241	52196.81
641.594	52307.31
641.947	52321.55
642.301	52215.34
642.654	52126.07
643.007	52277.93
643.36	52101.44
643.713	52059.86
644.066	52178.5
644.419	51923.37
644.771	51715.69
645.124	51379.88
645.477	51231.41
645.83	50911.42
646.182	50846.33
646.535	50763.17
646.888	50939.44
647.24	50692.21
647.593	51009.04
647.945	50845.88
648.298	50640.91
648.65	50534.7
649.002	50428.94
649.355	50559.79
649.707	50340.36
650.059	50574.7
650.411	50976.5
650.763	50927.91
651.115	51139.21
651.467	51040.9
651.819	50944.86
652.171	50879.33
652.523	50866.9
652.875	50775.37
653.227	50684.53
653.578	51022.37
653.93	50781.93
654.282	50616.28
654.633	50548.49
654.985	50614.93
655.337	50634.81
655.688	50546.23
656.039	50640.91
656.391	50381.94
656.742	50400.92
657.094	50339
657.445	50552.1
657.796	50407.7
658.147	50255.16
658.498	50277.76
658.849	50314.82
659.2	50206.12
659.551	50120.7
659.902	50130.87
660.253	50070.31
660.604	50111.89
660.955	49903.08
661.306	50091.55
661.656	49832.8
662.007	49937.43
662.358	49849.97
662.708	49972.46
663.059	49846.13
663.409	49671.67
663.76	49782.18
664.11	49808.85
664.461	49805.68
664.811	49769.75
665.161	49862.18
665.511	49682.97
665.862	49637.1
666.212	49727.72
666.562	49746.02
666.912	49568.85
667.262	49531.79
667.612	49570.43
667.962	49618.57
668.312	49606.82
668.662	49696.53
669.011	49476.88
669.361	49354.17
669.711	49316.88
670.06	49235.75
670.41	49213.38
670.76	49110.78
671.109	49220.39
671.459	49195.3
671.808	48926.61
672.157	49035.53
672.507	48710.12
672.856	48912.37
673.205	48853.39
673.554	48993.5
673.904	48809.55
674.253	48979.94
674.602	48826.5
674.951	48408.2
675.3	48296.57
675.649	48766.39
675.998	48726.61
676.346	48621.76
676.695	48677.12
677.044	48547.18
677.393	48591.48
677.741	48626.96
678.09	48445.72
678.438	48294.08
678.787	48392.16
679.135	48327.08
679.484	47995.11
679.832	48140.87
680.181	47939.06
680.529	47982.91
680.877	47885.51
681.225	47786.98
681.573	47944.04
681.922	47780.2
682.27	47644.83
682.618	47791.05
682.966	47583.14
683.314	47680.77
683.661	47457.72
684.009	47219.54
684.357	47181.12
684.705	47063.83
685.053	47252.3
685.4	46987.45
685.748	46909.03
686.095	46952.65
686.443	46869.26
686.79	46634.69
687.138	46734.12
687.485	46697.29
687.832	46517.63
688.18	46561.25
688.527	46368.71
688.874	46217.08
689.221	46213.69
689.568	46016.18
689.915	45827.03
690.262	45835.16
690.609	45742.74
690.956	45775.51
691.303	45734.38
691.65	45498
691.997	45481.73
692.344	45099.37
692.69	44982.76
693.037	44971.46
693.383	44738.7
693.73	44723.1
694.077	44482.88
694.423	44540.06
694.769	44392.94
695.116	44288.54
695.462	44159.95
695.808	44060.3
696.155	44084.48
696.501	43740.08
696.847	43814.2
697.193	43525.4
697.539	43726.07
697.885	43244.5
698.231	43316.59
698.577	43155.24
698.923	43073.88
699.269	43016.71
699.614	42639.99
699.96	42575.82
700.306	42567.23
700.651	42458.3
700.997	42206.11
701.342	42318.87
701.688	42146
702.033	41965.89
702.379	41948.26
702.724	41836.4
703.069	41972.89
703.415	41496.07
703.76	41313.7
704.105	41457.65
704.45	41291.1
704.795	41107.83
705.14	40936.08
705.485	40835.52
705.83	40775.64
706.175	40673.94
706.52	40541.29
706.865	40583.33
707.209	40443.44
707.554	40400.51
707.899	40454.52
708.243	40255.42
708.588	40194.86
708.932	39905.38
709.277	39706.74
709.621	39812.72
709.966	39407.54
710.31	39509.23
710.654	39264.94
710.998	39258.16
711.342	39201.67
711.687	39101.56
712.031	39104.49
712.375	38827.44
712.719	38982.24
713.063	38767.1
713.407	38980.43
713.75	38617.95
714.094	38612.53
714.438	38365.53
714.782	38469.71
715.125	38300.9
715.469	38312.88
715.812	38055.71
716.156	37911.08
716.499	37868.59
716.843	37863.62
717.186	37533.01
717.53	37693.46
717.873	37709.05
718.216	37603.74
718.559	37326.91
718.902	37196.3
719.246	37489.17
719.589	37179.35
719.932	36919.02
720.275	37038.79
720.617	36947.71
720.96	36869.52
721.303	36888.73
721.646	36793.37
721.989	36675.63
722.331	36759.92
722.674	36485.81
723.016	36553.15
723.359	36491.91
723.701	36551.34
724.044	36124.01
724.386	36055.31
724.729	36026.16
725.071	36058.7
725.413	35963.11
725.755	35962.43
726.097	35669.33
726.439	35511.82
726.782	35622.1
727.124	35714.3
727.465	35514.08
727.807	35425.04
728.149	35461.2
728.491	35331.03
728.833	35306.85
729.175	35201.32
729.516	35046.52
729.858	35004.94
730.199	35100.53
730.541	34931.72
730.882	34968.33
731.224	34915.9
731.565	34682.46
731.906	34793.42
732.248	34767.66
732.589	34456.93
732.93	34342.81
733.271	34411.06
733.612	34346.2
733.953	34413.09
734.294	34266.43
734.635	34248.58
734.976	34297.62
735.317	34229.82
735.658	33974.01
735.999	33923.84
736.339	33776.27
736.68	33912.99
737.021	33651.98
737.361	33590.29
737.702	33787.35
738.042	33476.85
738.383	33350.3
738.723	33546.67
739.063	33386.23
739.404	33513.45
739.744	33437.52
740.084	33169.96
740.424	33331.76
740.764	33099.91
741.104	33293.8
741.444	33074.37
741.784	33028.04
742.124	33093.13
742.464	33020.59
742.804	32870.76
743.143	32711.89
743.483	32654.72
743.823	32588.96
744.162	32562.52
744.502	32484.56
744.841	32394.16
745.181	32599.58
745.52	32248.63
745.86	32174.73
746.199	32155.98
746.538	32198.91
746.877	32224
747.216	31990.56
747.556	31925.93
747.895	32064
748.234	31829.88
748.573	31718.7
748.911	31683.22
749.25	31593.96
749.589	31414.08
749.928	31368.88
750.267	31431.7
750.605	31524.58
750.944	31379.5
751.283	31356.45
751.621	31344.7
751.96	31182.44
752.298	30983.8
752.636	31167.3
752.975	30933.18
753.313	30818.16
753.651	30916.69
753.989	30719.4
754.327	30586.07
754.666	30429.24
755.004	30513.31
755.342	30420.2
755.679	30327.78
756.017	30118.06
756.355	30229.7
756.693	30156.26
757.031	30168.91
757.368	29854.12
757.706	29803.72
758.044	29741.12
758.381	29690.96
758.719	29624.07
759.056	29609.38
759.394	29420.91
759.731	29232.21
760.068	29261.14
760.405	29154.02
760.743	28921.26
761.08	28969.62
761.417	28930.07
761.754	28760.81
762.091	28834.03
762.428	28712.68
762.765	28520.59
763.102	28534.38
763.438	28351.33
763.775	28245.57
764.112	28129.87
764.449	28196.31
764.785	28156.76
765.122	27800.61
765.458	27802.19
765.795	27768.97
766.131	27506.16
766.467	27466.38
766.804	27366.95
767.14	27174.19
767.476	27138.26
767.812	27098.48
768.148	27079.73
768.485	26983.46
768.821	26840.41
769.157	26734.88
769.492	26728.1
769.828	26569.91
770.164	26455.34
770.5	26319.97
770.836	26326.53
771.171	26121.78
771.507	26084.95
771.842	25911.85
772.178	25819.87
772.513	25747.11
772.849	25578.75
773.184	25608.13
773.519	25643.61
773.855	25477.06
774.19	25335.82
774.525	25266.67
774.86	25298.53
775.195	25180.57
775.53	24969.5
775.865	24922.27
776.2	24746.68
776.535	24536.97
776.87	24558.66
777.205	24463.07
777.539	24243.87
777.874	24331.78
778.209	24112.8
778.543	23994.61
778.878	23882.97
779.212	23949.19
779.547	23742.41
779.881	23778.34
780.215	23560.27
780.55	23588.07
780.884	23456.32
781.218	23426.94
781.552	23337.23
781.886	23045.93
782.22	23087.51
782.554	23032.15
782.888	22814.75
783.222	22713.96
783.556	22555.1
783.889	22577.7
784.223	22319.4
784.557	22309.46
784.89	22508.32
785.224	22193.07
785.557	22035.34
785.891	22037.37
786.224	21945.4
786.558	22022.23
786.891	21754.67
787.224	21768
787.557	21641.9
787.891	21549.25
788.224	21474.68
788.557	21521.45
788.89	21368.69
789.223	21359.2
789.556	21243.04
789.888	21049.15
790.221	21027.68
790.554	20948.14
790.887	20954.01
791.219	20837.86
791.552	20771.19
791.884	20662.49
792.217	20662.95
792.549	20500.24
792.882	20320.36
793.214	20384.31
793.546	20326.01
793.879	20120.81
794.211	20092.56
794.543	20108.84
794.875	20033.36
795.207	20082.62
795.539	19875.4
795.871	19912.23
796.203	19742.74
796.535	19646.02
796.867	19496.65
797.198	19430.21
797.53	19389.31
797.862	19359.93
798.193	19306.6
798.525	19285.13
798.856	19210.33
799.188	18941.63
799.519	18928.98
799.85	18904.35
800.182	18891.47
800.513	18924.69
800.844	18639.5
801.175	18895.31
801.506	18653.96
801.837	18611.93
802.168	18581.19
802.499	18511.36
802.83	18506.17
803.161	18431.37
803.491	18302.1
803.822	18246.74
804.153	18153.18
804.483	17999.06
804.814	17984.37
805.145	18003.58
805.475	17876.13
805.805	17804.72
806.136	17759.74
806.466	17773.53
806.796	17782.8
807.126	17662.57
807.457	17523.37
807.787	17522.69
808.117	17381.9
808.447	17411.96
808.777	17390.49
809.107	17285.18
809.436	17301.9
809.766	17191.85
810.096	17219.19
810.426	17190.95
810.755	17073.21
811.085	17104.39
811.414	16997.05
811.744	16778.75
812.073	16863.27
812.403	16739.66
812.732	16665.08
813.061	16715.48
813.39	16574.47
813.719	16608.14
814.049	16623.73
814.378	16564.75
814.707	16428.48
815.036	16378.31
815.365	16359.1
815.693	16286.56
816.022	16230.07
816.351	16121.37
816.68	16132.9
817.008	16136.06
817.337	15978.1
817.665	15954.82
817.994	15997.76
818.322	15967.25
818.651	15821.72
818.979	15833.24
819.307	15970.19
819.636	15837.76
819.964	15651.1
820.292	15799.12
820.62	15695.39
820.948	15648.16
821.276	15640.48
821.604	15707.14
821.932	15638.9
822.259	15591.21
822.587	15579.46
822.915	15578.56
823.243	15661.72
823.57	15580.37
823.898	15609.74
824.225	15571.78
824.553	15505.79
824.88	15491.33
825.207	15603.87
825.535	15546.02
825.862	15510.09
826.189	15513.02
826.516	15553.02
826.843	15561.16
827.17	15591.67
827.497	15468.05
827.824	15465.12
828.151	15534.04
828.478	15499.47
828.805	15570.42
829.131	15431.9
829.458	15426.7
829.785	15362.29
830.111	15418.34
830.438	15486.36
830.764	15362.07
831.09	15419.02
831.417	15490.88
831.743	15418.11
832.069	15403.65
832.395	15284.78
832.722	15328.17
833.048	15350.54
833.374	15374.72
833.7	15264.22
834.026	15366.59
834.351	15325.01
834.677	15304.22
835.003	15270.09
835.329	15277.32
835.654	15315.29
835.98	15154.62
836.306	15173.15
836.631	15089.08
836.956	15190.09
837.282	15179.93
837.607	15145.58
837.932	15049.08
838.258	15108.74
838.583	15049.31
838.908	14963.43
839.233	14955.3
839.558	14909.65
839.883	14844.12
840.208	14847.05
840.533	14883.89
840.858	14831.69
841.182	14751.69
841.507	14714.4
841.832	14704.23
842.156	14638.25
842.481	14641.41
842.805	14587.17
843.13	14557.34
843.454	14589.43
843.778	14525.71
844.103	14498.59
844.427	14432.83
844.751	14470.34
845.075	14448.19
845.399	14375.65
845.723	14285.94
846.047	14305.15
846.371	14143.34
846.695	14192.38
847.019	14092.04
847.343	14044.36
847.666	13994.87
847.99	13889.34
848.313	13892.73
848.637	13733.64
848.96	13772.51
849.284	13784.71
849.607	13681.43
849.931	13731.38
850.254	13576.35
850.577	13475.56
850.9	13343.59
851.223	13440.76
851.546	13298.17
851.869	13217.27
852.192	13288.22
852.515	13125.06
852.838	13166.87
853.161	13149.02
853.483	13010.04
853.806	12967.55
854.129	12965.07
854.451	12898.4
854.774	12804.39
855.096	12810.95
855.419	12800.1
855.741	12811.63
856.063	12703.38
856.385	12699.54
856.708	12672.2
857.03	12590.62
857.352	12565.76
857.674	12481.47
857.996	12422.03
858.318	12395.82
858.64	12400.11
858.961	12384.74
859.283	12341.36
859.605	12228.59
859.926	12301.13
860.248	12275.6
860.57	12232.43
860.891	12235.82
861.212	12213.22
861.534	12088.93
861.855	12076.28
862.176	12181.59
862.498	12081.48
862.819	12083.06
863.14	12098.42
863.461	11987.02
863.782	11910.18
864.103	12008.71
864.424	11976.39
864.745	12016.17
865.065	11933.01
865.386	11889.62
865.707	11901.82
866.027	11855.49
866.348	11911.99
866.668	11855.04
866.989	11801.48
867.309	11683.75
867.63	11657.08
867.95	11628.15
868.27	11699.34
868.59	11637.19
868.91	11676.74
869.23	11663.63
869.55	11603.3
869.87	11643.75
870.19	11679.9
870.51	11649.17
870.83	11662.5
871.15	11527.37
871.469	11525.56
871.789	11496.63
872.109	11449.63
872.428	11451.21
872.748	11421.38
873.067	11404.88
873.386	11428.84
873.706	11415.73
874.025	11312.68
874.344	11337.77
874.663	11312.46
874.982	11339.8
875.301	11281.5
875.62	11287.15
875.939	11266.13
876.258	11303.42
876.577	11213.48
876.896	11282.18
877.214	11167.83
877.533	11232.23
877.852	11173.03
878.17	11215.06
878.489	11132.35
878.807	11144.78
879.125	11081.95
879.444	11068.62
879.762	11074.04
880.08	11062.97
880.398	11026.14
880.716	11045.12
881.034	11043.09
881.352	11001.73
881.67	10905.46
881.988	10968.51
882.306	10962.86
882.624	10850.1
882.941	10874.95
883.259	10807.39
883.577	10809.87
883.894	10802.87
884.212	10814.39
884.529	10843.09
884.846	10765.35
885.164	10793.37
885.481	10718.12
885.798	10716.54
886.115	10651.46
886.432	10642.64
886.75	10631.12
887.067	10595.64
887.383	10541.86
887.7	10550.89
888.017	10554.06
888.334	10551.35
888.651	10482.65
888.967	10474.96
889.284	10373.27
889.6	10361.75
889.917	10321.75
890.233	10288.3
890.55	10253.95
890.866	10282.2
891.182	10278.13
891.498	10159.27
891.815	10167.18
892.131	10140.74
892.447	10129.44
892.763	10100.74
893.079	10095.31
893.395	10043.34
893.71	9995.43
894.026	10021.42
894.342	9945.26
894.657	9930.57
894.973	9924.47
895.289	9882.44
895.604	9825.94
895.92	9774.42
896.235	9757.7
896.55	9732.61
896.865	9727.87
897.181	9617.13
897.496	9677.47
897.811	9613.29
898.126	9595.67
898.441	9542.33
898.756	9553.18
899.071	9530.36
899.386	9542.11
899.7	9430.47
900.015	9375.11
900.33	9286.07
900.644	9350.02
900.959	9305.5
901.273	9264.15
901.588	9195.68
901.902	9174.89
902.216	9149.35
902.531	9162.23
902.845	9115.45
903.159	9091.95
903.473	9061.89
903.787	9031.39
904.101	8984.83
904.415	9018.73
904.729	8877.49
905.042	8877.49
905.356	8828.45
905.67	8866.87
905.984	8846.31
906.297	8786.2
906.611	8724.73
906.924	8678.63
907.237	8677.72
907.551	8677.5
907.864	8631.85
908.177	8629.82
908.491	8571.96
908.804	8583.49
909.117	8494
909.43	8449.26
909.743	8373.1
910.056	8374.23
910.368	8288.81
910.681	8315.93
910.994	8304.63
911.307	8281.8
911.619	8242.48
911.932	8239.77
912.244	8108.93
912.557	8147.57
912.869	8106.21
913.181	8063.5
913.494	8003.84
913.806	7938.08
914.118	7997.74
914.43	7976.27
914.742	7908.03
915.054	7892.89
915.366	7856.05
915.678	7822.38
915.99	7744.42
916.302	7725.88
916.613	7677.07
916.925	7702.16
917.236	7647.02
917.548	7630.52
917.859	7627.13
918.171	7532.9
918.482	7549.17
918.794	7508.04
919.105	7435.27
919.416	7408.83
919.727	7396.85
920.038	7378.32
920.349	7291.32
920.66	7346.91
920.971	7314.14
921.282	7273.24
921.593	7230.98
921.903	7087.94
922.214	7154.37
922.525	7151.44
922.835	7108.5
923.146	7054.04
923.456	7026.24
923.767	6949.41
924.077	6967.94
924.387	6916.64
924.697	6920.26
925.008	6914.15
925.318	6891.33
925.628	6841.39
925.938	6810.43
926.248	6728.85
926.558	6698.34
926.867	6698.79
927.177	6668.51
927.487	6647.49
927.796	6584.45
928.106	6556.42
928.416	6583.32
928.725	6575.63
929.034	6471.45
929.344	6547.38
929.653	6492.47
929.962	6397.33
930.271	6356.2
930.581	6294.28
930.89	6414.73
931.199	6330.67
931.508	6224
931.817	6259.03
932.125	6252.7
932.434	6231.69
932.743	6155.76
933.051	6195.08
933.36	6125.47
933.669	6067.85
933.977	6087.96
934.286	6049.54
934.594	6054.29
934.902	6022.2
935.21	5946.27
935.519	5963.67
935.827	5951.69
936.135	5906.27
936.443	5851.36
936.751	5817.46
937.059	5797.57
937.367	5826.27
937.674	5771.59
937.982	5735.88
938.29	5746.28
938.597	5711.93
938.905	5641.87
939.213	5643.45
939.52	5646.84
939.827	5665.37
940.135	5616.34
940.442	5535.66
940.749	5562.55
941.056	5509.22
941.363	5453.63
941.67	5449.79
941.977	5411.82
942.284	5368.43
942.591	5369.56
942.898	5326.4
943.205	5356.23
943.511	5328.89
943.818	5308.77
944.125	5252.73
944.431	5277.59
944.738	5273.52
945.044	5247.98
945.35	5212.28
945.657	5175.22
945.963	5125.27
946.269	5104.71
946.575	5077.59
946.881	5125.5
947.187	5018.38
947.493	5015.9
947.799	4993.53
948.105	4960.76
948.41	5010.48
948.716	4920.53
949.022	4883.93
949.327	4898.84
949.633	4865.62
949.938	4841.21
950.244	4862.46
950.549	4791.95
950.854	4739.97
951.16	4755.57
951.465	4790.14
951.77	4754.66
952.075	4711.27
952.38	4690.94
952.685	4695
952.99	4683.03
953.294	4607.55
953.599	4568
953.904	4565.97
954.209	4521.9
954.513	4591.28
954.818	4532.75
955.122	4497.72
955.426	4510.15
955.731	4489.59
956.035	4439.42
956.339	4370.94
956.643	4445.07
956.948	4397.61
957.252	4432.64
957.556	4371.17
957.86	4381.79
958.163	4290.72
958.467	4304.05
958.771	4269.93
959.075	4280.55
959.378	4239.2
959.682	4259.76
959.985	4209.14
960.289	4242.36
960.592	4173.21
960.896	4193.32
961.199	4092.53
961.502	4136.37
961.805	4106.54
962.108	4064.51
962.411	4064.96
962.714	4050.27
963.017	4049.37
963.32	4081.23
963.623	3991.29
963.926	3989.94
964.228	3919.88
964.531	3910.62
964.833	3917.85
965.136	3930.73
965.438	3881.92
965.741	3895.02
966.043	3862.94
966.345	3832.65
966.648	3897.06
966.95	3833.78
967.252	3798.3
967.554	3797.63
967.856	3773.9
968.158	3723.73
968.46	3749.27
968.761	3711.3
969.063	3691.87
969.365	3643.73
969.666	3659.55
969.968	3628.59
970.269	3584.52
970.571	3655.93
970.872	3607.35
971.174	3582.72
971.475	3561.02
971.776	3558.99
972.077	3574.58
972.378	3541.59
972.679	3497.52
972.98	3494.36
973.281	3470.18
973.582	3447.58
973.883	3446
974.183	3446.9
974.484	3407.35
974.785	3405.77
975.085	3392.67
975.386	3347.69
975.686	3295.72
975.986	3295.27
976.287	3303.4
976.587	3294.59
976.887	3266.11
977.187	3317.19
977.487	3273.35
977.787	3243.97
978.087	3223.63
978.387	3208.72
978.687	3227.25
978.987	3151.77
979.286	3175.27
979.586	3166
979.885	3108.38
980.185	3145.67
980.484	3167.13
980.784	3100.47
981.083	3064.54
981.382	3062.73
981.682	3093.46
981.981	3070.41
982.28	3081.03
982.579	3004.2
982.878	3031.54
983.177	3006.01
983.475	2992.45
983.774	2935.05
984.073	2957.87
984.372	2941.15
984.67	2934.82
984.969	2936.63
985.267	2907.71
985.566	2908.16
985.864	2915.39
986.162	2846.01
986.461	2862.06
986.759	2822.06
987.057	2793.58
987.355	2791.32
987.653	2811.21
987.951	2750.42
988.249	2776.86
988.547	2734.6
988.844	2738.9
989.142	2763.3
989.44	2710.65
989.737	2703.42
990.035	2674.94
990.332	2660.71
990.63	2664.77
990.927	2651.22
991.224	2628.62
991.521	2616.19
991.819	2598.11
992.116	2624.78
992.413	2622.52
992.71	2584.78
993.006	2565.12
993.303	2573.93
993.6	2548.39
993.897	2551.33
994.193	2535.29
994.49	2492.58
994.787	2498.68
995.083	2456.42
995.379	2483.54
995.676	2448.96
995.972	2464.33
996.268	2463.65
996.565	2433.82
996.861	2432.92
997.157	2408.96
997.453	2410.77
997.749	2363.54
998.044	2356.53
998.34	2330.77
998.636	2334.39
998.932	2344.11
999.227	2283.32
999.523	2297.1
999.818	2277.44
1000.114	2292.35
1000.409	2257.1
1000.704	2231.34
1001	2248.06
1001.295	2218.23
1001.59	2233.6
1001.885	2221.17
1002.18	2215.75
1002.475	2182.53
1002.77	2136.2
1003.065	2139.59
1003.359	2125.58
1003.654	2150.21
1003.949	2133.49
1004.243	2120.61
1004.538	2105.92
1004.832	2087.39
1005.127	2084.45
1005.421	2073.15
1005.715	2058.01
1006.009	2054.17
1006.304	2051.46
1006.598	2043.1
1006.892	2008.52
1007.186	1980.72
1007.48	1983.44
1007.773	1986.15
1008.067	1951.35
1008.361	1945.7
1008.655	1934.4
1008.948	1925.58
1009.242	1907.96
1009.535	1928.07
1009.829	1881.74
1010.122	1900.73
1010.415	1894.63
1010.708	1864.12
1011.001	1878.58
1011.295	1862.76
1011.588	1832.03
1011.881	1854.85
1012.173	1831.58
1012.466	1823.44
1012.759	1795.42
1013.052	1775.08
1013.344	1798.13
1013.637	1777.11
1013.93	1743.89
1014.222	1742.76
1014.514	1728.98
1014.807	1711.58
1015.099	1721.52
1015.391	1688.3
1015.683	1680.39
1015.976	1686.5
1016.268	1688.3
1016.56	1671.13
1016.851	1658.02
1017.143	1663.44
1017.435	1617.34
1017.727	1632.03
1018.018	1593.84
1018.31	1604.01
1018.602	1570.34
1018.893	1563.56
1019.185	1548.42
1019.476	1562.2
1019.767	1537.35
1020.058	1544.35
1020.35	1521.08
1020.641	1507.74
1020.932	1512.71
1021.223	1477.01
1021.514	1492.15
1021.804	1447.41
1022.095	1461.87
1022.386	1461.19
1022.677	1446.05
1022.967	1432.72
1023.258	1424.36
1023.548	1412.15
1023.839	1387.29
1024.129	1405.6
1024.419	1380.06
1024.709	1389.78
1025	1359.5
1025.29	1352.94
1025.58	1349.33
1025.87	1317.24
1026.16	1328.54
1026.449	1338.03
1026.739	1326.28
1027.029	1310.23
1027.319	1287.41
1027.608	1263.23
1027.898	1244.25
1028.187	1271.82
1028.477	1261.87
1028.766	1256
1029.055	1234.08
1029.344	1234.76
1029.634	1241.08
1029.923	1225.49
1030.212	1205.83
1030.501	1223.91
1030.79	1180.29
1031.078	1202.21
1031.367	1167.64
1031.656	1145.04
1031.945	1194.08
1032.233	1191.37
1032.522	1144.59
1032.81	1152.72
1033.099	1107.08
1033.387	1127.19
1033.675	1128.77
1033.963	1119.05
1034.251	1120.18
1034.54	1100.52
1034.828	1079.05
1035.116	1098.04
1035.403	1055.33
1035.691	1098.04
1035.979	1061.43
1036.267	1065.04
1036.554	1038.38
1036.842	1035.66
1037.129	1045.16
1037.417	1035.66
1037.704	1016.91
1037.992	999.51
1038.279	1007.19
1038.566	986.17
1038.853	986.17
1039.14	986.17
