Data from foil_FLMS001491_099.txt Node
Date: Tue Feb 07 11:37:33 GMT 2017
User: dcchb
Spectrometer: FLMS00149
Trigger mode: 0
Integration Time (sec): 2.000000E-2
Scans to average: 10
Electric dark correction enabled: true
Nonlinearity correction enabled: false
Boxcar width: 0
XAxis mode: Wavelengths
Number of Pixels in Spectrum: 2048
>>>>>Begin Spectral Data<<<<<
341.393	-8.47
341.776	-8.47
342.16	-8.47
342.543	-42.6
342.927	-71.98
343.31	-52.77
343.693	-77.63
344.077	-74.46
344.46	-57.74
344.843	-62.26
345.226	-39.89
345.61	-34.46
345.993	-3.05
346.376	-10.51
346.759	6.89
347.142	20
347.525	50.28
347.908	61.81
348.291	71.52
348.674	81.01
349.057	121.24
349.44	123.73
349.823	140.22
350.206	181.35
350.588	253.21
350.971	245.98
351.354	264.96
351.737	316.71
352.119	285.3
352.502	334.57
352.884	312.65
353.267	344.28
353.65	369.37
354.032	352.65
354.414	373.21
354.797	373.66
355.179	395.58
355.562	386.32
355.944	372.98
356.326	406.43
356.709	387.22
357.091	387.67
357.473	405.07
357.855	405.53
358.238	403.94
358.62	408.01
359.002	424.96
359.384	407.56
359.766	414.79
360.148	398.29
360.53	402.14
360.912	398.97
361.294	412.08
361.676	438.52
362.057	426.99
362.439	427.67
362.821	434.68
363.203	415.92
363.584	444.17
363.966	420.67
364.348	436.26
364.729	425.64
365.111	420.21
365.493	424.96
365.874	423.83
366.256	409.59
366.637	429.71
367.019	410.05
367.4	418.86
367.781	426.99
368.163	394.9
368.544	434.68
368.925	436.49
369.306	426.99
369.688	434.9
370.069	449.82
370.45	435.13
370.831	430.38
371.212	429.03
371.593	459.76
371.974	443.04
372.355	468.12
372.736	464.06
373.117	468.58
373.498	444.17
373.879	456.82
374.26	461.8
374.641	437.16
375.021	452.08
375.402	476.03
375.783	494.56
376.163	522.36
376.544	510.83
376.925	506.99
377.305	492.53
377.686	515.58
378.066	512.64
378.447	509.03
378.827	514.68
379.208	524.17
379.588	530.95
379.968	523.94
380.349	532.75
380.729	529.36
381.109	542.92
381.489	557.39
381.87	556.26
382.25	558.97
382.63	569.36
383.01	546.09
383.39	581.34
383.77	574.11
384.15	570.27
384.53	594
384.91	628.12
385.29	599.87
385.67	593.77
386.049	636.93
386.429	631.06
386.809	659.08
387.189	663.37
387.568	662.24
387.948	650.49
388.328	658.63
388.707	675.58
389.087	686.65
389.466	681.9
389.846	704.73
390.225	711.05
390.605	708.79
390.984	723.71
391.363	729.13
391.743	744.05
392.122	730.04
392.501	761.22
392.881	754.22
393.26	788.34
393.639	758.51
394.018	775.23
394.397	793.76
394.776	810.71
395.155	820.88
395.534	815.46
395.913	826.98
396.292	850.94
396.671	858.4
397.05	838.96
397.429	852.29
397.808	852.97
398.186	858.85
398.565	905.17
398.944	888.68
399.323	920.09
399.701	900.65
400.08	925.06
400.458	930.48
400.837	977.49
401.215	948.34
401.594	972.97
401.972	980.2
402.351	970.93
402.729	975.23
403.107	975.45
403.486	1023.59
403.864	1018.62
404.242	1049.35
404.62	1054.55
404.999	1053.87
405.377	1077.6
405.755	1070.14
406.133	1110.37
406.511	1114.43
406.889	1115.79
407.267	1116.24
407.645	1138.16
408.023	1160.99
408.401	1184.26
408.779	1205.73
409.156	1214.77
409.534	1232.17
409.912	1247.76
410.29	1278.5
410.667	1311.04
411.045	1314.2
411.422	1338.38
411.8	1337.48
412.178	1375.22
412.555	1351.49
412.933	1406.18
413.31	1434.88
413.687	1438.72
414.065	1465.39
414.442	1462.45
414.819	1501.99
415.197	1489.11
415.574	1510.36
415.951	1544.03
416.328	1555.1
416.705	1583.8
417.082	1583.8
417.46	1593.97
417.837	1617.47
418.214	1616.12
418.591	1634.65
418.967	1629.9
419.344	1655.89
419.721	1703.57
420.098	1704.47
420.475	1725.49
420.852	1731.37
421.228	1759.84
421.605	1772.04
421.982	1801.42
422.358	1833.51
422.735	1853.85
423.111	1872.38
423.488	1886.62
423.864	1885.49
424.241	1923.45
424.617	1974.98
424.994	1995.54
425.37	1960.97
425.746	1986.73
426.123	2018.59
426.499	2039.38
426.875	2037.35
427.251	2119.83
427.627	2128.64
428.003	2209.77
428.379	2177.46
428.756	2229.43
429.132	2235.53
429.507	2267.62
429.883	2275.99
430.259	2343.78
430.635	2331.58
431.011	2360.95
431.387	2439.6
431.763	2500.39
432.138	2478.92
432.514	2517.33
432.89	2532.93
433.265	2607.05
433.641	2636.65
434.016	2667.39
434.392	2700.38
434.767	2765.24
435.143	2716.65
435.518	2742.87
435.894	2796.42
436.269	2864.22
436.644	2904.44
437.02	2947.15
437.395	2915.52
437.77	2998.45
438.145	3002.29
438.52	3021.5
438.895	3068.96
439.271	3080.48
439.646	3184.89
440.021	3162.52
440.395	3183.08
440.77	3202.97
441.145	3225.11
441.52	3274.6
441.895	3291.1
442.27	3347.82
442.645	3357.31
443.019	3378.1
443.394	3381.04
443.769	3443.41
444.143	3442.96
444.518	3467.59
444.892	3445.9
445.267	3526.8
445.641	3516.4
446.016	3561.38
446.39	3593.92
446.764	3611.32
447.139	3635.5
447.513	3697.42
447.887	3675.5
448.262	3705.1
448.636	3730.41
449.01	3786.91
449.384	3803.85
449.758	3842.27
450.132	3890.86
450.506	3894.7
450.88	3910.29
451.254	3917.75
451.628	4003.17
452.002	4078.2
452.376	4063.28
452.75	4131.98
453.123	4169.04
453.497	4227.8
453.871	4246.56
454.244	4350.28
454.618	4367
454.992	4428.7
455.365	4430.5
455.739	4546.66
456.112	4611.74
456.486	4633.89
456.859	4689.48
457.232	4806.77
457.606	4771.06
457.979	4837.5
458.352	4959.76
458.725	4964.73
459.099	5004.73
459.472	5139.86
459.845	5185.29
460.218	5251.5
460.591	5277.49
460.964	5312.29
461.337	5442
461.71	5531.94
462.083	5591.38
462.456	5582.57
462.829	5647.2
463.201	5743.46
463.574	5761.77
463.947	5845.38
464.32	5991.59
464.692	6039.5
465.065	6025.04
465.438	6178.03
465.81	6253.96
466.183	6337.57
466.555	6519.72
466.928	6477.68
467.3	6519.94
467.672	6621.86
468.045	6803.78
468.417	6824.57
468.789	6891.68
469.161	6965.13
469.534	7072.47
469.906	7253.48
470.278	7265.46
470.65	7323.99
471.022	7504.32
471.394	7697.09
471.766	7726.92
472.138	7808.27
472.51	7981.6
472.882	8053.69
473.253	8232.21
473.625	8317.18
473.997	8512.88
474.369	8554.46
474.74	8681.69
475.112	8820.45
475.484	8962.59
475.855	9130.04
476.227	9208.46
476.598	9446.42
476.97	9606.41
477.341	9763.25
477.713	9904.49
478.084	9933.41
478.455	10213.63
478.827	10361.87
479.198	10650.45
479.569	10582.66
479.94	10903.78
480.311	11011.35
480.682	11204.34
481.053	11501.05
481.424	11751.44
481.795	11839.35
482.166	12017.65
482.537	12064.65
482.908	12369.05
483.279	12519.11
483.65	12779.21
484.021	13048.13
484.391	13219.2
484.762	13334
485.133	13474.33
485.503	13614.22
485.874	13922.91
486.244	14057.6
486.615	14327.87
486.985	14439.73
487.356	14756.34
487.726	14948.42
488.097	15180.5
488.467	15253.95
488.837	15514.28
489.207	15764.22
489.578	16012.35
489.948	16097.99
490.318	16315.39
490.688	16420.7
491.058	16620.47
491.428	16927.58
491.798	17096.84
492.168	17426.55
492.538	17495.02
492.908	17699.53
493.278	17908.12
493.648	17938.4
494.017	18275.11
494.387	18353.98
494.757	18503.81
495.126	18716.01
495.496	18728.89
495.866	18918.71
496.235	19166.84
496.605	19292.49
496.974	19391.47
497.344	19722.08
497.713	19698.8
498.082	19860.38
498.452	20108.06
498.821	20235.97
499.19	20267.83
499.559	20628.27
499.928	20638.89
500.298	20808.61
500.667	21001.14
501.036	20940.13
501.405	21242.04
501.774	21235.03
502.143	21434.58
502.512	21481.13
502.88	21821.23
503.249	21774.91
503.618	22013.55
503.987	22047.67
504.356	22289.24
504.724	22341.9
505.093	22534.89
505.462	22645.39
505.83	22735.56
506.199	23052.61
506.567	23222.78
506.936	23214.87
507.304	23528.99
507.672	23675.2
508.041	23796.1
508.409	24000.84
508.777	24095.07
509.145	24237.67
509.514	24334.61
509.882	24654.38
510.25	24561.05
510.618	24863.87
510.986	24836.3
511.354	25083.97
511.722	25388.15
512.09	25422.5
512.458	25510.63
512.826	25839.43
513.193	25939.54
513.561	26165.98
513.929	26282.13
514.297	26622.69
514.664	26770.03
515.032	26886.19
515.4	27053.64
515.767	27265.61
516.135	27324.82
516.502	27203.69
516.869	27762.77
517.237	28014.52
517.604	27929.32
517.972	28271.91
518.339	28514.62
518.706	28564.11
519.073	28881.16
519.44	28969.97
519.808	29237.99
520.175	29332
520.542	29734.25
520.909	29869.16
521.276	29979.21
521.643	30173.56
522.009	30414.23
522.376	30692.19
522.743	30840.88
523.11	31235.9
523.477	31439.74
523.843	31636.8
524.21	31908.88
524.577	32231.36
524.943	32380.05
525.31	32535.53
525.676	32901.39
526.043	33023.43
526.409	33134.16
526.776	33500.25
527.142	33763.97
527.508	33762.39
527.874	34054.13
528.241	34204.41
528.607	34420.22
528.973	34708.35
529.339	34735.7
529.705	35204.84
530.071	35484.6
530.437	35574.77
530.803	35543.13
531.169	35888.21
531.535	35978.15
531.901	36118.26
532.267	36290.01
532.632	36563.22
532.998	36730.45
533.364	36894.51
533.73	37032.81
534.095	37388.96
534.461	37439.58
534.826	37690.65
535.192	37758.67
535.557	37985.33
535.923	38028.49
536.288	38209.28
536.653	38535.14
537.019	38426.22
537.384	38507.58
537.749	38733.78
538.114	38855.59
538.479	39027.79
538.845	39196.37
539.21	39088.58
539.575	39345.52
539.94	39506.87
540.305	39693.31
540.67	39696.24
541.034	39845.39
541.399	39988.67
541.764	40023.24
542.129	40242.9
542.494	40283.57
542.858	40461.42
543.223	40483.79
543.587	40844.24
543.952	40902.54
544.316	41114.74
544.681	41062.54
545.045	41302.76
545.41	41527.83
545.774	41618.91
546.138	41615.97
546.503	41766.02
546.867	41839.46
547.231	42114.26
547.595	42255.05
547.959	42316.51
548.324	42438.09
548.688	42595.38
549.052	42664.53
549.416	42744.75
549.779	42896.61
550.143	42953.11
550.507	43363.04
550.871	43471.06
551.235	43469.93
551.599	43743.14
551.962	43870.37
552.326	44009.58
552.689	44136.13
553.053	44006.64
553.417	44157.37
553.78	44644.59
554.143	44621.99
554.507	44838.93
554.87	44935.2
555.234	45234.18
555.597	45045.48
555.96	45232.82
556.323	45435.75
556.686	45488.86
557.05	45826.93
557.413	45884.56
557.776	46145.34
558.139	46459.46
558.502	46542.84
558.865	46558.21
559.228	46840.01
559.59	46860.58
559.953	47080.01
560.316	47411.97
560.679	47493.1
561.041	47644.06
561.404	47897.84
561.767	48144.16
562.129	48108.68
562.492	48438.39
562.854	48391.38
563.217	48445.84
563.579	48738.04
563.941	48917.7
564.304	49016.45
564.666	49283.56
565.028	49314.07
565.39	49352.71
565.753	49594.74
566.115	49713.61
566.477	49737.11
566.839	50018.23
567.201	50174.84
567.563	50224.1
567.925	50554.72
568.287	50495.96
568.648	50660.02
569.01	50741.6
569.372	51065.21
569.734	51037.42
570.095	51189.5
570.457	51304.75
570.819	51494.58
571.18	51433.11
571.542	51581.81
571.903	51716.72
572.265	51723.95
572.626	51871.97
572.987	51937.05
573.349	51940.67
573.71	52053.89
574.071	52227.67
574.432	52304.73
574.794	52560.76
575.155	52475.12
575.516	52505.85
575.877	52685.96
576.238	52588.56
576.599	52678.5
576.96	52666.3
577.32	52713.76
577.681	52915.11
578.042	52982
578.403	52879.85
578.763	53001.66
579.124	53036.23
579.485	53192.16
579.845	53257.47
580.206	53126.4
580.566	53120.75
580.927	53229.9
581.287	53350.12
581.648	53253.85
582.008	53316.45
582.368	53263.35
582.728	53389.44
583.089	53341.99
583.449	53406.39
583.809	53367.07
584.169	53428.99
584.529	53329.56
584.889	53562.55
585.249	53381.08
585.609	53377.69
585.969	53513.28
586.329	53431.02
586.688	53465.37
587.048	53423.57
587.408	53398.26
587.768	53498.14
588.127	53341.54
588.487	53348.54
588.846	53624.24
589.206	53393.74
589.565	53404.36
589.925	53615.43
590.284	53438.48
590.643	53494.98
591.003	53605.94
591.362	53586.95
591.721	53538.59
592.08	53546.28
592.44	53592.6
592.799	53509.21
593.158	53484.13
593.517	53468.09
593.876	53629.66
594.235	53568.42
594.593	53520.74
594.952	53581.98
595.311	53558.03
595.67	53576.11
596.029	53751.92
596.387	53659.04
596.746	53757.57
597.104	53563.45
597.463	53671.92
597.822	53739.72
598.18	53589.44
598.538	53648.87
598.897	53796.89
599.255	53560.74
599.613	53905.14
599.972	53733.62
600.33	53850
600.688	53687.06
601.046	53760.96
601.404	53934.97
601.762	53962.08
602.12	54030.78
602.478	53991.01
602.836	53995.53
603.194	53887.28
603.552	53958.02
603.91	53910.33
604.268	54041.18
604.625	54022.2
604.983	54207.28
605.341	53962.08
605.698	54033.04
606.056	54168.18
606.413	54121.85
606.771	54204.34
607.128	54281.17
607.485	54111.46
607.843	54142.64
608.2	54330.66
608.557	54413.6
608.914	54236.88
609.272	54375.86
609.629	54420.38
609.986	54456.76
610.343	54369.98
610.7	54529.53
611.057	54493.6
611.414	54472.58
611.771	54572.24
612.127	54627.38
612.484	54632.57
612.841	54598.23
613.198	54570.66
613.554	54654.27
613.911	54832.57
614.267	54773.81
614.624	54737.88
614.98	54781.27
615.337	54943.08
615.693	54858.78
616.05	54801.84
616.406	54977.2
616.762	54805
617.118	54830.08
617.475	54819.69
617.831	54945.56
618.187	54972.9
618.543	54951.44
618.899	55055.84
619.255	54959.8
619.611	54970.87
619.967	55073.69
620.323	55129.74
620.678	55082.96
621.034	54890.42
621.39	54915.05
621.746	54897.65
622.101	55235.72
622.457	54898.33
622.812	54969.06
623.168	55007.93
623.523	55036.86
623.879	55101.49
624.234	55016.07
624.589	55042.51
624.945	54992.11
625.3	55038.21
625.655	55000.47
626.01	55056.52
626.365	55044.54
626.72	55083.64
627.075	55052.45
627.43	55015.39
627.785	54824.89
628.14	54935.84
628.495	54947.59
628.85	54939.69
629.205	54826.02
629.559	55004.99
629.914	54794.83
630.269	54865.34
630.623	54725.68
630.978	54689.07
631.332	54823.08
631.687	54806.58
632.041	54703.08
632.396	54772.91
632.75	54561.16
633.104	54654.27
633.459	54454.95
633.813	54453.37
634.167	54430.55
634.521	54333.37
634.875	54461.73
635.229	54419.47
635.583	54249.99
635.937	54293.6
636.291	54254.28
636.645	54214.96
636.999	54181.51
637.352	54195.98
637.706	54026.26
638.06	54105.13
638.413	53990.78
638.767	53945.59
639.121	53991.46
639.474	53818.13
639.828	53891.35
640.181	53886.38
640.534	53826.27
640.888	53696.55
641.241	53536.78
641.594	53574.75
641.947	53677.12
642.301	53511.25
642.654	53514.64
643.007	53504.69
643.36	53464.47
643.713	53438.03
644.066	53528.65
644.419	53243.01
644.771	53035.33
645.124	52620.88
645.477	52597.15
645.83	52476.25
646.182	52363.26
646.535	52265.86
646.888	52349.02
647.24	52253.43
647.593	52362.8
647.945	52348.12
648.298	52127.78
648.65	51957.84
649.002	51939.99
649.355	52102.25
649.707	51882.82
650.059	51997.39
650.411	52314.9
650.763	52382.92
651.115	52705.62
651.467	52615.23
651.819	52533.65
652.171	52376.81
652.523	52424.27
652.875	52403.71
653.227	52272.41
653.578	52506.98
653.93	52389.92
654.282	52176.59
654.633	52117.61
654.985	52166.2
655.337	52212.07
655.688	52131.85
656.039	52203.26
656.391	51859.77
656.742	51897.28
657.094	51961.68
657.445	52127.78
657.796	51937.5
658.147	51841.46
658.498	51834.68
658.849	51894.12
659.2	51813.44
659.551	51840.11
659.902	51875.81
660.253	51674.69
660.604	51702.26
660.955	51520.79
661.306	51735.48
661.656	51717.62
662.007	51632.88
662.358	51647.57
662.708	51594.46
663.059	51524.63
663.409	51309.95
663.76	51388.37
664.11	51527.8
664.461	51481.02
664.811	51474.47
665.161	51492.77
665.511	51294.36
665.862	51364.86
666.212	51385.88
666.562	51403.73
666.912	51277.63
667.262	51250.97
667.612	51249.39
667.962	51185.89
668.312	51216.62
668.662	51311.76
669.011	51109.73
669.361	51075.61
669.711	51130.29
670.06	51034.7
670.41	50919
670.76	50895.05
671.109	50994.7
671.459	50954.93
671.808	50789.51
672.157	50884.65
672.507	50729.63
672.856	50767.59
673.205	50771.89
673.554	50736.86
673.904	50666.8
674.253	50852.79
674.602	50656.18
674.951	50200.37
675.3	50006.03
675.649	50598.78
675.998	50427.04
676.346	50529.18
676.695	50583.19
677.044	50269.3
677.393	50382.07
677.741	50391.33
678.09	50236.08
678.438	50102.3
678.787	50235.63
679.135	50214.84
679.484	50008.29
679.832	50091
680.181	49905.69
680.529	49994.73
680.877	49783.21
681.225	49757.67
681.573	49924
681.922	49589.54
682.27	49489.89
682.618	49624.34
682.966	49431.13
683.314	49487.4
683.661	49325.82
684.009	49116.11
684.357	49091.25
684.705	49093.74
685.053	49178.93
685.4	48977.81
685.748	48878.83
686.095	48814.87
686.443	48628.89
686.79	48497.59
687.138	48720.41
687.485	48588.89
687.832	48308.22
688.18	48312.74
688.527	48235.91
688.874	48149.81
689.221	48098.28
689.568	47859.19
689.915	47902.58
690.262	47891.06
690.609	47726.32
690.956	47739.87
691.303	47651.74
691.65	47348.25
691.997	47354.35
692.344	47081.36
692.69	46996.17
693.037	47018.31
693.383	46808.37
693.73	46738.32
694.077	46575.84
694.423	46590.98
694.769	46401.38
695.116	46240.71
695.462	46147.83
695.808	46092.69
696.155	46141.95
696.501	45839.81
696.847	45847.95
697.193	45481.4
697.539	45616.31
697.885	45143.78
698.231	45197.34
698.577	45257
698.923	45068.31
699.269	44952.6
699.614	44750.8
699.96	44777.01
700.306	44665.38
700.651	44470.81
700.997	44306.07
701.342	44256.12
701.688	44209.35
702.033	44027.2
702.379	44019.75
702.724	43903.59
703.069	43890.48
703.415	43374.57
703.76	43385.64
704.105	43581.34
704.45	43216.15
704.795	43046.66
705.14	42938.64
705.485	42832.21
705.83	42828.82
706.175	42881.92
706.52	42682.61
706.865	42572.55
707.209	42462.95
707.554	42225.9
707.899	42313.12
708.243	42106.12
708.588	42130.3
708.932	41815.96
709.277	41831.33
709.621	41821.61
709.966	41499.81
710.31	41411
710.654	41186.37
710.998	41191.8
711.342	41173.95
711.687	41007.17
712.031	41057.56
712.375	40854.86
712.719	40917.23
713.063	40819.38
713.407	40762.66
713.75	40560.4
714.094	40561.53
714.438	40467.07
714.782	40546.17
715.125	40128.78
715.469	40120.87
715.812	39974.2
716.156	39684.95
716.499	39674.78
716.843	39832.06
717.186	39525.18
717.53	39757.71
717.873	39685.17
718.216	39482.46
718.559	39390.72
718.902	39151.17
719.246	39342.81
719.589	39088.58
719.932	38890.16
720.275	39010.39
720.617	38973.33
720.96	38833.22
721.303	38759.32
721.646	38749.38
721.989	38416.05
722.331	38486.78
722.674	38366.56
723.016	38455.37
723.359	38226
723.701	38324.76
724.044	38079.79
724.386	37894.26
724.729	37998.21
725.071	37795.28
725.413	37878.21
725.755	37843.19
726.097	37731.32
726.439	37445.46
726.782	37471.9
727.124	37581.05
727.465	37201.85
727.807	37251.11
728.149	37171.34
728.491	37173.6
728.833	37261.51
729.175	36910.33
729.516	36967.5
729.858	36872.59
730.199	36846.83
730.541	36685.02
730.882	36693.61
731.224	36848.41
731.565	36580.62
731.906	36513.28
732.248	36575.42
732.589	36267.63
732.93	36161.42
733.271	36135.43
733.612	36212.95
733.953	36137.47
734.294	35927.3
734.635	35925.95
734.976	35943.8
735.317	35695.9
735.658	35651.6
735.999	35763.24
736.339	35601.21
736.68	35612.28
737.021	35513.98
737.361	35322.12
737.702	35533.19
738.042	35342.69
738.383	35184.95
738.723	35318.96
739.063	35117.16
739.404	35113.99
739.744	34937.73
740.084	34867.9
740.424	34901.79
740.764	34812.76
741.104	34942.25
741.444	34616.83
741.784	34647.34
742.124	34731.18
742.464	34577.28
742.804	34503.84
743.143	34408.47
743.483	34370.73
743.823	34186.78
744.162	34187.01
744.502	34212.55
744.841	34043.96
745.181	34049.16
745.52	33874.25
745.86	33816.62
746.199	33707.48
746.538	33726.01
746.877	33692.56
747.216	33678.78
747.556	33508.38
747.895	33451.44
748.234	33319.46
748.573	33110.2
748.911	33264.32
749.25	33218.45
749.589	32916.08
749.928	33077.66
750.267	33035.63
750.605	33013.71
750.944	32957.66
751.283	32706.15
751.621	32842.87
751.96	32529.2
752.298	32569.88
752.636	32563.1
752.975	32417.34
753.313	32208.76
753.651	32282.43
753.989	32054.19
754.327	32094.64
754.666	31843.34
755.004	31935.54
755.342	32010.57
755.679	31864.36
756.017	31581.43
756.355	31628.43
756.693	31505.73
757.031	31517.93
757.368	31227.54
757.706	31280.65
758.044	31041.78
758.381	31149.58
758.719	31009.69
759.056	31096.92
759.394	30965.85
759.731	30736.93
760.068	30679.31
760.405	30657.39
760.743	30490.84
761.08	30459.2
761.417	30160.22
761.754	30163.39
762.091	30108.25
762.428	29981.7
762.765	29870.74
763.102	29936.5
763.438	29670.75
763.775	29528.38
764.112	29547.81
764.449	29588.49
764.785	29421.94
765.122	29144.43
765.458	29202.06
765.795	28914.61
766.131	28906.47
766.467	28814.95
766.804	28736.98
767.14	28511
767.476	28428.07
767.812	28456.31
768.148	28464.9
768.485	28248.64
768.821	27980.17
769.157	27922.54
769.492	27906.27
769.828	27857.69
770.164	27490.46
770.5	27597.35
770.836	27587.86
771.171	27306.51
771.507	27406.62
771.842	27101.55
772.178	27062
772.513	27030.81
772.849	26878.28
773.184	26676.93
773.519	26721.67
773.855	26495.24
774.19	26388.8
774.525	26260.89
774.86	26242.36
775.195	26263.6
775.53	26039.43
775.865	25803.95
776.2	25675.37
776.535	25541.81
776.87	25594.47
777.205	25492.1
777.539	25315.83
777.874	25349.95
778.209	25131.43
778.543	25170.3
778.878	25018.89
779.212	24918.1
779.547	24868.84
779.881	24853.7
780.215	24691.67
780.55	24603.08
780.884	24428.62
781.218	24350.21
781.552	24425.23
781.886	24229.98
782.22	24035.19
782.554	23893.04
782.888	23780.96
783.222	23611.02
783.556	23539.83
783.889	23434.75
784.223	23310.23
784.557	23187.75
784.89	23227.75
785.224	23104.82
785.557	22897.82
785.891	22972.39
786.224	22826.18
786.558	22847.2
786.891	22509.58
787.224	22470.03
787.557	22439.97
787.891	22429.13
788.224	22346.19
788.557	22231.84
788.89	22263.93
789.223	22244.95
789.556	22005.18
789.888	21929.93
790.221	21881.12
790.554	21728.36
790.887	21672.31
791.219	21602.03
791.552	21549.38
791.884	21407.69
792.217	21381.02
792.549	21320.68
792.882	21036.4
793.214	21062.84
793.546	21057.64
793.879	21020.35
794.211	20830.53
794.543	20803.41
794.875	20623.53
795.207	20789.4
795.539	20700.81
795.871	20602.96
796.203	20525.67
796.535	20277.77
796.867	20295.62
797.198	20218.56
797.53	20128.62
797.862	20127.95
798.193	20031
798.525	19892.47
798.856	19906.26
799.188	19683.21
799.519	19694.28
799.85	19447.06
800.182	19588.3
800.513	19505.81
800.844	19399.15
801.175	19521.86
801.506	19244.58
801.837	19243
802.168	19105.83
802.499	19108.54
802.83	18934.98
803.161	18891.82
803.491	18942.89
803.822	18906.51
804.153	18763.69
804.483	18597.59
804.814	18565.27
805.145	18577.48
805.475	18575.22
805.805	18502.23
806.136	18403.24
806.466	18367.99
806.796	18287.54
807.126	18247.99
807.457	18111.05
807.787	18159.86
808.117	18041.45
808.447	18036.02
808.777	18040.99
809.107	17833.32
809.436	17780.89
809.766	17839.87
810.096	17825.18
810.426	17705.41
810.755	17654.79
811.085	17683.49
811.414	17577.05
811.744	17359.43
812.073	17314.69
812.403	17309.71
812.732	17287.34
813.061	17238.08
813.39	17215.93
813.719	17195.14
814.049	17230.62
814.378	17028.82
814.707	17004.86
815.036	16958.76
815.365	16893.91
815.693	16799.45
816.022	16755.6
816.351	16709.28
816.68	16594.93
817.008	16667.92
817.337	16589.28
817.665	16533.24
817.994	16485.1
818.322	16501.83
818.651	16453.69
818.979	16294.83
819.307	16460.92
819.636	16313.81
819.964	16127.15
820.292	16244.66
820.62	16144.32
820.948	16111.1
821.276	16196.3
821.604	16177.54
821.932	16127.82
822.259	16174.15
822.587	16033.59
822.915	16018.67
823.243	16094.61
823.57	16084.66
823.898	16038.11
824.225	16003.53
824.553	15920.15
824.88	16025
825.207	15996.53
825.535	15945.91
825.862	16030.65
826.189	15951.11
826.516	16034.95
826.843	15914.27
827.17	16068.62
827.497	15903.42
827.824	15956.53
828.151	16039.01
828.478	15864.33
828.805	15950.88
829.131	15895.51
829.458	15883.76
829.785	15838.79
830.111	15902.97
830.438	15953.82
830.764	15890.09
831.09	15944.33
831.417	15850.54
831.743	15833.14
832.069	15870.2
832.395	15790.43
832.722	15758.12
833.048	15650.32
833.374	15799.92
833.7	15725.12
834.026	15779.13
834.351	15790.21
834.677	15654.16
835.003	15762.41
835.329	15665.69
835.654	15607.84
835.98	15584.34
836.306	15576.2
836.631	15541.63
836.956	15517.22
837.282	15568.07
837.607	15404.68
837.932	15447.84
838.258	15395.41
838.583	15426.15
838.908	15272.71
839.233	15357.68
839.558	15352.7
839.883	15133.95
840.208	15260.73
840.533	15171.47
840.858	15177.34
841.182	15262.31
841.507	15215.53
841.832	15081.52
842.156	15191.8
842.481	15118.81
842.805	14928.53
843.13	15036.33
843.454	14912.94
843.778	14887.41
844.103	14856.22
844.427	14795.43
844.751	14849.21
845.075	14844.47
845.399	14727.18
845.723	14729.67
846.047	14638.82
846.371	14521.77
846.695	14520.41
847.019	14431.15
847.343	14387.08
847.666	14307.76
847.99	14190.25
848.313	14178.27
848.637	14081.55
848.96	14197.03
849.284	14130.59
849.607	13971.05
849.931	13980.76
850.254	13912.29
850.577	13779.19
850.9	13661.45
851.223	13614.22
851.546	13550.72
851.869	13440.66
852.192	13606.76
852.515	13445.41
852.838	13446.99
853.161	13459.87
853.483	13364.73
853.806	13272.76
854.129	13296.49
854.451	13264.62
854.774	13182.14
855.096	12991.64
855.419	13072.54
855.741	13047.45
856.063	13002.48
856.385	12931.3
856.708	12949.38
857.03	12838.65
857.352	12897.18
857.674	12849.04
857.996	12743.73
858.318	12678.2
858.64	12625.32
858.961	12618.09
859.283	12629.39
859.605	12531.99
859.926	12563.17
860.248	12538.77
860.57	12458.99
860.891	12543.96
861.212	12463.06
861.534	12417.41
861.855	12426.45
862.176	12424.19
862.498	12409.05
862.819	12378.32
863.14	12266.23
863.461	12197.76
863.782	12152.79
864.103	12229.4
864.424	12190.98
864.745	12221.94
865.065	12112.11
865.386	12092.9
865.707	12064.65
866.027	12152.79
866.348	12082.28
866.668	12020.14
866.989	12005.67
867.309	11907.14
867.63	11940.59
867.95	12007.03
868.27	11848.84
868.59	11974.26
868.91	11944.43
869.23	11958.89
869.55	11831.67
869.87	11887.71
870.19	11880.03
870.51	11885
870.83	11837.77
871.15	11693.36
871.469	11793.48
871.789	11802.06
872.109	11706.02
872.428	11623.08
872.748	11772.23
873.067	11665.12
873.386	11685.68
873.706	11640.48
874.025	11597.55
874.344	11534.72
874.663	11554.39
874.982	11550.32
875.301	11474.39
875.62	11517.55
875.939	11447.04
876.258	11508.51
876.577	11490.88
876.896	11391.45
877.214	11411.34
877.533	11422.86
877.852	11381.51
878.17	11348.74
878.489	11415.41
878.807	11420.6
879.125	11302.19
879.444	11284.11
879.762	11201.4
880.08	11255.86
880.398	11201.63
880.716	11223.32
881.034	11182.64
881.352	11195.98
881.67	11104
881.988	11199.37
882.306	11179.03
882.624	11089.54
882.941	10999.6
883.259	10965.25
883.577	10991.24
883.894	10978.58
884.212	10986.72
884.529	10969.77
884.846	10881.41
885.164	10929.54
885.481	10826.95
885.798	10877.57
886.115	10846.16
886.432	10826.95
886.75	10770.68
887.067	10798.02
887.383	10701.75
887.7	10771.81
888.017	10664.47
888.334	10665.6
888.651	10626.5
888.967	10575.88
889.284	10553.51
889.6	10421.76
889.917	10475.09
890.233	10495.43
890.55	10451.82
890.866	10553.06
891.182	10415.21
891.498	10407.07
891.815	10277.13
892.131	10250.69
892.447	10294.76
892.763	10144.03
893.079	10124.59
893.395	10193.52
893.71	10161.65
894.026	10108.77
894.342	10115.78
894.657	10033.3
894.973	10046.85
895.289	10071.94
895.604	10049.57
895.92	9928.21
896.235	9906.52
896.55	9910.59
896.865	9885.73
897.181	9816.8
897.496	9886.86
897.811	9772.06
898.126	9785.17
898.441	9707.2
898.756	9711.5
899.071	9679.18
899.386	9730.48
899.7	9601.22
900.015	9607.32
900.33	9511.5
900.644	9513.76
900.959	9464.95
901.273	9398.51
901.588	9403.93
901.902	9328.46
902.216	9344.73
902.531	9365.97
902.845	9322.35
903.159	9201
903.473	9236.93
903.787	9223.15
904.101	9137.05
904.415	9109.48
904.729	9040.33
905.042	9039.2
905.356	9085.07
905.67	8934.79
905.984	8985.64
906.297	8947.67
906.611	8823.16
906.924	8837.62
907.237	8797.17
907.551	8830.16
907.864	8765.76
908.177	8783.84
908.491	8700.22
908.804	8658.19
909.117	8606.67
909.43	8591.3
909.743	8521.47
910.056	8511.75
910.368	8499.78
910.681	8508.82
910.994	8395.82
911.307	8408.25
911.619	8361.02
911.932	8332.1
912.244	8274.47
912.557	8259.78
912.869	8205.55
913.181	8194.47
913.494	8174.59
913.806	8060.01
914.118	8076.51
914.43	8037.42
914.742	8066.57
915.054	7978.66
915.366	7981.82
915.678	7918.32
915.99	7883.97
916.302	7866.8
916.613	7805.56
916.925	7809.85
917.236	7773.47
917.548	7754.26
917.859	7782.96
918.171	7669.52
918.482	7602.4
918.794	7583.87
919.105	7572.12
919.416	7475.85
919.727	7517.43
920.038	7490.76
920.349	7440.82
920.66	7364.21
920.971	7400.82
921.282	7288.06
921.593	7304.78
921.903	7203.54
922.214	7262.07
922.525	7200.15
922.835	7261.84
923.146	7132.13
923.456	7145.24
923.767	7090.32
924.077	7071.11
924.387	7079.7
924.697	7039.48
925.008	7028.85
925.318	6939.37
925.628	6932.81
925.938	6938.24
926.248	6836.77
926.558	6844
926.867	6775.75
927.177	6758.81
927.487	6752.7
927.796	6701.63
928.106	6760.84
928.416	6688.3
928.725	6688.75
929.034	6591.13
929.344	6564.46
929.653	6561.97
929.962	6517.46
930.271	6480.39
930.581	6511.13
930.89	6433.16
931.199	6389.78
931.508	6404.01
931.817	6401.75
932.125	6348.42
932.434	6329.21
932.743	6225.49
933.051	6252.38
933.36	6239.5
933.669	6140.97
933.977	6143.23
934.286	6133.96
934.594	6102.78
934.902	6086.73
935.21	6034.3
935.519	6064.13
935.827	6063.23
936.135	5964.48
936.443	5949.34
936.751	5922.9
937.059	5944.14
937.367	5881.09
937.674	5898.71
937.982	5887.87
938.29	5833.86
938.597	5770.36
938.905	5723.8
939.213	5698.04
939.52	5675.67
939.827	5664.6
940.135	5649.68
940.442	5613.3
940.749	5609.91
941.056	5593.19
941.363	5587.76
941.67	5563.58
941.977	5462.12
942.284	5486.07
942.591	5475.45
942.898	5417.37
943.205	5405.39
943.511	5399.75
943.818	5396.81
944.125	5355.23
944.431	5315.68
944.738	5292.63
945.044	5295.34
945.35	5210.6
945.657	5225.06
945.963	5209.92
946.269	5143.03
946.575	5200.65
946.881	5179.41
947.187	5131.96
947.493	5110.71
947.799	5098.96
948.105	5054.44
948.41	5045.86
948.716	5012.64
949.022	5020.32
949.327	4999.08
949.633	4948.46
949.938	4989.81
950.244	4922.02
950.549	4927.89
950.854	4919.08
951.16	4853.54
951.465	4766.09
951.77	4784.62
952.075	4782.36
952.38	4722.25
952.685	4714.34
952.99	4684.74
953.294	4709.37
953.599	4690.61
953.904	4639.99
954.209	4644.74
954.513	4636.15
954.818	4600.67
955.122	4554.12
955.426	4507.79
955.731	4530.16
956.035	4512.08
956.339	4513.21
956.643	4500.33
956.948	4502.59
957.252	4436.61
957.556	4382.37
957.86	4399.55
958.163	4392.99
958.467	4365.2
958.771	4343.95
959.075	4301.24
959.378	4274.8
959.682	4277.29
959.985	4273.45
960.289	4251.75
960.592	4249.72
960.896	4232.09
961.199	4181.7
961.502	4174.24
961.805	4159.1
962.108	4122.26
962.411	4113.23
962.714	4097.86
963.017	4072.1
963.32	4118.65
963.623	4015.6
963.926	4070.06
964.228	4010.63
964.531	3994.36
964.833	3995.04
965.136	3983.96
965.438	3942.38
965.741	3910.74
966.043	3848.37
966.345	3895.6
966.648	3857.64
966.95	3865.1
967.252	3862.38
967.554	3809.28
967.856	3819
968.158	3781.93
968.46	3791.2
968.761	3737.87
969.063	3718.21
969.365	3727.47
969.666	3736.74
969.968	3665.33
970.269	3713.69
970.571	3677.3
970.872	3673.46
971.174	3675.72
971.475	3654.03
971.776	3604.31
972.077	3567.7
972.378	3560.7
972.679	3546.01
972.98	3506.91
973.281	3523.18
973.582	3495.39
973.883	3440.93
974.183	3433.02
974.484	3427.14
974.785	3419.46
975.085	3467.37
975.386	3433.7
975.686	3390.08
975.986	3360.25
976.287	3369.97
976.587	3339.46
976.887	3326.13
977.187	3330.19
977.487	3300.59
977.787	3286.58
978.087	3274.6
978.387	3264.43
978.687	3255.85
978.987	3223.98
979.286	3190.31
979.586	3205.45
979.885	3195.28
980.185	3205.68
980.484	3153.25
980.784	3168.39
981.083	3115.74
981.382	3070.77
981.682	3123.42
981.981	3094.72
982.28	3084.55
982.579	3033.93
982.878	3052.46
983.177	3008.62
983.475	3021.5
983.774	3015.4
984.073	2982.41
984.372	2989.86
984.67	2939.47
984.969	2955.74
985.267	2959.36
985.566	2906.48
985.864	2914.16
986.162	2938.34
986.461	2908.51
986.759	2858.57
987.057	2815.41
987.355	2846.59
987.653	2820.15
987.951	2823.99
988.249	2828.51
988.547	2767.05
988.844	2781.06
989.142	2773.6
989.44	2739.93
989.737	2762.75
990.035	2720.95
990.332	2719.36
990.63	2682.3
990.927	2689.53
991.224	2666.03
991.521	2655.18
991.819	2657.67
992.116	2659.7
992.413	2621.29
992.71	2597.11
993.006	2622.42
993.303	2616.32
993.6	2586.49
993.897	2570.67
994.193	2525.47
994.49	2536.77
994.787	2543.55
995.083	2504
995.379	2492.93
995.676	2518.46
995.972	2504.23
996.268	2460.16
996.565	2408.64
996.861	2449.31
997.157	2432.82
997.453	2422.65
997.749	2408.86
998.044	2391.24
998.34	2386.04
998.636	2352.37
998.932	2334.74
999.227	2339.71
999.523	2320.05
999.818	2302.2
1000.114	2297
1000.409	2307.85
1000.704	2265.14
1001	2267.85
1001.295	2249.77
1001.59	2264.01
1001.885	2250.68
1002.18	2239.15
1002.475	2217.91
1002.77	2221.98
1003.065	2210.9
1003.359	2169.55
1003.654	2140.62
1003.949	2151.69
1004.243	2135.65
1004.538	2082.54
1004.832	2145.82
1005.127	2130
1005.421	2103.33
1005.715	2087.29
1006.009	2058.36
1006.304	2046.39
1006.598	2039.83
1006.892	2032.83
1007.186	2016.56
1007.48	2021.3
1007.773	1992.38
1008.067	2010.46
1008.361	1957.35
1008.655	1977.91
1008.948	1923
1009.242	1920.51
1009.535	1916.45
1009.829	1920.29
1010.122	1940.63
1010.415	1874.19
1010.708	1876.45
1011.001	1854.98
1011.295	1837.13
1011.588	1833.74
1011.881	1845.71
1012.173	1836.45
1012.466	1812.95
1012.759	1794.64
1013.052	1801.87
1013.344	1790.35
1013.637	1800.52
1013.93	1767.52
1014.222	1742.44
1014.514	1750.58
1014.807	1720.29
1015.099	1732.72
1015.391	1710.8
1015.683	1709.45
1015.976	1695.66
1016.268	1685.27
1016.56	1663.8
1016.851	1692.27
1017.143	1640.97
1017.435	1632.16
1017.727	1660.86
1018.018	1629
1018.31	1610.47
1018.602	1615.89
1018.893	1588.09
1019.185	1595.78
1019.476	1562.11
1019.767	1564.14
1020.058	1520.75
1020.35	1544.25
1020.641	1527.53
1020.932	1511.94
1021.223	1505.61
1021.514	1506.97
1021.804	1490.02
1022.095	1479.17
1022.386	1497.7
1022.677	1445.5
1022.967	1403.24
1023.258	1426.06
1023.548	1426.29
1023.839	1405.05
1024.129	1390.81
1024.419	1398.95
1024.709	1382.9
1025	1389.45
1025.29	1349.23
1025.58	1345.61
1025.87	1320.53
1026.16	1331.83
1026.449	1353.52
1026.739	1360.98
1027.029	1333.64
1027.319	1307.65
1027.608	1309.46
1027.898	1294.09
1028.187	1266.52
1028.477	1274.66
1028.766	1279.63
1029.055	1240.76
1029.344	1245.5
1029.634	1239.85
1029.923	1241.21
1030.212	1210.25
1030.501	1207.99
1030.79	1195.11
1031.078	1187.65
1031.367	1213.87
1031.656	1148.33
1031.945	1184.71
1032.233	1135
1032.522	1126.86
1032.81	1169.8
1033.099	1149.91
1033.387	1159.63
1033.675	1120.54
1033.963	1133.42
1034.251	1112.4
1034.54	1111.72
1034.828	1093.64
1035.116	1094.1
1035.403	1078.73
1035.691	1083.93
1035.979	1064.72
1036.267	1063.81
1036.554	1036.24
1036.842	1031.95
1037.129	1023.14
1037.417	1024.49
1037.704	1047.09
1037.992	1013.42
1038.279	1022.91
1038.566	1003.48
1038.853	1003.48
1039.14	1003.48
