Data from foil_FLMS001491_094.txt Node
Date: Tue Feb 07 11:37:32 GMT 2017
User: dcchb
Spectrometer: FLMS00149
Trigger mode: 0
Integration Time (sec): 2.000000E-2
Scans to average: 10
Electric dark correction enabled: true
Nonlinearity correction enabled: false
Boxcar width: 0
XAxis mode: Wavelengths
Number of Pixels in Spectrum: 2048
>>>>>Begin Spectral Data<<<<<
341.393	-20.18
341.776	-20.18
342.16	-20.18
342.543	-55.66
342.927	-64.02
343.31	-62.67
343.693	-69.45
344.077	-58.83
344.46	-37.81
344.843	-37.13
345.226	-38.04
345.61	-38.49
345.993	-7.08
346.376	-17.92
346.759	-0.97
347.142	29.99
347.525	34.28
347.908	47.16
348.291	73.15
348.674	81.28
349.057	102.53
349.44	147.5
349.823	140.26
350.206	177.1
350.588	235.86
350.971	276.98
351.354	270.66
351.737	300.94
352.119	300.03
352.502	316.31
352.884	333.25
353.267	342.97
353.65	349.98
354.032	337.55
354.414	365.12
354.797	375.06
355.179	380.71
355.562	378.9
355.944	388.62
356.326	406.7
356.709	395.85
357.091	404.21
357.473	408.05
357.855	410.31
358.238	406.7
358.62	433.59
359.002	398.11
359.384	412.12
359.766	400.6
360.148	394.27
360.53	422.74
360.912	422.29
361.294	409.86
361.676	425
362.057	414.83
362.439	434.27
362.821	409.18
363.203	409.86
363.584	428.39
363.966	432.01
364.348	410.09
364.729	393.59
365.111	422.97
365.493	414.83
365.874	422.74
366.256	431.33
366.637	403.99
367.019	423.87
367.4	431.78
367.781	420.03
368.163	419.58
368.544	422.52
368.925	429.3
369.306	433.14
369.688	438.34
370.069	434.04
370.45	438.79
370.831	425.91
371.212	440.37
371.593	462.06
371.974	456.64
372.355	452.8
372.736	469.97
373.117	470.2
373.498	459.35
373.879	460.03
374.26	480.37
374.641	445.57
375.021	459.35
375.402	470.88
375.783	490.99
376.163	526.02
376.544	524.66
376.925	488.05
377.305	510.2
377.686	510.88
378.066	518.56
378.447	530.54
378.827	516.53
379.208	532.34
379.588	529.41
379.968	548.62
380.349	549.75
380.729	530.08
381.109	545.45
381.489	561.04
381.87	567.6
382.25	572.34
382.63	581.16
383.01	591.1
383.39	587.48
383.77	585.45
384.15	603.76
384.53	578.9
384.91	592.23
385.29	622.29
385.67	604.89
386.049	626.81
386.429	626.35
386.809	636.07
387.189	650.31
387.568	639.91
387.948	648.95
388.328	657.31
388.707	657.09
389.087	673.81
389.466	683.08
389.846	713.36
390.225	722.4
390.605	704.54
390.984	728.95
391.363	754.49
391.743	739.8
392.122	731.66
392.501	758.1
392.881	765.78
393.26	769.4
393.639	780.7
394.018	789.97
394.397	807.59
394.776	817.31
395.155	804.65
395.534	813.24
395.913	836.29
396.292	830.64
396.671	857.76
397.05	833.13
397.429	861.15
397.808	877.87
398.186	879
398.565	885.78
398.944	882.17
399.323	895.27
399.701	921.26
400.08	935.72
400.458	931.2
400.837	948.38
401.215	949.96
401.594	979.34
401.972	950.64
402.351	974.82
402.729	973.92
403.107	1014.82
403.486	1016.4
403.864	1011.43
404.242	1037.87
404.62	1073.8
404.999	1061.6
405.377	1067.7
405.755	1089.62
406.133	1112.67
406.511	1130.3
406.889	1115.83
407.267	1150.63
407.645	1164.42
408.023	1158.32
408.401	1192.21
408.779	1240.12
409.156	1248.48
409.534	1227.92
409.912	1253.68
410.29	1286
410.667	1301.82
411.045	1272.44
411.422	1308.6
411.8	1327.58
412.178	1336.62
412.555	1393.11
412.933	1376.84
413.31	1401.25
413.687	1417.52
414.065	1455.94
414.442	1474.92
414.819	1490.51
415.197	1478.08
415.574	1502.04
415.951	1554.24
416.328	1546.33
416.705	1548.14
417.082	1577.74
417.46	1578.19
417.837	1634.46
418.214	1646.21
418.591	1615.03
418.967	1642.82
419.344	1669.04
419.721	1699.55
420.098	1724.4
420.475	1734.35
420.852	1755.14
421.228	1794.46
421.605	1766.89
421.982	1782.26
422.358	1802.14
422.735	1847.34
423.111	1842.59
423.488	1890.73
423.864	1911.07
424.241	1912.42
424.617	1966.66
424.994	1925.98
425.37	1992.42
425.746	2018.86
426.123	2013.66
426.499	2026.09
426.875	2087.56
427.251	2087.56
427.627	2112.42
428.003	2158.29
428.379	2208.23
428.756	2210.49
429.132	2237.38
429.507	2296.59
429.883	2289.81
430.259	2337.72
430.635	2353.99
431.011	2389.7
431.387	2460.43
431.763	2467.44
432.138	2493.2
432.514	2505.17
432.89	2534.78
433.265	2646.87
433.641	2630.59
434.016	2642.12
434.392	2721.89
434.767	2770.93
435.143	2741.33
435.518	2800.76
435.894	2826.75
436.269	2879.85
436.644	2886.41
437.02	2912.62
437.395	2937.93
437.77	2964.37
438.145	3005.05
438.52	3027.42
438.895	3107.87
439.271	3109.68
439.646	3197.13
440.021	3207.3
440.395	3210.92
440.77	3178.38
441.145	3231.71
441.52	3290.92
441.895	3311.48
442.27	3312.38
442.645	3340.18
443.019	3435.77
443.394	3396.9
443.769	3438.48
444.143	3414.98
444.518	3433.51
444.892	3499.5
445.267	3512.38
445.641	3539.72
446.016	3579.5
446.39	3599.38
446.764	3569.78
447.139	3603.45
447.513	3661.3
447.887	3698.82
448.262	3671.47
448.636	3764.58
449.01	3784.24
449.384	3793.95
449.758	3825.14
450.132	3886.38
450.506	3896.78
450.88	3966.15
451.254	3954.4
451.628	4013.16
452.002	4058.13
452.376	4065.13
452.75	4118.01
453.123	4164.11
453.497	4223.55
453.871	4278.46
454.244	4325.47
454.618	4389.87
454.992	4426.93
455.365	4442.98
455.739	4571.79
456.112	4599.13
456.486	4655.17
456.859	4673.7
457.232	4782.85
457.606	4777.43
457.979	4864.66
458.352	4961.38
458.725	5013.13
459.099	5039.12
459.472	5171.32
459.845	5148.72
460.218	5228.27
460.591	5283.18
460.964	5319.34
461.337	5431.65
461.71	5536.96
462.083	5583.74
462.456	5584.64
462.829	5631.65
463.201	5727.69
463.574	5761.81
463.947	5856.5
464.32	5999.55
464.692	5992.54
465.065	6071.18
465.438	6193.21
465.81	6270.5
466.183	6355.47
466.555	6474.11
466.928	6531.74
467.3	6533.32
467.672	6602.24
468.045	6782.35
468.417	6787.1
468.789	6894.66
469.161	6986.86
469.534	7085.62
469.906	7270.25
470.278	7302.56
470.65	7366.97
471.022	7502.56
471.394	7705.49
471.766	7685.38
472.138	7812.15
472.51	8028.64
472.882	8209.43
473.253	8180.28
473.625	8319.26
473.997	8542.3
474.369	8528.74
474.74	8586.82
475.112	8807.61
475.484	8919.02
475.855	9171.67
476.227	9184.77
476.598	9443.75
476.97	9580.92
477.341	9815.72
477.713	9842.38
478.084	9951.53
478.455	10223.84
478.827	10328.7
479.198	10625.86
479.569	10560.1
479.94	10875.12
480.311	11047.1
480.682	11279.86
481.053	11512.4
481.424	11702.22
481.795	11793.29
482.166	11995.55
482.537	12226.73
482.908	12419.72
483.279	12583.33
483.65	12810.89
484.021	13035.29
484.391	13194.61
484.762	13289.75
485.133	13467.6
485.503	13588.95
485.874	13935.61
486.244	14023.74
486.615	14380.34
486.985	14505.54
487.356	14812.87
487.726	14875.24
488.097	15157.72
488.467	15249.47
488.837	15560.65
489.207	15780.08
489.578	15976.91
489.948	16040.41
490.318	16388.88
490.688	16412.61
491.058	16657.34
491.428	16859.6
491.798	17072.47
492.168	17427.04
492.538	17465.68
492.908	17659.58
493.278	17808.27
493.648	17884.2
494.017	18153.8
494.387	18307.24
494.757	18518.54
495.126	18687.57
495.496	18802.82
495.866	18907.23
496.235	19221.34
496.605	19257.95
496.974	19386.09
497.344	19634.44
497.713	19695.23
498.082	19880.99
498.452	20189.46
498.821	20137.93
499.19	20276.23
499.559	20494.31
499.928	20603.91
500.298	20742.66
500.667	20874.18
501.036	20918.93
501.405	21185.81
501.774	21280.95
502.143	21398.24
502.512	21445.02
502.88	21671.22
503.249	21782.63
503.618	21990.31
503.987	22053.81
504.356	22268.04
504.724	22386.01
505.093	22519.11
505.462	22525.66
505.83	22802.04
506.199	22848.82
506.567	23256.49
506.936	23250.39
507.304	23463.27
507.672	23599.76
508.041	23613.55
508.409	23868.91
508.777	24126.3
509.145	24323.13
509.514	24321.1
509.882	24578.04
510.25	24571.49
510.618	24892.83
510.986	24834.08
511.354	25195.65
511.722	25345.25
512.09	25551.35
512.458	25568.75
512.826	25782.3
513.193	26027.27
513.561	26064.1
513.929	26284.89
514.297	26552.45
514.664	26799.9
515.032	26826.12
515.4	27041.93
515.767	27305.88
516.135	27300
516.502	27253
516.869	27919.42
517.237	27909.03
517.604	27794
517.972	28268.56
518.339	28510.37
518.706	28435.57
519.073	28704.26
519.44	28867.19
519.808	29347.63
520.175	29218.82
520.542	29628.53
520.909	29866.94
521.276	29987.62
521.643	30190.1
522.009	30479.81
522.376	30541.27
522.743	30893.81
523.11	31194.59
523.477	31347.13
523.843	31543.51
524.21	31989.6
524.577	32246.54
524.943	32236.82
525.31	32571.28
525.676	32794.32
526.043	32995.22
526.409	33144.82
526.776	33424.59
527.142	33634.07
527.508	33887.85
527.874	34062.08
528.241	34305.92
528.607	34361.06
528.973	34789.75
529.339	34683.54
529.705	35146.58
530.071	35452.33
530.437	35681.03
530.803	35774.13
531.169	35861.13
531.535	35921.92
531.901	36123.27
532.267	36155.59
532.632	36566.88
532.998	36607.1
533.364	36881.9
533.73	37032.4
534.095	37394.88
534.461	37435.1
534.826	37518.04
535.192	37703.8
535.557	37952.6
535.923	37987.18
536.288	38308.98
536.653	38401.41
537.019	38378.36
537.384	38538.58
537.749	38751.23
538.114	38808.63
538.479	38917.1
538.845	39047.04
539.21	39132.46
539.575	39363.19
539.94	39486.35
540.305	39773.35
540.67	39644.76
541.034	39907.13
541.399	40068.25
541.764	40164.07
542.129	40406.32
542.494	40346.21
542.858	40464.4
543.223	40532.65
543.587	40846.99
543.952	40693.77
544.316	41014.67
544.681	41024.61
545.045	41182.58
545.41	41404.26
545.774	41548.89
546.138	41482.45
546.503	41766.51
546.867	41867.76
547.231	42038.6
547.595	42233.62
547.959	42423.9
548.324	42346.16
548.688	42536.44
549.052	42747.05
549.416	42719.26
549.779	42791.35
550.143	43022.98
550.507	43321.5
550.871	43476.75
551.235	43397.21
551.599	43720.14
551.962	43654.83
552.326	43900.7
552.689	44077.19
553.053	44063.4
553.417	44055.95
553.78	44622.71
554.143	44467.46
554.507	44786.1
554.87	44828.13
555.234	45234.9
555.597	45003.49
555.96	45324.39
556.323	45552.18
556.686	45569.13
557.05	45837.59
557.413	45946.74
557.776	46096.57
558.139	46366.62
558.502	46375.66
558.865	46489.55
559.228	46868.98
559.59	46974.74
559.953	47050.22
560.316	47335.41
560.679	47530.21
561.041	47645.91
561.404	47785.34
561.767	47972.68
562.129	47936.52
562.492	48394.59
562.854	48292.9
563.217	48440.01
563.579	48720.23
563.941	48805.65
564.304	49025.76
564.666	49176.94
565.028	49288.12
565.39	49462.36
565.753	49616.93
566.115	49679.08
566.477	49768.79
566.839	49926.75
567.201	50144.6
567.563	50130.14
567.925	50432.5
568.287	50448.55
568.648	50599.95
569.01	50783.9
569.372	51005.14
569.734	50959.27
570.095	51269.77
570.457	51238.58
570.819	51354.06
571.18	51340.73
571.542	51624.79
571.903	51659.14
572.265	51781.39
572.626	51850.77
572.987	51868.4
573.349	51893.03
573.71	52075.4
574.071	52155.17
574.432	52321.94
574.794	52441.49
575.155	52536.18
575.516	52397.2
575.877	52645.1
576.238	52596.96
576.599	52648.94
576.96	52683.74
577.32	52717.64
577.681	52868.82
578.042	52927.58
578.403	53020
578.763	52954.47
579.124	53131.87
579.485	53198.08
579.845	53193.78
580.206	53198.3
580.566	53181.13
580.927	53198.76
581.287	53344.29
581.648	53176.16
582.008	53387.9
582.368	53294.12
582.728	53340.67
583.089	53317.17
583.449	53277.62
583.809	53374.8
584.169	53376.61
584.529	53273.78
584.889	53510.39
585.249	53327.57
585.609	53331.41
585.969	53449.37
586.329	53401.24
586.688	53380.67
587.048	53444.63
587.408	53316.72
587.768	53339.54
588.127	53338.41
588.487	53366.21
588.846	53591.06
589.206	53393.55
589.565	53349.26
589.925	53528.47
590.284	53412.08
590.643	53528.24
591.003	53498.64
591.362	53550.61
591.721	53627.9
592.08	53538.41
592.44	53561.01
592.799	53643.49
593.158	53455.25
593.517	53441.24
593.876	53452.31
594.235	53516.94
594.593	53433.78
594.952	53478.3
595.311	53470.84
595.67	53554.45
596.029	53779.98
596.387	53769.36
596.746	53744.96
597.104	53610.5
597.463	53655.02
597.822	53779.76
598.18	53581.57
598.538	53689.14
598.897	53768.69
599.255	53524.4
599.613	53960.09
599.972	53764.62
600.33	53762.81
600.688	53715.13
601.046	53797.61
601.404	53955.35
601.762	53820.66
602.12	54015.68
602.478	54075.8
602.836	54007.1
603.194	53779.98
603.552	53869.93
603.91	53768.01
604.268	53923.94
604.625	53971.84
604.983	54079.19
605.341	53914.67
605.698	54076.93
606.056	54156.02
606.413	54083.03
606.771	54290.03
607.128	54187.43
607.485	54037.83
607.843	54091.39
608.2	54214.55
608.557	54368.44
608.914	54266.3
609.272	54402.79
609.629	54426.07
609.986	54482.11
610.343	54340.2
610.7	54521.43
611.057	54477.59
611.414	54486.63
611.771	54537.48
612.127	54570.25
612.484	54505.61
612.841	54704.03
613.198	54617.7
613.554	54600.53
613.911	54722.78
614.267	54724.82
614.624	54708.55
614.98	54764.59
615.337	54807.75
615.693	54818.83
616.05	54721.43
616.406	54885.27
616.762	54764.37
617.118	54839.17
617.475	54871.25
617.831	54939.5
618.187	54902.89
618.543	54967.75
618.899	55048.2
619.255	54953.74
619.611	54967.52
619.967	55053.62
620.323	55098.82
620.678	55002.78
621.034	54859.28
621.39	54876.45
621.746	54917.81
622.101	55156.67
622.457	54922.55
622.812	54940.41
623.168	54975.66
623.523	55021.99
623.879	55083.23
624.234	54882.55
624.589	54955.32
624.945	54945.38
625.3	55008.43
625.655	55081.42
626.01	54991.25
626.365	55085.49
626.72	55085.94
627.075	54909.22
627.43	54918.26
627.785	54809.11
628.14	54937.02
628.495	54912.61
628.85	54915.77
629.205	54748.55
629.559	54929.33
629.914	54821.31
630.269	54878.71
630.623	54776.57
630.978	54664.25
631.332	54740.41
631.687	54759.39
632.041	54603.01
632.396	54752.39
632.75	54525.73
633.104	54645.72
633.459	54455.67
633.813	54516.46
634.167	54437.82
634.521	54413.64
634.875	54480.76
635.229	54379.29
635.583	54222.68
635.937	54208.22
636.291	54198.28
636.645	54325.96
636.999	54065.63
637.352	54140.2
637.706	54013.65
638.06	54164.61
638.413	53968.45
638.767	53999.41
639.121	54130.71
639.474	53842.81
639.828	53855.24
640.181	53837.16
640.534	53680.55
640.888	53631.51
641.241	53562.81
641.594	53592.64
641.947	53669.25
642.301	53472.2
642.654	53512.87
643.007	53434.91
643.36	53422.25
643.713	53351.52
644.066	53484.17
644.419	53192.66
644.771	52982.94
645.124	52583.86
645.477	52599
645.83	52328.72
646.182	52300.25
646.535	52207.37
646.888	52277.2
647.24	52064.32
647.593	52354.94
647.945	52229.97
648.298	52051.67
648.65	51938.22
649.002	51846.02
649.355	52048.73
649.707	51848.96
650.059	51969.64
650.411	52391.77
650.763	52375.05
651.115	52660.69
651.467	52561.94
651.819	52437.19
652.171	52429.51
652.523	52428.38
652.875	52328.72
653.227	52232.68
653.578	52466.8
653.93	52384.09
654.282	52155.85
654.633	52042.18
654.985	52095.06
655.337	52123.3
655.688	52186.58
656.039	52196.3
656.391	51797.21
656.742	51951.11
657.094	51947.49
657.445	52055.96
657.796	51922.63
658.147	51841.05
658.498	51773.26
658.849	51883.08
659.2	51805.57
659.551	51753.14
659.902	51785.69
660.253	51716.54
660.604	51878.57
660.955	51542.08
661.306	51743.43
661.656	51593.15
662.007	51654.39
662.358	51567.84
662.708	51498.24
663.059	51455.98
663.409	51246.04
663.76	51474.96
664.11	51457.56
664.461	51365.58
664.811	51385.7
665.161	51334.62
665.511	51285.59
665.862	51299.37
666.212	51393.83
666.562	51314.74
666.912	51226.15
667.262	51170.11
667.612	51185.93
667.962	51226.83
668.312	51119.04
668.662	51222.31
669.011	51187.28
669.361	51165.59
669.711	51087.85
670.06	50953.62
670.41	50923.56
670.76	50937.12
671.109	50946.61
671.459	50935.99
671.808	50884.92
672.157	50902.55
672.507	50695.09
672.856	50679.05
673.205	50770.35
673.554	50855.32
673.904	50635.21
674.253	50860.96
674.602	50657.35
674.951	50228.89
675.3	49983.47
675.649	50465.04
675.998	50396.12
676.346	50437.93
676.695	50503.46
677.044	50163.36
677.393	50351.6
677.741	50409.23
678.09	50164.49
678.438	50113.87
678.787	50132.85
679.135	50277.93
679.484	50016.69
679.832	50053.3
680.181	49842.01
680.529	49956.58
680.877	49809.69
681.225	49819.18
681.573	49928.79
681.922	49642.47
682.27	49448.8
682.618	49604.73
682.966	49467.56
683.314	49453.54
683.661	49321.34
684.009	49091.07
684.357	49067.34
684.705	48994.12
685.053	49228.69
685.4	48993.9
685.748	48811.75
686.095	48797.06
686.443	48578.99
686.79	48504.64
687.138	48562.95
687.485	48587.8
687.832	48437.53
688.18	48454.02
688.527	48196.85
688.874	48108.04
689.221	48049.74
689.568	48012
689.915	47915.51
690.262	47912.57
690.609	47697.43
690.956	47571.56
691.303	47484.56
691.65	47348.06
691.997	47361.4
692.344	47206.15
692.69	47021.97
693.037	46960.5
693.383	46779.26
693.73	46910.11
694.077	46562.09
694.423	46579.95
694.769	46303.57
695.116	46311.48
695.462	46317.81
695.808	46032.39
696.155	46172.5
696.501	45650.93
696.847	45722.57
697.193	45466.53
697.539	45622.01
697.885	45226.31
698.231	45085.52
698.577	45166.43
698.923	44993.32
699.269	44968.92
699.614	44817.96
699.96	44605.08
700.306	44649.6
700.651	44447.8
700.997	44330.97
701.342	44165.55
701.688	44246.45
702.033	43943.86
702.379	43998.55
702.724	43880.36
703.069	43790.64
703.415	43346.36
703.76	43370.09
704.105	43385
704.45	43333.03
704.795	42972.58
705.14	42991.12
705.485	42834.28
705.83	42750.67
706.175	42885.81
706.52	42551.58
706.865	42377.35
707.209	42429.32
707.554	42331.25
707.899	42352.71
708.243	42196.11
708.588	41994.76
708.932	41813.75
709.277	41848.32
709.621	41703.24
709.966	41442.46
710.31	41593.64
710.654	41245.62
710.998	41146.64
711.342	41176.02
711.687	40967.89
712.031	40819.2
712.375	40860.32
712.719	40834.56
713.063	40631.63
713.407	40741.68
713.75	40644.51
714.094	40503.72
714.438	40363.84
714.782	40278.87
715.125	40084.75
715.469	40059.44
715.812	39957.52
716.156	39690.64
716.499	39661.26
716.843	39828.49
717.186	39509.62
717.53	39732.67
717.873	39600.7
718.216	39472.34
718.559	39445.22
718.902	39133.14
719.246	39394.6
719.589	39130.2
719.932	38912.35
720.275	39111.9
720.617	38786.48
720.96	38807.5
721.303	38814.28
721.646	38731.79
721.989	38430.78
722.331	38560.95
722.674	38378.36
723.016	38440.95
723.359	38282.09
723.701	38273.95
724.044	37984.69
724.386	37815.43
724.729	38016.56
725.071	37738.37
725.413	37880.29
725.755	37756.68
726.097	37570.69
726.439	37391.49
726.782	37357.37
727.124	37510.13
727.465	37253.64
727.807	37288.89
728.149	37205.73
728.491	37154.88
728.833	37129.35
729.175	37010.26
729.516	36901.56
729.858	36974.32
730.199	36731.39
730.541	36769.58
730.882	36735.46
731.224	36609.36
731.565	36548.57
731.906	36376.83
732.248	36496.14
732.589	36209.82
732.93	36063.16
733.271	36027.23
733.612	36213.89
733.953	36016.16
734.294	35921.7
734.635	35827.46
734.976	35972.09
735.317	35703.4
735.658	35765.32
735.999	35651.87
736.339	35576.17
736.68	35612.55
737.021	35281.26
737.361	35216.4
737.702	35493.91
738.042	35192.9
738.383	35145.67
738.723	35103.87
739.063	35014.83
739.404	35119.46
739.744	34787.72
740.084	34797.21
740.424	34888.28
740.764	34702.75
741.104	34862.52
741.444	34766.7
741.784	34569.42
742.124	34682.18
742.464	34564.44
742.804	34464.33
743.143	34256.66
743.483	34366.94
743.823	34075.42
744.162	34167.84
744.502	34072.93
744.841	33995.65
745.181	33925.82
745.52	33928.08
745.86	33815.54
746.199	33690.12
746.538	33628.65
746.877	33685.15
747.216	33606.28
747.556	33654.64
747.895	33488.77
748.234	33335.78
748.573	33339.17
748.911	33142.33
749.25	33206.51
749.589	33063.24
749.928	32984.82
750.267	33110.02
750.605	32984.82
750.944	32888.33
751.283	32719.07
751.621	32731.72
751.96	32616.47
752.298	32499.41
752.636	32497.15
752.975	32152.3
753.313	32202.92
753.651	32099.42
753.989	32121.12
754.327	32061.46
754.666	31984.17
755.004	31928.58
755.342	31812.43
755.679	31828.25
756.017	31529.72
756.355	31564.75
756.693	31455.6
757.031	31549.83
757.368	31390.29
757.706	31139
758.044	31058.1
758.381	31169.73
758.719	31118.89
759.056	31075.95
759.394	30857.42
759.731	30701.27
760.068	30680.93
760.405	30535.4
760.743	30484.33
761.08	30586.02
761.417	30274.16
761.754	30176.09
762.091	30191
762.428	29967.28
762.765	29786.94
763.102	29875.98
763.438	29798.02
763.775	29580.85
764.112	29529.55
764.449	29522.32
764.785	29319.16
765.122	29125.04
765.458	29104.47
765.795	28974.31
766.131	29023.35
766.467	28823.58
766.804	28653.87
767.14	28609.57
767.476	28527.77
767.812	28364.83
768.148	28473.98
768.485	28148.12
768.821	27991.28
769.157	27987.22
769.492	27911.74
769.828	27723.72
770.164	27576.38
770.5	27530.73
770.836	27564.4
771.171	27318.31
771.507	27302.26
771.842	27099.1
772.178	27086.45
772.513	26980.69
772.849	26820.02
773.184	26786.34
773.519	26654.37
773.855	26565.56
774.19	26419.8
774.525	26266.36
774.86	26283.98
775.195	26161.05
775.53	26032.92
775.865	25894.62
776.2	25734.39
776.535	25540.27
776.87	25448.98
777.205	25478.36
777.539	25303.44
777.874	25285.37
778.209	25055.54
778.543	25110.91
778.878	24870.69
779.212	24938.48
779.547	24645.84
779.881	24835.89
780.215	24540.75
780.55	24627.76
780.884	24423.47
781.218	24465.95
781.552	24467.76
781.886	24140.31
782.22	24000.88
782.554	23950.03
782.888	23636.37
783.222	23544.17
783.556	23592.76
783.889	23431.4
784.223	23251.52
784.557	23249.49
784.89	23289.03
785.224	23053.56
785.557	22957.07
785.891	22814.47
786.224	22773.12
786.558	22795.49
786.891	22545.1
787.224	22438.89
787.557	22450.64
787.891	22355.73
788.224	22282.28
788.557	22332.9
788.89	22236.86
789.223	22275.05
789.556	21994.61
789.888	21999.35
790.221	21781.28
790.554	21763.42
790.887	21705.57
791.219	21670.77
791.552	21505.35
791.884	21557.33
792.217	21395.3
792.549	21163.89
792.882	21026.5
793.214	21104.69
793.546	21115.76
793.879	20845.03
794.211	20716.45
794.543	20872.6
794.875	20684.36
795.207	20739.5
795.539	20540.41
795.871	20679.16
796.203	20423.57
796.535	20447.98
796.867	20285.95
797.198	20163.92
797.53	20137.7
797.862	19932.51
798.193	20045.73
798.525	19872.4
798.856	19866.75
799.188	19746.98
799.519	19654.1
799.85	19485.52
800.182	19601.67
800.513	19461.34
800.844	19330.95
801.175	19484.61
801.506	19241.23
801.837	19208.24
802.168	19161.91
802.499	19046.89
802.83	18953.33
803.161	18873.11
803.491	18953.33
803.822	18848.7
804.153	18716.95
804.483	18635.37
804.814	18558.54
805.145	18542.94
805.475	18469.95
805.805	18409.16
806.136	18358.77
806.466	18405.55
806.796	18383.85
807.126	18190.64
807.457	18084.43
807.787	18166.23
808.117	18020.92
808.447	18001.94
808.777	17893.02
809.107	17935.28
809.436	17854.15
809.766	17807.14
810.096	17793.13
810.426	17675.62
810.755	17709.97
811.085	17549.3
811.414	17612.57
811.744	17428.17
812.073	17383.65
812.403	17307.72
812.732	17268.4
813.061	17326.03
813.39	17136.65
813.719	17197.67
814.049	17254.84
814.378	17004
814.707	17048.52
815.036	16984.34
815.365	16854.63
815.693	16703.22
816.022	16742.54
816.351	16697.8
816.68	16662.32
817.008	16678.59
817.337	16485.37
817.665	16477.01
817.994	16470.68
818.322	16462.77
818.651	16249.45
818.979	16384.58
819.307	16350.23
819.636	16272.5
819.964	16176.23
820.292	16193.85
820.62	16214.64
820.948	16174.87
821.276	16245.83
821.604	15971.49
821.932	16159.73
822.259	16035.21
822.587	16002.22
822.915	15965.84
823.243	16142.56
823.57	16089.22
823.898	16090.81
824.225	15952.05
824.553	15977.14
824.88	15924.71
825.207	16033.63
825.535	16002.45
825.862	16037.93
826.189	15940.75
826.516	16023.69
826.843	16058.49
827.17	16003.35
827.497	15946.4
827.824	16016.91
828.151	16008.77
828.478	15897.59
828.805	15901.21
829.131	15849.91
829.458	15827.54
829.785	15841.09
830.111	15803.58
830.438	15936.23
830.764	15926.29
831.09	15875.67
831.417	15799.74
831.743	15778.72
832.069	15837.25
832.395	15670.93
832.722	15756.13
833.048	15732.4
833.374	15681.32
833.7	15718.61
834.026	15728.78
834.351	15737.82
834.677	15765.16
835.003	15748.89
835.329	15704.15
835.654	15671.16
835.98	15653.08
836.306	15492.86
836.631	15558.16
836.956	15497.15
837.282	15546.19
837.607	15448.56
837.932	15437.26
838.258	15409.69
838.583	15434.78
838.908	15345.06
839.233	15328.11
839.558	15275.23
839.883	15242.24
840.208	15225.52
840.533	15195.69
840.858	15210.6
841.182	15181.23
841.507	15183.94
841.832	15157.27
842.156	15081.57
842.481	15111.4
842.805	15014.45
843.13	14997.28
843.454	14959.08
843.778	15034.79
844.103	14910.95
844.427	14838.18
844.751	14838.41
845.075	14723.16
845.399	14722.03
845.723	14704.18
846.047	14702.14
846.371	14577.63
846.695	14538.98
847.019	14377.4
847.343	14420.57
847.666	14334.24
847.99	14228.03
848.313	14147.58
848.637	14120.91
848.96	14140.8
849.284	14057.86
849.607	13943.07
849.931	13948.72
850.254	13874.82
850.577	13737.2
850.9	13657.2
851.223	13678.44
851.546	13568.39
851.869	13509.63
852.192	13598.22
852.515	13524.32
852.838	13336.3
853.161	13425.57
853.483	13406.58
853.806	13309.41
854.129	13251.11
854.451	13169.75
854.774	13104.44
855.096	13125.91
855.419	13071.45
855.741	12993.71
856.063	12965.24
856.385	13020.15
856.708	12913.04
857.03	12835.52
857.352	12878.46
857.674	12795.07
857.996	12847.73
858.318	12707.84
858.64	12695.64
858.961	12676.21
859.283	12563.21
859.605	12510.79
859.926	12607.96
860.248	12497.45
860.57	12479.6
860.891	12491.35
861.212	12442.77
861.534	12435.53
861.855	12409.09
862.176	12356.44
862.498	12388.76
862.819	12410.22
863.14	12288.87
863.461	12284.8
863.782	12216.56
864.103	12199.16
864.424	12118.93
864.745	12178.82
865.065	12045.94
865.386	12050.69
865.707	12121.42
866.027	12086.39
866.348	12125.94
866.668	12036
866.989	12062.66
867.309	11907.41
867.63	11970.46
867.95	11924.36
868.27	11844.82
868.59	11886.17
868.91	11805.49
869.23	11864.25
869.55	11816.57
869.87	11846.85
870.19	11856.34
870.51	11914.42
870.83	11859.96
871.15	11790.35
871.469	11824.03
871.789	11711.71
872.109	11654.54
872.428	11595.78
872.748	11740.41
873.067	11670.13
873.386	11635.78
873.706	11693.86
874.025	11573.86
874.344	11535.9
874.663	11528.89
874.982	11508.55
875.301	11509.23
875.62	11382.23
875.939	11455.22
876.258	11454.32
876.577	11407.77
876.896	11481.21
877.214	11350.14
877.533	11464.49
877.852	11468.78
878.17	11338.61
878.489	11400.99
878.807	11406.86
879.125	11299.07
879.444	11283.47
879.762	11253.87
880.08	11230.82
880.398	11199.63
880.716	11271.27
881.034	11139.3
881.352	11211.61
881.67	11174.55
881.988	11229.92
882.306	11165.96
882.624	11090.71
882.941	11043.03
883.259	11035.12
883.577	11027.89
883.894	11004.39
884.212	11003.03
884.529	10961.9
884.846	10875.12
885.164	10907.67
885.481	10852.98
885.798	10841.45
886.115	10782.02
886.432	10829.25
886.75	10782.92
887.067	10845.97
887.383	10765.75
887.7	10696.15
888.017	10701.12
888.334	10706.09
888.651	10653.43
888.967	10553.78
889.284	10577.5
889.6	10511.74
889.917	10429.49
890.233	10579.54
890.55	10494.34
890.866	10502.25
891.182	10415.7
891.498	10381.35
891.815	10344.74
892.131	10253.9
892.447	10292.31
892.763	10227.01
893.079	10155.82
893.395	10209.83
893.71	10149.72
894.026	10156.5
894.342	10148.36
894.657	9989.5
894.973	9988.82
895.289	10024.3
895.604	10010.51
895.92	9945.2
896.235	9907.01
896.55	9859.11
896.865	9882.38
897.181	9866.34
897.496	9811.2
897.811	9857.52
898.126	9714.48
898.441	9665.89
898.756	9714.93
899.071	9642.39
899.386	9721.48
899.7	9567.14
900.015	9591.77
900.33	9526.01
900.644	9493.69
900.959	9458.21
901.273	9434.48
901.588	9413.02
901.902	9353.13
902.216	9322.17
902.531	9274.26
902.845	9283.3
903.159	9217.77
903.473	9212.57
903.787	9192.68
904.101	9047.6
904.415	9084.66
904.729	9079.69
905.042	9007.83
905.356	9001.73
905.67	8941.16
905.984	8946.59
906.297	8973.03
906.611	8818.91
906.924	8819.36
907.237	8812.81
907.551	8818.68
907.864	8750.43
908.177	8757.21
908.491	8724.67
908.804	8654.62
909.117	8562.87
909.43	8524.23
909.743	8537.11
910.056	8474.96
910.368	8518.58
910.681	8420.95
910.994	8448.07
911.307	8347.05
911.619	8375.53
911.932	8359.26
912.244	8263.67
912.557	8251.92
912.869	8257.34
913.181	8127.17
913.494	8203.1
913.806	8134.4
914.118	8076.1
914.43	8036.33
914.742	8023.67
915.054	7969.66
915.366	7975.54
915.678	7921.3
915.99	7919.5
916.302	7839.27
916.613	7817.8
916.925	7764.7
917.236	7814.87
917.548	7699.39
917.859	7727.64
918.171	7658.94
918.482	7661.2
918.794	7592.5
919.105	7616.9
919.416	7484.93
919.727	7537.36
920.038	7472.05
920.349	7401.54
920.66	7381.66
920.971	7398.83
921.282	7287.65
921.593	7336.46
921.903	7308.21
922.214	7232.28
922.525	7179.85
922.835	7200.87
923.146	7136.92
923.456	7175.11
923.767	7070.93
924.077	7081.1
924.387	7057.14
924.697	6986.19
925.008	6967.2
925.318	6898.28
925.628	6926.07
925.938	6857.38
926.248	6832.52
926.558	6803.14
926.867	6801.56
927.177	6761.79
927.487	6753.65
927.796	6699.19
928.106	6622.81
928.416	6686.08
928.725	6647.89
929.034	6653.77
929.344	6616.7
929.653	6522.7
929.962	6541.45
930.271	6521.34
930.581	6422.81
930.89	6478.4
931.199	6416.26
931.508	6389.82
931.817	6391.4
932.125	6340.55
932.434	6323.15
932.743	6292.87
933.051	6203.61
933.36	6183.95
933.669	6138.98
933.977	6188.69
934.286	6190.95
934.594	6080.67
934.902	6064.85
935.21	6050.39
935.519	6016.49
935.827	5942.82
936.135	5976.72
936.443	5896.05
936.751	5898.53
937.059	5947.12
937.367	5874.35
937.674	5843.84
937.982	5837.52
938.29	5833.22
938.597	5815.82
938.905	5713.68
939.213	5740.8
939.52	5740.12
939.827	5735.6
940.135	5654.24
940.442	5613.79
940.749	5610.86
941.056	5624.19
941.363	5577.41
941.67	5550.29
941.977	5510.97
942.284	5479.33
942.591	5453.57
942.898	5416.06
943.205	5437.53
943.511	5385.32
943.818	5404.08
944.125	5355.95
944.431	5300.81
944.738	5345.78
945.044	5260.58
945.35	5218.1
945.657	5216.74
945.963	5219.23
946.269	5156.4
946.575	5212.45
946.881	5141.49
947.187	5146.01
947.493	5117.76
947.799	5077.31
948.105	5017.2
948.41	5042.28
948.716	5044.77
949.022	5021.94
949.327	4963.19
949.633	4960.93
949.938	4899.69
950.244	4885.45
950.549	4897.43
950.854	4854.49
951.16	4824.44
951.465	4847.49
951.77	4809.52
952.075	4776.53
952.38	4751.44
952.685	4709.41
952.99	4670.09
953.294	4669.19
953.599	4602.52
953.904	4627.38
954.209	4614.5
954.513	4616.53
954.818	4576.76
955.122	4531.11
955.426	4522.07
955.731	4510.55
956.035	4449.3
956.339	4489.75
956.643	4524.1
956.948	4442.98
957.252	4430.55
957.556	4406.82
957.86	4358.01
958.163	4352.81
958.467	4331.57
958.771	4353.94
959.075	4320.72
959.378	4268.74
959.682	4261.06
959.985	4234.17
960.289	4234.85
960.592	4220.38
960.896	4216.54
961.199	4175.86
961.502	4196.66
961.805	4172.02
962.108	4143.32
962.411	4125.02
962.714	4080.05
963.017	4063.1
963.32	4028.07
963.623	4062.87
963.926	4052.93
964.228	4048.64
964.531	3984.68
964.833	3976.1
965.136	4010.22
965.438	3892.48
965.741	3902.88
966.043	3914.18
966.345	3859.71
966.648	3881.41
966.95	3872.14
967.252	3827.85
967.554	3835.99
967.856	3805.93
968.158	3715.54
968.46	3777.46
968.761	3750.11
969.063	3724.58
969.365	3729.55
969.666	3724.58
969.968	3692.94
970.269	3679.61
970.571	3672.6
970.872	3675.76
971.174	3605.94
971.475	3617.24
971.776	3549.89
972.077	3563.45
972.378	3574.75
972.679	3581.3
972.98	3533.85
973.281	3552.83
973.582	3493.4
973.883	3476.9
974.183	3459.27
974.484	3474.64
974.785	3402.78
975.085	3452.04
975.386	3432.61
975.686	3400.74
975.986	3358.71
976.287	3377.47
976.587	3360.07
976.887	3321.42
977.187	3285.49
977.487	3303.57
977.787	3276.45
978.087	3283.01
978.387	3265.38
978.687	3227.64
978.987	3223.12
979.286	3203.01
979.586	3176.34
979.885	3163.69
980.185	3136.57
980.484	3143.58
980.784	3188.77
981.083	3118.94
981.382	3124.59
981.682	3092.96
981.981	3070.81
982.28	3096.35
982.579	3023.13
982.878	3059.06
983.177	3019.74
983.475	3011.83
983.774	3000.53
984.073	3000.75
984.372	2985.16
984.67	3022.22
984.969	2937.71
985.267	2955.11
985.566	2904.71
985.864	2898.16
986.162	2899.74
986.461	2889.34
986.759	2862
987.057	2828.33
987.355	2840.98
987.653	2872.4
987.951	2840.31
988.249	2793.75
988.547	2799.86
988.844	2765.96
989.142	2804.83
989.44	2741.33
989.737	2717.6
990.035	2743.59
990.332	2746.98
990.63	2739.07
990.927	2700.65
991.224	2717.37
991.521	2716.24
991.819	2664.27
992.116	2665.85
992.413	2610.93
992.71	2625.85
993.006	2620.65
993.303	2609.35
993.6	2585.4
993.897	2571.84
994.193	2580.88
994.49	2555.34
994.787	2509.69
995.083	2506.53
995.379	2506.08
995.676	2474.89
995.972	2452.75
996.268	2450.71
996.565	2466.31
996.861	2448.23
997.157	2409.81
997.453	2423.59
997.749	2407.1
998.044	2388.12
998.34	2417.04
998.636	2384.27
998.932	2344.5
999.227	2358.06
999.523	2327.33
999.818	2338.4
1000.114	2289.13
1000.409	2300.21
1000.704	2291.62
1001	2271.51
1001.295	2253.43
1001.59	2218.63
1001.885	2230.15
1002.18	2239.19
1002.475	2222.02
1002.77	2221.79
1003.065	2201.68
1003.359	2172.75
1003.654	2151.29
1003.949	2146.77
1004.243	2176.82
1004.538	2128.91
1004.832	2117.39
1005.127	2109.25
1005.421	2111.51
1005.715	2064.06
1006.009	2092.3
1006.304	2050.5
1006.598	2020.67
1006.892	2037.62
1007.186	2014.79
1007.48	1992.87
1007.773	1984.51
1008.067	1958.75
1008.361	1978.63
1008.655	1964.62
1008.948	1928.92
1009.242	1893.66
1009.535	1920.56
1009.829	1908.81
1010.122	1889.37
1010.415	1899.54
1010.708	1862.25
1011.001	1862.93
1011.295	1866.77
1011.588	1809.6
1011.881	1803.27
1012.173	1808.47
1012.466	1817.28
1012.759	1783.61
1013.052	1809.83
1013.344	1799.43
1013.637	1775.93
1013.93	1772.99
1014.222	1744.52
1014.514	1751.07
1014.807	1727.34
1015.099	1747.91
1015.391	1728.92
1015.683	1699.55
1015.976	1682.15
1016.268	1688.92
1016.56	1641.92
1016.851	1639.66
1017.143	1669.72
1017.435	1646.44
1017.727	1598.98
1018.018	1614.8
1018.31	1598.31
1018.602	1621.81
1018.893	1593.79
1019.185	1569.15
1019.476	1582.94
1019.767	1573.22
1020.058	1571.19
1020.35	1524.41
1020.641	1531.64
1020.932	1515.14
1021.223	1491.19
1021.514	1489.16
1021.804	1512.43
1022.095	1499.1
1022.386	1453
1022.677	1426.78
1022.967	1410.97
1023.258	1440.57
1023.548	1438.99
1023.839	1430.63
1024.129	1405.32
1024.419	1420.01
1024.709	1394.24
1025	1397.86
1025.29	1345.43
1025.58	1358.54
1025.87	1313.12
1026.16	1333.68
1026.449	1316.05
1026.739	1293.45
1027.029	1303.62
1027.319	1293.23
1027.608	1294.81
1027.898	1313.57
1028.187	1281.48
1028.477	1271.76
1028.766	1259.78
1029.055	1261.37
1029.344	1241.7
1029.634	1251.87
1029.923	1224.98
1030.212	1208.49
1030.501	1224.98
1030.79	1215.94
1031.078	1181.82
1031.367	1209.39
1031.656	1166.68
1031.945	1175.72
1032.233	1144.31
1032.522	1161.71
1032.81	1168.49
1033.099	1170.07
1033.387	1148.83
1033.675	1107.7
1033.963	1102.95
1034.251	1140.92
1034.54	1117.87
1034.828	1090.3
1035.116	1090.75
1035.403	1099.56
1035.691	1068.38
1035.979	1061.14
1036.267	1068.38
1036.554	1067.92
1036.842	1047.13
1037.129	1065.89
1037.417	1045.55
1037.704	1036.29
1037.992	1020.69
1038.279	1009.62
1038.566	1031.54
1038.853	1031.54
1039.14	1031.54
