Data from foil_FLMS001491_030.txt Node
Date: Tue Feb 07 11:25:41 GMT 2017
User: dcchb
Spectrometer: FLMS00149
Trigger mode: 0
Integration Time (sec): 2.000000E-2
Scans to average: 10
Electric dark correction enabled: true
Nonlinearity correction enabled: false
Boxcar width: 0
XAxis mode: Wavelengths
Number of Pixels in Spectrum: 2048
>>>>>Begin Spectral Data<<<<<
341.393	-19.17
341.776	-19.17
342.16	-19.17
342.543	-70.46
342.927	-71.14
343.31	-68.2
343.693	-55.32
344.077	-48.77
344.46	-71.14
344.843	-53.74
345.226	-25.72
345.61	-34.08
345.993	-24.59
346.376	-13.52
346.759	16.31
347.142	19.48
347.525	47.27
347.908	51.57
348.291	76.65
348.674	80.49
349.057	103.32
349.44	133.82
349.823	135.86
350.206	165.91
350.588	240.49
350.971	259.7
351.354	293.82
351.737	303.54
352.119	328.85
352.502	325.23
352.884	332.91
353.267	359.13
353.65	363.42
354.032	354.38
354.414	377.66
354.797	372.46
355.179	391.22
355.562	393.48
355.944	405.68
356.326	413.14
356.709	405.68
357.091	405.23
357.473	428.28
357.855	439.58
358.238	440.03
358.62	433.7
359.002	436.64
359.384	435.74
359.766	439.35
360.148	429.64
360.53	449.75
360.912	456.75
361.294	435.29
361.676	443.87
362.057	423.31
362.439	418.79
362.821	453.36
363.203	446.13
363.584	432.35
363.966	444.78
364.348	421.5
364.729	431.44
365.111	435.74
365.493	452.46
365.874	448.17
366.256	455.62
366.637	451.56
367.019	445.23
367.4	470.76
367.781	449.52
368.163	464.44
368.544	458.11
368.925	464.66
369.306	470.31
369.688	466.7
370.069	471.89
370.45	465.11
370.831	460.82
371.212	475.06
371.593	489.75
371.974	478.22
372.355	515.28
372.736	498.33
373.117	511.67
373.498	472.8
373.879	501.05
374.26	494.04
374.641	463.31
375.021	489.52
375.402	534.94
375.783	534.04
376.163	557.54
376.544	559.8
376.925	539.69
377.305	536.75
377.686	544.21
378.066	545.11
378.447	557.32
378.827	569.29
379.208	576.3
379.588	557.32
379.968	567.03
380.349	590.99
380.729	614.72
381.109	584.43
381.489	603.87
381.87	609.74
382.25	614.72
382.63	634.6
383.01	635.96
383.39	648.84
383.77	651.1
384.15	656.52
384.53	679.57
384.91	640.93
385.29	672.79
385.67	688.39
386.049	699.91
386.429	696.07
386.809	698.56
387.189	680.93
387.568	714.15
387.948	717.76
388.328	735.84
388.707	745.56
389.087	736.29
389.466	736.97
389.846	772.68
390.225	791.89
390.605	782.85
390.984	777.42
391.363	802.73
391.743	821.94
392.122	816.97
392.501	827.82
392.881	830.3
393.26	855.39
393.639	880.02
394.018	873.47
394.397	871.21
394.776	900.58
395.155	889.74
395.534	873.69
395.913	906.23
396.292	944.88
396.671	941.26
397.05	939
397.429	956.85
397.808	955.72
398.186	967.7
398.565	988.49
398.944	1014.03
399.323	973.35
399.701	994.82
400.08	1020.35
400.458	1081.82
400.837	1039.34
401.215	1056.96
401.594	1077.53
401.972	1078.21
402.351	1070.07
402.729	1086.57
403.107	1097.64
403.486	1127.24
403.864	1120.69
404.242	1145.55
404.62	1155.27
404.999	1197.98
405.377	1215.6
405.755	1225.09
406.133	1247.02
406.511	1186.23
406.889	1232.55
407.267	1282.72
407.645	1312.32
408.023	1282.27
408.401	1350.52
408.779	1360.46
409.156	1325.88
409.534	1364.53
409.912	1381.93
410.29	1441.36
410.667	1421.02
411.045	1475.71
411.422	1444.52
411.8	1474.58
412.178	1514.35
412.555	1529.49
412.933	1586.44
413.31	1575.59
413.687	1601.81
414.065	1616.95
414.442	1613.33
414.819	1626.67
415.197	1633.22
415.574	1699.43
415.951	1732.88
416.328	1682.26
416.705	1757.28
417.082	1735.36
417.46	1776.04
417.837	1774.46
418.214	1776.94
418.591	1815.36
418.967	1816.49
419.344	1889.03
419.721	1884.74
420.098	1880.9
420.475	1888.58
420.852	1945.75
421.228	1988.46
421.605	1974.45
421.982	2009.48
422.358	1987.11
422.735	2040.44
423.111	2058.29
423.488	2105.3
423.864	2099.2
424.241	2125.18
424.617	2162.92
424.994	2141.91
425.37	2204.5
425.746	2168.8
426.123	2195.24
426.499	2240.44
426.875	2272.52
427.251	2333.09
427.627	2333.54
428.003	2375.35
428.379	2411.96
428.756	2419.41
429.132	2481.33
429.507	2503.48
429.883	2528.79
430.259	2586.64
430.635	2573.08
431.011	2606.53
431.387	2664.83
431.763	2730.14
432.138	2727.65
432.514	2763.36
432.89	2787.99
433.265	2867.54
433.641	2877.48
434.016	2872.74
434.392	2934.2
434.767	3007.65
435.143	2999.96
435.518	3044.03
435.894	3071.15
436.269	3092.62
436.644	3188.43
437.02	3185.5
437.395	3246.28
437.77	3231.82
438.145	3312.5
438.52	3317.47
438.895	3321.08
439.271	3354.08
439.646	3479.72
440.021	3476.34
440.395	3466.62
440.77	3416.9
441.145	3505.03
441.52	3536.45
441.895	3550.01
442.27	3593.39
442.645	3597.46
443.019	3655.99
443.394	3639.49
443.769	3626.61
444.143	3695.54
444.518	3774.41
444.892	3780.96
445.267	3785.71
445.641	3774.41
446.016	3792.03
446.39	3876.55
446.764	3877.23
447.139	3893.95
447.513	3920.84
447.887	3935.31
448.262	3950.45
448.636	3985.02
449.01	4028.41
449.384	4066.6
449.758	4090.56
450.132	4143.44
450.506	4159.26
450.88	4192.02
451.254	4161.06
451.628	4271.57
452.002	4279.48
452.376	4354.05
452.75	4389.31
453.123	4411.9
453.497	4483.77
453.871	4511.56
454.244	4625.23
454.618	4646.7
454.992	4679.92
455.365	4707.94
455.739	4810.76
456.112	4884.66
456.486	4907.03
456.859	4948.61
457.232	5047.14
457.606	5053.47
457.979	5138.21
458.352	5272.45
458.725	5298.89
459.099	5337.53
459.472	5443.97
459.845	5440.58
460.218	5526.9
460.591	5566
460.964	5579.78
461.337	5739.1
461.71	5837.63
462.083	5850.51
462.456	5935.71
462.829	5920.56
463.201	6045.31
463.574	6082.59
463.947	6056.83
464.32	6284.62
464.692	6323.72
465.065	6330.72
465.438	6457.95
465.81	6534.11
466.183	6626.99
466.555	6752.63
466.928	6812.97
467.3	6765.51
467.672	6922.12
468.045	7093.42
468.417	7085.51
468.789	7165.96
469.161	7251.38
469.534	7382.22
469.906	7553.29
470.278	7570.92
470.65	7708.31
471.022	7853.62
471.394	7965.03
471.766	8058.14
472.138	8201.18
472.51	8287.96
472.882	8423.55
473.253	8511.46
473.625	8626.03
473.997	8822.64
474.369	8830.77
474.74	9011.33
475.112	9161.84
475.484	9209.97
475.855	9397.76
476.227	9487.48
476.598	9795.94
476.97	9837.3
477.341	10055.15
477.713	10228.7
478.084	10317.51
478.455	10601.35
478.827	10622.81
479.198	10930.15
479.569	10919.98
479.94	11312.29
480.311	11307.32
480.682	11649.68
481.053	11923.12
481.424	12098.48
481.795	12232.04
482.166	12415.54
482.537	12536.89
482.908	12858.24
483.279	12888.97
483.65	13088.96
484.021	13460.03
484.391	13493.25
484.762	13607.59
485.133	13773.01
485.503	14000.13
485.874	14330.74
486.244	14463.16
486.615	14723.5
486.985	14875.13
487.356	15239.64
487.726	15269.25
488.097	15611.61
488.467	15667.2
488.837	15961.43
489.207	16173.85
489.578	16319.39
489.948	16506.5
490.318	16721.18
490.688	16749.43
491.058	17042.08
491.428	17176.31
491.798	17445.23
492.168	17805
492.538	17892.91
492.908	18107.36
493.278	18386.23
493.648	18399.78
494.017	18643.62
494.387	18702.83
494.757	18863.05
495.126	19040.67
495.496	19151.18
495.866	19336.26
496.235	19569.02
496.605	19736.92
496.974	19817.6
497.344	20119.29
497.713	20181.21
498.082	20252.62
498.452	20498.03
498.821	20590.01
499.19	20687.41
499.559	20947.29
499.928	21011.69
500.298	21275.42
500.667	21377.33
501.036	21439.03
501.405	21627.95
501.774	21594.28
502.143	21816.64
502.512	21925.57
502.88	22204.2
503.249	22227.48
503.618	22436.51
503.987	22481.71
504.356	22762.38
504.724	22951.3
505.093	22993.79
505.462	23030.62
505.83	23178.19
506.199	23417.51
506.567	23766.2
506.936	23775.91
507.304	24008
507.672	24219.97
508.041	24276.92
508.409	24477.14
508.777	24679.39
509.145	24862.89
509.514	24859.5
509.882	25030.34
510.25	25237.57
510.618	25418.81
510.986	25504.68
511.354	25735.41
511.722	25972.92
512.09	26140.37
512.458	26142.41
512.826	26412.91
513.193	26598.21
513.561	26713.24
513.929	27032.55
514.297	27251.98
514.664	27341.02
515.032	27507.79
515.4	27736.49
515.767	27840.21
516.135	27920.89
516.502	28039.08
516.869	28547.77
517.237	28651.27
517.604	28729.68
517.972	29070.69
518.339	29239.5
518.706	29186.85
519.073	29445.82
519.44	29779.37
519.808	29983.89
520.175	30039.7
520.542	30534.15
520.909	30633.59
521.276	30820.02
521.643	31160.35
522.009	31374.13
522.376	31377.07
522.743	31796.72
523.11	32027
523.477	32362.58
523.843	32563.48
524.21	32914.43
524.577	33231.03
524.943	33370.24
525.31	33433.29
525.676	33808.42
526.043	33999.6
526.409	34272.81
526.776	34643.43
527.142	34703.31
527.508	34936.3
527.874	35168.61
528.241	35245.67
528.607	35517.3
528.973	35812.21
529.339	35959.55
529.705	36375.81
530.071	36527.67
530.437	36680.89
530.803	36920.2
531.169	37269.8
531.535	37207.43
531.901	37381.43
532.267	37590.24
532.632	37746.62
532.998	37977.8
533.364	38147.74
533.73	38421.41
534.095	38725.58
534.461	38835.86
534.826	39019.36
535.192	39078.79
535.557	39383.87
535.923	39373.47
536.288	39494.6
536.653	39882.61
537.019	39797.87
537.384	40100.91
537.749	40177.29
538.114	40246.67
538.479	40484.4
538.845	40755.81
539.21	40649.37
539.575	41041.68
539.94	41127.32
540.305	41436.69
540.67	41439.4
541.034	41517.37
541.399	41728.89
541.764	41832.61
542.129	42039.84
542.494	42256.33
542.858	42238.48
543.223	42386.05
543.587	42766.6
543.952	42598.92
544.316	42851.8
544.681	42888.18
545.045	43079.59
545.41	43301.28
545.774	43460.14
546.138	43541.04
546.503	43576.07
546.867	43645
547.231	43999.79
547.595	44215.83
547.959	44224.42
548.324	44298.54
548.688	44602.26
549.052	44764.52
549.416	44767.45
549.779	44892.42
550.143	45162.24
550.507	45407.21
550.871	45612.85
551.235	45642.23
551.599	45810.36
551.962	45874.32
552.326	46033.41
552.689	46390.69
553.053	46229.56
553.417	46280.63
553.78	46855.99
554.143	46831.35
554.507	47032.03
554.87	47135.98
555.234	47611.9
555.597	47485.12
555.96	47571.22
556.323	47754.27
556.686	47895.28
557.05	48174.14
557.413	48169.4
557.776	48398.32
558.139	48625.66
558.502	48773.22
558.865	48951.07
559.228	49177.51
559.59	49310.38
559.953	49448.91
560.316	49829.92
560.679	49904.72
561.041	49911.05
561.404	50219.29
561.767	50476.68
562.129	50321.66
562.492	50733.85
562.854	50713.51
563.217	50821.3
563.579	50997.35
563.941	51245.25
564.304	51435.98
564.666	51637.78
565.028	51698.12
565.39	51807.72
565.753	51969.3
566.115	52052.01
566.477	52231.44
566.839	52366.12
567.201	52572.22
567.563	52543.97
567.925	52783.97
568.287	52818.77
568.648	52911.65
569.01	53014.92
569.372	53272.09
569.734	53258.53
570.095	53390.5
570.457	53542.82
570.819	53624.85
571.18	53666.65
571.542	53801.11
571.903	53913.43
572.265	54037.04
572.626	54215.11
572.987	54197.49
573.349	54279.52
573.71	54332.4
574.071	54428.44
574.432	54586.4
574.794	54836.11
575.155	54791.37
575.516	54719.28
575.877	54850.8
576.238	54816
576.599	54977.35
576.96	54931.03
577.32	55016.9
577.681	55077.69
578.042	55156.56
578.403	55185.48
578.763	55246.27
579.124	55324.24
579.485	55434.74
579.845	55517
580.206	55499.83
580.566	55462.99
580.927	55452.37
581.287	55536.89
581.648	55479.94
582.008	55587.28
582.368	55602.2
582.728	55606.94
583.089	55603.55
583.449	55638.35
583.809	55698.24
584.169	55708.63
584.529	55683.55
584.889	55822.08
585.249	55663.44
585.609	55580.95
585.969	55782.98
586.329	55566.49
586.688	55737.33
587.048	55668.18
587.408	55644.91
587.768	55689.88
588.127	55687.84
588.487	55586.6
588.846	55825.92
589.206	55700.72
589.565	55677.45
589.925	55804.45
590.284	55759.71
590.643	55796.99
591.003	55860.72
591.362	55871.12
591.721	55841.29
592.08	55860.49
592.44	56000.38
592.799	55939.36
593.158	55821.4
593.517	55819.59
593.876	55952.7
594.235	55907.5
594.593	55928.97
594.952	55965.58
595.311	55807.61
595.67	55900.95
596.029	55992.92
596.387	56032.92
596.746	56074.95
597.104	55872.25
597.463	55978.23
597.822	56038.57
598.18	56091.45
598.538	56032.69
598.897	56219.81
599.255	55940.94
599.613	56290.09
599.972	56065.69
600.33	56241.73
600.688	56105.69
601.046	56221.16
601.404	56273.82
601.762	56224.78
602.12	56357.66
602.478	56267.49
602.836	56362.18
603.194	56218.23
603.552	56276.98
603.91	56297.09
604.268	56376.64
604.625	56276.08
604.983	56401.72
605.341	56345.23
605.698	56498.22
606.056	56537.31
606.413	56476.52
606.771	56612.34
607.128	56561.27
607.485	56489.63
607.843	56466.81
608.2	56583.64
608.557	56699.57
608.914	56607.82
609.272	56771.43
609.629	56774.82
609.986	56822.96
610.343	56751.09
610.7	56928.26
611.057	56879.68
611.414	56838.77
611.771	56818.89
612.127	56963.74
612.484	56946.34
612.841	57037.41
613.198	57001.71
613.554	56981.82
613.911	57189.5
614.267	57153.57
614.624	57127.81
614.98	57100.46
615.337	57250.97
615.693	57226.11
616.05	57170.74
616.406	57323.05
616.762	57216.17
617.118	57175.71
617.475	57196.05
617.831	57235.6
618.187	57235.6
618.543	57388.14
618.899	57483.95
619.255	57384.3
619.611	57344.52
619.967	57426.78
620.323	57404.63
620.678	57348.82
621.034	57339.55
621.39	57287.8
621.746	57271.53
622.101	57580
622.457	57303.85
622.812	57406.89
623.168	57470.85
623.523	57486.67
623.879	57566.66
624.234	57291.42
624.589	57464.29
624.945	57497.74
625.3	57513.11
625.655	57504.97
626.01	57531.41
626.365	57499.55
626.72	57545.87
627.075	57540.68
627.43	57460.45
627.785	57382.71
628.14	57430.4
628.495	57493.9
628.85	57475.59
629.205	57334.35
629.559	57530.73
629.914	57274.02
630.269	57324.86
630.623	57278.31
630.978	57133.68
631.332	57299.1
631.687	57385.43
632.041	57254.13
632.396	57221.36
632.75	57156.28
633.104	57140.01
633.459	57039.9
633.813	57024.76
634.167	56958.09
634.521	56975.04
634.875	56969.17
635.229	57019.79
635.583	56779.11
635.937	56745.67
636.291	56774.59
636.645	56815.95
636.999	56677.65
637.352	56716.97
637.706	56652.56
638.06	56760.58
638.413	56641.49
638.767	56583.64
639.121	56703.64
639.474	56499.8
639.828	56583.19
640.181	56584.77
640.534	56618.21
640.888	56462.51
641.241	56439.91
641.594	56415.28
641.947	56420.03
642.301	56337.77
642.654	56293.25
643.007	56292.12
643.36	56212.12
643.713	56202.63
644.066	56393.36
644.419	56063.43
644.771	55797.22
645.124	55480.39
645.477	55309.1
645.83	55176.22
646.182	55129.44
646.535	55115.2
646.888	55413.73
647.24	55326.27
647.593	55434.07
647.945	55439.94
648.298	55330.56
648.65	55290.79
649.002	55117.01
649.355	55110.46
649.707	54957.24
650.059	54951.82
650.411	55208.53
650.763	55280.85
651.115	55636.55
651.467	55559.49
651.819	55574.63
652.171	55478.81
652.523	55382.99
652.875	55332.37
653.227	55175.99
653.578	55428.64
653.93	55414.86
654.282	55350.45
654.633	55284.69
654.985	55147.29
655.337	55234.52
655.688	55255.99
656.039	55258.93
656.391	55006.96
656.742	55108.88
657.094	55102.32
657.445	55197.69
657.796	54965.6
658.147	55046.73
658.498	54966.28
658.849	54974.87
659.2	54871.14
659.551	54864.14
659.902	54910.69
660.253	54885.15
660.604	54895.32
660.955	54677.93
661.306	54766.96
661.656	54770.35
662.007	54722.67
662.358	54759.05
662.708	54688.77
663.059	54659.17
663.409	54469.34
663.76	54744.37
664.11	54706.17
664.461	54709.79
664.811	54720.64
665.161	54649.9
665.511	54527.87
665.862	54535.11
666.212	54615.56
666.562	54607.65
666.912	54634.31
667.262	54547.31
667.612	54491.72
667.962	54557.7
668.312	54462.34
668.662	54530.13
669.011	54373.08
669.361	54463.92
669.711	54371.49
670.06	54350.48
670.41	54275
670.76	54286.3
671.109	54305.96
671.459	54227.32
671.808	54196.13
672.157	54346.18
672.507	54225.28
672.856	54076.13
673.205	54116.36
673.554	54261.44
673.904	54159.07
674.253	54275.9
674.602	54073.87
674.951	53713.88
675.3	53526.09
675.649	54071.61
675.998	54073.65
676.346	53967.44
676.695	54073.42
677.044	53791.85
677.393	53951.62
677.741	53995.91
678.09	53842.69
678.438	53709.59
678.787	53852.41
679.135	53777.84
679.484	53668.46
679.832	53775.35
680.181	53508.47
680.529	53623.27
680.877	53532.42
681.225	53425.53
681.573	53688.35
681.922	53366.32
682.27	53249.26
682.618	53242.48
682.966	53248.36
683.314	53443.61
683.661	53315.7
684.009	53070.96
684.357	52926.11
684.705	52903.28
685.053	52955.03
685.4	52923.17
685.748	52794.36
686.095	52746
686.443	52623.52
686.79	52567.02
687.138	52691.54
687.485	52551.65
687.832	52535.16
688.18	52501.71
688.527	52333.81
688.874	52357.31
689.221	52190.31
689.568	52115.06
689.915	51971.11
690.262	51950.99
690.609	51783.99
690.956	51775.86
691.303	51816.98
691.65	51720.04
691.997	51593.71
692.344	51462.42
692.69	51359.82
693.037	51380.61
693.383	51120.05
693.73	51223.78
694.077	51127.29
694.423	51000.74
694.769	50918.25
695.116	50808.2
695.462	50769.55
695.808	50617.02
696.155	50725.49
696.501	50491.14
696.847	50424.93
697.193	50057.94
697.539	50315.78
697.885	49967.32
698.231	49773.87
698.577	49798.96
698.923	49922.12
699.269	49794.21
699.614	49545.41
699.96	49455.69
700.306	49380.89
700.651	49268.58
700.997	49128.47
701.342	49172.99
701.688	48997.85
702.033	48953.33
702.379	48836.27
702.724	48541.59
703.069	48732.09
703.415	48271.09
703.76	48326.91
704.105	48385.66
704.45	48215.72
704.795	47909.74
705.14	47845.56
705.485	47785.68
705.83	47803.31
706.175	47888.27
706.52	47620.49
706.865	47462.75
707.209	47402.64
707.554	47277.9
707.899	47203.1
708.243	46975.3
708.588	47026.15
708.932	46768.53
709.277	46650.12
709.621	46812.6
709.966	46530.34
710.31	46671.13
710.654	46291.03
710.998	46253.06
711.342	46232.5
711.687	46135.1
712.031	46077.7
712.375	45784.6
712.719	45895.78
713.063	45793.41
713.407	45870.25
713.75	45611.72
714.094	45569.24
714.438	45359.08
714.782	45571.05
715.125	45291.51
715.469	45281.34
715.812	44955.47
716.156	44812.42
716.499	44670.28
716.843	44832.99
717.186	44616.5
717.53	44760.45
717.873	44611.07
718.216	44706.66
718.559	44524.75
718.902	44177.64
719.246	44223.06
719.589	44246.11
719.932	44016.06
720.275	44115.72
720.617	43988.49
720.96	43778.55
721.303	43833.69
721.646	43897.65
721.989	43606.13
722.331	43723.19
722.674	43469.86
723.016	43564.55
723.359	43324.55
723.701	43421.27
724.044	43235.97
724.386	43106.71
724.729	43282.75
725.071	43225.8
725.413	42968.86
725.755	43023.32
726.097	42666.27
726.439	42611.8
726.782	42599.15
727.124	42624.23
727.465	42380.62
727.807	42451.13
728.149	42201.42
728.491	42165.04
728.833	42202.32
729.175	42032.38
729.516	42086.85
729.858	41891.14
730.199	41916.91
730.541	41692.05
730.882	41763.01
731.224	41872.61
731.565	41603.92
731.906	41533.41
732.248	41572.06
732.589	41307.2
732.93	41252.74
733.271	41338.16
733.612	41211.16
733.953	41385.17
734.294	41190.15
734.635	41102.24
734.976	41102.46
735.317	40786.99
735.658	40915.8
735.999	40817.95
736.339	40672.65
736.68	40868.57
737.021	40789.93
737.361	40567.79
737.702	40684.85
738.042	40446.21
738.383	40314.24
738.723	40556.72
739.063	40144.52
739.404	40202.83
739.744	40199.21
740.084	40029.95
740.424	40045.54
740.764	39927.35
741.104	40151.08
741.444	39917.64
741.784	39656.17
742.124	39639.68
742.464	39630.86
742.804	39591.32
743.143	39333.92
743.483	39509.29
743.823	39314.71
744.162	39110.65
744.502	39227.03
744.841	39185
745.181	39253.02
745.52	38951.56
745.86	38949.07
746.199	38909.08
746.538	38744.56
746.877	38829.08
747.216	38717.67
747.556	38741.85
747.895	38577.11
748.234	38441.29
748.573	38410.33
748.911	38484.91
749.25	38423.89
749.589	38171.47
749.928	38357.68
750.267	38208.53
750.605	38015.99
750.944	37980.51
751.283	37784.36
751.621	37748.2
751.96	37404.48
752.298	37496.01
752.636	37481.54
752.975	37442.45
753.313	37162.46
753.651	37367.65
753.989	37097.37
754.327	36992.29
754.666	36963.36
755.004	36913.87
755.342	36977.83
755.679	36831.39
756.017	36641.11
756.355	36594.33
756.693	36581.91
757.031	36626.2
757.368	36257.85
757.706	36228.47
758.044	36188.47
758.381	36350.05
758.719	36020.11
759.056	35867.35
759.394	35787.8
759.731	35463.52
760.068	35380.81
760.405	35289.06
760.743	35298.1
761.08	35299.45
761.417	35042.96
761.754	34999.12
762.091	35047.93
762.428	34970.87
762.765	34735.4
763.102	34806.36
763.438	34404.34
763.775	34376.77
764.112	34416.31
764.449	34565.01
764.785	34388.06
765.122	34034.85
765.458	33698.37
765.795	33721.64
766.131	33687.29
766.467	33560.06
766.804	33511.48
767.14	33181.77
767.476	33255.89
767.812	33007.76
768.148	33085.27
768.485	32949.23
768.821	32717.6
769.157	32677.83
769.492	32621.78
769.828	32530.94
770.164	32106.09
770.5	32170.27
770.836	32122.81
771.171	31850.73
771.507	31985.64
771.842	31673.56
772.178	31528.25
772.513	31481.7
772.849	31339.56
773.184	31209.84
773.519	31162.16
773.855	30975.95
774.19	30882.39
774.525	30738.9
774.86	30725.56
775.195	30570.31
775.53	30521.5
775.865	30337.1
776.2	30180.94
776.535	29987.73
776.87	29922.65
777.205	29928.75
777.539	29717.68
777.874	29776.43
778.209	29531.47
778.543	29529.66
778.878	29327.86
779.212	29298.71
779.547	29249.22
779.881	29114.76
780.215	28891.94
780.55	28994.31
780.884	28816.46
781.218	28713.19
781.552	28741.21
781.886	28474.1
782.22	28271.84
782.554	28149.58
782.888	27915.24
783.222	27898.29
783.556	27658.75
783.889	27761.57
784.223	27577.17
784.557	27484.07
784.89	27614.01
785.224	27246.56
785.557	27132.44
785.891	27142.83
786.224	26940.12
786.558	26915.04
786.891	26710.98
787.224	26563.19
787.557	26540.81
787.891	26484.32
788.224	26449.52
788.557	26582.17
788.89	26393.02
789.223	26364.77
789.556	26130.65
789.888	26035.06
790.221	25915.52
790.554	25751
790.887	25732.7
791.219	25619.71
791.552	25554.4
791.884	25495.19
792.217	25271.02
792.549	25238.02
792.882	25120.74
793.214	24993.51
793.546	25162.77
793.879	24832.38
794.211	24783.8
794.543	24803.01
794.875	24691.82
795.207	24730.47
795.539	24513.97
795.871	24452.05
796.203	24338.39
796.535	24221.1
796.867	24184.27
797.198	24086.64
797.53	24156.24
797.862	23851.17
798.193	24058.17
798.525	23883.48
798.856	23870.6
799.188	23599.65
799.519	23516.49
799.85	23432.65
800.182	23333.44
800.513	23385.64
800.844	23148.59
801.175	23173.67
801.506	23106.33
801.837	22985.2
802.168	22921.47
802.499	22747.47
802.83	22711.54
803.161	22682.16
803.491	22650.52
803.822	22536.85
804.153	22492.78
804.483	22303.18
804.814	22195.39
805.145	22090.31
805.475	22210.98
805.805	22115.85
806.136	22165.34
806.466	22097.77
806.796	22047.82
807.126	21926.25
807.457	21834.04
807.787	21880.37
808.117	21756.08
808.447	21619.59
808.777	21679.92
809.107	21441.06
809.436	21479.25
809.766	21553.37
810.096	21522.87
810.426	21281.97
810.755	21322.65
811.085	21273.38
811.414	21116.78
811.744	21012.15
812.073	20994.07
812.403	20998.13
812.732	20698.26
813.061	20800.85
813.39	20656.67
813.719	20582.78
814.049	20783
814.378	20597.47
814.707	20403.35
815.036	20503.68
815.365	20382.11
815.693	20298.49
816.022	20270.92
816.351	20197.48
816.68	19994.77
817.008	20250.81
817.337	19909.12
817.665	19860.09
817.994	19931.95
818.322	19854.44
818.651	19759.3
818.979	19851.72
819.307	19830.93
819.636	19662.58
819.964	19546.87
820.292	19529.7
820.62	19508.91
820.948	19424.39
821.276	19623.26
821.604	19529.02
821.932	19542.58
822.259	19530.83
822.587	19517.5
822.915	19347.78
823.243	19429.59
823.57	19369.25
823.898	19324.73
824.225	19326.77
824.553	19320.21
824.88	19405.18
825.207	19432.98
825.535	19255.58
825.862	19324.73
826.189	19178.97
826.516	19415.58
826.843	19488.34
827.17	19368.35
827.497	19504.84
827.824	19379.42
828.151	19355.47
828.478	19284.06
828.805	19290.61
829.131	19281.57
829.458	19317.27
829.785	19396.82
830.111	19298.97
830.438	19590.49
830.764	19431.4
831.09	19498.74
831.417	19302.36
831.743	19362.02
832.069	19246.54
832.395	19210.84
832.722	19322.92
833.048	19274.11
833.374	19244.73
833.7	19145.3
834.026	19202.25
834.351	19281.34
834.677	19034.34
835.003	19063.04
835.329	19023.5
835.654	18990.05
835.98	18968.81
836.306	18986.89
836.631	18835.03
836.956	18961.8
837.282	18908.25
837.607	18859.43
837.932	18767.68
838.258	18962.26
838.583	18807.01
838.908	18723.84
839.233	18783.28
839.558	18760.45
839.883	18692.21
840.208	18643.17
840.533	18625.09
840.858	18490.86
841.182	18651.76
841.507	18639.1
841.832	18622.6
842.156	18616.5
842.481	18499.67
842.805	18529.27
843.13	18410.18
843.454	18251.77
843.778	18200.69
844.103	18163.86
844.427	18101.71
844.751	18146.01
845.075	18059.91
845.399	18059.91
845.723	17918.67
846.047	18012.68
846.371	17860.36
846.695	17838.22
847.019	17767.71
847.343	17719.35
847.666	17541.05
847.99	17471.9
848.313	17412.92
848.637	17311.23
848.96	17271.23
849.284	17200.49
849.607	17134.73
849.931	17186.26
850.254	16928.18
850.577	16888.86
850.9	16805.93
851.223	16752.14
851.546	16665.37
851.869	16573.62
852.192	16759.83
852.515	16679.6
852.838	16472.83
853.161	16429.21
853.483	16370.01
853.806	16402.77
854.129	16240.07
854.451	16298.37
854.774	16163.46
855.096	16087.08
855.419	16055.21
855.741	16086.17
856.063	15981.54
856.385	15986.06
856.708	15943.35
857.03	15784.94
857.352	15804.15
857.674	15771.83
857.996	15701.1
858.318	15766.18
858.64	15694.32
858.961	15650.25
859.283	15599.63
859.605	15523.93
859.926	15638.05
860.248	15556.47
860.57	15522.35
860.891	15525.51
861.212	15356.25
861.534	15422.69
861.855	15273.99
862.176	15298.4
862.498	15381.78
862.819	15251.62
863.14	15185.86
863.461	15229.02
863.782	15116.03
864.103	15085.75
864.424	15046.65
864.745	15098.18
865.065	15043.49
865.386	15023.38
865.707	14997.84
866.027	15057.95
866.348	15001.91
866.668	14972.3
866.989	14946.54
867.309	14743.38
867.63	14833.32
867.95	14880.1
868.27	14662.26
868.59	14703.61
868.91	14737.96
869.23	14733.67
869.55	14620
869.87	14799.43
870.19	14801.01
870.51	14790.61
870.83	14733.67
871.15	14671.97
871.469	14641.69
871.789	14657.96
872.109	14540
872.428	14550.39
872.748	14710.16
873.067	14660.9
873.386	14597.4
873.706	14493.45
874.025	14427.01
874.344	14416.84
874.663	14416.16
874.982	14520.79
875.301	14407.57
875.62	14323.73
875.939	14325.77
876.258	14385.2
876.577	14365.31
876.896	14242.83
877.214	14195.83
877.533	14342.04
877.852	14227.24
878.17	14318.54
878.489	14150.86
878.807	14225.88
879.125	14141.14
879.444	14259.1
879.762	14185.21
880.08	14168.03
880.398	14119.45
880.716	14060.46
881.034	14025.21
881.352	13985.89
881.67	13982.95
881.988	14008.49
882.306	13963.29
882.624	13979.56
882.941	13860.24
883.259	13942.05
883.577	13872.67
883.894	13864.31
884.212	13780.92
884.529	13717.42
884.846	13696.18
885.164	13771.66
885.481	13660.25
885.798	13681.49
886.115	13503.19
886.432	13601.27
886.75	13528.27
887.067	13622.06
887.383	13442.85
887.7	13478.11
888.017	13402.18
888.334	13405.11
888.651	13422.74
888.967	13399.92
889.284	13249.86
889.6	13208.06
889.917	13174.39
890.233	13213.71
890.55	13141.17
890.866	13204.67
891.182	13175.97
891.498	12953.15
891.815	13018.46
892.131	13007.84
892.447	13052.13
892.763	13037.67
893.079	12918.12
893.395	12917.89
893.71	12951.11
894.026	12920.83
894.342	12865.92
894.657	12756.32
894.973	12691.91
895.289	12684.23
895.604	12701.86
895.92	12622.99
896.235	12531.01
896.55	12577.79
896.865	12565.14
897.181	12448.98
897.496	12459.38
897.811	12376.21
898.126	12349.32
898.441	12257.8
898.756	12220.29
899.071	12212.6
899.386	12215.77
899.7	12127.41
900.015	12046.96
900.33	11975.77
900.644	11983.68
900.959	11949.11
901.273	11906.62
901.588	11857.81
901.902	11836.79
902.216	11805.83
902.531	11833.18
902.845	11710.24
903.159	11719.96
903.473	11712.95
903.787	11644.03
904.101	11674.99
904.415	11644.48
904.729	11632.73
905.042	11532.17
905.356	11400.42
905.67	11380.99
905.984	11400.65
906.297	11334.89
906.611	11240.2
906.924	11252.85
907.237	11231.84
907.551	11244.94
907.864	11151.61
908.177	11131.95
908.491	11052.63
908.804	10970.83
909.117	10865.75
909.43	10842.02
909.743	10766.76
910.056	10842.7
910.368	10817.39
910.681	10719.08
910.994	10758.86
911.307	10684.28
911.619	10518.64
911.932	10623.94
912.244	10548.92
912.557	10500.11
912.869	10471.63
913.181	10454
913.494	10435.25
913.806	10407
914.118	10288.13
914.43	10286.55
914.742	10248.81
915.054	10203.16
915.366	10172.66
915.678	10122.71
915.99	10070.74
916.302	10059.89
916.613	10005.88
916.925	9986.22
917.236	10034.81
917.548	9950.29
917.859	9910.52
918.171	9803.85
918.482	9782.16
918.794	9704.42
919.105	9705.78
919.416	9576.29
919.727	9568.15
920.038	9567.7
920.349	9604.08
920.66	9526.57
920.971	9489.51
921.282	9416.29
921.593	9366.12
921.903	9292.45
922.214	9263.08
922.525	9270.76
922.835	9236.41
923.146	9161.61
923.456	9110.54
923.767	9114.83
924.077	9087.04
924.387	9035.74
924.697	8988.51
925.008	8969.3
925.318	8888.85
925.628	8930.43
925.938	8825.57
926.248	8805.91
926.558	8762.98
926.867	8762.52
927.177	8721.39
927.487	8656.54
927.796	8597.78
928.106	8567.73
928.416	8612.7
928.725	8618.57
929.034	8493.38
929.344	8498.8
929.653	8495.19
929.962	8424
930.271	8370.67
930.581	8293.61
930.89	8258.36
931.199	8234.63
931.508	8198.02
931.817	8272.14
932.125	8197.34
932.434	8146.49
932.743	8034.18
933.051	8024.01
933.36	7982.88
933.669	7946.27
933.977	7943.34
934.286	7884.81
934.594	7915.54
934.902	7799.61
935.21	7793.28
935.519	7809.55
935.827	7761.42
936.135	7640.97
936.443	7607.53
936.751	7608.2
937.059	7610.46
937.367	7542.44
937.674	7555.78
937.982	7452.5
938.29	7476.68
938.597	7511.48
938.905	7386.29
939.213	7386.97
939.52	7332.96
939.827	7370.92
940.135	7286.63
940.442	7281.43
940.749	7212.73
941.056	7222.45
941.363	7167.31
941.67	7117.14
941.977	7164.37
942.284	7063.13
942.591	7091.16
942.898	7010.48
943.205	7038.05
943.511	6991.95
943.818	7007.99
944.125	6924.61
944.431	6854.1
944.738	6854.33
945.044	6842.57
945.35	6746.98
945.657	6733.65
945.963	6711.5
946.269	6701.34
946.575	6685.06
946.881	6658.4
947.187	6615.01
947.493	6618.17
947.799	6570.27
948.105	6511.74
948.41	6440.78
948.716	6485.07
949.022	6462.47
949.327	6422.25
949.633	6374.79
949.938	6414.11
950.244	6393.32
950.549	6355.36
950.854	6281.91
951.16	6318.52
951.465	6240.78
951.77	6247.34
952.075	6122.37
952.38	6121.92
952.685	6158.07
952.99	6077.17
953.294	6024.06
953.599	6005.53
953.904	5974.57
954.209	5929.38
954.513	5951.98
954.818	5962.6
955.122	5918.3
955.426	5973.44
955.731	5873.33
956.035	5815.93
956.339	5787.46
956.643	5806.44
956.948	5803.28
957.252	5745.88
957.556	5683.73
957.86	5626.34
958.163	5630.4
958.467	5588.37
958.771	5610.74
959.075	5555.6
959.378	5537.75
959.682	5508.6
959.985	5540.91
960.289	5473.12
960.592	5459.79
960.896	5437.87
961.199	5461.37
961.502	5445.55
961.805	5400.35
962.108	5349.28
962.411	5361.94
962.714	5325.33
963.017	5275.61
963.32	5283.07
963.623	5258.21
963.926	5264.99
964.228	5179.34
964.531	5215.05
964.833	5161.71
965.136	5063.41
965.438	5151.32
965.741	5081.72
966.043	5100.47
966.345	5055.28
966.648	5031.55
966.95	5034.49
967.252	4960.36
967.554	4969.4
967.856	4972.12
968.158	4896.41
968.46	4915.17
968.761	4804.89
969.063	4797.66
969.365	4852.34
969.666	4800.37
969.968	4764.89
970.269	4798.33
970.571	4730.54
970.872	4708.85
971.174	4707.04
971.475	4688.05
971.776	4652.35
972.077	4634.04
972.378	4620.03
972.679	4573.48
972.98	4507.27
973.281	4556.31
973.582	4561.28
973.883	4522.86
974.183	4487.38
974.484	4492.13
974.785	4478.34
975.085	4464.56
975.386	4456.42
975.686	4448.51
975.986	4424.33
976.287	4417.1
976.587	4308.86
976.887	4308.4
977.187	4297.56
977.487	4278.8
977.787	4244.45
978.087	4218.24
978.387	4222.76
978.687	4224.79
978.987	4151.12
979.286	4113.15
979.586	4139.82
979.885	4121.97
980.185	4109.31
980.484	4122.65
980.784	4067.05
981.083	4071.8
981.382	4042.2
981.682	3997.9
981.981	3983.67
982.28	3975.53
982.579	3985.02
982.878	3998.58
983.177	3961.07
983.475	3943.67
983.774	3889.88
984.073	3869.55
984.372	3864.57
984.67	3864.12
984.969	3799.26
985.267	3844.24
985.566	3789.1
985.864	3807.63
986.162	3766.27
986.461	3676.1
986.759	3717.68
987.057	3704.8
987.355	3725.37
987.653	3650.12
987.951	3670.91
988.249	3665.93
988.547	3605.82
988.844	3616.9
989.142	3617.35
989.44	3552.04
989.737	3546.62
990.035	3510.68
990.332	3531.93
990.63	3498.03
990.927	3503.23
991.224	3461.65
991.521	3450.12
991.819	3416
992.116	3459.84
992.413	3423.46
992.71	3364.25
993.006	3362.21
993.303	3396.56
993.6	3349.56
993.897	3350.01
994.193	3323.57
994.49	3276.79
994.787	3266.17
995.083	3273.18
995.379	3226.4
995.676	3230.01
995.972	3204.03
996.268	3195.66
996.565	3126.29
996.861	3149.11
997.157	3174.42
997.453	3119.28
997.749	3142.78
998.044	3100.53
998.34	3091.49
998.636	3086.97
998.932	3064.37
999.227	3037.02
999.523	3013.3
999.818	3028.89
1000.114	3020.75
1000.409	3003.35
1000.704	2970.13
1001	2938.72
1001.295	2959.29
1001.59	2887.42
1001.885	2864.83
1002.18	2837.48
1002.475	2865.96
1002.77	2847.88
1003.065	2817.37
1003.359	2845.84
1003.654	2772.4
1003.949	2777.14
1004.243	2761.1
1004.538	2755
1004.832	2766.3
1005.127	2755.9
1005.421	2701.44
1005.715	2668.22
1006.009	2683.81
1006.304	2644.72
1006.598	2632.74
1006.892	2621.44
1007.186	2603.36
1007.48	2574.21
1007.773	2585.51
1008.067	2555.46
1008.361	2548.9
1008.655	2515.46
1008.948	2481.11
1009.242	2505.51
1009.535	2486.98
1009.829	2443.59
1010.122	2428.91
1010.415	2443.37
1010.708	2415.57
1011.001	2377.61
1011.295	2427.1
1011.588	2371.28
1011.881	2377.61
1012.173	2343.94
1012.466	2348.68
1012.759	2356.82
1013.052	2313.43
1013.344	2270.72
1013.637	2295.35
1013.93	2244.73
1014.222	2233.88
1014.514	2245.86
1014.807	2233.2
1015.099	2211.06
1015.391	2209.93
1015.683	2204.28
1015.976	2176.26
1016.268	2169.93
1016.56	2161.57
1016.851	2126.77
1017.143	2107.11
1017.435	2105.07
1017.727	2070.95
1018.018	2036.6
1018.31	2064.17
1018.602	2055.13
1018.893	2048.8
1019.185	1996.37
1019.476	2009.26
1019.767	1994.34
1020.058	1976.94
1020.35	1924.06
1020.641	1928.35
1020.932	1902.14
1021.223	1923.83
1021.514	1915.25
1021.804	1883.61
1022.095	1891.52
1022.386	1845.87
1022.677	1864.17
1022.967	1835.25
1023.258	1810.84
1023.548	1792.99
1023.839	1772.2
1024.129	1797.74
1024.419	1767.68
1024.709	1753.44
1025	1715.25
1025.29	1749.6
1025.58	1722.48
1025.87	1715.48
1026.16	1687.91
1026.449	1670.96
1026.739	1682.48
1027.029	1631.19
1027.319	1668.02
1027.608	1628.7
1027.898	1663.28
1028.187	1616.72
1028.477	1612.88
1028.766	1607.46
1029.055	1565.65
1029.344	1562.26
1029.634	1557.74
1029.923	1541.47
1030.212	1528.82
1030.501	1510.96
1030.79	1512.32
1031.078	1490.4
1031.367	1479.1
1031.656	1482.49
1031.945	1491.75
1032.233	1452.89
1032.522	1435.71
1032.81	1415.15
1033.099	1432.77
1033.387	1444.3
1033.675	1422.6
1033.963	1386.67
1034.251	1387.12
1034.54	1371.53
1034.828	1374.92
1035.116	1349.39
1035.403	1349.16
1035.691	1331.98
1035.979	1320.23
1036.267	1306.9
1036.554	1325.66
1036.842	1285.21
1037.129	1274.81
1037.417	1273.23
1037.704	1282.95
1037.992	1264.64
1038.279	1235.72
1038.566	1223.06
1038.853	1223.06
1039.14	1223.06
