Data from foil_FLMS001491_001.txt Node
Date: Tue Feb 07 11:25:16 GMT 2017
User: dcchb
Spectrometer: FLMS00149
Trigger mode: 0
Integration Time (sec): 2.000000E-2
Scans to average: 10
Electric dark correction enabled: true
Nonlinearity correction enabled: false
Boxcar width: 0
XAxis mode: Wavelengths
Number of Pixels in Spectrum: 2048
>>>>>Begin Spectral Data<<<<<
341.393	3.56
341.776	3.56
342.16	3.56
342.543	-57.23
342.927	-64.01
343.31	-81.64
343.693	-66.5
344.077	-87.29
344.46	-48.42
344.843	-69.89
345.226	-29.89
345.61	-13.39
345.993	-25.82
346.376	-4.8
346.759	9.43
347.142	29.77
347.525	43.33
347.908	56.21
348.291	62.77
348.674	126.27
349.057	99.83
349.44	129.21
349.823	124.23
350.206	171.24
350.588	290.56
350.971	290.33
351.354	304.57
351.737	300.5
352.119	349.09
352.502	350.89
352.884	365.36
353.267	370.33
353.65	397.22
354.032	401.06
354.414	400.61
354.797	427.28
355.179	434.51
355.562	412.59
355.944	435.86
356.326	457.11
356.709	446.49
357.091	437.22
357.473	466.15
357.855	442.87
358.238	467.95
358.62	458.69
359.002	461.85
359.384	475.64
359.766	460.5
360.148	470.89
360.53	491.23
360.912	453.04
361.294	466.6
361.676	469.54
362.057	461.17
362.439	460.95
362.821	475.41
363.203	453.94
363.584	487.61
363.966	457.56
364.348	492.13
364.729	479.48
365.111	477.22
365.493	474.06
365.874	463.21
366.256	497.11
366.637	473.6
367.019	498.69
367.4	475.86
367.781	476.77
368.163	486.71
368.544	479.03
368.925	494.62
369.306	527.16
369.688	490.55
370.069	508.4
370.45	499.82
370.831	516.77
371.212	497.11
371.593	528.74
371.974	515.18
372.355	522.19
372.736	551.12
373.117	569.42
373.498	538.91
373.879	549.99
374.26	540.04
374.641	533.26
375.021	550.44
375.402	551.12
375.783	562.64
376.163	628.63
376.544	612.13
376.925	592.02
377.305	593.15
377.686	630.21
378.066	618.01
378.447	602.19
378.827	635.18
379.208	623.2
379.588	637.21
379.968	654.84
380.349	629.31
380.729	658.23
381.109	671.79
381.489	681.96
381.87	680.15
382.25	662.3
382.63	675.18
383.01	692.58
383.39	684.22
383.77	705.69
384.15	720.38
384.53	715.4
384.91	721.73
385.29	728.96
385.67	769.41
386.049	762.41
386.429	764.9
386.809	790.88
387.189	766.03
387.568	793.37
387.948	796.98
388.328	834.05
388.707	834.5
389.087	836.76
389.466	838.57
389.846	889.64
390.225	868.85
390.605	868.17
390.984	904.33
391.363	890.54
391.743	918.11
392.122	908.62
392.501	957.88
392.881	930.54
393.26	956.08
393.639	977.09
394.018	987.26
394.397	963.53
394.776	1008.5
395.155	1019.35
395.534	1012.8
395.913	1020.93
396.292	1032.46
396.671	1048.28
397.05	1073.36
397.429	1072.46
397.808	1077.88
398.186	1087.82
398.565	1106.36
398.944	1112.46
399.323	1109.29
399.701	1110.87
400.08	1149.07
400.458	1172.57
400.837	1177.77
401.215	1178.9
401.594	1177.77
401.972	1221.38
402.351	1221.38
402.729	1244.88
403.107	1244.88
403.486	1270.42
403.864	1292.11
404.242	1290.98
404.62	1326.01
404.999	1301.83
405.377	1334.6
405.755	1383.64
406.133	1384.09
406.511	1389.29
406.889	1438.1
407.267	1451.88
407.645	1462.28
408.023	1473.35
408.401	1482.84
408.779	1519.45
409.156	1537.53
409.534	1560.13
409.912	1583.4
410.29	1588.38
410.667	1625.66
411.045	1664.76
411.422	1657.75
411.8	1684.19
412.178	1707.7
412.555	1744.53
412.933	1755.83
413.31	1801.25
413.687	1824.3
414.065	1843.28
414.442	1860.69
414.819	1868.37
415.197	1862.72
415.574	1908.59
415.951	1947.24
416.328	1965.54
416.705	1950.85
417.082	1974.81
417.46	1988.59
417.837	2031.53
418.214	2058.42
418.591	2084.18
418.967	2071.3
419.344	2106.55
419.721	2149.27
420.098	2147.91
420.475	2182.48
420.852	2180.23
421.228	2235.14
421.605	2222.71
421.982	2268.13
422.358	2296.61
422.735	2312.43
423.111	2314.23
423.488	2402.14
423.864	2367.79
424.241	2456.6
424.617	2438.98
424.994	2490.95
425.37	2517.84
425.746	2539.09
426.123	2572.76
426.499	2581.57
426.875	2646.43
427.251	2636.26
427.627	2713.32
428.003	2755.13
428.379	2794.67
428.756	2814.33
429.132	2879.64
429.507	2913.77
429.883	2900.66
430.259	2954.22
430.635	2966.65
431.011	3007.1
431.387	3114.89
431.763	3155.79
432.138	3145.4
432.514	3213.87
432.89	3249.8
433.265	3266.98
433.641	3365.5
434.016	3353.3
434.392	3428.1
434.767	3501.77
435.143	3481.66
435.518	3530.47
435.894	3566.18
436.269	3596.46
436.644	3688.66
437.02	3746.51
437.395	3721.65
437.77	3803.46
438.145	3851.14
438.52	3884.59
438.895	3927.52
439.271	3897.47
439.646	4001.42
440.021	4021.76
440.395	4061.76
440.77	4043.23
441.145	4091.14
441.52	4175.2
441.895	4166.39
442.27	4195.09
442.645	4203.9
443.019	4295.2
443.394	4280.06
443.769	4353.95
444.143	4349.43
444.518	4450.9
444.892	4386.27
445.267	4483.44
445.641	4474.85
446.016	4526.38
446.39	4580.84
446.764	4591.69
447.139	4576.77
447.513	4682.08
447.887	4673.04
448.262	4702.87
448.636	4771.12
449.01	4811.34
449.384	4855.18
449.758	4880.72
450.132	4904.9
450.506	4954.84
450.88	4956.88
451.254	4991
451.628	5109.41
452.002	5108.96
452.376	5153.25
452.75	5248.17
453.123	5278.22
453.497	5383.98
453.871	5393.7
454.244	5485
454.618	5551.21
454.992	5614.49
455.365	5645.67
455.739	5753.01
456.112	5809.96
456.486	5911.65
456.859	5899.45
457.232	5989.39
457.606	5974.02
457.979	6160.91
458.352	6226.22
458.725	6308.7
459.099	6301.47
459.472	6438.87
459.845	6561.13
460.218	6505.76
460.591	6590.05
460.964	6638.86
461.337	6880.44
461.71	6853.77
462.083	7014.9
462.456	7009.25
462.829	7040.21
463.201	7137.16
463.574	7212.64
463.947	7297.6
464.32	7461.67
464.692	7535.34
465.065	7561.78
465.438	7666.63
465.81	7815.33
466.183	7874.76
466.555	8042.22
466.928	8074.53
467.3	8175.55
467.672	8193.85
468.045	8466.84
468.417	8477.91
468.789	8502.54
469.161	8682.65
469.534	8821.41
469.906	8908.86
470.278	8984.57
470.65	9124.22
471.022	9323.31
471.394	9522.18
471.766	9566.25
472.138	9648.73
472.51	9841.94
472.882	10003.75
473.253	10126
473.625	10209.62
473.997	10481.25
474.369	10522.38
474.74	10635.6
475.112	10769.15
475.484	11005.53
475.855	11126.66
476.227	11272.42
476.598	11591.96
476.97	11703.14
477.341	11966.41
477.713	12082.79
478.084	12137.48
478.455	12579.5
478.827	12625.15
479.198	13061.29
479.569	13034.4
479.94	13392.13
480.311	13412.02
480.682	13874.15
481.053	14111.21
481.424	14348.04
481.795	14431.43
482.166	14679.11
482.537	14802.27
482.908	15165.42
483.279	15317.51
483.65	15650.15
484.021	15974.89
484.391	16074.78
484.762	16307.54
485.133	16316.58
485.503	16641.54
485.874	16967.18
486.244	17184.58
486.615	17400.39
486.985	17613.04
487.356	17987.72
487.726	18176.41
488.097	18431.55
488.467	18539.12
488.837	18842.39
489.207	19178.65
489.578	19349.94
489.948	19605.3
490.318	19948.57
490.688	19952.41
491.058	20228.11
491.428	20504.04
491.798	20751.94
492.168	21119.84
492.538	21186.51
492.908	21462.66
493.278	21690.22
493.648	21766.15
494.017	21966.6
494.387	22272.58
494.757	22400.71
495.126	22642.96
495.496	22782.17
495.866	22979.23
496.235	23146.45
496.605	23420.34
496.974	23596.39
497.344	23786.44
497.713	23934.68
498.082	24082.47
498.452	24277.5
498.821	24453.09
499.19	24483.37
499.559	24703.02
499.928	24951.6
500.298	25080.87
500.667	25251.26
501.036	25276.34
501.405	25520.18
501.774	25632.94
502.143	25884.91
502.512	25919.94
502.88	26242.42
503.249	26325.8
503.618	26487.61
503.987	26612.13
504.356	26865.23
504.724	26970.08
505.093	26999.69
505.462	27258.89
505.83	27478.09
506.199	27609.39
506.567	28017.51
506.936	28009.6
507.304	28471.96
507.672	28575.69
508.041	28579.98
508.409	28725.52
508.777	28966.41
509.145	29194.43
509.514	29215.45
509.882	29550.13
510.25	29622.44
510.618	29866.05
510.986	29978.59
511.354	30283.67
511.722	30580.83
512.09	30791.45
512.458	30811.11
512.826	31176.75
513.193	31216.52
513.561	31276.41
513.929	31676.85
514.297	31977.41
514.664	32133.56
515.032	32313.22
515.4	32496.94
515.767	32678.41
516.135	32934.67
516.502	32660.78
516.869	33393.19
517.237	33488.1
517.604	33460.31
517.972	34025.94
518.339	34185.26
518.706	34394.75
519.073	34541.86
519.44	34860.5
519.808	35289.64
520.175	35094.84
520.542	35675.84
520.909	35773.24
521.276	35818.44
521.643	36265.43
522.009	36599.89
522.376	36702.93
522.743	36825.87
523.11	37277.16
523.477	37650.25
523.843	37782.23
524.21	38222.67
524.577	38537.91
524.943	38655.88
525.31	38936.55
525.676	39292.02
526.043	39398.68
526.409	39624.44
526.776	39944.43
527.142	40169.51
527.508	40491.99
527.874	40728.36
528.241	40888.13
528.607	41053.33
528.973	41327.22
529.339	41481.79
529.705	41878.39
530.071	42112.28
530.437	42260.98
530.803	42557.92
531.169	42812.15
531.535	42840.4
531.901	43179.83
532.267	43289.2
532.632	43541.85
532.998	43739.81
533.364	43927.6
533.73	44068.16
534.095	44333.47
534.461	44467.93
534.826	44824.75
535.192	44864.07
535.557	45245.53
535.923	45249.6
536.288	45358.75
536.653	45663.38
537.019	45609.59
537.384	45665.41
537.749	45966.87
538.114	45850.49
538.479	46007.32
538.845	46245.73
539.21	46242.57
539.575	46635.55
539.94	46676.23
540.305	46937.69
540.67	46912.16
541.034	47138.59
541.399	47173.62
541.764	47447.96
542.129	47546.04
542.494	47557.34
542.858	47882.53
543.223	47882.07
543.587	48194.16
543.952	48128.4
544.316	48247.04
544.681	48330.65
545.045	48607.25
545.41	48802.95
545.774	48827.36
546.138	48771.09
546.503	48935.38
546.867	49016.06
547.231	49262.15
547.595	49302.15
547.959	49390.06
548.324	49571.07
548.688	49765.87
549.052	49870.72
549.416	50042.02
549.779	50058.06
550.143	50227.1
550.507	50480.88
550.871	50540.31
551.235	50587.77
551.599	50752.96
551.962	50742.56
552.326	50991.37
552.689	51157.47
553.053	51091.71
553.417	51192.27
553.78	51618.47
554.143	51422.55
554.507	51731.46
554.87	51818.47
555.234	52136.2
555.597	51945.47
555.96	52177.33
556.323	52232.92
556.686	52428.85
557.05	52669.52
557.413	52732.12
557.776	52854.37
558.139	53072.22
558.502	53021.37
558.865	53115.38
559.228	53470.63
559.59	53508.59
559.953	53520.57
560.316	53791.98
560.679	53952.88
561.041	54062.93
561.404	54204.39
561.767	54434.22
562.129	54378.63
562.492	54594.21
562.854	54666.75
563.217	54700.88
563.579	54868.33
563.941	55072.39
564.304	55161.43
564.666	55320.3
565.028	55305.61
565.39	55432.38
565.753	55623.11
566.115	55675.77
566.477	55770.68
566.839	55928.64
567.201	56100.84
567.563	56103.78
567.925	56277.11
568.287	56268.29
568.648	56422.41
569.01	56561.62
569.372	56789.18
569.734	56721.16
570.095	56891.33
570.457	56963.64
570.819	56987.15
571.18	57016.75
571.542	57177.88
571.903	57223.98
572.265	57290.19
572.626	57297.87
572.987	57376.97
573.349	57449.51
573.71	57585.77
574.071	57634.59
574.432	57805.66
574.794	57875.03
575.155	57943.96
575.516	57847.01
575.877	57935.6
576.238	57970.62
576.599	58026.44
576.96	58082.26
577.32	58184.4
577.681	58283.16
578.042	58315.92
578.403	58275.47
578.763	58317.73
579.124	58399.54
579.485	58447.67
579.845	58555.69
580.206	58460.33
580.566	58486.32
580.927	58479.54
581.287	58505.3
581.648	58501
582.008	58609.48
582.368	58556.6
582.728	58574.67
583.089	58579.87
583.449	58567.22
583.809	58614.45
584.169	58646.09
584.529	58630.72
584.889	58868.23
585.249	58603.15
585.609	58639.76
585.969	58729.25
586.329	58691.96
586.688	58719.53
587.048	58710.26
587.408	58665.07
587.768	58711.85
588.127	58602.92
588.487	58607.44
588.846	58795.01
589.206	58650.38
589.565	58653.09
589.925	58779.64
590.284	58631.85
590.643	58639.31
591.003	58759.3
591.362	58825.29
591.721	58725.63
592.08	58766.08
592.44	58793.2
592.799	58843.37
593.158	58739.19
593.517	58752.75
593.876	58800.43
594.235	58715.91
594.593	58814.44
594.952	58844.95
595.311	58758.85
595.67	58855.35
596.029	58949.13
596.387	58976.7
596.746	58943.93
597.104	58837.27
597.463	58835.91
597.822	58987.77
598.18	58879.75
598.538	58841.11
598.897	58978.73
599.255	58861.22
599.613	59112.51
599.972	58999.52
600.33	58996.36
600.688	58971.73
601.046	59010.6
601.404	59085.62
601.762	59068.67
602.12	59189.12
602.478	59132.17
602.836	59173.3
603.194	59067.77
603.552	59132.63
603.91	58988.9
604.268	59203.36
604.625	59140.54
604.983	59221.66
605.341	59079.75
605.698	59255.33
606.056	59300.08
606.413	59211.27
606.771	59343.02
607.128	59351.6
607.485	59212.62
607.843	59255.79
608.2	59344.37
608.557	59352.28
608.914	59334.2
609.272	59354.54
609.629	59458.95
609.986	59517.02
610.343	59410.81
610.7	59609.45
611.057	59624.82
611.414	59522.45
611.771	59610.13
612.127	59714.08
612.484	59625.27
612.841	59757.47
613.198	59646.96
613.554	59621.88
613.911	59765.83
614.267	59772.84
614.624	59714.98
614.98	59843.79
615.337	59910.68
615.693	59888.09
616.05	59907.97
616.406	60057.12
616.762	59927.63
617.118	59835.43
617.475	59869.56
617.831	59976.9
618.187	59878.82
618.543	59962.66
618.899	60035.2
619.255	60002.43
619.611	59969.67
619.967	60115.65
620.323	60078.14
620.678	60039.04
621.034	59926.73
621.39	59939.38
621.746	59912.72
622.101	60168.98
622.457	59936.9
622.812	59941.19
623.168	60019.61
623.523	60035.88
623.879	60010.57
624.234	59864.13
624.589	59964.24
624.945	59940.29
625.3	60015.09
625.655	59925.15
626.01	59942.32
626.365	60030.91
626.72	59997.91
627.075	59979.61
627.43	59904.58
627.785	59895.32
628.14	59922.21
628.495	59900.97
628.85	59932.38
629.205	59879.5
629.559	59984.13
629.914	59849.67
630.269	59834.08
630.623	59726.28
630.978	59732.38
631.332	59781.42
631.687	59748.65
632.041	59707.3
632.396	59688.54
632.75	59643.35
633.104	59676.11
633.459	59593.63
633.813	59535.33
634.167	59532.84
634.521	59482.22
634.875	59515.89
635.229	59384.82
635.583	59304.15
635.937	59327.65
636.291	59266.18
636.645	59272.51
636.999	59197.26
637.352	59185.28
637.706	58996.81
638.06	59138.5
638.413	59065.28
638.767	58973.53
639.121	59019.63
639.474	58876.36
639.828	58895.34
640.181	58882.24
640.534	58966.08
640.888	58821.45
641.241	58673.2
641.594	58687.67
641.947	58897.83
642.301	58555.47
642.654	58676.37
643.007	58697.38
643.36	58649.7
643.713	58655.8
644.066	58675.69
644.419	58497.84
644.771	58230.05
645.124	57865.09
645.477	57854.69
645.83	57709.16
646.182	57735.6
646.535	57698.99
646.888	57792.77
647.24	57735.37
647.593	57861.92
647.945	57769.72
648.298	57618.99
648.65	57548.94
649.002	57521.82
649.355	57587.58
649.707	57362.05
650.059	57435.04
650.411	57662.61
650.763	57690.86
651.115	58020.79
651.467	57943.96
651.819	57845.65
652.171	57782.83
652.523	57734.47
652.875	57745.09
653.227	57696.05
653.578	57856.28
653.93	57751.87
654.282	57542.61
654.633	57506.23
654.985	57596.85
655.337	57582.38
655.688	57554.59
656.039	57682.27
656.391	57377.19
656.742	57467.59
657.094	57487.92
657.445	57513.69
657.796	57386.46
658.147	57348.49
658.498	57360.02
658.849	57389.17
659.2	57341.94
659.551	57264.2
659.902	57293.13
660.253	57177.42
660.604	57249.74
660.955	57126.58
661.306	57217.2
661.656	57134.26
662.007	57155.73
662.358	57129.97
662.708	57073.25
663.059	57143.75
663.409	56946.69
663.76	57144.2
664.11	57053.81
664.461	57092
664.811	57122.06
665.161	57033.47
665.511	56923.87
665.862	56987.6
666.212	56966.13
666.562	57002.29
666.912	56921.16
667.262	56868.96
667.612	56836.64
667.962	56813.36
668.312	56740.6
668.662	56907.6
669.011	56768.62
669.361	56759.36
669.711	56787.83
670.06	56670.54
670.41	56572.47
670.76	56597.55
671.109	56604.78
671.459	56577.89
671.808	56517.33
672.157	56622.41
672.507	56410.66
672.856	56422.41
673.205	56506.03
673.554	56544.22
673.904	56440.49
674.253	56539.25
674.602	56388.07
674.951	56060.39
675.3	55916.44
675.649	56288.41
675.998	56348.29
676.346	56264.68
676.695	56404.34
677.044	56177.68
677.393	56197.79
677.741	56170.67
678.09	56041.63
678.438	55947.85
678.787	56174.96
679.135	56066.27
679.484	55884.8
679.832	55967.74
680.181	55810.91
680.529	55777.91
680.877	55704.02
681.225	55642.55
681.573	55868.76
681.922	55619.5
682.27	55547.18
682.618	55601.19
682.966	55433.51
683.314	55598.71
683.661	55440.75
684.009	55253.41
684.357	55348.32
684.705	55179.74
685.053	55270.35
685.4	55214.76
685.748	55148.78
686.095	55102.22
686.443	54986.75
686.79	54938.39
687.138	54956.01
687.485	54916.24
687.832	54842.8
688.18	54766.19
688.527	54586.76
688.874	54601.22
689.221	54452.75
689.568	54422.92
689.915	54262.47
690.262	54356.03
690.609	54180.89
690.956	54145.86
691.303	54175.69
691.65	53963.95
691.997	53957.85
692.344	53764.63
692.69	53677.85
693.037	53699.1
693.383	53391.31
693.73	53573.22
694.077	53391.76
694.423	53374.13
694.769	53118.32
695.116	53090.98
695.462	53038.77
695.808	52893.47
696.155	52946.35
696.501	52785.22
696.847	52766.69
697.193	52514.95
697.539	52653.25
697.885	52412.58
698.231	52366.25
698.577	52375.97
698.923	52283.31
699.269	52098.01
699.614	51929.43
699.96	51893.04
700.306	51905.47
700.651	51796.77
700.997	51609.43
701.342	51594.29
701.688	51567.4
702.033	51414.64
702.379	51443.79
702.724	51292.38
703.069	51283.11
703.415	50976
703.76	50923.35
704.105	50843.8
704.45	50741.43
704.795	50605.39
705.14	50573.53
705.485	50505.96
705.83	50340.31
706.175	50336.93
706.52	50260.32
706.865	50183.26
707.209	50129.7
707.554	49913.43
707.899	49927.67
708.243	49873.66
708.588	49742.14
708.932	49466.44
709.277	49383.73
709.621	49571.07
709.966	49203.17
710.31	49375.14
710.654	49089.73
710.998	48978.09
711.342	49045.21
711.687	48914.36
712.031	48773.8
712.375	48718.44
712.719	48632.79
713.063	48637.31
713.407	48699.91
713.75	48406.58
714.094	48259.69
714.438	48207.26
714.782	48156.19
715.125	47932.47
715.469	47990.77
715.812	47720.04
716.156	47522.76
716.499	47454.74
716.843	47586.94
717.186	47420.84
717.53	47377.91
717.873	47471.24
718.216	47233.5
718.559	47163.45
718.902	46756.23
719.246	47009.78
719.589	46909.44
719.932	46687.53
720.275	46612.96
720.617	46666.74
720.96	46545.61
721.303	46445.95
721.646	46412.51
721.989	46173.19
722.331	46269.91
722.674	46098.17
723.016	46161.44
723.359	46058.39
723.701	46147.2
724.044	45796.71
724.386	45547.9
724.729	45850.26
725.071	45524.17
725.413	45466.32
725.755	45401.91
726.097	45346.32
726.439	45154.01
726.782	45144.97
727.124	45248.47
727.465	44954.24
727.807	45007.12
728.149	44906.79
728.491	44800.12
728.833	44906.56
729.175	44811.65
729.516	44627.47
729.858	44564.42
730.199	44561.26
730.541	44398.32
730.882	44297.08
731.224	44326.24
731.565	44100.93
731.906	44167.6
732.248	44051.21
732.589	43764.22
732.93	43608.97
733.271	43725.8
733.612	43843.54
733.953	43676.54
734.294	43584.56
734.635	43364.45
734.976	43479.48
735.317	43211.91
735.658	43290.1
735.999	43201.52
736.339	43112.26
736.68	43168.3
737.021	42935.76
737.361	42758.14
737.702	42962.43
738.042	42926.72
738.383	42891.7
738.723	42773.06
739.063	42622.1
739.404	42747.97
739.744	42467.3
740.084	42485.61
740.424	42349.56
740.764	42297.59
741.104	42320.41
741.444	42160.42
741.784	42052.85
742.124	42020.53
742.464	41957.26
742.804	42047.88
743.143	41743.7
743.483	41875
743.823	41570.15
744.162	41551.62
744.502	41594.78
744.841	41438.63
745.181	41523.6
745.52	41302.81
745.86	41309.82
746.199	41118.41
746.538	41076.38
746.877	41075.47
747.216	41193.66
747.556	40852.2
747.895	40808.59
748.234	40725.88
748.573	40510.74
748.911	40538.76
749.25	40522.49
749.589	40277.08
749.928	40324.53
750.267	40347.36
750.605	40059.68
750.944	40067.14
751.283	39920.7
751.621	39998.89
751.96	39640.03
752.298	39655.4
752.636	39706.92
752.975	39491.79
753.313	39334.05
753.651	39699.46
753.989	39279.36
754.327	39202.3
754.666	39047.28
755.004	39188.07
755.342	39003.89
755.679	38856.77
756.017	38835.31
756.355	38740.17
756.693	38483.9
757.031	38605.03
757.368	38361.42
757.706	38254.08
758.044	38123.69
758.381	38106.29
758.719	37950.13
759.056	37943.58
759.394	37829.01
759.731	37574.1
760.068	37541.56
760.405	37328.23
760.743	37355.8
761.08	37365.51
761.417	36983.83
761.754	37004.39
762.091	36906.54
762.428	36797.17
762.765	36550.85
763.102	36759.43
763.438	36465.65
763.775	36170.07
764.112	36091.2
764.449	36204.87
764.785	36027.92
765.122	35668.84
765.458	35600.82
765.795	35501.16
766.131	35490.76
766.467	35343.42
766.804	35237.21
767.14	35053.49
767.476	35097.1
767.812	34959.48
768.148	34916.99
768.485	34667.73
768.821	34418.02
769.157	34429.55
769.492	34266.39
769.828	34290.12
770.164	33980.74
770.5	33962.21
770.836	33894.87
771.171	33626.4
771.507	33551.83
771.842	33351.83
772.178	33290.14
772.513	33326.75
772.849	33187.09
773.184	32958.4
773.519	32948.23
773.855	32794.79
774.19	32495.36
774.525	32540.78
774.86	32550.05
775.195	32374.01
775.53	32071.87
775.865	31960.69
776.2	31681.37
776.535	31478.66
776.87	31539
777.205	31413.81
777.539	31305.79
777.874	31304.88
778.209	31040.26
778.543	30858.34
778.878	30822.64
779.212	30742.41
779.547	30580.83
779.881	30558.69
780.215	30276.44
780.55	30462.87
780.884	29996.67
781.218	29929.55
781.552	29930.68
781.886	29832.15
782.22	29569.56
782.554	29620.63
782.888	29226.52
783.222	29080.31
783.556	28900.65
783.889	29029.01
784.223	28805.51
784.557	28682.13
784.89	28774.55
785.224	28596.71
785.557	28421.12
785.891	28490.49
786.224	28325.98
786.558	28371.17
786.891	28100
787.224	27960.34
787.557	27927.34
787.891	27814.35
788.224	27800.12
788.557	27715.6
788.89	27598.54
789.223	27454.59
789.556	27234.26
789.888	27093.47
790.221	27095.73
790.554	26881.27
790.887	26889.63
791.219	26753.59
791.552	26676.76
791.884	26541.39
792.217	26415.52
792.549	26311.57
792.882	26282.42
793.214	26103.44
793.546	26221.63
793.879	25902.77
794.211	25775.99
794.543	25852.82
794.875	25725.82
795.207	25806.72
795.539	25560.63
795.871	25479.73
796.203	25301.2
796.535	25105.5
796.867	25077.7
797.198	24976.24
797.53	24929.91
797.862	24829.57
798.193	24847.2
798.525	24622.57
798.856	24681.55
799.188	24469.13
799.519	24495.57
799.85	24389.81
800.182	24375.35
800.513	24357.5
800.844	24126.77
801.175	24219.87
801.506	24144.17
801.837	24120.44
802.168	23915.92
802.499	23897.62
802.83	23785.31
803.161	23586.44
803.491	23701.69
803.822	23548.25
804.153	23395.26
804.483	23220.58
804.814	23222.16
805.145	23199.79
805.475	23132.22
805.805	22967.02
806.136	22984.42
806.466	22825.33
806.796	22837.76
807.126	22539.69
807.457	22594.83
807.787	22652.68
808.117	22529.52
808.447	22356.87
808.777	22370.88
809.107	22275.97
809.436	22275.29
809.766	22192.13
810.096	22058.35
810.426	21964.56
810.755	21836.88
811.085	21907.39
811.414	21800.5
811.744	21601.41
812.073	21585.59
812.403	21528.19
812.732	21509.21
813.061	21506.04
813.39	21387.63
813.719	21424.46
814.049	21464.69
814.378	21233.74
814.707	21156.45
815.036	21179.27
815.365	21020.63
815.693	20856.57
816.022	20925.27
816.351	20960.75
816.68	20740.87
817.008	20907.19
817.337	20576.8
817.665	20641.43
817.994	20719.4
818.322	20581.55
818.651	20444.6
818.979	20377.71
819.307	20585.62
819.636	20390.14
819.964	20209.13
820.292	20320.31
820.62	20148.57
820.948	20160.54
821.276	20166.42
821.604	20187.66
821.932	20146.31
822.259	20188.57
822.587	20187.21
822.915	20124.84
823.243	20163.93
823.57	20094.56
823.898	20058.63
824.225	19984.5
824.553	20052.98
824.88	19956.48
825.207	20007.33
825.535	20037.16
825.862	20082.35
826.189	19959.19
826.516	20011.62
826.843	19944.96
827.17	20031.96
827.497	20032.41
827.824	19864.51
828.151	19920.55
828.478	19859.08
828.805	19979.76
829.131	19874.45
829.458	19747.22
829.785	19787.9
830.111	19846.43
830.438	19932.75
830.764	19850.27
831.09	19878.06
831.417	19799.65
831.743	19881
832.069	19815.92
832.395	19756.49
832.722	19853.43
833.048	19765.07
833.374	19867.67
833.7	19739.76
834.026	19724.17
834.351	19770.27
834.677	19759.88
835.003	19661.35
835.329	19715.81
835.654	19768.69
835.98	19585.42
836.306	19706.09
836.631	19521.92
836.956	19563.04
837.282	19633.33
837.607	19477.62
837.932	19461.13
838.258	19480.56
838.583	19413.44
838.908	19294.35
839.233	19317.18
839.558	19227.23
839.883	19194.02
840.208	19113.79
840.533	19151.08
840.858	19079.89
841.182	19159.89
841.507	19148.14
841.832	19057.75
842.156	19013.68
842.481	18933.46
842.805	18843.06
843.13	18835.61
843.454	18952.89
843.778	18794.03
844.103	18695.27
844.427	18671.54
844.751	18667.02
845.075	18618.44
845.399	18635.39
845.723	18466.35
846.047	18441.49
846.371	18226.13
846.695	18306.81
847.019	18253.02
847.343	18149.07
847.666	18056.19
847.99	17933.26
848.313	17975.52
848.637	17853.71
848.96	17802.41
849.284	17778.23
849.607	17583.21
849.931	17526.71
850.254	17456.66
850.577	17435.42
850.9	17272.03
851.223	17293.73
851.546	17182.09
851.869	17012.83
852.192	17226.61
852.515	17003.34
852.838	16906.17
853.161	16909.56
853.483	16882.44
853.806	16822.55
854.129	16752.5
854.451	16590.47
854.774	16585.5
855.096	16538.94
855.419	16484.03
855.741	16475.44
856.063	16348.67
856.385	16372.17
856.708	16295.79
857.03	16328.1
857.352	16253.3
857.674	16145.96
857.996	16120.88
858.318	15918.4
858.64	15975.79
858.961	15952.74
859.283	15818.51
859.605	15766.53
859.926	15844.95
860.248	15758.4
860.57	15809.92
860.891	15802.01
861.212	15668.46
861.534	15755.01
861.855	15724.95
862.176	15738.96
862.498	15747.1
862.819	15682.47
863.14	15581
863.461	15584.39
863.782	15552.3
864.103	15511.17
864.424	15425.53
864.745	15298.3
865.065	15309.6
865.386	15299.43
865.707	15321.35
866.027	15418.75
866.348	15232.54
866.668	15277.28
866.989	15164.52
867.309	15052.66
867.63	15044.52
867.95	15021.47
868.27	14979.89
868.59	15080.9
868.91	15016.27
869.23	15005.65
869.55	14934.92
869.87	15041.81
870.19	15024.86
870.51	15001.58
870.83	14923.84
871.15	14937.18
871.469	14907.8
871.789	14877.74
872.109	14884.98
872.428	14663.51
872.748	14770.18
873.067	14778.09
873.386	14703.29
873.706	14796.62
874.025	14681.37
874.344	14622.84
874.663	14712.78
874.982	14763.62
875.301	14647.24
875.62	14704.87
875.939	14592.33
876.258	14600.69
876.577	14555.94
876.896	14481.14
877.214	14497.87
877.533	14522.73
877.852	14456.96
878.17	14432.11
878.489	14397.08
878.807	14390.53
879.125	14320.7
879.444	14394.82
879.762	14310.53
880.08	14280.47
880.398	14291.09
880.716	14294.48
881.034	14203.86
881.352	14235.05
881.67	14180.14
881.988	14164.99
882.306	14179.01
882.624	14045.45
882.941	14043.87
883.259	14037.99
883.577	14024.66
883.894	14025.34
884.212	13973.14
884.529	13955.06
884.846	13977.66
885.164	13872.8
885.481	13896.98
885.798	13811.56
886.115	13832.12
886.432	13678.23
886.75	13737.44
887.067	13831.9
887.383	13616.99
887.7	13664.44
888.017	13708.74
888.334	13633.48
888.651	13565.24
888.967	13517.78
889.284	13430.1
889.6	13352.36
889.917	13306.71
890.233	13332.47
890.55	13249.76
890.866	13436.88
891.182	13309.65
891.498	13299.48
891.815	13191.69
892.131	13105.14
892.447	13123.89
892.763	13016.78
893.079	12978.13
893.395	13031.92
893.71	12982.2
894.026	12944.46
894.342	13029.43
894.657	12815.65
894.973	12833.28
895.289	12779.04
895.604	12782.66
895.92	12690.91
896.235	12699.27
896.55	12687.07
896.865	12585.83
897.181	12488.65
897.496	12505.83
897.811	12393.29
898.126	12337.47
898.441	12373.86
898.756	12319.39
899.071	12292.73
899.386	12398.04
899.7	12240.07
900.015	12218.38
900.33	12082.11
900.644	12129.12
900.959	12087.99
901.273	12052.28
901.588	11962.79
901.902	11990.59
902.216	11865.85
902.531	11967.54
902.845	11887.09
903.159	11835.34
903.473	11697.04
903.787	11727.77
904.101	11637.15
904.415	11568.9
904.729	11578.85
905.042	11602.12
905.356	11439.19
905.67	11414.11
905.984	11477.61
906.297	11408.23
906.611	11274.45
906.924	11322.36
907.237	11233.55
907.551	11199.42
907.864	11099.54
908.177	11029.71
908.491	11047.34
908.804	10992.42
909.117	10983.38
909.43	10914.23
909.743	10796.04
910.056	10869.04
910.368	10780.9
910.681	10705.42
910.994	10730.28
911.307	10697.29
911.619	10624.52
911.932	10629.04
912.244	10518.54
912.557	10531.87
912.869	10436.05
913.181	10422.95
913.494	10449.39
913.806	10345.21
914.118	10333.01
914.43	10293.01
914.742	10248.26
915.054	10165.55
915.366	10170.3
915.678	10095.95
915.99	10080.81
916.302	9956.52
916.613	9924.88
916.925	9864.54
917.236	9904.32
917.548	9929.85
917.859	9816.63
918.171	9779.57
918.482	9742.96
918.794	9689.18
919.105	9643.31
919.416	9557.66
919.727	9595.62
920.038	9502.74
920.349	9445.8
920.66	9396.31
920.971	9422.52
921.282	9364.67
921.593	9306.59
921.903	9306.14
922.214	9261.39
922.525	9233.15
922.835	9122.64
923.146	9105.24
923.456	9125.81
923.767	9038.12
924.077	9070.21
924.387	8988.63
924.697	8877.45
925.008	8937.11
925.318	8865.47
925.628	8832.25
925.938	8744.35
926.248	8683.11
926.558	8665.03
926.867	8626.16
927.177	8595.65
927.487	8630.23
927.796	8458.7
928.106	8514.3
928.416	8433.39
928.725	8394.98
929.034	8387.29
929.344	8390.01
929.653	8388.42
929.962	8343
930.271	8233.63
930.581	8250.12
930.89	8216.9
931.199	8177.13
931.508	8127.87
931.817	8085.38
932.125	8081.31
932.434	8057.58
932.743	7970.13
933.051	7999.51
933.36	8003.35
933.669	7924.93
933.977	7872.05
934.286	7840.19
934.594	7829.57
934.902	7701.44
935.21	7689.91
935.519	7711.38
935.827	7670.25
936.135	7562.23
936.443	7597.26
936.751	7472.74
937.059	7519.75
937.367	7457.83
937.674	7431.16
937.982	7428
938.29	7397.49
938.597	7387.77
938.905	7295.57
939.213	7254.67
939.52	7221.45
939.827	7270.26
940.135	7180.77
940.442	7171.73
940.749	7120.66
941.056	7094.45
941.363	7054.22
941.67	7026.43
941.977	6972.64
942.284	6934.68
942.591	6953.88
942.898	6860.55
943.205	6930.16
943.511	6850.38
943.818	6781.69
944.125	6703.72
944.431	6748.69
944.738	6684.97
945.044	6670.73
945.35	6603.16
945.657	6594.57
945.963	6622.59
946.269	6563.39
946.575	6548.92
946.881	6514.35
947.187	6507.79
947.493	6454.92
947.799	6474.35
948.105	6370.4
948.41	6322.72
948.716	6365.65
949.022	6304.18
949.327	6286.11
949.633	6244.3
949.938	6283.62
950.244	6265.09
950.549	6218.76
950.854	6168.37
951.16	6166.56
951.465	6065.32
951.77	6062.16
952.075	6087.02
952.38	6018.77
952.685	6044.76
952.99	5936.96
953.294	5954.59
953.599	5938.54
953.904	5896.74
954.209	5829.85
954.513	5843.18
954.818	5805.89
955.122	5818.32
955.426	5764.09
955.731	5786.23
956.035	5762.05
956.339	5699.91
956.643	5666.91
956.948	5629.85
957.252	5632.11
957.556	5596.18
957.86	5577.65
958.163	5527.26
958.467	5484.09
958.771	5518.44
959.075	5470.08
959.378	5458.11
959.682	5447.03
959.985	5405.45
960.289	5396.86
960.592	5341.72
960.896	5330.42
961.199	5266.25
961.502	5292.91
961.805	5259.24
962.108	5220.15
962.411	5171.56
962.714	5139.47
963.017	5121.16
963.32	5163.2
963.623	5147.15
963.926	5099.47
964.228	5108.74
964.531	5042.3
964.833	4995.97
965.136	4972.02
965.438	4955.29
965.741	4949.64
966.043	4953.26
966.345	4902.41
966.648	4905.58
966.95	4878.23
967.252	4832.81
967.554	4821.96
967.856	4797.11
968.158	4742.87
968.46	4723.66
968.761	4723.89
969.063	4707.39
969.365	4682.76
969.666	4703.1
969.968	4644.12
970.269	4625.36
970.571	4631.23
970.872	4608.86
971.174	4563.89
971.475	4534.06
971.776	4542.42
972.077	4477.34
972.378	4499.49
972.679	4463.33
972.98	4480.73
973.281	4441.18
973.582	4464.46
973.883	4388.98
974.183	4355.54
974.484	4340.85
974.785	4300.4
975.085	4326.84
975.386	4278.7
975.686	4251.36
975.986	4241.41
976.287	4254.29
976.587	4188.31
976.887	4171.13
977.187	4215.43
977.487	4161.19
977.787	4156.67
978.087	4106.5
978.387	4093.4
978.687	4081.42
978.987	4072.38
979.286	4046.39
979.586	4069.22
979.885	3998.03
980.185	3943.12
980.484	3957.81
980.784	3945.83
981.083	3943.12
981.382	3917.58
981.682	3859.96
981.981	3899.73
982.28	3845.04
982.579	3813.18
982.878	3824.02
983.177	3747.87
983.475	3765.49
983.774	3791.03
984.073	3781.99
984.372	3743.57
984.67	3727.76
984.969	3711.03
985.267	3709.9
985.566	3643.01
985.864	3636.46
986.162	3620.64
986.461	3652.05
986.759	3596.91
987.057	3520.53
987.355	3529.57
987.653	3546.52
987.951	3490.02
988.249	3484.15
988.547	3480.98
988.844	3492.51
989.142	3464.03
989.44	3452.73
989.737	3448.89
990.035	3438.72
990.332	3410.93
990.63	3377.26
990.927	3375
991.224	3360.31
991.521	3308.33
991.819	3334.32
992.116	3316.24
992.413	3259.97
992.71	3264.26
993.006	3249.58
993.303	3243.02
993.6	3228.56
993.897	3193.53
994.193	3189.24
994.49	3114.21
994.787	3158.05
995.083	3146.53
995.379	3126.41
995.676	3148.56
995.972	3077.6
996.268	3088.45
996.565	3057.04
996.861	3050.03
997.157	3028.34
997.453	3010.49
997.749	2975.23
998.044	2961
998.34	2996.93
998.636	2932.07
998.932	2944.05
999.227	2936.82
999.523	2880.09
999.818	2891.84
1000.114	2838.29
1000.409	2832.41
1000.704	2819.3
1001	2808.91
1001.295	2795.12
1001.59	2799.19
1001.885	2802.58
1002.18	2774.56
1002.475	2760.32
1002.77	2775.01
1003.065	2689.36
1003.359	2707.22
1003.654	2735.69
1003.949	2637.16
1004.243	2658.18
1004.538	2630.38
1004.832	2627.22
1005.127	2606.2
1005.421	2579.08
1005.715	2590.61
1006.009	2548.13
1006.304	2550.16
1006.598	2517.84
1006.892	2502.25
1007.186	2495.92
1007.48	2452.31
1007.773	2459.31
1008.067	2466.09
1008.361	2427.45
1008.655	2428.58
1008.948	2408.47
1009.242	2369.15
1009.535	2393.78
1009.829	2367.56
1010.122	2342.48
1010.415	2344.97
1010.708	2354.91
1011.001	2314.91
1011.295	2312.65
1011.588	2290.5
1011.881	2220.68
1012.173	2266.1
1012.466	2235.14
1012.759	2246.21
1013.052	2214.57
1013.344	2222.48
1013.637	2200.56
1013.93	2186.1
1014.222	2180.68
1014.514	2139.1
1014.807	2137.74
1015.099	2149.94
1015.391	2140.23
1015.683	2080.34
1015.976	2053.67
1016.268	2060.68
1016.56	2031.08
1016.851	2022.04
1017.143	2007.57
1017.435	2002.6
1017.727	2010.51
1018.018	1980.23
1018.31	1954.92
1018.602	1931.64
1018.893	1917.86
1019.185	1915.15
1019.476	1887.35
1019.767	1891.87
1020.058	1886
1020.35	1847.13
1020.641	1869.05
1020.932	1840.8
1021.223	1836.73
1021.514	1826.79
1021.804	1785.43
1022.095	1778.88
1022.386	1764.87
1022.677	1762.61
1022.967	1773
1023.258	1759.9
1023.548	1720.35
1023.839	1710.63
1024.129	1695.49
1024.419	1699.56
1024.709	1669.73
1025	1664.31
1025.29	1654.59
1025.58	1636.96
1025.87	1639.67
1026.16	1611.43
1026.449	1592.9
1026.739	1605.33
1027.029	1601.03
1027.319	1608.49
1027.608	1594.48
1027.898	1592.44
1028.187	1585.66
1028.477	1526.23
1028.766	1545.21
1029.055	1503.86
1029.344	1486.91
1029.634	1486.91
1029.923	1483.07
1030.212	1456.63
1030.501	1470.41
1030.79	1469.74
1031.078	1456.85
1031.367	1420.02
1031.656	1414.37
1031.945	1425.67
1032.233	1413.01
1032.522	1408.95
1032.81	1374.6
1033.099	1372.11
1033.387	1351.32
1033.675	1333.92
1033.963	1330.53
1034.251	1357.65
1034.54	1299.12
1034.828	1305.22
1035.116	1309.06
1035.403	1273.13
1035.691	1297.99
1035.979	1272.23
1036.267	1270.42
1036.554	1283.98
1036.842	1281.94
1037.129	1250.31
1037.417	1242.17
1037.704	1241.72
1037.992	1209.63
1038.279	1167.82
1038.566	1180.25
1038.853	1180.25
1039.14	1180.25
