Data from foil_FLMS001491_076.txt Node
Date: Tue Feb 07 11:36:42 GMT 2017
User: dcchb
Spectrometer: FLMS00149
Trigger mode: 0
Integration Time (sec): 2.000000E-2
Scans to average: 10
Electric dark correction enabled: true
Nonlinearity correction enabled: false
Boxcar width: 0
XAxis mode: Wavelengths
Number of Pixels in Spectrum: 2048
>>>>>Begin Spectral Data<<<<<
341.393	-13.69
341.776	-13.69
342.16	-13.69
342.543	-52.1
342.927	-62.95
343.31	-61.37
343.693	-67.47
344.077	-85.77
344.46	-47.58
344.843	-48.26
345.226	-58.2
345.61	-31.99
345.993	-15.04
346.376	-18.43
346.759	32.41
347.142	19.31
347.525	49.36
347.908	47.56
348.291	91.4
348.674	89.14
349.057	104.95
349.44	136.14
349.823	156.48
350.206	182.47
350.588	253.65
350.971	279.41
351.354	280.09
351.737	311.05
352.119	332.29
352.502	343.37
352.884	315.34
353.267	332.97
353.65	352.63
354.032	356.47
354.414	383.59
354.797	379.75
355.179	377.72
355.562	395.12
355.944	406.42
356.326	395.34
356.709	422.01
357.091	389.69
357.473	399.64
357.855	416.81
358.238	434.89
358.62	415.23
359.002	417.26
359.384	415
359.766	413.2
360.148	402.35
360.53	418.17
360.912	431.73
361.294	407.09
361.676	418.84
362.057	429.24
362.439	426.75
362.821	434.44
363.203	432.18
363.584	429.47
363.966	426.98
364.348	423.14
364.729	445.28
365.111	431.95
365.493	437.15
365.874	416.59
366.256	440.09
366.637	417.72
367.019	440.09
367.4	414.55
367.781	459.75
368.163	445.51
368.544	443.93
368.925	429.92
369.306	441.22
369.688	459.97
370.069	430.14
370.45	450.93
370.831	441.9
371.212	456.81
371.593	443.7
371.974	458.84
372.355	446.87
372.736	466.98
373.117	458.84
373.498	482.35
373.879	457.94
374.26	467.66
374.641	455.23
375.021	455.68
375.402	479.63
375.783	511.05
376.163	544.27
376.544	505.85
376.925	511.27
377.305	502.68
377.686	518.28
378.066	517.83
378.447	551.27
378.827	550.82
379.208	531.61
379.588	540.65
379.968	536.58
380.349	536.81
380.729	554.21
381.109	552.17
381.489	571.84
381.87	544.94
382.25	560.99
382.63	551.72
383.01	567.32
383.39	563.7
383.77	577.94
384.15	613.19
384.53	595.79
384.91	636.01
385.29	600.54
385.67	628.33
386.049	638.95
386.429	610.48
386.809	624.04
387.189	641.44
387.568	639.86
387.948	652.51
388.328	647.99
388.707	657.03
389.087	649.12
389.466	671.04
389.846	673.75
390.225	695.9
390.605	679.63
390.984	681.89
391.363	696.35
391.743	719.18
392.122	730.02
392.501	720.76
392.881	756.24
393.26	732.96
393.639	752.17
394.018	778.38
394.397	757.82
394.776	766.18
395.155	803.02
395.534	796.24
395.913	814.99
396.292	797.82
396.671	793.07
397.05	814.99
397.429	803.47
397.808	847.08
398.186	848.89
398.565	837.36
398.944	855.67
399.323	861.09
399.701	882.34
400.08	899.74
400.458	870.81
400.837	899.06
401.215	888.21
401.594	920.53
401.972	923.69
402.351	937.93
402.729	941.09
403.107	930.24
403.486	952.16
403.864	970.47
404.242	966.85
404.62	972.05
404.999	997.59
405.377	1004.82
405.755	1022.67
406.133	1050.69
406.511	1031.03
406.889	1049.11
407.267	1078.49
407.645	1076.68
408.023	1111.71
408.401	1100.86
408.779	1137.47
409.156	1147.19
409.534	1176.79
409.912	1176.11
410.29	1190.8
410.667	1206.39
411.045	1230.12
411.422	1240.97
411.8	1253.17
412.178	1263.79
412.555	1271.48
412.933	1294.98
413.31	1304.02
413.687	1288.2
414.065	1356.45
414.442	1356.67
414.819	1392.6
415.197	1360.74
415.574	1414.98
415.951	1408.42
416.328	1448.42
416.705	1428.99
417.082	1445.26
417.46	1485.03
417.837	1484.35
418.214	1508.53
418.591	1507.18
418.967	1511.7
419.344	1534.75
419.721	1554.41
420.098	1544.24
420.475	1577.68
420.852	1596.22
421.228	1619.27
421.605	1603.22
421.982	1638.93
422.358	1690.9
422.735	1679.38
423.111	1701.3
423.488	1731.8
423.864	1721.64
424.241	1721.18
424.617	1754.18
424.994	1783.55
425.37	1785.14
425.746	1762.31
426.123	1812.71
426.499	1852.25
426.875	1851.35
427.251	1917.56
427.627	1908.3
428.003	1934.74
428.379	1981.52
428.756	2001.85
429.132	2028.29
429.507	2040.27
429.883	2083.89
430.259	2121.4
430.635	2123.21
431.011	2139.48
431.387	2174.96
431.763	2207.27
432.138	2213.15
432.514	2266.71
432.89	2257.89
433.265	2313.71
433.641	2337.89
434.016	2331.79
434.392	2384.89
434.767	2418.34
435.143	2445.23
435.518	2488.17
435.894	2488.17
436.269	2529.98
436.644	2573.36
437.02	2579.92
437.395	2568.17
437.77	2621.5
438.145	2668.73
438.52	2715.51
438.895	2708.05
439.271	2698.33
439.646	2763.64
440.021	2771.55
440.395	2794.6
440.77	2811.78
441.145	2866.92
441.52	2887.48
441.895	2891.1
442.27	2920.93
442.645	2891.1
443.019	2956.41
443.394	2911.21
443.769	2999.57
444.143	2990.53
444.518	3061.04
444.892	3001.38
445.267	3065.33
445.641	3065.1
446.016	3063.75
446.39	3103.52
446.764	3090.19
447.139	3135.61
447.513	3166.8
447.887	3196.62
448.262	3186.23
448.636	3244.31
449.01	3322.27
449.384	3290.41
449.758	3322.72
450.132	3374.25
450.506	3376.51
450.88	3368.15
451.254	3366.56
451.628	3440.23
452.002	3471.19
452.376	3526.56
452.75	3559.1
453.123	3592.77
453.497	3636.84
453.871	3649.27
454.244	3773.11
454.618	3757.97
454.992	3800
455.365	3835.03
455.739	3908.7
456.112	3926.1
456.486	3971.97
456.859	4027.34
457.232	4119.31
457.606	4114.11
457.979	4160.22
458.352	4213.77
458.725	4302.13
459.099	4283.6
459.472	4356.59
459.845	4388.68
460.218	4478.63
460.591	4488.57
460.964	4544.61
461.337	4600.2
461.71	4679.75
462.083	4774.44
462.456	4725.85
462.829	4826.19
463.201	4885.17
463.574	4912.96
463.947	4985.05
464.32	5094.65
464.692	5117.25
465.065	5162.22
465.438	5193.41
465.81	5264.82
466.183	5307.98
466.555	5452.16
466.928	5458.94
467.3	5449.9
467.672	5581.42
468.045	5765.15
468.417	5778.7
468.789	5809.66
469.161	5806.5
469.534	5948.42
469.906	6075.42
470.278	6092.82
470.65	6182.54
471.022	6275.19
471.394	6381.4
471.766	6455.97
472.138	6490.55
472.51	6647.83
472.882	6795.4
473.253	6832.46
473.625	6855.74
473.997	7073.13
474.369	7119.69
474.74	7159.01
475.112	7290.08
475.484	7371.66
475.855	7600.8
476.227	7640.35
476.598	7869.5
476.97	7914.02
477.341	8095.93
477.713	8216.15
478.084	8269.26
478.455	8534.34
478.827	8504.28
479.198	8771.85
479.569	8791.96
479.94	9070.14
480.311	9109.69
480.682	9318.5
481.053	9538.38
481.424	9653.86
481.795	9772.05
482.166	9952.61
482.537	10077.8
482.908	10179.27
483.279	10373.16
483.65	10527.05
484.021	10727.27
484.391	10848.18
484.762	10878.68
485.133	11107.6
485.503	11207.94
485.874	11453.81
486.244	11544.65
486.615	11762.05
486.985	11951.65
487.356	12128.14
487.726	12209.95
488.097	12509.15
488.467	12565.87
488.837	12804.73
489.207	12901.45
489.578	13106.65
489.948	13249.69
490.318	13375.34
490.688	13442.91
491.058	13626.86
491.428	13781.66
491.798	13960.86
492.168	14266.16
492.538	14305.26
492.908	14552.94
493.278	14623.22
493.648	14685.81
494.017	14881.74
494.387	15093.94
494.757	15083.54
495.126	15293.03
495.496	15291.9
495.866	15460.94
496.235	15654.6
496.605	15728.27
496.974	15941.83
497.344	16007.36
497.713	16130.52
498.082	16159.9
498.452	16448.71
498.821	16480.57
499.19	16609.15
499.559	16697.51
499.928	16891.41
500.298	16948.13
500.667	17099.54
501.036	17050.95
501.405	17198.29
501.774	17332.07
502.143	17419.98
502.512	17522.12
502.88	17760.99
503.249	17817.94
503.618	17844.15
503.987	18028.55
504.356	18077.82
504.724	18214.54
505.093	18339.96
505.462	18417.92
505.83	18545.6
506.199	18690.91
506.567	19008.64
506.936	18890.22
507.304	19161.18
507.672	19278.01
508.041	19315.3
508.409	19496.08
508.777	19669.41
509.145	19797.54
509.514	19702.86
509.882	19963.64
510.25	20075.73
510.618	20265.55
510.986	20310.07
511.354	20491.99
511.722	20612.66
512.09	20834.35
512.458	20828.93
512.826	21070.05
513.193	21099.66
513.561	21230.5
513.929	21416.71
514.297	21635.46
514.664	21723.82
515.032	21859.64
515.4	22058.05
515.767	22171.27
516.135	22331.49
516.502	22258.04
516.869	22593.86
517.237	22761.99
517.604	22803.34
517.972	22955.43
518.339	23093.95
518.706	23335.98
519.073	23357.45
519.44	23533.94
519.808	23792.02
520.175	23717.89
520.542	24141.61
520.909	24253.47
521.276	24255.28
521.643	24570.53
522.009	24782.72
522.376	24823.63
522.743	25093.9
523.11	25316.5
523.477	25548.35
523.843	25712.87
524.21	25924.39
524.577	26110.37
524.943	26194.21
525.31	26364.38
525.676	26673.52
526.043	26902.44
526.409	26931.14
526.776	27352.37
527.142	27239.38
527.508	27545.82
527.874	27745.81
528.241	27958.01
528.607	27936.77
528.973	28275.06
529.339	28309.86
529.705	28475.73
530.071	28912.33
530.437	28837.53
530.803	29049.73
531.169	29312.32
531.535	29284.98
531.901	29291.31
532.267	29562.71
532.632	29831.4
532.998	29734.91
533.364	30023.04
533.73	30146.2
534.095	30396.59
534.461	30443.14
534.826	30610.37
535.192	30742.12
535.557	31117.47
535.923	30930.13
536.288	31084.93
536.653	31365.15
537.019	31221.42
537.384	31449.44
537.749	31584.13
538.114	31646.27
538.479	31797.91
538.845	31863.67
539.21	31870
539.575	32098.24
539.94	32193.38
540.305	32379.81
540.67	32350.89
541.034	32526.48
541.399	32737.09
541.764	32736.64
542.129	32939.35
542.494	33023.64
542.858	33065.44
543.223	33197.19
543.587	33395.38
543.952	33444.42
544.316	33397.86
544.681	33539.56
545.045	33646.45
545.41	33871.07
545.774	34123.72
546.138	33983.39
546.503	34190.39
546.867	34141.35
547.231	34474.67
547.595	34339.31
547.959	34674.67
548.324	34777.49
548.688	34880.09
549.052	35020.65
549.416	35096.8
549.779	35212.96
550.143	35273.07
550.507	35554.87
550.871	35618.82
551.235	35749.89
551.599	35906.73
551.962	36083.44
552.326	36241.41
552.689	36374.74
553.053	36236.43
553.417	36347.17
553.78	36962.97
554.143	36720.26
554.507	36892.91
554.87	36946.92
555.234	37375.84
555.597	37209.29
555.96	37404.77
556.323	37479.34
556.686	37542.84
557.05	37926.56
557.413	38046.33
557.776	38259.21
558.139	38347.79
558.502	38362.71
558.865	38465.08
559.228	38891.28
559.59	38971.5
559.953	39138.05
560.316	39480.42
560.679	39399.97
561.041	39747.53
561.404	39919.95
561.767	40102.77
562.129	40102.32
562.492	40416.89
562.854	40485.59
563.217	40528.52
563.579	40722.19
563.941	41080.6
564.304	41215.74
564.666	41370.31
565.028	41459.57
565.39	41754.71
565.753	41901.82
566.115	41926.23
566.477	42189.27
566.839	42334.13
567.201	42651.86
567.563	42582.03
567.925	42907.9
568.287	42969.59
568.648	43031.28
569.01	43220.43
569.372	43583.36
569.734	43593.98
570.095	43867.87
570.457	43854.99
570.819	43833.52
571.18	43791.49
571.542	44177.69
571.903	44154.19
572.265	44406.84
572.626	44558.48
572.987	44571.36
573.349	44567.74
573.71	44994.62
574.071	44922.53
574.432	45167.05
574.794	45410.2
575.155	45392.58
575.516	45189.87
575.877	45451.33
576.238	45602.52
576.599	45721.38
576.96	45765
577.32	45765.22
577.681	46009.28
578.042	46031.2
578.403	46040.02
578.763	46143.97
579.124	46090.19
579.485	46275.04
579.845	46444.75
580.206	46272.55
580.566	46285.21
580.927	46296.28
581.287	46450.85
581.648	46489.27
582.008	46619.44
582.368	46483.4
582.728	46625.09
583.089	46546.22
583.449	46606.11
583.809	46684.97
584.169	46707.35
584.529	46575.6
584.889	47033.89
585.249	46646.1
585.609	46558.42
585.969	46673.22
586.329	46538.08
586.688	46772.2
587.048	46665.31
587.408	46628.03
587.768	46634.58
588.127	46759.77
588.487	46676.16
588.846	46897.62
589.206	46556.39
589.565	46634.13
589.925	46884.29
590.284	46747.34
590.643	46898.98
591.003	46970.16
591.362	46895.36
591.721	46859.66
592.08	46914.35
592.44	46893.1
592.799	46916.38
593.158	46828.02
593.517	46868.47
593.876	46877.96
594.235	46744.63
594.593	46836.83
594.952	46909.37
595.311	46721.13
595.67	47020.56
596.029	47180.33
596.387	47129.93
596.746	47169.48
597.104	46999.54
597.463	47002.25
597.822	47239.31
598.18	47054.45
598.538	47102.59
598.897	47299.19
599.255	47049.48
599.613	47481.79
599.972	47326.54
600.33	47223.72
600.688	47143.94
601.046	47348.46
601.404	47428.23
601.762	47324.05
602.12	47579.64
602.478	47430.72
602.836	47479.3
603.194	47291.96
603.552	47217.61
603.91	47453.99
604.268	47618.06
604.625	47373.99
604.983	47511.17
605.341	47430.04
605.698	47613.08
606.056	47842.23
606.413	47664.38
606.771	47800.2
607.128	47819.86
607.485	47730.37
607.843	47680.88
608.2	47974.2
608.557	47971.04
608.914	47950.7
609.272	48155.44
609.629	48013.98
609.986	48233.63
610.343	47845.39
610.7	48354.76
611.057	48285.61
611.414	48238.6
611.771	48286.74
612.127	48429.79
612.484	48301.2
612.841	48485.38
613.198	48213.97
613.554	48258.72
613.911	48467.75
614.267	48468.65
614.624	48486.96
614.98	48543.68
615.337	48617.58
615.693	48658.71
616.05	48660.74
616.406	48751.59
616.762	48656.45
617.118	48607.18
617.475	48789.32
617.831	48765.82
618.187	48826.39
618.543	48881.98
618.899	49045.14
619.255	48844.46
619.611	48819.38
619.967	48923.11
620.323	49128.98
620.678	48854.63
621.034	48831.58
621.39	48848.98
621.746	48829.1
622.101	49190.44
622.457	48814.63
622.812	48800.62
623.168	48999.71
623.523	49008.98
623.879	49095.76
624.234	48805.37
624.589	48980.96
624.945	48947.74
625.3	48946.83
625.655	49004.46
626.01	48882.88
626.365	48979.6
626.72	48892.37
627.075	48792.04
627.43	48863.22
627.785	48804.24
628.14	48935.08
628.495	48886.05
628.85	48750.68
629.205	48734.41
629.559	48753.85
629.914	48591.36
630.269	48759.04
630.623	48567.86
630.978	48485.15
631.332	48739.61
631.687	48655.99
632.041	48451.71
632.396	48614.41
632.75	48438.83
633.104	48491.48
633.459	48288.09
633.813	48345.72
634.167	48318.6
634.521	48107.31
634.875	48280.86
635.229	48149.57
635.583	47888.56
635.937	47905.51
636.291	47912.74
636.645	47887.88
636.999	47815.79
637.352	47907.77
637.706	47474.78
638.06	47639.75
638.413	47742.35
638.767	47514.78
639.121	47621.45
639.474	47359.76
639.828	47464.16
640.181	47555.46
640.534	47363.15
640.888	47370.6
641.241	47028.01
641.594	47204.28
641.947	47218.52
642.301	47064.17
642.654	47149.37
643.007	47112.53
643.36	47004.06
643.713	46862.82
644.066	46972.88
644.419	46702.83
644.771	46259
645.124	45758.44
645.477	45754.83
645.83	45493.37
646.182	45444.78
646.535	45579.69
646.888	45631.22
647.24	45423.76
647.593	45683.42
647.945	45526.59
648.298	45498.34
648.65	45397.78
649.002	45168.18
649.355	45394.84
649.707	45071.23
650.059	45138.8
650.411	45470.32
650.763	45501.05
651.115	45913.02
651.467	45867.37
651.819	45727.71
652.171	45616.3
652.523	45626.47
652.875	45498.56
653.227	45485.23
653.578	45780.14
653.93	45519.35
654.282	45395.74
654.633	45403.2
654.985	45333.82
655.337	45446.36
655.688	45285.91
656.039	45502.63
656.391	45120.27
656.742	45177.67
657.094	45155.52
657.445	45326.14
657.796	45195.29
658.147	44988.29
658.498	45071.91
658.849	45047.5
659.2	44899.03
659.551	45017.45
659.902	44996.2
660.253	44868.52
660.604	44844.57
660.955	44743.78
661.306	44897.45
661.656	44681.86
662.007	44568.42
662.358	44662.43
662.708	44731.35
663.059	44554.41
663.409	44341.76
663.76	44630.56
664.11	44617
664.461	44551.47
664.811	44520.06
665.161	44621.98
665.511	44420.17
665.862	44450.91
666.212	44610.23
666.562	44522.77
666.912	44356.22
667.262	44151.93
667.612	44165.04
667.962	44444.35
668.312	44188.99
668.662	44447.52
669.011	44323.91
669.361	44158.94
669.711	44194.64
670.06	44212.27
670.41	44113.52
670.76	43926.18
671.109	44112.61
671.459	43901.77
671.808	43886.18
672.157	43891.83
672.507	43760.53
672.856	43683.47
673.205	43826.52
673.554	43864.71
673.904	43708.33
674.253	43930.7
674.602	43639.86
674.951	43133.43
675.3	42907.67
675.649	43548.33
675.998	43432.63
676.346	43582.68
676.695	43704.49
677.044	43176.59
677.393	43449.58
677.741	43369.81
678.09	43139.98
678.438	43088.23
678.787	43196.93
679.135	43191.96
679.484	42946.09
679.832	43184.73
680.181	42772.08
680.529	42914
680.877	42848.46
681.225	42730.5
681.573	42976.6
681.922	42587.68
682.27	42564.63
682.618	42516.95
682.966	42523.05
683.314	42458.42
683.661	42398.08
684.009	42231.08
684.357	42109.05
684.705	41902.05
685.053	42026.34
685.4	42030.41
685.748	41855.72
686.095	41617.31
686.443	41749.28
686.79	41581.38
687.138	41708.15
687.485	41560.14
687.832	41446.69
688.18	41509.52
688.527	41109.07
688.874	41144.78
689.221	40950.21
689.568	40847.84
689.915	40704.57
690.262	40757.45
690.609	40656.21
690.956	40625.02
691.303	40507.51
691.65	40333.95
691.997	40330.34
692.344	39903.46
692.69	40104.36
693.037	40040.18
693.383	39771.03
693.73	39809.67
694.077	39679.96
694.423	39406.97
694.769	39571.49
695.116	39310.03
695.462	39243.81
695.808	39239.97
696.155	39256.47
696.501	38917.04
696.847	38903.71
697.193	38581.23
697.539	38736.71
697.885	38471.63
698.231	38400.45
698.577	38191.19
698.923	38132.43
699.269	38040.23
699.614	37844.98
699.96	37857.86
700.306	37968.37
700.651	37586.91
700.997	37423.3
701.342	37469.85
701.688	37396.18
702.033	37199.8
702.379	37320.7
702.724	37153.7
703.069	37171.55
703.415	36769.98
703.76	36697.67
704.105	36783.76
704.45	36734.5
704.795	36306.49
705.14	36306.04
705.485	36282.08
705.83	36259.94
706.175	36114.86
706.52	35932.49
706.865	35799.38
707.209	35917.8
707.554	35663.12
707.899	35766.84
708.243	35643.91
708.588	35568.2
708.932	35276.46
709.277	35340.19
709.621	35183.58
709.966	35061.78
710.31	35088.22
710.654	34777.72
710.998	34994.66
711.342	34806.42
711.687	34707.43
712.031	34599.19
712.375	34508.34
712.719	34450.72
713.063	34426.76
713.407	34495.01
713.75	34235.58
714.094	34258.86
714.438	34099.99
714.782	34279.88
715.125	33945.42
715.469	33983.39
715.812	33796.27
716.156	33686.44
716.499	33690.96
716.843	33742.49
717.186	33366.91
717.53	33625.43
717.873	33529.84
718.216	33337.08
718.559	33224.31
718.902	33016.86
719.246	33129.85
719.589	32930.31
719.932	32933.24
720.275	32927.59
720.617	32799.01
720.96	32728.5
721.303	32730.09
721.646	32706.81
721.989	32410.09
722.331	32629.3
722.674	32533.25
723.016	32525.8
723.359	32379.81
723.701	32378.91
724.044	32165.58
724.386	32063.44
724.729	32119.93
725.071	31978.02
725.413	32000.84
725.755	31921.97
726.097	31773.05
726.439	31674.75
726.782	31685.37
727.124	31826.38
727.465	31496.67
727.807	31635.2
728.149	31450.8
728.491	31388.2
728.833	31473.62
729.175	31241.31
729.516	31308.43
729.858	31215.55
730.199	31181.65
730.541	31079.96
730.882	31150.92
731.224	31110.02
731.565	30881.09
731.906	30994.09
732.248	30879.29
732.589	30679.07
732.93	30719.07
733.271	30570.14
733.612	30680.65
733.953	30551.84
734.294	30598.84
734.635	30472.97
734.976	30499.64
735.317	30354.55
735.658	30347.78
735.999	30332.86
736.339	30151.85
736.68	30166.76
737.021	30141.91
737.361	29983.04
737.702	30015.13
738.042	29984.62
738.383	29958.18
738.723	30016.71
739.063	29884.51
739.404	29857.39
739.744	29712.99
740.084	29664.86
740.424	29567.46
740.764	29599.77
741.104	29619.43
741.444	29527.01
741.784	29314.36
742.124	29316.62
742.464	29274.13
742.804	29120.01
743.143	29189.84
743.483	29198.43
743.823	28982.61
744.162	28910.3
744.502	28983.97
744.841	28864.65
745.181	28985.33
745.52	28739.68
745.86	28788.49
746.199	28664.88
746.538	28647.71
746.877	28703.52
747.216	28633.92
747.556	28489.75
747.895	28576.75
748.234	28348.05
748.573	28372.01
748.911	28233.25
749.25	28239.58
749.589	28118.23
749.928	27978.8
750.267	28008.85
750.605	28045.69
750.944	27956.65
751.283	27945.13
751.621	27983.32
751.96	27838.69
752.298	27739.03
752.636	27744
752.975	27511.92
753.313	27449.55
753.651	27455.65
753.989	27350.57
754.327	27263.11
754.666	27180.18
755.004	27228.54
755.342	27132.27
755.679	27156.67
756.017	26993.97
756.355	27131.14
756.693	26875.32
757.031	26905.38
757.368	26714.88
757.706	26647.31
758.044	26629.23
758.381	26653.41
758.719	26351.5
759.056	26529.12
759.394	26322.57
759.731	26134.1
760.068	26128.9
760.405	25961
760.743	25891.62
761.08	25956.48
761.417	25785.64
761.754	25831.06
762.091	25644.85
762.428	25639.2
762.765	25452.76
763.102	25450.73
763.438	25345.87
763.775	25208.7
764.112	25204.63
764.449	25125.31
764.785	25017.29
765.122	24866.56
765.458	24688.26
765.795	24664.31
766.131	24675.83
766.467	24694.36
766.804	24404.88
767.14	24290.08
767.476	24381.15
767.812	24171.67
768.148	24219.8
768.485	24039.01
768.821	23892.8
769.157	23936.64
769.492	23930.09
769.828	23816.42
770.164	23584.11
770.5	23619.14
770.836	23479.71
771.171	23352.25
771.507	23333.95
771.842	23124.91
772.178	23225.02
772.513	23036.33
772.849	23093.73
773.184	22902.1
773.519	22865.03
773.855	22744.59
774.19	22655.77
774.525	22575.1
774.86	22458.27
775.195	22494.42
775.53	22377.59
775.865	22245.84
776.2	22046.52
776.535	21852.41
776.87	21911.39
777.205	21776.7
777.539	21725.63
777.874	21780.77
778.209	21486.09
778.543	21576.03
778.878	21339.2
779.212	21363.6
779.547	21315.92
779.881	21332.65
780.215	21069.38
780.55	21221.01
780.884	20969.94
781.218	20937.18
781.552	20900.79
781.886	20802.49
782.22	20707.13
782.554	20658.54
782.888	20374.25
783.222	20439.79
783.556	20207.93
783.889	20235.05
784.223	20029.85
784.557	20019.01
784.89	19933.36
785.224	19911.44
785.557	19797.09
785.891	19750.54
786.224	19599.13
786.558	19670.09
786.891	19474.16
787.224	19432.13
787.557	19329.76
787.891	19279.14
788.224	19216.09
788.557	19247.28
788.89	19176.32
789.223	19091.35
789.556	18973.16
789.888	18831.24
790.221	18820.62
790.554	18670.57
790.887	18629.67
791.219	18592.6
791.552	18594.41
791.884	18534.75
792.217	18464.92
792.549	18375.21
792.882	18333.63
793.214	18139.51
793.546	18221.09
793.879	18073.3
794.211	18035.56
794.543	17973.19
794.875	17889.8
795.207	17916.69
795.539	17859.97
795.871	17746.75
796.203	17623.82
796.535	17529.13
796.867	17478.28
797.198	17443.48
797.53	17414.33
797.862	17233.32
798.193	17395.8
798.525	17324.62
798.856	17272.64
799.188	17073.55
799.519	17092.3
799.85	16875.14
800.182	17017.05
800.513	16989.48
800.844	16712.43
801.175	16786.55
801.506	16754.91
801.837	16689.6
802.168	16673.11
802.499	16541.13
802.83	16545.88
803.161	16443.28
803.491	16522.15
803.822	16379.33
804.153	16214.36
804.483	16172.78
804.814	16138.43
805.145	16061.6
805.475	16106.12
805.805	16050.52
806.136	16000.58
806.466	15934.6
806.796	15886.69
807.126	15733.24
807.457	15738.89
807.787	15771.21
808.117	15667.03
808.447	15502.97
808.777	15574.38
809.107	15505.91
809.436	15502.97
809.766	15506.13
810.096	15399.92
810.426	15324.67
810.755	15408.51
811.085	15318.34
811.414	15211.68
811.744	15083.09
812.073	15104.33
812.403	15088.06
812.732	14978.01
813.061	14976.65
813.39	14805.13
813.719	14874.51
814.049	14911.12
814.378	14764.68
814.707	14776.66
815.036	14802.65
815.365	14653.5
815.693	14575.99
816.022	14640.84
816.351	14560.85
816.68	14481.53
817.008	14474.29
817.337	14389.55
817.665	14368.76
817.994	14421.41
818.322	14386.39
818.651	14262.32
818.979	14236.56
819.307	14370.12
819.636	14257.13
819.964	14069.11
820.292	14117.92
820.62	14115.89
820.948	14028.66
821.276	14175.09
821.604	14085.83
821.932	14184.36
822.259	14110.46
822.587	13995.21
822.915	13937.36
823.243	14050.8
823.57	14009.22
823.898	13997.02
824.225	14059.62
824.553	13960.41
824.88	13975.1
825.207	14038.6
825.535	13912.05
825.862	13966.06
826.189	13870.47
826.516	13992.5
826.843	13997.24
827.17	13967.87
827.497	13989.79
827.824	13903.24
828.151	13921.77
828.478	13852.16
828.805	14004.02
829.131	13867.98
829.458	13908.89
829.785	13797.02
830.111	13853.07
830.438	13889.9
830.764	13916.57
831.09	13969
831.417	13820.53
831.743	13896.23
832.069	13926.29
832.395	13840.41
832.722	13891.71
833.048	13724.03
833.374	13835.67
833.7	13877.25
834.026	13755.22
834.351	13797.48
834.677	13709.12
835.003	13797.7
835.329	13782.34
835.654	13765.39
835.98	13738.49
836.306	13715.9
836.631	13630.7
836.956	13762.9
837.282	13719.06
837.607	13589.8
837.932	13505.51
838.258	13543.92
838.583	13557.03
838.908	13460.54
839.233	13455.79
839.558	13379.63
839.883	13392.29
840.208	13329.24
840.533	13338.73
840.858	13338.51
841.182	13395
841.507	13306.19
841.832	13187.55
842.156	13296.47
842.481	13270.94
842.805	13122.24
843.13	13234.1
843.454	13162.24
843.778	13202.92
844.103	13150.04
844.427	13040.66
844.751	13084.73
845.075	12954.11
845.399	12910.27
845.723	12891.74
846.047	12902.58
846.371	12816.49
846.695	12719.09
847.019	12700.33
847.343	12702.59
847.666	12599.77
847.99	12547.57
848.313	12520.22
848.637	12397.96
848.96	12336.05
849.284	12356.84
849.607	12311.19
849.931	12202.94
850.254	12225.31
850.577	12148.25
850.9	12051.99
851.223	12049.5
851.546	12040.91
851.869	11942.16
852.192	11939.45
852.515	11891.09
852.838	11868.71
853.161	11849.73
853.483	11766.8
853.806	11723.63
854.129	11699
854.451	11609.74
854.774	11566.8
855.096	11567.7
855.419	11481.15
855.741	11426.01
856.063	11382.4
856.385	11411.1
856.708	11353.02
857.03	11349.63
857.352	11320.48
857.674	11234.38
857.996	11295.62
858.318	11195.74
858.64	11190.09
858.961	11200.26
859.283	11119.58
859.605	11059.92
859.926	11098.79
860.248	11057.21
860.57	11036.19
860.891	11054.72
861.212	10984.44
861.534	10892.24
861.855	10898.8
862.176	10973.6
862.498	10962.75
862.819	10891.79
863.14	10883.88
863.461	10836.42
863.782	10831.68
864.103	10793.26
864.424	10721.85
864.745	10781.06
865.065	10751.23
865.386	10740.61
865.707	10736.09
866.027	10783.54
866.348	10692.02
866.668	10623.55
866.989	10698.8
867.309	10488.41
867.63	10553.72
867.95	10601.63
868.27	10539.48
868.59	10575.41
868.91	10528.64
869.23	10552.59
869.55	10469.43
869.87	10527.51
870.19	10438.47
870.51	10458.81
870.83	10464.46
871.15	10363.44
871.469	10431.24
871.789	10364.57
872.109	10341.07
872.428	10315.53
872.748	10339.94
873.067	10276.21
873.386	10318.7
873.706	10309.88
874.025	10188.08
874.344	10254.07
874.663	10316.44
874.982	10276.89
875.301	10242.09
875.62	10194.63
875.939	10105.82
876.258	10107.86
876.577	10084.58
876.896	10163.22
877.214	10115.31
877.533	10090.91
877.852	10044.81
878.17	10092.94
878.489	10106.05
878.807	10016.56
879.125	10059.72
879.444	10024.24
879.762	9973.4
880.08	10036.67
880.398	9973.17
880.716	10018.14
881.034	9914.87
881.352	9931.59
881.67	9901.99
881.988	9905.6
882.306	9839.61
882.624	9845.94
882.941	9785.38
883.259	9835.32
883.577	9747.87
883.894	9723.69
884.212	9723.91
884.529	9764.36
884.846	9661.31
885.164	9649.34
885.481	9707.19
885.798	9702.22
886.115	9580.19
886.432	9583.58
886.75	9582.45
887.067	9544.71
887.383	9514.42
887.7	9527.08
888.017	9426.97
888.334	9457.93
888.651	9485.95
888.967	9454.99
889.284	9383.13
889.6	9366.18
889.917	9342.68
890.233	9341.1
890.55	9262.68
890.866	9283.24
891.182	9278.27
891.498	9257.03
891.815	9172.29
892.131	9224.26
892.447	9105.17
892.763	9125.51
893.079	9080.54
893.395	8994.89
893.71	9082.8
894.026	9071.72
894.342	8972.52
894.657	8903.14
894.973	8904.95
895.289	8944.04
895.604	8972.97
895.92	8876.7
896.235	8805.97
896.55	8853.65
896.865	8798.29
897.181	8741.11
897.496	8710.83
897.811	8737.72
898.126	8672.41
898.441	8635.58
898.756	8639.19
899.071	8529.37
899.386	8627.22
899.7	8518.97
900.015	8439.2
900.33	8394.91
900.644	8428.13
900.959	8438.52
901.273	8306.55
901.588	8351.29
901.902	8360.11
902.216	8311.74
902.531	8279.88
902.845	8254.12
903.159	8229.71
903.473	8144.07
903.787	8161.01
904.101	8101.81
904.415	8061.36
904.729	8087.57
905.042	8007.57
905.356	8065.65
905.67	7967.35
905.984	7939.55
906.297	7955.82
906.611	7914.92
906.924	7914.69
907.237	7898.65
907.551	7806.45
907.864	7822.94
908.177	7765.09
908.491	7837.18
908.804	7708.14
909.117	7662.95
909.43	7757.64
909.743	7606
910.056	7574.81
910.368	7523.29
910.681	7474.7
910.994	7551.99
911.307	7463.41
911.619	7370.07
911.932	7421.6
912.244	7346.12
912.557	7390.19
912.869	7303.18
913.181	7265.9
913.494	7251.89
913.806	7181.83
914.118	7145
914.43	7143.87
914.742	7137.99
915.054	7120.59
915.366	7096.86
915.678	7072
915.99	7013.7
916.302	6989.29
916.613	6942.74
916.925	6887.6
917.236	6941.16
917.548	6845.79
917.859	6853.93
918.171	6789.75
918.482	6777.55
918.794	6818.22
919.105	6778.45
919.416	6677.66
919.727	6683.31
920.038	6678.57
920.349	6634.95
920.66	6677.66
920.971	6603.54
921.282	6592.47
921.593	6522.41
921.903	6497.56
922.214	6501.62
922.525	6498.46
922.835	6398.8
923.146	6328.97
923.456	6295.53
923.767	6292.81
924.077	6321.51
924.387	6266.83
924.697	6224.79
925.008	6224.57
925.318	6171.69
925.628	6145.02
925.938	6144.12
926.248	6103.44
926.558	6084.68
926.867	6020.28
927.177	5985.7
927.487	6066.15
927.796	5981.86
928.106	5995.87
928.416	5939.6
928.725	5946.84
929.034	5816.9
929.344	5889.21
929.653	5902.54
929.962	5867.52
930.271	5783.9
930.581	5844.69
930.89	5775.54
931.199	5769.66
931.508	5708.2
931.817	5678.82
932.125	5670.23
932.434	5615.09
932.743	5579.16
933.051	5615.32
933.36	5582.1
933.669	5538.94
933.977	5514.3
934.286	5505.94
934.594	5515.89
934.902	5513.85
935.21	5434.08
935.519	5450.58
935.827	5411.03
936.135	5364.25
936.443	5309.34
936.751	5300.75
937.059	5270.92
937.367	5275.89
937.674	5195.67
937.982	5226.4
938.29	5171.04
938.597	5173.3
938.905	5101.43
939.213	5144.82
939.52	5081.32
939.827	5099.85
940.135	5116.35
940.442	5043.13
940.749	4984.15
941.056	5067.31
941.363	4983.47
941.67	4965.39
941.977	4924.72
942.284	4886.98
942.591	4909.57
942.898	4887.88
943.205	4877.48
943.511	4833.42
943.818	4773.53
944.125	4733.99
944.431	4761.33
944.738	4755
945.044	4782.35
945.35	4686.76
945.657	4699.86
945.963	4653.08
946.269	4675.91
946.575	4624.38
946.881	4673.87
947.187	4615.34
947.493	4534.22
947.799	4538.96
948.105	4577.61
948.41	4476.59
948.716	4533.99
949.022	4428.68
949.327	4500.09
949.633	4451.73
949.938	4444.73
950.244	4450.38
950.549	4357.95
950.854	4386.2
951.16	4316.14
951.465	4314.11
951.77	4326.31
952.075	4322.25
952.38	4256.71
952.685	4231.4
952.99	4215.13
953.294	4183.49
953.599	4185.3
953.904	4178.07
954.209	4173.77
954.513	4159.31
954.818	4137.62
955.122	4186.43
955.426	4098.97
955.731	4103.27
956.035	4072.31
956.339	4003.61
956.643	3993.89
956.948	3994.12
957.252	3941.01
957.556	3973.55
957.86	3978.75
958.163	3968.36
958.467	3973.1
958.771	3937.4
959.075	3931.29
959.378	3822.37
959.682	3863.5
959.985	3824.18
960.289	3840.9
960.592	3842.26
960.896	3812.2
961.199	3777.4
961.502	3704.18
961.805	3760.45
962.108	3726.33
962.411	3679.1
962.714	3715.48
963.017	3715.26
963.32	3670.96
963.623	3632.09
963.926	3616.5
964.228	3608.59
964.531	3584.64
964.833	3583.51
965.136	3577.41
965.438	3592.09
965.741	3497.41
966.043	3525.2
966.345	3512.55
966.648	3479.78
966.95	3490.18
967.252	3439.56
967.554	3438.88
967.856	3422.61
968.158	3417.18
968.46	3410.86
968.761	3356.85
969.063	3385.55
969.365	3337.64
969.666	3334.47
969.968	3294.48
970.269	3283.85
970.571	3289.28
970.872	3283.63
971.174	3238.43
971.475	3268.71
971.776	3212.67
972.077	3206.57
972.378	3217.42
972.679	3215.61
972.98	3204.99
973.281	3184.2
973.582	3169.51
973.883	3173.57
974.183	3117.08
974.484	3143.29
974.785	3081.83
975.085	3068.49
975.386	3105.78
975.686	3080.24
975.986	3051.77
976.287	3030.75
976.587	3004.54
976.887	2991.66
977.187	3028.72
977.487	2991.66
977.787	2961.6
978.087	2930.87
978.387	2914.82
978.687	2933.13
978.987	2871.66
979.286	2869.85
979.586	2890.19
979.885	2855.39
980.185	2807.71
980.484	2859.91
980.784	2835.05
981.083	2822.62
981.382	2783.75
981.682	2788.5
981.981	2795.05
982.28	2793.02
982.579	2745.34
982.878	2743.98
983.177	2738.78
983.475	2726.35
983.774	2703.08
984.073	2680.93
984.372	2686.36
984.67	2716.19
984.969	2691.1
985.267	2655.4
985.566	2653.59
985.864	2666.02
986.162	2642.29
986.461	2577.21
986.759	2588.73
987.057	2600.26
987.355	2595.74
987.653	2570.88
987.951	2525
988.249	2527.49
988.547	2534.72
988.844	2506.47
989.142	2515.96
989.44	2503.08
989.737	2457.44
990.035	2455.63
990.332	2466.25
990.63	2448.85
990.927	2443.2
991.224	2448.85
991.521	2418.34
991.819	2386.7
992.116	2399.81
992.413	2359.58
992.71	2361.17
993.006	2354.84
993.303	2363.88
993.6	2369.75
993.897	2325.91
994.193	2289.08
994.49	2306.25
994.787	2290.66
995.083	2261.28
995.379	2275.75
995.676	2261.96
995.972	2251.79
996.268	2261.06
996.565	2210.89
996.861	2193.26
997.157	2152.81
997.453	2153.94
997.749	2184.67
998.044	2158.91
998.34	2166.82
998.636	2172.92
998.932	2148.29
999.227	2172.92
999.523	2134.05
999.818	2129.99
1000.114	2137.44
1000.409	2090.44
1000.704	2071.68
1001	2086.15
1001.295	2038.01
1001.59	2058.58
1001.885	2064.45
1002.18	2010.67
1002.475	1997.33
1002.77	1993.49
1003.065	2005.02
1003.359	1991.23
1003.654	1978.13
1003.949	1967.5
1004.243	1958.92
1004.538	1930.67
1004.832	1951.01
1005.127	1928.18
1005.421	1918.92
1005.715	1908.52
1006.009	1871.69
1006.304	1888.64
1006.598	1832.14
1006.892	1850.22
1007.186	1849.09
1007.48	1844.8
1007.773	1826.04
1008.067	1802.09
1008.361	1792.59
1008.655	1791.01
1008.948	1777
1009.242	1757.34
1009.535	1753.95
1009.829	1752.14
1010.122	1752.82
1010.415	1752.37
1010.708	1725.48
1011.001	1715.31
1011.295	1715.08
1011.588	1705.36
1011.881	1656.1
1012.173	1655.65
1012.466	1661.07
1012.759	1676.89
1013.052	1636.67
1013.344	1626.5
1013.637	1629.66
1013.93	1618.14
1014.222	1628.3
1014.514	1613.62
1014.807	1593.05
1015.099	1588.53
1015.391	1574.07
1015.683	1553.5
1015.976	1558.93
1016.268	1557.12
1016.56	1527.29
1016.851	1516.67
1017.143	1512.38
1017.435	1502.88
1017.727	1515.77
1018.018	1483.68
1018.31	1478.03
1018.602	1472.83
1018.893	1455.88
1019.185	1427.41
1019.476	1434.64
1019.767	1424.47
1020.058	1453.85
1020.35	1391.7
1020.641	1374.98
1020.932	1387.86
1021.223	1386.5
1021.514	1381.76
1021.804	1349.44
1022.095	1344.47
1022.386	1368.42
1022.677	1321.42
1022.967	1306.73
1023.258	1288.88
1023.548	1328.88
1023.839	1298.6
1024.129	1319.84
1024.419	1295.66
1024.709	1265.15
1025	1261.08
1025.29	1251.37
1025.58	1264.25
1025.87	1216.11
1026.16	1239.16
1026.449	1248.65
1026.739	1224.47
1027.029	1234.19
1027.319	1169.33
1027.608	1186.73
1027.898	1192.84
1028.187	1169.79
1028.477	1174.31
1028.766	1173.63
1029.055	1172.95
1029.344	1163.68
1029.634	1146.28
1029.923	1144.7
1030.212	1117.36
1030.501	1138.83
1030.79	1087.75
1031.078	1096.12
1031.367	1116.45
1031.656	1107.87
1031.945	1087.08
1032.233	1086.4
1032.522	1052.27
1032.81	1070.13
1033.099	1043.46
1033.387	1048.66
1033.675	1047.08
1033.963	1023.57
1034.251	1017.25
1034.54	1018.38
1034.828	1017.25
1035.116	1026.29
1035.403	988.55
1035.691	994.65
1035.979	1013.63
1036.267	996
1036.554	976.57
1036.842	983.35
1037.129	973.63
1037.417	942.9
1037.704	978.38
1037.992	966.18
1038.279	951.94
1038.566	929.57
1038.853	929.57
1039.14	929.57
