Data from foil_FLMS001491_039.txt Node
Date: Tue Feb 07 11:26:16 GMT 2017
User: dcchb
Spectrometer: FLMS00149
Trigger mode: 0
Integration Time (sec): 2.000000E-2
Scans to average: 10
Electric dark correction enabled: true
Nonlinearity correction enabled: false
Boxcar width: 0
XAxis mode: Wavelengths
Number of Pixels in Spectrum: 2048
>>>>>Begin Spectral Data<<<<<
341.393	-1.93
341.776	-1.93
342.16	-1.93
342.543	-61.82
342.927	-77.19
343.31	-54.59
343.693	-69.96
344.077	-50.07
344.46	-53.23
344.843	-52.33
345.226	-43.74
345.61	-18.66
345.993	-15.27
346.376	-32.22
346.759	-13.91
347.142	25.86
347.525	43.49
347.908	67.89
348.291	56.82
348.674	99.31
349.057	110.6
349.44	127.1
349.823	129.14
350.206	184.73
350.588	238.96
350.971	280.77
351.354	304.05
351.737	320.77
352.119	309.92
352.502	329.81
352.884	342.46
353.267	343.37
353.65	357.83
354.032	364.38
354.414	415.23
354.797	388.34
355.179	400.54
355.562	408.45
355.944	427.66
356.326	410.26
356.709	412.29
357.091	419.52
357.473	444.83
357.855	439.41
358.238	447.77
358.62	442.8
359.002	454.32
359.384	443.48
359.766	454.1
360.148	428.34
360.53	469.24
360.912	431.95
361.294	445.96
361.676	464.04
362.057	440.99
362.439	441.67
362.821	443.25
363.203	438.96
363.584	440.09
363.966	459.97
364.348	462.69
364.729	453.87
365.111	458.39
365.493	473.98
365.874	444.38
366.256	435.12
366.637	442.57
367.019	442.12
367.4	469.47
367.781	476.47
368.163	482.57
368.544	473.31
368.925	481.22
369.306	495.23
369.688	473.08
370.069	459.75
370.45	477.6
370.831	493.19
371.212	497.94
371.593	496.81
371.974	480.99
372.355	495.23
372.736	510.37
373.117	514.44
373.498	512.63
373.879	476.7
374.26	501.1
374.641	484.15
375.021	514.44
375.402	534.55
375.783	543.14
376.163	577.48
376.544	579.97
376.925	562.8
377.305	549.24
377.686	561.67
378.066	573.19
378.447	618.84
378.827	553.53
379.208	589.01
379.588	601.66
379.968	583.59
380.349	596.92
380.729	609.12
381.109	620.42
381.489	630.82
381.87	638.27
382.25	633.75
382.63	654.09
383.01	627.65
383.39	668.56
383.77	652.51
384.15	682.11
384.53	692.96
384.91	676.69
385.29	694.32
385.67	689.8
386.049	712.4
386.429	718.95
386.809	714.43
387.189	737.93
387.568	732.06
387.948	736.12
388.328	789.68
388.707	777.03
389.087	773.86
389.466	794.65
389.846	803.92
390.225	825.84
390.605	807.31
390.984	823.58
391.363	851.6
391.743	849.57
392.122	867.87
392.501	865.61
392.881	871.71
393.26	894.99
393.639	882.11
394.018	905.61
394.397	907.42
394.776	922.11
395.155	918.04
395.534	950.13
395.913	964.82
396.292	959.4
396.671	968.66
397.05	990.81
397.429	1007.08
397.808	1001.43
398.186	1038.26
398.565	1022.67
398.944	1019.51
399.323	1051.37
399.701	1059.73
400.08	1069.45
400.458	1113.97
400.837	1104.93
401.215	1105.38
401.594	1094.53
401.972	1102.89
402.351	1169.56
402.729	1143.12
403.107	1132.27
403.486	1190.58
403.864	1195.55
404.242	1212.27
404.62	1228.09
404.999	1255.43
405.377	1268.77
405.755	1257.92
406.133	1278.71
406.511	1308.31
406.889	1312.61
407.267	1336.79
407.645	1358.48
408.023	1348.99
408.401	1366.84
408.779	1397.58
409.156	1438.03
409.534	1411.59
409.912	1480.51
410.29	1477.57
410.667	1495.43
411.045	1548.98
411.422	1545.59
411.8	1566.16
412.178	1609.32
412.555	1616.55
412.933	1637.8
413.31	1665.59
413.687	1697.91
414.065	1725.93
414.442	1705.82
414.819	1733.39
415.197	1759.37
415.574	1789.88
415.951	1808.64
416.328	1831.46
416.705	1849.09
417.082	1852.71
417.46	1853.84
417.837	1903.1
418.214	1935.87
418.591	1958.47
418.967	1975.64
419.344	1972.93
419.721	1994.62
420.098	2022.64
420.475	2043.43
420.852	2092.93
421.228	2100.38
421.605	2103.09
421.982	2135.41
422.358	2171.12
422.735	2171.57
423.111	2188.06
423.488	2221.28
423.864	2252.92
424.241	2248.63
424.617	2255.86
424.994	2298.57
425.37	2332.69
425.746	2356.2
426.123	2381.96
426.499	2403.88
426.875	2404.1
427.251	2508.06
427.627	2531.33
428.003	2539.47
428.379	2557.09
428.756	2636.19
429.132	2668.96
429.507	2696.75
429.883	2727.94
430.259	2764.09
430.635	2775.17
431.011	2813.58
431.387	2903.07
431.763	2947.14
432.138	2922.73
432.514	3007.7
432.89	3044.54
433.265	3109.85
433.641	3095.38
434.016	3134.25
434.392	3210.41
434.767	3236.62
435.143	3224.19
435.518	3305.55
435.894	3343.51
436.269	3385.77
436.644	3419.67
437.02	3450.18
437.395	3479.78
437.77	3550.97
438.145	3583.06
438.52	3628.48
438.895	3624.41
439.271	3665.54
439.646	3756.38
440.021	3755.48
440.395	3746.44
440.77	3732.43
441.145	3827.34
441.52	3894.91
441.895	3897.62
442.27	3921.35
442.645	3911.41
443.019	3950.73
443.394	4002.93
443.769	4017.62
444.143	3972.42
444.518	4121.12
444.892	4107.56
445.267	4149.82
445.641	4176.94
446.016	4216.49
446.39	4242.02
446.764	4258.29
447.139	4276.14
447.513	4300.55
447.887	4364.96
448.262	4340.1
448.636	4395.69
449.01	4413.77
449.384	4499.19
449.758	4513.88
450.132	4553.65
450.506	4604.5
450.88	4632.75
451.254	4619.64
451.628	4686.98
452.002	4751.39
452.376	4830.93
452.75	4897.15
453.123	4866.19
453.497	4980.76
453.871	5003.36
454.244	5084.48
454.618	5119.74
454.992	5190.24
455.365	5197.48
455.739	5331.94
456.112	5385.49
456.486	5418.26
456.859	5515.43
457.232	5652.61
457.606	5617.35
457.979	5665.49
458.352	5831.81
458.725	5873.62
459.099	5946.38
459.472	6022.31
459.845	6021.64
460.218	6145.93
460.591	6180.73
460.964	6212.14
461.337	6405.13
461.71	6508.4
462.083	6581.85
462.456	6539.36
462.829	6638.57
463.201	6736.64
463.574	6768.96
463.947	6894.38
464.32	7068.61
464.692	7089.63
465.065	7085.79
465.438	7184.32
465.81	7369.4
466.183	7363.3
466.555	7640.12
466.928	7618.66
467.3	7641.93
467.672	7868.37
468.045	7975.03
468.417	7967.35
468.789	8094.35
469.161	8263.84
469.534	8305.42
469.906	8517.62
470.278	8539.76
470.65	8706.54
471.022	8842.58
471.394	9003.7
471.766	9077.15
472.138	9158.5
472.51	9333.64
472.882	9495.89
473.253	9565.05
473.625	9798.03
473.997	9936.33
474.369	10005.03
474.74	10129.55
475.112	10325.7
475.484	10453.16
475.855	10737.22
476.227	10799.81
476.598	11099.69
476.97	11268.28
477.341	11364.55
477.713	11620.36
478.084	11648.15
478.455	12027.81
478.827	12102.83
479.198	12439.32
479.569	12379.89
479.94	12770.61
480.311	12879.08
480.682	13242.46
481.053	13477.26
481.424	13685.16
481.795	13852.39
482.166	14011.48
482.537	14253.28
482.908	14500.06
483.279	14673.16
483.65	14990.89
484.021	15243.09
484.391	15410.99
484.762	15514.27
485.133	15741.83
485.503	15925.56
485.874	16351.99
486.244	16371.65
486.615	16811.86
486.985	17058.63
487.356	17374.56
487.726	17490.03
488.097	17889.8
488.467	17869.23
488.837	18154.2
489.207	18352.61
489.578	18660.4
489.948	18815.88
490.318	19178.13
490.688	19128.86
491.058	19497.21
491.428	19768.84
491.798	19962.74
492.168	20311.2
492.538	20418.09
492.908	20605.88
493.278	20909.83
493.648	20971.3
494.017	21224.4
494.387	21456.26
494.757	21589.36
495.126	21778.96
495.496	21946.87
495.866	22132.85
496.235	22343.69
496.605	22507.08
496.974	22682.44
497.344	22888.76
497.713	23075.2
498.082	23241.75
498.452	23440.84
498.821	23546.6
499.19	23619.82
499.559	23962.63
499.928	23987.94
500.298	24178.67
500.667	24471.77
501.036	24477.87
501.405	24788.15
501.774	24771.65
502.143	25067.01
502.512	25173
502.88	25410.96
503.249	25463.61
503.618	25570.5
503.987	25852.53
504.356	25934.33
504.724	26204.61
505.093	26232.86
505.462	26443.92
505.83	26576.8
506.199	26856.79
506.567	27084.13
506.936	27111.93
507.304	27407.74
507.672	27498.58
508.041	27748.52
508.409	27896.77
508.777	28142.18
509.145	28368.39
509.514	28305.8
509.882	28567.48
510.25	28746.91
510.618	29091.76
510.986	29141.48
511.354	29435.71
511.722	29597.51
512.09	29912.76
512.458	29861.91
512.826	30302.8
513.193	30403.37
513.561	30429.58
513.929	30839.51
514.297	31068.21
514.664	31302.78
515.032	31450.35
515.4	31593.62
515.767	31674.52
516.135	31964.46
516.502	31947.96
516.869	32573.03
517.237	32701.16
517.604	32608.73
517.972	33082.39
518.339	33365.55
518.706	33487.35
519.073	33644.19
519.44	33958.3
519.808	34345.64
520.175	34303.38
520.542	34788.56
520.909	34873.76
521.276	34964.15
521.643	35429.45
522.009	35732.04
522.376	35767.07
522.743	36067.63
523.11	36395.98
523.477	36800.94
523.843	37061.72
524.21	37588.26
524.577	37786.45
524.943	37851.53
525.31	38177.85
525.676	38554.79
526.043	38759.08
526.409	38910.04
526.776	39305.96
527.142	39474.09
527.508	39504.14
527.874	40002.89
528.241	40186.16
528.607	40436.32
528.973	40794.51
529.339	40782.53
529.705	41228.17
530.071	41485.34
530.437	41668.16
530.803	41871.77
531.169	42118.54
531.535	42017.53
531.901	42238.99
532.267	42475.59
532.632	42916.48
532.998	42955.81
533.364	43266.76
533.73	43262.46
534.095	43810.25
534.461	43799.4
534.826	44085.95
535.192	44184.47
535.557	44613.62
535.923	44591.69
536.288	44762.31
536.653	45029.42
537.019	44998.24
537.384	45127.5
537.749	45393.48
538.114	45424.44
538.479	45555.06
538.845	45811.1
539.21	45786.24
539.575	46033.01
539.94	46288.6
540.305	46603.39
540.67	46564.98
541.034	46651.75
541.399	46926.77
541.764	47054.68
542.129	47117.96
542.494	47348.91
542.858	47402.92
543.223	47495.12
543.587	47679.75
543.952	47790.71
544.316	47938.27
544.681	47830.48
545.045	48133.07
545.41	48352.5
545.774	48530.8
546.138	48568.09
546.503	48711.36
546.867	48847.85
547.231	49157.22
547.595	49227.73
547.959	49389.99
548.324	49486.48
548.688	49517.67
549.052	49755.17
549.416	49760.6
549.779	49877.21
550.143	49931.89
550.507	50257.08
550.871	50408.26
551.235	50363.97
551.599	50554.02
551.962	50676.96
552.326	50776.16
552.689	51091.18
553.053	50896.39
553.417	51110.62
553.78	51661.57
554.143	51455.47
554.507	51615.69
554.87	51779.53
555.234	52091.84
555.597	51839.64
555.96	52023.14
556.323	52218.84
556.686	52263.58
557.05	52552.62
557.413	52702.44
557.776	52860.18
558.139	53062.88
558.502	53099.72
558.865	53202.54
559.228	53367.51
559.59	53537.45
559.953	53643.89
560.316	53880.94
560.679	53987.38
561.041	54106.25
561.404	54191.89
561.767	54437.31
562.129	54382.62
562.492	54791.43
562.854	54738.32
563.217	54833.69
563.579	54866
563.941	55061.93
564.304	55183.51
564.666	55394.12
565.028	55498.75
565.39	55568.13
565.753	55798.18
566.115	55911.17
566.477	55945.97
566.839	55989.14
567.201	56283.59
567.563	56296.92
567.925	56462.8
568.287	56508.22
568.648	56620.08
569.01	56685.39
569.372	56835.44
569.734	56869.11
570.095	57062.1
570.457	57110.01
570.819	57160.4
571.18	57218.26
571.542	57348.87
571.903	57360.62
572.265	57466.84
572.626	57575.53
572.987	57680.84
573.349	57849.65
573.71	57816.21
574.071	57848.97
574.432	57973.04
574.794	58093.03
575.155	58100.04
575.516	57993.15
575.877	58178.68
576.238	58249.64
576.599	58323.31
576.96	58340.26
577.32	58384.78
577.681	58520.37
578.042	58576.19
578.403	58498.45
578.763	58583.87
579.124	58620.03
579.485	58708.61
579.845	58782.96
580.206	58776.63
580.566	58764.2
580.927	58825.22
581.287	58853.92
581.648	58783.64
582.008	58954.71
582.368	58849.4
582.728	58877.65
583.089	58951.77
583.449	58968.04
583.809	59004.2
584.169	58994.03
584.529	59014.59
584.889	59152.44
585.249	59052.33
585.609	58918.1
585.969	58993.58
586.329	59010.07
586.688	59128.49
587.048	59118.77
587.408	58970.53
587.768	59029.96
588.127	58974.82
588.487	59009.85
588.846	59178.66
589.206	59034.25
589.565	59065.89
589.925	59180.46
590.284	59120.58
590.643	59116.06
591.003	59139.79
591.362	59237.41
591.721	59176.17
592.08	59153.35
592.44	59246.22
592.799	59261.14
593.158	59155.38
593.517	59169.16
593.876	59245.09
594.235	59142.95
594.593	59163.74
594.952	59288.71
595.311	59145.66
595.67	59185.66
596.029	59313.79
596.387	59347.01
596.746	59367.35
597.104	59269.05
597.463	59327.13
597.822	59442.83
598.18	59320.8
598.538	59345.21
598.897	59525.09
599.255	59368.03
599.613	59733.9
599.972	59493.45
600.33	59521.25
600.688	59434.24
601.046	59558.76
601.404	59569.61
601.762	59543.84
602.12	59645.54
602.478	59689.6
602.836	59623.84
603.194	59536.84
603.552	59565.99
603.91	59481.47
604.268	59691.18
604.625	59560.34
604.983	59697.29
605.341	59531.41
605.698	59723.95
606.056	59729.15
606.413	59809.37
606.771	59911.97
607.128	59894.12
607.485	59805.31
607.843	59900.22
608.2	60001.46
608.557	60049.37
608.914	59940.22
609.272	60057.05
609.629	60137.73
609.986	60201.68
610.343	60086.65
610.7	60216.59
611.057	60133.66
611.414	60144.05
611.771	60200.32
612.127	60272.41
612.484	60219.53
612.841	60348.79
613.198	60228.12
613.554	60278.06
613.911	60426.98
614.267	60353.09
614.624	60428.11
614.98	60443.48
615.337	60546.53
615.693	60445.29
616.05	60521.45
616.406	60646.41
616.762	60499.75
617.118	60513.54
617.475	60563.48
617.831	60556.7
618.187	60577.49
618.543	60600.09
618.899	60699.07
619.255	60660.88
619.611	60583.59
619.967	60691.61
620.323	60847.54
620.678	60707.66
621.034	60655.91
621.39	60642.57
621.746	60585.85
622.101	60880.31
622.457	60712.85
622.812	60746.98
623.168	60756.69
623.523	60796.01
623.879	60906.07
624.234	60718.73
624.589	60789.01
624.945	60771.38
625.3	60817.93
625.655	60801.89
626.01	60829.23
626.365	60863.81
626.72	60775.22
627.075	60726.64
627.43	60687.32
627.785	60757.82
628.14	60718.28
628.495	60756.47
628.85	60750.37
629.205	60624.04
629.559	60778.61
629.914	60586.08
630.269	60656.13
630.623	60582.01
630.978	60516.47
631.332	60667.2
631.687	60691.16
632.041	60535.23
632.396	60587.43
632.75	60443.03
633.104	60538.17
633.459	60374.56
633.813	60345.86
634.167	60376.36
634.521	60375.69
634.875	60428.57
635.229	60275.58
635.583	60194.67
635.937	60185.64
636.291	60136.6
636.645	60168.01
636.999	60051.4
637.352	60074.68
637.706	59967.79
638.06	60061.57
638.413	59981.57
638.767	59966.21
639.121	60030.61
639.474	59884.17
639.828	59938.86
640.181	59953.78
640.534	59975.25
640.888	59883.27
641.241	59696.38
641.594	59777.74
641.947	59919.2
642.301	59768.92
642.654	59708.13
643.007	59728.02
643.36	59778.41
643.713	59710.62
644.066	59787.91
644.419	59560.34
644.771	59283.74
645.124	59008.94
645.477	58873.35
645.83	58695.05
646.182	58764.88
646.535	58751.55
646.888	58891.21
647.24	58803.52
647.593	58984.76
647.945	58914.93
648.298	58740.25
648.65	58702.96
649.002	58591.55
649.355	58650.53
649.707	58482.18
650.059	58542.74
650.411	58810.53
650.763	58882.84
651.115	59142.72
651.467	59012.78
651.819	59058.88
652.171	58965.33
652.523	58950.41
652.875	58943.18
653.227	58880.58
653.578	58996.51
653.93	58838.1
654.282	58761.94
654.633	58674.94
654.985	58724.43
655.337	58763.53
655.688	58786.35
656.039	58808.27
656.391	58653.02
656.742	58673.36
657.094	58610.08
657.445	58643.53
657.796	58649.18
658.147	58578.22
658.498	58547.71
658.849	58564.43
659.2	58570.76
659.551	58506.58
659.902	58573.02
660.253	58525.34
660.604	58580.03
660.955	58389.07
661.306	58528.96
661.656	58458.67
662.007	58433.82
662.358	58460.93
662.708	58437.88
663.059	58402.18
663.409	58206.48
663.76	58419.35
664.11	58348.85
664.461	58401.95
664.811	58422.97
665.161	58432.69
665.511	58241.28
665.862	58295.52
666.212	58280.83
666.562	58231.34
666.912	58192.47
667.262	58185.46
667.612	58227.95
667.962	58174.84
668.312	58151.79
668.662	58291.22
669.011	58267.27
669.361	58173.94
669.711	58149.76
670.06	58143.2
670.41	58040.83
670.76	58070.66
671.109	58217.1
671.459	58023.21
671.808	57998.8
672.157	58041.51
672.507	57856.88
672.856	57877.45
673.205	57939.37
673.554	58078.35
673.904	57949.08
674.253	58086.93
674.602	57974.39
674.951	57652.59
675.3	57422.77
675.649	57851.91
675.998	57786.15
676.346	57789.54
676.695	57887.39
677.044	57672.93
677.393	57742.99
677.741	57769.88
678.09	57644.23
678.438	57594.29
678.787	57585.03
679.135	57619.6
679.484	57413.5
679.832	57524.91
680.181	57373.73
680.529	57419.15
680.877	57362.43
681.225	57279.27
681.573	57444.46
681.922	57254.64
682.27	57171.7
682.618	57187.97
682.966	57067.07
683.314	57145.49
683.661	56970.8
684.009	56896.68
684.357	56903.01
684.705	56892.61
685.053	56945.27
685.4	56825.05
685.748	56626.41
686.095	56782.56
686.443	56647.87
686.79	56549.12
687.138	56654.65
687.485	56590.93
687.832	56451.27
688.18	56479.07
688.527	56270.26
688.874	56298.05
689.221	56303.03
689.568	56220.99
689.915	56116.82
690.262	56077.27
690.609	56042.24
690.956	55960.89
691.303	55967.89
691.65	55827.11
691.997	55731.06
692.344	55538.75
692.69	55615.36
693.037	55628.47
693.383	55307.35
693.73	55336.27
694.077	55190.29
694.423	55207.91
694.769	55078.65
695.116	55127.91
695.462	55028.71
695.808	54912.55
696.155	55004.3
696.501	54686.34
696.847	54720.92
697.193	54508.72
697.539	54529.96
697.885	54378.33
698.231	54357.09
698.577	54308.5
698.923	54289.07
699.269	54033.71
699.614	53933.14
699.96	53912.81
700.306	54022.18
700.651	53802.75
700.997	53625.13
701.342	53648.86
701.688	53663.32
702.033	53600.27
702.379	53630.1
702.724	53482.31
703.069	53514.62
703.415	53095.65
703.76	53185.14
704.105	53167.97
704.45	52940.85
704.795	52871.48
705.14	52784.02
705.485	52741.54
705.83	52647.3
706.175	52714.42
706.52	52422.22
706.865	52356.69
707.209	52302.45
707.554	52335.9
707.899	52272.17
708.243	52085.96
708.588	52033.08
708.932	51887.32
709.277	51864.05
709.621	51857.94
709.966	51524.62
710.31	51605.52
710.654	51363.27
710.998	51554
711.342	51445.98
711.687	51281.69
712.031	51023.39
712.375	50992.43
712.719	51008.48
713.063	51014.58
713.407	51020
713.75	50838.76
714.094	50804.19
714.438	50767.35
714.782	50780.68
715.125	50486.23
715.469	50536.85
715.812	50393.58
716.156	50248.5
716.499	50136.18
716.843	50184.32
717.186	50098.22
717.53	50130.31
717.873	50098.44
718.216	50160.14
718.559	49830.43
718.902	49603.99
719.246	49632.69
719.589	49642.41
719.932	49449.65
720.275	49535.97
720.617	49432.92
720.96	49323.77
721.303	49272.93
721.646	49378.24
721.989	49161.52
722.331	49173.04
722.674	49043.78
723.016	48917.46
723.359	48904.12
723.701	48996.55
724.044	48641.98
724.386	48614.19
724.729	48773.05
725.071	48645.37
725.413	48502.55
725.755	48468.65
726.097	48191.37
726.439	48065.5
726.782	48044.71
727.124	48269.34
727.465	47995.67
727.807	47844.94
728.149	47705.06
728.491	47655.79
728.833	47665.96
729.175	47539.87
729.516	47338.74
729.858	47459.42
730.199	47515.46
730.541	47417.84
730.882	47275.01
731.224	47534.67
731.565	47185.3
731.906	47129.26
732.248	47192.08
732.589	46880.22
732.93	46855.59
733.271	46958.41
733.612	46917.74
733.953	46931.52
734.294	46726.33
734.635	46660.57
734.976	46612.66
735.317	46460.12
735.658	46519.55
735.999	46470.06
736.339	46369.73
736.68	46439.56
737.021	46045.89
737.361	45882.51
737.702	46176.74
738.042	46129.28
738.383	46068.72
738.723	45908.5
739.063	45609.3
739.404	45752.12
739.744	45771.32
740.084	45658.33
740.424	45523.87
740.764	45443.2
741.104	45523.2
741.444	45408.4
741.784	45348.06
742.124	45238.91
742.464	45197.55
742.804	45141.74
743.143	45098.35
743.483	45100.83
743.823	44830.78
744.162	44800.5
744.502	44859.48
744.841	44537.91
745.181	44709.88
745.52	44464.47
745.86	44433.05
746.199	44423.34
746.538	44259.27
746.877	44306.28
747.216	44313.06
747.556	44105.15
747.895	43931.37
748.234	43967.08
748.573	43780.42
748.911	43813.18
749.25	43844.37
749.589	43612.29
749.928	43667.2
750.267	43729.12
750.605	43584.26
750.944	43415.68
751.283	43306.76
751.621	43332.97
751.96	43088.91
752.298	43053.2
752.636	42964.84
752.975	42700.67
753.313	42655.02
753.651	42680.78
753.989	42502.71
754.327	42484.86
754.666	42211.64
755.004	42413.22
755.342	42381.81
755.679	42176.62
756.017	41991.31
756.355	42092.1
756.693	41897.3
757.031	41852.33
757.368	41683.3
757.706	41380.48
758.044	41343.87
758.381	41352.23
758.719	41197.66
759.056	41040.15
759.394	41047.38
759.731	40909.53
760.068	40781.4
760.405	40647.84
760.743	40481.07
761.08	40594.29
761.417	40340.51
761.754	40258.93
762.091	40160.17
762.428	40101.42
762.765	39730.81
763.102	39761.31
763.438	39590.02
763.775	39429.8
764.112	39390.48
764.449	39340.08
764.785	39118.62
765.122	38971.28
765.458	38657.84
765.795	38601.12
766.131	38545.07
766.467	38540.33
766.804	38299.66
767.14	38183.95
767.476	38197.06
767.812	37939.67
768.148	37911.64
768.485	37757.98
768.821	37610.18
769.157	37384.88
769.492	37360.92
769.828	37359.79
770.164	37002.06
770.5	36917.09
770.836	36866.47
771.171	36657.44
771.507	36581.74
771.842	36408.86
772.178	36447.05
772.513	36495.86
772.849	36346.71
773.184	35908.53
773.519	35978.59
773.855	35765.71
774.19	35561.88
774.525	35410.92
774.86	35367.76
775.195	35288.21
775.53	35055.9
775.865	35058.61
776.2	34845.51
776.535	34493.66
776.87	34423.15
777.205	34215.47
777.539	34074.46
777.874	34180.67
778.209	33860.45
778.543	33802.15
778.878	33590.4
779.212	33518.77
779.547	33400.35
779.881	33400.58
780.215	33190.19
780.55	33269.73
780.884	32888.73
781.218	32948.39
781.552	33104.99
781.886	32672.46
782.22	32559.24
782.554	32364.9
782.888	32086.03
783.222	32155.41
783.556	31997.9
783.889	31924.91
784.223	31690.79
784.557	31500.97
784.89	31638.59
785.224	31320.41
785.557	31301.87
785.891	31121.54
786.224	30986.18
786.558	31069.79
786.891	30771.49
787.224	30711.83
787.557	30557.71
787.891	30443.82
788.224	30580.99
788.557	30454.67
788.89	30255.12
789.223	30237.04
789.556	30122.02
789.888	30009.25
790.221	29803.61
790.554	29613.78
790.887	29656.49
791.219	29468.25
791.552	29389.38
791.884	29390.51
792.217	29259.44
792.549	29023.97
792.882	28783.97
793.214	28723.64
793.546	28803.41
793.879	28595.05
794.211	28420.59
794.543	28476.41
794.875	28398.22
795.207	28516.64
795.539	28154.84
795.871	28245.01
796.203	27987.61
796.535	27853.6
796.867	27791.23
797.198	27666.04
797.53	27757.79
797.862	27592.14
798.193	27609.32
798.525	27266.95
798.856	27231.93
799.188	26920.97
799.519	26848.88
799.85	26832.39
800.182	26804.59
800.513	26871.26
800.844	26619.29
801.175	26579.51
801.506	26471.27
801.837	26339.29
802.168	26365.06
802.499	26177.49
802.83	26073.09
803.161	26034.44
803.491	26069.02
803.822	26147.21
804.153	25900.21
804.483	25690.27
804.814	25609.59
805.145	25531.18
805.475	25475.59
805.805	25365.08
806.136	25486.21
806.466	25399.88
806.796	25332.54
807.126	25121.47
807.457	25001.93
807.787	25142.04
808.117	24868.6
808.447	24913.57
808.777	24907.24
809.107	24768.71
809.436	24667.47
809.766	24617.53
810.096	24584.54
810.426	24460.47
810.755	24490.08
811.085	24347.71
811.414	24376.18
811.744	24059.35
812.073	24069.97
812.403	24051.44
812.732	24000.6
813.061	23992.46
813.39	23761.73
813.719	23646.03
814.049	23823.88
814.378	23575.75
814.707	23500.95
815.036	23488.75
815.365	23355.87
815.693	23189.55
816.022	23313.38
816.351	23172.14
816.68	22922.89
817.008	23158.13
817.337	22956.33
817.665	22877.46
817.994	22935.32
818.322	22902.32
818.651	22656.68
818.979	22724.25
819.307	22812.15
819.636	22617.36
819.964	22425.95
820.292	22575.32
820.62	22500.98
820.948	22498.94
821.276	22406.06
821.604	22382.79
821.932	22473.41
822.259	22455.55
822.587	22380.98
822.915	22338.27
823.243	22469.79
823.57	22207.88
823.898	22270.93
824.225	22300.53
824.553	22241.77
824.88	22243.58
825.207	22296.24
825.535	22160.87
825.862	22372.84
826.189	22248.78
826.516	22330.36
826.843	22364.03
827.17	22335.56
827.497	22345.05
827.824	22447.87
828.151	22391.37
828.478	22297.82
828.805	22364.71
829.131	22268.44
829.458	22153.19
829.785	22036.36
830.111	22093.76
830.438	22225.05
830.764	22132.62
831.09	22201.32
831.417	22011.72
831.743	22180.98
832.069	22120.65
832.395	22069.12
832.722	22070.25
833.048	22094.66
833.374	22100.53
833.7	21927.88
834.026	21873.42
834.351	21908.9
834.677	21890.14
835.003	21882.91
835.329	21948
835.654	21952.97
835.98	21841.56
836.306	21958.17
836.631	21822.58
836.956	21740.09
837.282	21854.44
837.607	21811.73
837.932	21699.64
838.258	21771.05
838.583	21752.97
838.908	21672.07
839.233	21619.87
839.558	21554.56
839.883	21509.36
840.208	21409.71
840.533	21380.78
840.858	21314.57
841.182	21541.23
841.507	21453.77
841.832	21314.79
842.156	21297.39
842.481	21196.38
842.805	21132.42
843.13	21061.69
843.454	21130.39
843.778	21041.81
844.103	20944.63
844.427	20898.98
844.751	21000
845.075	20985.31
845.399	20858.76
845.723	20645.21
846.047	20706.67
846.371	20533.34
846.695	20497.41
847.019	20356.85
847.343	20258.78
847.666	20111.21
847.99	20153.92
848.313	20071.21
848.637	19895.17
848.96	19935.85
849.284	19870.76
849.607	19681.84
849.931	19612.24
850.254	19548.96
850.577	19496.76
850.9	19431
851.223	19456.08
851.546	19349.42
851.869	19248.41
852.192	19311.46
852.515	18942.65
852.838	18891.13
853.161	19086.6
853.483	19006.83
853.806	18796.67
854.129	18828.3
854.451	18678.93
854.774	18671.7
855.096	18575.2
855.419	18588.31
855.741	18486.17
856.063	18384.25
856.385	18364.36
856.708	18341.09
857.03	18315.32
857.352	18356.45
857.674	18157.81
857.996	18164.82
858.318	17986.52
858.64	17998.04
858.961	17956.01
859.283	17918.95
859.605	17848.9
859.926	17917.82
860.248	17865.84
860.57	17773.87
860.891	17697.94
861.212	17553.99
861.534	17632.63
861.855	17650.71
862.176	17657.26
862.498	17537.26
862.819	17589.69
863.14	17529.58
863.461	17526.42
863.782	17447.1
864.103	17439.19
864.424	17308.57
864.745	17361.9
865.065	17186.31
865.386	17182.02
865.707	17127.33
866.027	17200.32
866.348	17093.89
866.668	17155.13
866.989	17091.63
867.309	17117.84
867.63	16977.51
867.95	17039.65
868.27	16930.05
868.59	16910.84
868.91	16899.09
869.23	17015.7
869.55	16918.3
869.87	17055.7
870.19	16835.36
870.51	16855.47
870.83	16873.33
871.15	16776.38
871.469	16780.9
871.789	16855.25
872.109	16781.13
872.428	16740.68
872.748	16735.7
873.067	16728.02
873.386	16655.71
873.706	16589.49
874.025	16542.04
874.344	16559.89
874.663	16536.39
874.982	16517.4
875.301	16468.37
875.62	16490.06
875.939	16382.72
876.258	16401.02
876.577	16440.8
876.896	16349.95
877.214	16320.35
877.533	16341.59
877.852	16255.04
878.17	16257.75
878.489	16211.42
878.807	16124.65
879.125	16119
879.444	16238.54
879.762	16147.02
880.08	16260.46
880.398	16064.99
880.716	16109.05
881.034	16135.27
881.352	16185.21
881.67	16077.87
881.988	16044.87
882.306	15989.73
882.624	15928.27
882.941	15819.12
883.259	15787.93
883.577	15819.57
883.894	15791.77
884.212	15815.73
884.529	15713.58
884.846	15767.59
885.164	15675.62
885.481	15662.74
885.798	15710.42
886.115	15571.89
886.432	15582.29
886.75	15551.78
887.067	15456.64
887.383	15454.38
887.7	15497.77
888.017	15475.62
888.334	15426.81
888.651	15438.56
888.967	15294.84
889.284	15258.45
889.6	15206.25
889.917	15182.98
890.233	15052.36
890.55	15080.38
890.866	15075.86
891.182	14933.04
891.498	14919.03
891.815	14886.04
892.131	14934.17
892.447	14799.26
892.763	14733.72
893.079	14850.78
893.395	14748.86
893.71	14650.34
894.026	14671.13
894.342	14697.34
894.657	14649.66
894.973	14540.96
895.289	14530.56
895.604	14417.12
895.92	14375.54
896.235	14360.85
896.55	14286.95
896.865	14303.45
897.181	14338.03
897.496	14374.86
897.811	14239.95
898.126	14137.35
898.441	13990.01
898.756	13964.7
899.071	13875.44
899.386	13993.18
899.7	13708.89
900.015	13821.2
900.33	13748.44
900.644	13663.92
900.959	13681.1
901.273	13651.04
901.588	13548.67
901.902	13518.61
902.216	13529.46
902.531	13399.97
902.845	13465.28
903.159	13386.41
903.473	13213.08
903.787	13249.92
904.101	13211.05
904.415	13079.53
904.729	13078.17
905.042	13022.81
905.356	13050.6
905.67	13026.42
905.984	13062.81
906.297	12972.64
906.611	12849.7
906.924	12864.62
907.237	12806.99
907.551	12698.52
907.864	12657.17
908.177	12685.87
908.491	12536.04
908.804	12504.18
909.117	12390.51
909.43	12281.58
909.743	12354.8
910.056	12351.41
910.368	12213.56
910.681	12242.49
910.994	12151.42
911.307	12040.46
911.619	11972.89
911.932	11983.96
912.244	11919.56
912.557	11965.43
912.869	11884.08
913.181	11855.15
913.494	11811.09
913.806	11696.51
914.118	11663.97
914.43	11550.98
914.742	11616.29
915.054	11544.88
915.366	11491.77
915.678	11503.53
915.99	11418.1
916.302	11397.09
916.613	11332.68
916.925	11361.16
917.236	11248.62
917.548	11301.5
917.859	11207.04
918.171	11072.12
918.482	10999.13
918.794	10986.48
919.105	10923.65
919.416	10877.55
919.727	10836.65
920.038	10831.45
920.349	10734.28
920.66	10664.45
920.971	10743.55
921.282	10614.96
921.593	10543.55
921.903	10561.18
922.214	10538.35
922.525	10506.04
922.835	10505.59
923.146	10472.59
923.456	10436.66
923.767	10373.39
924.077	10346.49
924.387	10248.19
924.697	10223.78
925.008	10225.37
925.318	10076.9
925.628	10099.95
925.938	10003
926.248	9924.13
926.558	9911.7
926.867	9825.15
927.177	9822.44
927.487	9789.45
927.796	9733.18
928.106	9749.22
928.416	9691.14
928.725	9682.56
929.034	9586.74
929.344	9589.68
929.653	9473.52
929.962	9378.38
930.271	9413.64
930.581	9366.18
930.89	9334.32
931.199	9295.9
931.508	9229.91
931.817	9274.21
932.125	9244.83
932.434	9163.93
932.743	9133.64
933.051	9080.31
933.36	9066.98
933.669	8955.34
933.977	8925.74
934.286	8913.31
934.594	8861.79
934.902	8780.66
935.21	8745.63
935.519	8829.02
935.827	8712.64
936.135	8672.41
936.443	8572.98
936.751	8599.87
937.059	8550.83
937.367	8468.12
937.674	8497.5
937.982	8488.46
938.29	8459.99
938.597	8480.1
938.905	8341.35
939.213	8323.27
939.52	8261.8
939.827	8320.56
940.135	8227.68
940.442	8124.18
940.749	8137.96
941.056	8143.39
941.363	8008.25
941.67	8053.45
941.977	7943.17
942.284	7873.34
942.591	7915.37
942.898	7845.09
943.205	7886.45
943.511	7838.99
943.818	7799.89
944.125	7754.7
944.431	7704.76
944.738	7773.68
945.044	7689.61
945.35	7574.14
945.657	7558.77
945.963	7469.73
946.269	7519.22
946.575	7521.48
946.881	7486.91
947.187	7474.7
947.493	7371.43
947.799	7375.27
948.105	7274.03
948.41	7267.93
948.716	7295.5
949.022	7205.79
949.327	7206.69
949.633	7119.69
949.938	7075.39
950.244	7152.68
950.549	7014.38
950.854	7016.86
951.16	6994.49
951.465	6896.87
951.77	6923.08
952.075	6875.62
952.38	6842.86
952.685	6805.8
952.99	6768.73
953.294	6786.36
953.599	6750.88
953.904	6724.44
954.209	6659.58
954.513	6702.97
954.818	6634.27
955.122	6632.01
955.426	6552.69
955.731	6580.94
956.035	6447.84
956.339	6448.97
956.643	6487.61
956.948	6425.24
957.252	6375.75
957.556	6375.07
957.86	6305.24
958.163	6267.73
958.467	6252.59
958.771	6225.25
959.075	6244.91
959.378	6202.42
959.682	6208.3
959.985	6114.06
960.289	6113.84
960.592	6043.1
960.896	6049.21
961.199	5986.61
961.502	5994.97
961.805	5954.52
962.108	5955.2
962.411	5983.44
962.714	5945.71
963.017	5858.48
963.32	5845.82
963.623	5805.82
963.926	5827.06
964.228	5762.89
964.531	5766.73
964.833	5768.76
965.136	5678.37
965.438	5632.72
965.741	5636.11
966.043	5585.26
966.345	5530.8
966.648	5551.14
966.95	5546.85
967.252	5544.81
967.554	5495.1
967.856	5503.68
968.158	5401.99
968.46	5453.06
968.761	5348.66
969.063	5321.54
969.365	5293.97
969.666	5369.68
969.968	5348.66
970.269	5258.72
970.571	5290.36
970.872	5253.75
971.174	5195.89
971.475	5182.11
971.776	5179.4
972.077	5147.08
972.378	5089.68
972.679	5084.03
972.98	5090.59
973.281	5067.76
973.582	5015.33
973.883	5015.33
974.183	5016.24
974.484	4968.1
974.785	4919.97
975.085	4935.34
975.386	4852.63
975.686	4896.02
975.986	4904.6
976.287	4840.2
976.587	4778.05
976.887	4740.99
977.187	4773.31
977.487	4753.19
977.787	4677.26
978.087	4700.54
978.387	4676.59
978.687	4656.02
978.987	4580.32
979.286	4633.88
979.586	4612.18
979.885	4573.54
980.185	4530.83
980.484	4550.94
980.784	4498.29
981.083	4488.57
981.382	4486.08
981.682	4469.81
981.981	4409.93
982.28	4415.12
982.579	4369.48
982.878	4430.72
983.177	4344.17
983.475	4356.82
983.774	4315.24
984.073	4321.12
984.372	4251.96
984.67	4262.81
984.969	4197.5
985.267	4184.17
985.566	4155.7
985.864	4117.96
986.162	4157.05
986.461	4096.49
986.759	4088.8
987.057	4047
987.355	4033.89
987.653	4023.04
987.951	4047.45
988.249	4032.31
988.547	4009.26
988.844	3968.13
989.142	3953.22
989.44	3887.68
989.737	3870.05
990.035	3818.08
990.332	3890.62
990.63	3820.34
990.927	3797.74
991.224	3799.55
991.521	3836.83
991.819	3802.26
992.116	3791.41
992.413	3697.85
992.71	3702.37
993.006	3687.01
993.303	3705.76
993.6	3676.84
993.897	3661.47
994.193	3612.66
994.49	3643.17
994.787	3590.06
995.083	3534.47
995.379	3557.52
995.676	3556.39
995.972	3550.51
996.268	3488.59
996.565	3455.15
996.861	3441.82
997.157	3451.99
997.453	3405.43
997.749	3436.84
998.044	3374.93
998.34	3374.7
998.636	3382.38
998.932	3353.23
999.227	3322.72
999.523	3269.84
999.818	3272.78
1000.114	3275.04
1000.409	3228.94
1000.704	3201.6
1001	3224.42
1001.295	3132.45
1001.59	3195.27
1001.885	3180.13
1002.18	3136.74
1002.475	3100.13
1002.77	3073.01
1003.065	3058.32
1003.359	3053.13
1003.654	3021.26
1003.949	3031.21
1004.243	3046.57
1004.538	2979.46
1004.832	2937.2
1005.127	2952.34
1005.421	2939
1005.715	2903.75
1006.009	2910.53
1006.304	2903.3
1006.598	2864.66
1006.892	2839.35
1007.186	2805.45
1007.48	2819.23
1007.773	2825.34
1008.067	2800.25
1008.361	2732.46
1008.655	2728.61
1008.948	2723.19
1009.242	2737.43
1009.535	2686.13
1009.829	2667.83
1010.122	2642.29
1010.415	2615.85
1010.708	2624.66
1011.001	2595.28
1011.295	2569.75
1011.588	2577.21
1011.881	2559.13
1012.173	2543.99
1012.466	2528.39
1012.759	2520.94
1013.052	2522.07
1013.344	2500.37
1013.637	2486.36
1013.93	2467.83
1014.222	2453.14
1014.514	2433.93
1014.807	2412.01
1015.099	2426.93
1015.391	2375.63
1015.683	2375.86
1015.976	2355.07
1016.268	2309.64
1016.56	2307.38
1016.851	2295.18
1017.143	2304.67
1017.435	2309.87
1017.727	2246.59
1018.018	2218.12
1018.31	2213.6
1018.602	2235.75
1018.893	2176.09
1019.185	2169.99
1019.476	2163.21
1019.767	2146.26
1020.058	2160.95
1020.35	2085.69
1020.641	2090.89
1020.932	2079.37
1021.223	2052.47
1021.514	2063.55
1021.804	2028.29
1022.095	1977.22
1022.386	1986.71
1022.677	1986.71
1022.967	1993.72
1023.258	1946.26
1023.548	1935.64
1023.839	1934.96
1024.129	1904.23
1024.419	1901.52
1024.709	1885.02
1025	1875.53
1025.29	1834.4
1025.58	1838.69
1025.87	1806.61
1026.16	1804.12
1026.449	1798.7
1026.739	1796.21
1027.029	1762.31
1027.319	1749.21
1027.608	1769.54
1027.898	1720.73
1028.187	1697.46
1028.477	1730.67
1028.766	1707.4
1029.055	1701.52
1029.344	1679.6
1029.634	1689.09
1029.923	1650.9
1030.212	1629.21
1030.501	1631.47
1030.79	1632.6
1031.078	1597.8
1031.367	1557.12
1031.656	1602.77
1031.945	1579.27
1032.233	1555.76
1032.522	1563.22
1032.81	1529.1
1033.099	1484.58
1033.387	1544.92
1033.675	1490.68
1033.963	1498.59
1034.251	1452.94
1034.54	1464.02
1034.828	1472.38
1035.116	1460.85
1035.403	1414.98
1035.691	1414.52
1035.979	1422.89
1036.267	1402.32
1036.554	1384.02
1036.842	1374.07
1037.129	1367.29
1037.417	1382.66
1037.704	1303.12
1037.992	1340.4
1038.279	1324.58
1038.566	1306.05
1038.853	1306.05
1039.14	1306.05
