Data from foil_FLMS001491_049.txt Node
Date: Tue Feb 07 11:26:58 GMT 2017
User: dcchb
Spectrometer: FLMS00149
Trigger mode: 0
Integration Time (sec): 2.000000E-2
Scans to average: 10
Electric dark correction enabled: true
Nonlinearity correction enabled: false
Boxcar width: 0
XAxis mode: Wavelengths
Number of Pixels in Spectrum: 2048
>>>>>Begin Spectral Data<<<<<
341.393	-7.17
341.776	-7.17
342.16	-7.17
342.543	-75.87
342.927	-72.26
343.31	-77
343.693	-60.05
344.077	-65.7
344.46	-69.77
344.843	-35.42
345.226	-41.52
345.61	-26.38
345.993	-27.97
346.376	-3.79
346.759	10.45
347.142	9.77
347.525	33.95
347.908	62.65
348.291	85.93
348.674	102.88
349.057	101.97
349.44	127.06
349.823	122.77
350.206	171.13
350.588	231.01
350.971	269.2
351.354	302.42
351.737	278.24
352.119	308.52
352.502	312.36
352.884	332.03
353.267	362.98
353.65	364.79
354.032	365.02
354.414	390.55
354.797	391.46
355.179	382.87
355.562	376.54
355.944	409.09
356.326	416.32
356.709	417.67
357.091	407.73
357.473	418.8
357.855	411.12
358.238	412.93
358.62	412.93
359.002	428.29
359.384	407.05
359.766	419.93
360.148	429.42
360.53	415.19
360.912	399.82
361.294	419.71
361.676	406.37
362.057	431.01
362.439	413.83
362.821	404.79
363.203	429.65
363.584	434.4
363.966	428.75
364.348	421.97
364.729	421.51
365.111	421.97
365.493	424.23
365.874	407.28
366.256	420.84
366.637	451.12
367.019	420.16
367.4	426.03
367.781	441.85
368.163	418.12
368.544	412.7
368.925	425.13
369.306	437.56
369.688	442.53
370.069	445.24
370.45	453.6
370.831	438.69
371.212	442.53
371.593	438.24
371.974	453.83
372.355	459.48
372.736	472.59
373.117	464.23
373.498	444.56
373.879	451.34
374.26	464.23
374.641	456.54
375.021	461.97
375.402	472.81
375.783	492.25
376.163	506.26
376.544	508.97
376.925	517.56
377.305	507.39
377.686	488.86
378.066	521.85
378.447	514.85
378.827	521.62
379.208	510.78
379.588	549.42
379.968	514.17
380.349	515.3
380.729	541.06
381.109	548.97
381.489	550.78
381.87	549.87
382.25	572.92
382.63	559.82
383.01	566.37
383.39	576.31
383.77	581.51
384.15	587.84
384.53	607.27
384.91	588.29
385.29	615.41
385.67	615.18
386.049	621.51
386.429	627.84
386.809	624.22
387.189	632.81
387.568	639.14
387.948	651.34
388.328	663.09
388.707	662.41
389.087	656.31
389.466	677.78
389.846	687.5
390.225	714.16
390.605	714.39
390.984	684.56
391.363	693.37
391.743	718.68
392.122	729.3
392.501	751.22
392.881	737.66
393.26	764.1
393.639	746.03
394.018	756.65
394.397	782.86
394.776	797.78
395.155	781.28
395.534	769.08
395.913	775.4
396.292	803.43
396.671	802.97
397.05	821.28
397.429	832.35
397.808	820.83
398.186	840.26
398.565	865.34
398.944	866.25
399.323	886.81
399.701	884.33
400.08	879.58
400.458	894.27
400.837	906.47
401.215	904.67
401.594	910.54
401.972	938.79
402.351	948.51
402.729	947.83
403.107	971.33
403.486	981.73
403.864	982.18
404.242	980.37
404.62	1021.72
404.999	999.58
405.377	1020.59
405.755	1029.86
406.133	1049.52
406.511	1048.39
406.889	1112.57
407.267	1092.01
407.645	1108.05
408.023	1099.46
408.401	1138.11
408.779	1160.7
409.156	1176.75
409.534	1185.56
409.912	1194.83
410.29	1211.78
410.667	1212.45
411.045	1240.7
411.422	1292
411.8	1259.23
412.178	1295.16
412.555	1315.05
412.933	1300.36
413.31	1335.61
413.687	1357.53
414.065	1360.7
414.442	1375.84
414.819	1443.18
415.197	1412.67
415.574	1437.53
415.951	1471.43
416.328	1476.85
416.705	1470.53
417.082	1455.84
417.46	1503.07
417.837	1534.25
418.214	1538.55
418.591	1546.23
418.967	1550.75
419.344	1564.76
419.721	1573.8
420.098	1623.97
420.475	1614.93
420.852	1625.1
421.228	1629.62
421.605	1669.62
421.982	1702.84
422.358	1690.86
422.735	1725.43
423.111	1688.6
423.488	1765.66
423.864	1782.16
424.241	1799.33
424.617	1824.87
424.994	1824.87
425.37	1834.58
425.746	1872.32
426.123	1899.44
426.499	1931.08
426.875	1911.42
427.251	1992.77
427.627	1986.22
428.003	2007.01
428.379	2019.66
428.756	2029.16
429.132	2080
429.507	2086.33
429.883	2148.93
430.259	2173.33
430.635	2205.2
431.011	2213.78
431.387	2263.95
431.763	2309.15
432.138	2334.91
432.514	2323.84
432.89	2372.65
433.265	2442.48
433.641	2454.46
434.016	2462.14
434.392	2522.25
434.767	2586.2
435.143	2529.71
435.518	2564.51
435.894	2617.61
436.269	2638.63
436.644	2639.99
437.02	2719.31
437.395	2734.9
437.77	2738.52
438.145	2819.19
438.52	2814.9
438.895	2849.02
439.271	2843.37
439.646	2941.45
440.021	2940.32
440.395	2909.13
440.77	2929.7
441.145	3008.79
441.52	3040.65
441.895	3030.71
442.27	3058.73
442.645	3084.27
443.019	3124.04
443.394	3095.57
443.769	3165.62
444.143	3151.61
444.518	3205.17
444.892	3210.59
445.267	3241.33
445.641	3284.26
446.016	3257.15
446.39	3326.75
446.764	3343.47
447.139	3367.65
447.513	3397.03
447.887	3412.62
448.262	3447.88
448.636	3482
449.01	3507.99
449.384	3521.77
449.758	3578.95
450.132	3600.41
450.506	3572.84
450.88	3691.71
451.254	3645.61
451.628	3694.42
452.002	3738.94
452.376	3783.69
452.75	3833.18
453.123	3853.06
453.497	3900.07
453.871	3887.19
454.244	3972.61
454.618	4026.39
454.992	4049.44
455.365	4100.74
455.739	4205.6
456.112	4222.09
456.486	4242.66
456.859	4281.75
457.232	4391.13
457.606	4369.66
457.979	4436.55
458.352	4528.75
458.725	4561.07
459.099	4565.81
459.472	4637
459.845	4719.71
460.218	4720.38
460.591	4817.56
460.964	4746.82
461.337	4930.1
461.71	5010.09
462.083	5032.69
462.456	5086.48
462.829	5105.46
463.201	5197.89
463.574	5224.33
463.947	5292.57
464.32	5388.16
464.692	5441.5
465.065	5502.74
465.438	5556.75
465.81	5626.8
466.183	5683.07
466.555	5746.8
466.928	5843.97
467.3	5855.04
467.672	5895.04
468.045	6053.91
468.417	6021.37
468.789	6121.93
469.161	6236.05
469.534	6293
469.906	6431.3
470.278	6469.04
470.65	6490.06
471.022	6678.98
471.394	6777.73
471.766	6866.99
472.138	6918.97
472.51	7054.11
472.882	7123.49
473.253	7312.18
473.625	7348.79
473.997	7505.62
474.369	7545.39
474.74	7653.19
475.112	7791.49
475.484	7869.23
475.855	8028.55
476.227	8093.85
476.598	8382.43
476.97	8430.8
477.341	8578.14
477.713	8710.11
478.084	8742.88
478.455	9036.2
478.827	9057.22
479.198	9375.4
479.569	9355.06
479.94	9543.99
480.311	9687.26
480.682	9867.37
481.053	10118.21
481.424	10253.12
481.795	10351.2
482.166	10491.08
482.537	10664.41
482.908	10900.56
483.279	10996.83
483.65	11199.31
484.021	11393.2
484.391	11529.47
484.762	11704.61
485.133	11679.98
485.503	12035.9
485.874	12229.57
486.244	12336
486.615	12574.64
486.985	12691.47
487.356	12862.09
487.726	12985.48
488.097	13254.62
488.467	13317.45
488.837	13507.5
489.207	13794.5
489.578	13886.02
489.948	14084.66
490.318	14283.3
490.688	14430.19
491.058	14504.08
491.428	14776.39
491.798	14831.3
492.168	15245.98
492.538	15268.81
492.908	15338.18
493.278	15595.13
493.648	15606.43
494.017	15888
494.387	16023.59
494.757	16161.21
495.126	16271.04
495.496	16393.52
495.866	16503.35
496.235	16639.84
496.605	16844.36
496.974	17057.01
497.344	17141.75
497.713	17282.54
498.082	17330.9
498.452	17561.63
498.821	17619.25
499.19	17643.21
499.559	17818.57
499.928	18014.05
500.298	18141.95
500.667	18330.87
501.036	18294.72
501.405	18564.54
501.774	18544.43
502.143	18694.71
502.512	18761.82
502.88	18936.51
503.249	19119.55
503.618	19190.96
503.987	19313.22
504.356	19455.59
504.724	19567.45
505.093	19714.11
505.462	19726.54
505.83	19971.96
506.199	20119.08
506.567	20441.33
506.936	20225.74
507.304	20505.96
507.672	20668.89
508.041	20768.32
508.409	20940.52
508.777	21050.35
509.145	21224.58
509.514	21302.32
509.882	21442.2
510.25	21634.06
510.618	21752.25
510.986	21884.68
511.354	22119.47
511.722	22286.02
512.09	22444.66
512.458	22510.65
512.826	22745
513.193	22817.31
513.561	22930.98
513.929	23132.33
514.297	23277.41
514.664	23601.7
515.032	23534.8
515.4	23875.81
515.767	23925.76
516.135	24069.48
516.502	23994
516.869	24431.73
517.237	24644.83
517.604	24520.09
517.972	24894.09
518.339	25002.56
518.706	25172.28
519.073	25417.47
519.44	25366.85
519.808	25828.3
520.175	25750.57
520.542	26107.84
520.909	26235.75
521.276	26338.35
521.643	26651.79
522.009	26772.91
522.376	26910.31
522.743	27152.56
523.11	27456.96
523.477	27633.91
523.843	27930.4
524.21	28240.9
524.577	28328.8
524.943	28526.76
525.31	28586.65
525.676	28864.16
526.043	29043.59
526.409	29374.2
526.776	29605.38
527.142	29719.28
527.508	29791.14
527.874	30128.53
528.241	30248.07
528.607	30411.01
528.973	30654.62
529.339	30740.04
529.705	31079.01
530.071	31246.69
530.437	31334.83
530.803	31607.59
531.169	31883.96
531.535	31853
531.901	32050.06
532.267	32207.57
532.632	32426.32
532.998	32621.57
533.364	32789.02
533.73	32895.91
534.095	33073.54
534.461	33190.6
534.826	33417.26
535.192	33545.16
535.557	33852.27
535.923	33823.8
536.288	33965.94
536.653	34111.25
537.019	34159.84
537.384	34359.38
537.749	34474.4
538.114	34522.76
538.479	34642.99
538.845	34927.95
539.21	34896.09
539.575	35031.45
539.94	35080.94
540.305	35483.19
540.67	35381.27
541.034	35479.35
541.399	35824.65
541.764	35821.71
542.129	36003.86
542.494	36124.76
542.858	36251.31
543.223	36364.75
543.587	36559.77
543.952	36570.39
544.316	36733.33
544.681	36678.64
545.045	37054
545.41	37182.81
545.774	37261
546.138	37252.18
546.503	37369.92
546.867	37573.31
547.231	37816.69
547.595	37900.98
547.959	37967.42
548.324	38117.25
548.688	38306.62
549.052	38553.17
549.416	38662.09
549.779	38733.05
550.143	38747.06
550.507	38997.22
550.871	39158.8
551.235	39240.15
551.599	39474.72
551.962	39596.08
552.326	39531.22
552.689	39999.23
553.053	39811.67
553.417	40021.15
553.78	40534.13
554.143	40404.42
554.507	40486
554.87	40688.03
555.234	41030.16
555.597	40921.24
555.96	41110.61
556.323	41419.31
556.686	41481.45
557.05	41709.92
557.413	41843.02
557.776	42036.92
558.139	42284.82
558.502	42325.27
558.865	42441.65
559.228	42686.17
559.59	42944.01
559.953	42942.66
560.316	43445.02
560.679	43455.19
561.041	43754.61
561.404	43954.38
561.767	44146.24
562.129	44119.57
562.492	44462.16
562.854	44500.58
563.217	44577.42
563.579	44809.5
563.941	45077.97
564.304	45401.12
564.666	45513.44
565.028	45645.64
565.39	45704.62
565.753	46035.68
566.115	46089.01
566.477	46300.99
566.839	46567.87
567.201	46644.48
567.563	46833.85
567.925	47161.75
568.287	47041.31
568.648	47157.46
569.01	47375.53
569.372	47670.89
569.734	47529.88
570.095	47930.55
570.457	48070.66
570.819	48212.8
571.18	48275.17
571.542	48317.43
571.903	48453.92
572.265	48712.45
572.626	48688.95
572.987	48916.51
573.349	48876.06
573.71	49108.82
574.071	49114.92
574.432	49318.53
574.794	49434.24
575.155	49545.19
575.516	49547.45
575.877	49685.3
576.238	49695.7
576.599	50009.81
576.96	49912.19
577.32	49914.45
577.681	50083.03
578.042	50168.45
578.403	50164.61
578.763	50110.15
579.124	50343.59
579.485	50443.7
579.845	50525.28
580.206	50481.89
580.566	50520.08
580.927	50494.1
581.287	50669.68
581.648	50642.11
582.008	50683.24
582.368	50626.3
582.728	50763.24
583.089	50623.58
583.449	50605.73
583.809	50668.55
584.169	50908.32
584.529	50742.45
584.889	51033.97
585.249	50798.49
585.609	50725.28
585.969	51074.65
586.329	50846.63
586.688	50806.63
587.048	50801.88
587.408	50810.47
587.768	50838.95
588.127	50801.21
588.487	50815.22
588.846	51087.3
589.206	50853.41
589.565	50864.03
589.925	50937.93
590.284	50950.36
590.643	50980.18
591.003	51022.67
591.362	51041.88
591.721	51001.65
592.08	50983.35
592.44	51182.89
592.799	51203.23
593.158	51059.28
593.517	50993.29
593.876	51151.03
594.235	50971.37
594.593	51159.16
594.952	51241.2
595.311	50974.31
595.67	51092.95
596.029	51260.18
596.387	51306.73
596.746	51393.96
597.104	51188.77
597.463	51195.32
597.822	51336.56
598.18	51216.79
598.538	51211.14
598.897	51477.57
599.255	51230.8
599.613	51633.5
599.972	51462.43
600.33	51498.14
600.688	51270.8
601.046	51481.41
601.404	51554.41
601.762	51464.47
602.12	51593.28
602.478	51661.3
602.836	51569.32
603.194	51497.01
603.552	51582.43
603.91	51519.83
604.268	51776.77
604.625	51643.67
604.983	51753.05
605.341	51693.16
605.698	51752.59
606.056	51878.24
606.413	51756.21
606.771	51800.05
607.128	51924.34
607.485	51887.05
607.843	51831.01
608.2	52009.99
608.557	52146.03
608.914	51996.2
609.272	52103.55
609.629	52199.36
609.986	52327.27
610.343	52151.45
610.7	52428.73
611.057	52256.08
611.414	52260.38
611.771	52299.7
612.127	52448.62
612.484	52410.43
612.841	52509.18
613.198	52343.31
613.554	52468.96
613.911	52655.62
614.267	52586.7
614.624	52558.9
614.98	52627.15
615.337	52919.34
615.693	52756.18
616.05	52610.2
616.406	52813.36
616.762	52711.89
617.118	52723.87
617.475	52837.31
617.831	52946.91
618.187	52816.97
618.543	52814.94
618.899	53054.93
619.255	52967.48
619.611	52857.42
619.967	53032.11
620.323	53103.97
620.678	52917.99
621.034	52924.09
621.39	52881.38
621.746	52853.58
622.101	53162.5
622.457	53012.67
622.812	53035.72
623.168	53052.9
623.523	53029.17
623.879	53069.4
624.234	52896.29
624.589	53051.09
624.945	52947.82
625.3	53042.5
625.655	52991.88
626.01	52976.97
626.365	53096.97
626.72	53053.8
627.075	52979.23
627.43	52993.24
627.785	52938.78
628.14	52941.26
628.495	52995.05
628.85	52938.55
629.205	52773.81
629.559	52966.35
629.914	52804.09
630.269	52789.18
630.623	52729.74
630.978	52626.02
631.332	52708.28
631.687	52777.43
632.041	52631.89
632.396	52712.79
632.75	52560.26
633.104	52610.65
633.459	52477.09
633.813	52513.48
634.167	52449.3
634.521	52386.25
634.875	52534.49
635.229	52372.92
635.583	52237.78
635.937	52250.66
636.291	52181.06
636.645	52264.44
636.999	52020.84
637.352	52200.27
637.706	51985.58
638.06	52124.11
638.413	51921.4
638.767	51853.83
639.121	51944.68
639.474	51749.2
639.828	51857.9
640.181	51801.86
640.534	51882.08
640.888	51735.87
641.241	51517.35
641.594	51577.01
641.947	51648.64
642.301	51545.59
642.654	51503.79
643.007	51475.54
643.36	51464.92
643.713	51504.01
644.066	51639.83
644.419	51261.76
644.771	50803.24
645.124	50366.19
645.477	50260.2
645.83	50177.27
646.182	50236.7
646.535	50212.52
646.888	50417.04
647.24	50230.37
647.593	50599.63
647.945	50413.42
648.298	50252.97
648.65	50137.27
649.002	49949.48
649.355	50024.28
649.707	49873.32
650.059	49873.1
650.411	50210.94
650.763	50413.87
651.115	50652.74
651.467	50687.09
651.819	50567.31
652.171	50480.54
652.523	50489.58
652.875	50385.85
653.227	50279.19
653.578	50443.25
653.93	50392.4
654.282	50235.12
654.633	50148.79
654.985	50190.15
655.337	50201.22
655.688	50157.61
656.039	50231.73
656.391	49916.71
656.742	49916.94
657.094	49951.06
657.445	50032.87
657.796	49937.5
658.147	49851.18
658.498	49866.99
658.849	49853.43
659.2	49889.37
659.551	49838.29
659.902	49671.29
660.253	49787
660.604	49679.65
660.955	49558.53
661.306	49727.11
661.656	49613.22
662.007	49606.44
662.358	49686.89
662.708	49679.2
663.059	49683.95
663.409	49325.31
663.76	49719.2
664.11	49586.1
664.461	49656.15
664.811	49521.24
665.161	49552.88
665.511	49382.71
665.862	49442.6
666.212	49465.65
666.562	49492.77
666.912	49328.48
667.262	49296.39
667.612	49357.18
667.962	49310.85
668.312	49361.7
668.662	49424.75
669.011	49182.04
669.361	49095.04
669.711	49092.32
670.06	49043.51
670.41	48982.95
670.76	48901.82
671.109	49090.07
671.459	48975.94
671.808	48854.37
672.157	48940.01
672.507	48648.04
672.856	48726.01
673.205	48700.92
673.554	48954.93
673.904	48717.65
674.253	49007.58
674.602	48669.51
674.951	48229.75
675.3	47895.97
675.649	48611.89
675.998	48657.31
676.346	48611.66
676.695	48615.05
677.044	48270.2
677.393	48563.3
677.741	48568.72
678.09	48403.53
678.438	48301.16
678.787	48345.23
679.135	48480.14
679.484	48132.35
679.832	48142.29
680.181	47972.58
680.529	48137.32
680.877	47967.83
681.225	47897.78
681.573	48023.65
681.922	47927.38
682.27	47672.02
682.618	47719.03
682.966	47700.05
683.314	47728.07
683.661	47582.31
684.009	47356.55
684.357	47314.29
684.705	47321.3
685.053	47268.64
685.4	47147.29
685.748	46918.82
686.095	47007.86
686.443	46789.33
686.79	46698.49
687.138	46692.61
687.485	46795.44
687.832	46545.5
688.18	46673.86
688.527	46321.32
688.874	46289.46
689.221	46155.23
689.568	46089.24
689.915	45967.66
690.262	45935.35
690.609	45940.77
690.956	45684.5
691.303	45737.16
691.65	45631.63
691.997	45566.32
692.344	45287.45
692.69	45191.64
693.037	45260.79
693.383	44914.58
693.73	45133.56
694.077	44779.67
694.423	44732.44
694.769	44652.44
695.116	44583.29
695.462	44510.07
695.808	44329.74
696.155	44340.81
696.501	44020.59
696.847	44134.04
697.193	43757.1
697.539	43865.34
697.885	43772.46
698.231	43503.55
698.577	43472.36
698.923	43437.56
699.269	43228.98
699.614	43122.99
699.96	42928.42
700.306	43029.43
700.651	42800.06
700.997	42673.06
701.342	42604.59
701.688	42577.02
702.033	42389.22
702.379	42434.65
702.724	42282.33
703.069	42358.94
703.415	41873.53
703.76	41817.71
704.105	41715.8
704.45	41675.12
704.795	41536.14
705.14	41382.02
705.485	41325.3
705.83	41253.89
706.175	41234.23
706.52	41175.25
706.865	41047.56
707.209	40923.5
707.554	40706.78
707.899	40772.32
708.243	40471.76
708.588	40560.12
708.932	40296.62
709.277	40207.81
709.621	40142.96
709.966	39906.13
710.31	40353.12
710.654	39701.84
710.998	39820.48
711.342	39751.1
711.687	39550.43
712.031	39522.41
712.375	39353.37
712.719	39528.96
713.063	39398.12
713.407	39250.55
713.75	39168.07
714.094	39076.32
714.438	39051.69
714.782	38936.89
715.125	38671.58
715.469	38909.09
715.812	38581.64
716.156	38418.48
716.499	38437.92
716.843	38374.87
717.186	38114.99
717.53	38492.38
717.873	38470.01
718.216	38255.55
718.559	38041.99
718.902	37852.85
719.246	37917.48
719.589	37779.4
719.932	37622.8
720.275	37693.08
720.617	37555
720.96	37485.17
721.303	37447.21
721.646	37557.26
721.989	37288.79
722.331	37384.84
722.674	37295.8
723.016	37015.13
723.359	37131.51
723.701	37127.44
724.044	36912.98
724.386	36677.51
724.729	36779.65
725.071	36716.83
725.413	36722.71
725.755	36715.25
726.097	36576.27
726.439	36286.56
726.782	36244.75
727.124	36479.78
727.465	36150.74
727.807	36268.03
728.149	36131.99
728.491	36096.28
728.833	36110.07
729.175	35964.53
729.516	35968.83
729.858	35821.71
730.199	35900.13
730.541	35702.17
730.882	35647.48
731.224	35728.38
731.565	35527.03
731.906	35475.28
732.248	35468.5
732.589	35212.01
732.93	35347.15
733.271	35202.29
733.612	35226.93
733.953	35208.85
734.294	35093.15
734.635	35034.62
734.976	35059.47
735.317	34857.9
735.658	34796.43
735.999	34813.6
736.339	34697.45
736.68	34762.08
737.021	34541.3
737.361	34620.84
737.702	34684.79
738.042	34465.36
738.383	34404.12
738.723	34451.35
739.063	34234.64
739.404	34308.08
739.744	34361.86
740.084	34163
740.424	34126.16
740.764	34051.82
741.104	34048.65
741.444	33786.51
741.784	33754.2
742.124	33765.04
742.464	33645.27
742.804	33622.22
743.143	33605.27
743.483	33586.74
743.823	33466.07
744.162	33373.87
744.502	33491.61
744.841	33258.84
745.181	33310.14
745.52	33251.39
745.86	33219.97
746.199	33068.57
746.538	33026.08
746.877	33000.77
747.216	33058.4
747.556	32758.52
747.895	32870.15
748.234	32732.08
748.573	32636.26
748.911	32713.32
749.25	32573.21
749.589	32383.84
749.928	32341.35
750.267	32379.54
750.605	32349.49
750.944	32302.94
751.283	32042.15
751.621	32135.48
751.96	31925.54
752.298	31925.09
752.636	31888.71
752.975	31751.54
753.313	31645.55
753.651	31838.77
753.989	31540.47
754.327	31475.61
754.666	31290.99
755.004	31357.65
755.342	31355.39
755.679	31328.27
756.017	31159.92
756.355	31165.56
756.693	31114.27
757.031	31027.04
757.368	30815.29
757.706	30738.68
758.044	30686.93
758.381	30628.18
758.719	30586.82
759.056	30497.33
759.394	30404.91
759.731	30295.98
760.068	30225.48
760.405	30150.9
760.743	29986.16
761.08	29992.49
761.417	29841.76
761.754	29826.39
762.091	29823.68
762.428	29539.17
762.765	29389.34
763.102	29446.06
763.438	29180.76
763.775	29118.61
764.112	29091.72
764.449	29225.73
764.785	28873.2
765.122	28829.35
765.458	28821.9
765.795	28776.02
766.131	28578.97
766.467	28599.53
766.804	28446.54
767.14	28190.05
767.476	28282.7
767.812	28013.11
768.148	28049.94
768.485	28011.98
768.821	27752.32
769.157	27780.57
769.492	27697.86
769.828	27582.61
770.164	27338.32
770.5	27286.57
770.836	27244.31
771.171	27063.53
771.507	27035.05
771.842	26957.54
772.178	26901.72
772.513	26868.05
772.849	26671.45
773.184	26562.75
773.519	26595.29
773.855	26452.47
774.19	26261.29
774.525	26257.45
774.86	26167.28
775.195	26022.2
775.53	25934.06
775.865	25788.53
776.2	25615.43
776.535	25417.92
776.87	25395.32
777.205	25300.18
777.539	25173.63
777.874	25265.61
778.209	25003.69
778.543	25021.09
778.878	24874.88
779.212	24790.37
779.547	24715.56
779.881	24666.98
780.215	24537.04
780.55	24570.94
780.884	24308.12
781.218	24316.25
781.552	24311.51
781.886	24144.96
782.22	24037.62
782.554	23857.28
782.888	23744.06
783.222	23717.62
783.556	23582.94
783.889	23483.51
784.223	23305.43
784.557	23230.18
784.89	23345.43
785.224	23139.11
785.557	22972.79
785.891	23010.98
786.224	22919.23
786.558	22945.22
786.891	22736.86
787.224	22603.98
787.557	22495.74
787.891	22459.35
788.224	22390.65
788.557	22398.11
788.89	22300.26
789.223	22306.14
789.556	22078.57
789.888	22099.59
790.221	22016.88
790.554	21775.08
790.887	21795.87
791.219	21627.96
791.552	21563.11
791.884	21483.33
792.217	21389.32
792.549	21368.31
792.882	21220.29
793.214	21197.01
793.546	21213.51
793.879	20950.69
794.211	20871.82
794.543	20956.79
794.875	20802.22
795.207	20950.69
795.539	20792.05
795.871	20820.98
796.203	20559.74
796.535	20525.84
796.867	20500.53
797.198	20359.07
797.53	20260.99
797.862	20185.29
798.193	20279.07
798.525	20165.85
798.856	20027.33
799.188	19884.28
799.519	19840.66
799.85	19740.33
800.182	19754.34
800.513	19813.77
800.844	19555.25
801.175	19590.05
801.506	19602.25
801.837	19449.71
802.168	19445.42
802.499	19355.48
802.83	19174.24
803.161	19230.29
803.491	19171.3
803.822	19152.77
804.153	19041.59
804.483	18865.32
804.814	18824.19
805.145	18676.18
805.475	18732.9
805.805	18647.7
806.136	18731.77
806.466	18672.56
806.796	18570.87
807.126	18425.56
807.457	18329.07
807.787	18307.37
808.117	18211.56
808.447	18201.16
808.777	18220.82
809.107	18131.56
809.436	18032.35
809.766	17989.41
810.096	17989.19
810.426	17974.95
810.755	17930.88
811.085	17871.68
811.414	17789.42
811.744	17688.4
812.073	17653.15
812.403	17639.82
812.732	17538.35
813.061	17494.74
813.39	17452.93
813.719	17456.77
814.049	17471.91
814.378	17285.48
814.707	17323.22
815.036	17311.01
815.365	17109.66
815.693	17067.4
816.022	17052.26
816.351	16941.31
816.68	17005.26
817.008	17032.15
817.337	16831.48
817.665	16760.07
817.994	16787.41
818.322	16787.64
818.651	16658.6
818.979	16648.21
819.307	16750.8
819.636	16572.05
819.964	16477.14
820.292	16563.69
820.62	16524.82
820.948	16447.99
821.276	16476.01
821.604	16513.52
821.932	16486.4
822.259	16516.01
822.587	16410.7
822.915	16407.08
823.243	16431.71
823.57	16355.33
823.898	16405.95
824.225	16367.54
824.553	16357.37
824.88	16399.63
825.207	16292.96
825.535	16355.11
825.862	16366.63
826.189	16323.02
826.516	16440.75
826.843	16435.33
827.17	16341.32
827.497	16334.77
827.824	16286.63
828.151	16391.94
828.478	16300.42
828.805	16351.04
829.131	16227.65
829.458	16278.5
829.785	16152.85
830.111	16325.5
830.438	16367.08
830.764	16318.27
831.09	16278.5
831.417	16231.27
831.743	16313.75
832.069	16208.67
832.395	16139.07
832.722	16234.43
833.048	16142.23
833.374	16151.95
833.7	16238.27
834.026	16169.8
834.351	16227.88
834.677	16126.19
835.003	16182.91
835.329	16054.1
835.654	16093.87
835.98	15922.35
836.306	16066.53
836.631	15935
836.956	15972.97
837.282	15963.93
837.607	15948.79
837.932	15901.33
838.258	15901.33
838.583	15916.93
838.908	15776.59
839.233	15918.73
839.558	15771.62
839.883	15615.47
840.208	15684.84
840.533	15739.76
840.858	15840.54
841.182	15792.41
841.507	15664.96
841.832	15561.91
842.156	15571.4
842.481	15480.33
842.805	15478.07
843.13	15468.58
843.454	15420.67
843.778	15438.75
844.103	15391.52
844.427	15253.21
844.751	15381.35
845.075	15271.52
845.399	15233.55
845.723	15196.95
846.047	15205.76
846.371	15000.34
846.695	15074.91
847.019	14900
847.343	14816.84
847.666	14880.12
847.99	14742.49
848.313	14860
848.637	14631.99
848.96	14560.13
849.284	14624.53
849.607	14526.68
849.931	14544.76
850.254	14434.93
850.577	14327.59
850.9	14361.94
851.223	14279.91
851.546	14203.98
851.869	14124.66
852.192	14114.04
852.515	13894.38
852.838	13914.94
853.161	13980.25
853.483	13905.91
853.806	13829.98
854.129	13773.71
854.451	13792.91
854.774	13584.56
855.096	13600.6
855.419	13555.86
855.741	13581.39
856.063	13482.19
856.385	13590.89
856.708	13486.93
857.03	13452.58
857.352	13435.18
857.674	13334.85
857.996	13233.61
858.318	13229.77
858.64	13163.1
858.961	13176.89
859.283	13169.65
859.605	13077.45
859.926	13091.01
860.248	13102.76
860.57	13081.29
860.891	13061.63
861.212	13004.69
861.534	12851.92
861.855	12959.49
862.176	12992.94
862.498	12991.81
862.819	12893.95
863.14	12840.17
863.461	12820.06
863.782	12800.85
864.103	12808.76
864.424	12725.6
864.745	12764.92
865.065	12670.46
865.386	12650.57
865.707	12661.19
866.027	12641.53
866.348	12633.62
866.668	12617.13
866.989	12557.24
867.309	12482.21
867.63	12525.83
867.95	12453.29
868.27	12361.54
868.59	12456.68
868.91	12388.66
869.23	12444.25
869.55	12336.91
869.87	12460.52
870.19	12446.51
870.51	12374.65
870.83	12471.82
871.15	12292.16
871.469	12289.22
871.789	12303.91
872.109	12275.67
872.428	12258.49
872.748	12331.48
873.067	12174.43
873.386	12237.93
873.706	12224.37
874.025	12096.46
874.344	12056.01
874.663	12118.83
874.982	12094.43
875.301	12107.99
875.62	12102.11
875.939	12051.04
876.258	12127.42
876.577	12010.81
876.896	12051.94
877.214	11956.13
877.533	12049.01
877.852	12064.15
878.17	12001.55
878.489	11906.86
878.807	11900.31
879.125	11901.21
879.444	11959.29
879.762	11839.07
880.08	11839.07
880.398	11774.66
880.716	11797.94
881.034	11761.1
881.352	11766.07
881.67	11747.54
881.988	11757.49
882.306	11772.63
882.624	11690.82
882.941	11669.58
883.259	11673.65
883.577	11649.69
883.894	11625.74
884.212	11632.07
884.529	11522.92
884.846	11578.28
885.164	11546.42
885.481	11486.31
885.798	11491.28
886.115	11479.3
886.432	11342.81
886.75	11319.98
887.067	11315.01
887.383	11318.63
887.7	11303.04
888.017	11203.38
888.334	11287.67
888.651	11198.86
888.967	11176.49
889.284	11187.56
889.6	11145.53
889.917	11084.96
890.233	11113.21
890.55	11008.35
890.866	11027.79
891.182	10997.96
891.498	11022.14
891.815	10908.47
892.131	10804.29
892.447	10848.81
892.763	10784.86
893.079	10756.38
893.395	10783.5
893.71	10702.37
894.026	10703.96
894.342	10741.02
894.657	10684.07
894.973	10651.75
895.289	10585.99
895.604	10687.69
895.92	10473.45
896.235	10508.71
896.55	10491.76
896.865	10485.2
897.181	10396.62
897.496	10373.57
897.811	10307.13
898.126	10320.01
898.441	10296.28
898.756	10206.57
899.071	10169.73
899.386	10266.91
899.7	10123.18
900.015	10146.46
900.33	10082.96
900.644	10042.73
900.959	9988.27
901.273	10049.74
901.588	9994.82
901.902	9976.74
902.216	9966.57
902.531	9930.87
902.845	9880.02
903.159	9799.35
903.473	9780.14
903.787	9709.86
904.101	9621.27
904.415	9672.57
904.729	9602.29
905.042	9612.01
905.356	9593.25
905.67	9574.95
905.984	9538.79
906.297	9449.07
906.611	9344.9
906.924	9319.59
907.237	9332.01
907.551	9275.97
907.864	9267.84
908.177	9224.67
908.491	9234.84
908.804	9164.56
909.117	9158.46
909.43	9095.86
909.743	9053.15
910.056	9070.33
910.368	9005.02
910.681	8902.42
910.994	8902.2
911.307	8910.78
911.619	8785.59
911.932	8828.75
912.244	8788.07
912.557	8798.92
912.869	8721.41
913.181	8692.03
913.494	8720.51
913.806	8584.01
914.118	8631.02
914.43	8530.45
914.742	8521.87
915.054	8451.36
915.366	8453.85
915.678	8447.74
915.99	8388.08
916.302	8355.99
916.613	8288.2
916.925	8328.2
917.236	8358.48
917.548	8196
917.859	8267.64
918.171	8097.92
918.482	8119.62
918.794	8068.09
919.105	7988.1
919.416	7970.92
919.727	7948.32
920.038	7940.19
920.349	7900.87
920.66	7807.08
920.971	7868.55
921.282	7827.2
921.593	7779.29
921.903	7762.56
922.214	7726.86
922.525	7704.94
922.835	7559.41
923.146	7566.86
923.456	7582
923.767	7517.15
924.077	7499.97
924.387	7542.68
924.697	7447.32
925.008	7441.22
925.318	7386.75
925.628	7353.54
925.938	7298.62
926.248	7217.72
926.558	7201
926.867	7188.79
927.177	7183.82
927.487	7144.73
927.796	7086.88
928.106	7115.58
928.416	7108.57
928.725	7005.97
929.034	6956.94
929.344	6993.77
929.653	6969.36
929.962	6886.43
930.271	6915.35
930.581	6839.65
930.89	6892.3
931.199	6821.8
931.508	6752.87
931.817	6804.17
932.125	6703.84
932.434	6725.3
932.743	6652.54
933.051	6595.36
933.36	6681.01
933.669	6621.13
933.977	6635.14
934.286	6567.12
934.594	6514.24
934.902	6443.05
935.21	6437.18
935.519	6444.41
935.827	6417.29
936.135	6391.07
936.443	6341.81
936.751	6302.04
937.059	6309.5
937.367	6241.93
937.674	6209.38
937.982	6175.49
938.29	6154.7
938.597	6233.79
938.905	6115.38
939.213	6133.45
939.52	6078.09
939.827	6039.9
940.135	6012.78
940.442	5963.74
940.749	5961.26
941.056	5955.83
941.363	5876.06
941.67	5852.78
941.977	5842.16
942.284	5811.43
942.591	5827.47
942.898	5797.64
943.205	5746.12
943.511	5714.93
943.818	5675.39
944.125	5651.66
944.431	5612.34
944.738	5624.77
945.044	5596.07
945.35	5576.63
945.657	5544.54
945.963	5548.16
946.269	5526.24
946.575	5531.44
946.881	5436.52
947.187	5429.29
947.493	5408.95
947.799	5394.94
948.105	5352.91
948.41	5323.98
948.716	5301.61
949.022	5302.74
949.327	5254.38
949.633	5177.77
949.938	5301.16
950.244	5256.64
950.549	5227.49
950.854	5203.76
951.16	5131.9
951.465	5129.19
951.77	5083.99
952.075	5067.72
952.38	5079.24
952.685	5067.72
952.99	5001.96
953.294	5003.54
953.599	4943.88
953.904	4943.2
954.209	4885.58
954.513	4949.76
954.818	4873.83
955.122	4866.14
955.426	4849.65
955.731	4829.99
956.035	4772.13
956.339	4790.21
956.643	4759.71
956.948	4728.29
957.252	4723.32
957.556	4733.94
957.86	4697.11
958.163	4728.07
958.467	4651.91
958.771	4642.87
959.075	4582.53
959.378	4581.86
959.682	4564.91
959.985	4600.61
960.289	4497.79
960.592	4472.93
960.896	4481.52
961.199	4468.87
961.502	4455.08
961.805	4399.26
962.108	4463.22
962.411	4420.96
962.714	4359.04
963.017	4366.95
963.32	4369.21
963.623	4303.45
963.926	4321.07
964.228	4261.87
964.531	4246.5
964.833	4238.14
965.136	4209.66
965.438	4191.81
965.741	4185.94
966.043	4136.22
966.345	4109.33
966.648	4121.76
966.95	4128.08
967.252	4076.33
967.554	4032.04
967.856	4051.7
968.158	4044.24
968.46	4056.22
968.761	4032.04
969.063	3971.48
969.365	3944.13
969.666	3927.41
969.968	3943.46
970.269	3881.31
970.571	3919.95
970.872	3957.92
971.174	3836.11
971.475	3865.72
971.776	3839.96
972.077	3806.28
972.378	3822.78
972.679	3784.82
972.98	3725.61
973.281	3764.7
973.582	3719.96
973.883	3770.13
974.183	3747.75
974.484	3724.93
974.785	3640.41
975.085	3647.87
975.386	3643.35
975.686	3623.69
975.986	3616.01
976.287	3572.84
976.587	3569.45
976.887	3604.71
977.187	3542.56
977.487	3512.96
977.787	3507.99
978.087	3486.29
978.387	3460.08
978.687	3480.87
978.987	3454.65
979.286	3422.11
979.586	3402
979.885	3397.93
980.185	3388.89
980.484	3316.58
980.784	3335.56
981.083	3324.04
981.382	3306.41
981.682	3334.88
981.981	3286.3
982.28	3279.29
982.579	3230.71
982.878	3258.95
983.177	3225.06
983.475	3218.73
983.774	3183.48
984.073	3169.01
984.372	3158.62
984.67	3166.53
984.969	3171.72
985.267	3145.51
985.566	3146.87
985.864	3095.34
986.162	3072.97
986.461	3037.26
986.759	3028.23
987.057	3030.71
987.355	2998.17
987.653	3019.64
987.951	2986.19
988.249	2975.35
988.547	2959.07
988.844	2945.74
989.142	2960.88
989.44	2925.63
989.737	2915.46
990.035	2912.97
990.332	2917.72
990.63	2901
990.927	2858.06
991.224	2821.68
991.521	2858.06
991.819	2794.79
992.116	2784.62
992.413	2783.03
992.71	2779.64
993.006	2785.52
993.303	2777.84
993.6	2763.83
993.897	2759.76
994.193	2710.27
994.49	2700.55
994.787	2672.53
995.083	2703.49
995.379	2671.62
995.676	2647.44
995.972	2647.9
996.268	2646.54
996.565	2617.16
996.861	2573.1
997.157	2583.72
997.453	2604.28
997.749	2600.21
998.044	2536.71
998.34	2571.51
998.636	2485.19
998.932	2497.84
999.227	2476.83
999.523	2472.99
999.818	2437.51
1000.114	2466.21
1000.409	2441.8
1000.704	2399.09
1001	2389.82
1001.295	2381.24
1001.59	2424.63
1001.885	2342.82
1002.18	2381.46
1002.475	2356.38
1002.77	2342.59
1003.065	2313.44
1003.359	2344.85
1003.654	2289.04
1003.949	2302.82
1004.243	2263.73
1004.538	2265.99
1004.832	2241.35
1005.127	2216.95
1005.421	2193.67
1005.715	2163.62
1006.009	2198.64
1006.304	2185.31
1006.598	2164.07
1006.892	2139.89
1007.186	2170.62
1007.48	2168.36
1007.773	2124.52
1008.067	2079.55
1008.361	2097.4
1008.655	2071.41
1008.948	2055.82
1009.242	2037.97
1009.535	2012.21
1009.829	2031.19
1010.122	2050.62
1010.415	2016.27
1010.708	1994.13
1011.001	1993
1011.295	1928.37
1011.588	1964.3
1011.881	1965.88
1012.173	1924.75
1012.466	1953.45
1012.759	1893.79
1013.052	1922.49
1013.344	1916.62
1013.637	1917.29
1013.93	1849.95
1014.222	1859.22
1014.514	1879.78
1014.807	1871.42
1015.099	1838.65
1015.391	1797.07
1015.683	1801.59
1015.976	1792.33
1016.268	1785.77
1016.56	1815.38
1016.851	1760.24
1017.143	1756.17
1017.435	1722.05
1017.727	1724.3
1018.018	1719.56
1018.31	1712.78
1018.602	1710.97
1018.893	1713.68
1019.185	1643.4
1019.476	1647.7
1019.767	1655.61
1020.058	1640.92
1020.35	1633.01
1020.641	1605.66
1020.932	1595.72
1021.223	1571.09
1021.514	1567.92
1021.804	1591.65
1022.095	1569.73
1022.386	1540.81
1022.677	1515.27
1022.967	1530.41
1023.258	1523.41
1023.548	1506.01
1023.839	1487.93
1024.129	1474.82
1024.419	1479.57
1024.709	1440.02
1025	1453.13
1025.29	1424.43
1025.58	1440.47
1025.87	1433.01
1026.16	1392.11
1026.449	1390.3
1026.739	1389.85
1027.029	1381.72
1027.319	1368.83
1027.608	1360.7
1027.898	1364.09
1028.187	1344.88
1028.477	1350.76
1028.766	1328.16
1029.055	1344.43
1029.344	1334.94
1029.634	1316.18
1029.923	1304.88
1030.212	1263.53
1030.501	1313.92
1030.79	1267.82
1031.078	1276.63
1031.367	1226.01
1031.656	1230.08
1031.945	1240.02
1032.233	1228.95
1032.522	1209.06
1032.81	1209.74
1033.099	1205.45
1033.387	1200.7
1033.675	1199.57
1033.963	1156.64
1034.251	1163.64
1034.54	1179.01
1034.828	1142.85
1035.116	1153.47
1035.403	1166.81
1035.691	1150.53
1035.979	1113.7
1036.267	1103.3
1036.554	1112.12
1036.842	1117.54
1037.129	1062.85
1037.417	1073.25
1037.704	1073.02
1037.992	1086.13
1038.279	1051.55
1038.566	1050.88
1038.853	1050.88
1039.14	1050.88
