Data from foil_FLMS001491_079.txt Node
Date: Tue Feb 07 11:36:43 GMT 2017
User: dcchb
Spectrometer: FLMS00149
Trigger mode: 0
Integration Time (sec): 2.000000E-2
Scans to average: 10
Electric dark correction enabled: true
Nonlinearity correction enabled: false
Boxcar width: 0
XAxis mode: Wavelengths
Number of Pixels in Spectrum: 2048
>>>>>Begin Spectral Data<<<<<
341.393	-17.73
341.776	-17.73
342.16	-17.73
342.543	-75.58
342.927	-58.4
343.31	-69.02
343.693	-71.51
344.077	-66.09
344.46	-61.79
344.843	-55.92
345.226	-34.9
345.61	-43.26
345.993	-34.67
346.376	0.13
346.759	10.07
347.142	18.43
347.525	70.63
347.908	71.09
348.291	81.71
348.674	82.38
349.057	102.72
349.44	135.94
349.823	129.84
350.206	193.79
350.588	240.8
350.971	256.84
351.354	273.57
351.737	284.87
352.119	292.1
352.502	302.49
352.884	332.32
353.267	337.07
353.65	360.34
354.032	357.18
354.414	360.8
354.797	392.66
355.179	389.27
355.562	393.11
355.944	402.83
356.326	398.76
356.709	390.63
357.091	408.7
357.473	415.03
357.855	396.05
358.238	407.8
358.62	394.47
359.002	387.01
359.384	414.58
359.766	438.76
360.148	427.01
360.53	421.36
360.912	410.06
361.294	410.06
361.676	417.52
362.057	437.63
362.439	436.73
362.821	407.57
363.203	410.74
363.584	423.17
363.966	404.86
364.348	410.29
364.729	398.31
365.111	404.41
365.493	408.25
365.874	435.37
366.256	411.87
366.637	433.56
367.019	438.31
367.4	423.17
367.781	438.53
368.163	415.48
368.544	436.5
368.925	447.12
369.306	433.79
369.688	456.84
370.069	437.86
370.45	434.47
370.831	469.72
371.212	459.32
371.593	456.84
371.974	448.48
372.355	451.64
372.736	442.6
373.117	455.71
373.498	456.16
373.879	463.17
374.26	434.92
374.641	464.07
375.021	458.87
375.402	463.62
375.783	504.52
376.163	520.34
376.544	516.05
376.925	495.26
377.305	503.16
377.686	503.84
378.066	507.68
378.447	507.91
378.827	502.49
379.208	521.47
379.588	516.5
379.968	540
380.349	537.97
380.729	518.08
381.109	549.49
381.489	553.78
381.87	548.36
382.25	539.1
382.63	551.07
383.01	564.41
383.39	587.91
383.77	590.17
384.15	595.59
384.53	601.69
384.91	577.74
385.29	598.3
385.67	604.86
386.049	620.22
386.429	591.52
386.809	612.77
387.189	633.33
387.568	652.99
387.948	638.75
388.328	638.75
388.707	638.53
389.087	662.03
389.466	683.95
389.846	674.01
390.225	690.73
390.605	677.62
390.984	719.66
391.363	680.56
391.743	727.34
392.122	697.28
392.501	726.44
392.881	764.17
393.26	737.96
393.639	749.49
394.018	754.01
394.397	780.22
394.776	784.74
395.155	782.71
395.534	802.37
395.913	803.72
396.292	776.38
396.671	779.32
397.05	815.02
397.429	833.78
397.808	832.65
398.186	835.59
398.565	841.91
398.944	863.83
399.323	854.79
399.701	867.22
400.08	843.95
400.458	892.08
400.837	890.27
401.215	913.78
401.594	916.26
401.972	924.85
402.351	915.13
402.729	935.02
403.107	965.07
403.486	914.68
403.864	944.74
404.242	986.77
404.62	979.99
404.999	1016.15
405.377	1010.27
405.755	1005.3
406.133	1013.43
406.511	1036.26
406.889	1052.75
407.267	1074
407.645	1082.36
408.023	1105.18
408.401	1079.42
408.779	1130.72
409.156	1133.2
409.534	1166.88
409.912	1120.78
410.29	1178.63
410.667	1198.29
411.045	1200.77
411.422	1218.63
411.8	1250.72
412.178	1263.6
412.555	1258.85
412.933	1261.34
413.31	1296.82
413.687	1312.18
414.065	1324.84
414.442	1324.39
414.819	1366.19
415.197	1387.21
415.574	1386.76
415.951	1418.39
416.328	1417.04
416.705	1443.7
417.082	1444.16
417.46	1467.66
417.837	1477.83
418.214	1463.14
418.591	1510.37
418.967	1488.68
419.344	1521.44
419.721	1537.49
420.098	1516.02
420.475	1584.72
420.852	1585.62
421.228	1616.13
421.605	1607.99
421.982	1631.72
422.358	1652.29
422.735	1658.39
423.111	1688.44
423.488	1686.86
423.864	1701.33
424.241	1734.09
424.617	1733.87
424.994	1744.26
425.37	1772.74
425.746	1781.32
426.123	1803.7
426.499	1828.78
426.875	1838.95
427.251	1877.14
427.627	1911.94
428.003	1939.96
428.379	1961.88
428.756	1977.93
429.132	1995.78
429.507	2032.84
429.883	2015.67
430.259	2071.03
430.635	2115.78
431.011	2159.84
431.387	2163.91
431.763	2205.49
432.138	2201.2
432.514	2263.57
432.89	2240.07
433.265	2296.11
433.641	2321.65
434.016	2353.96
434.392	2384.47
434.767	2407.3
435.143	2410.23
435.518	2449.55
435.894	2472.38
436.269	2487.52
436.644	2528.65
437.02	2580.85
437.395	2584.69
437.77	2590.34
438.145	2635.31
438.52	2701.75
438.895	2689.1
439.271	2702.43
439.646	2768.19
440.021	2800.28
440.395	2807.96
440.77	2758.7
441.145	2787.17
441.52	2853.39
441.895	2864.46
442.27	2876.44
442.645	2876.21
443.019	2921.86
443.394	2922.76
443.769	2967.28
444.143	2976.77
444.518	3000.73
444.892	3019.71
445.267	3031.01
445.641	3033.27
446.016	3093.61
446.39	3110.78
446.764	3090.22
447.139	3115.75
447.513	3154.62
447.887	3188.74
448.262	3171.57
448.636	3245.47
449.01	3285.01
449.384	3254.28
449.758	3299.25
450.132	3322.53
450.506	3361.62
450.88	3358.91
451.254	3399.36
451.628	3420.83
452.002	3499.47
452.376	3504.44
452.75	3532.92
453.123	3559.36
453.497	3621.27
453.871	3689.97
454.244	3714.15
454.618	3741.27
454.992	3794.83
455.365	3810.2
455.739	3912.79
456.112	3943.98
456.486	3906.24
456.859	3976.97
457.232	4068.72
457.606	4063.3
457.979	4153.24
458.352	4180.36
458.725	4282.73
459.099	4270.75
459.472	4354.36
459.845	4393.68
460.218	4437.52
460.591	4469.39
460.964	4514.36
461.337	4608.14
461.71	4681.81
462.083	4750.06
462.456	4791.64
462.829	4751.41
463.201	4911.18
463.574	4897.4
463.947	4959.77
464.32	5072.08
464.692	5086.77
465.065	5082.48
465.438	5226.66
465.81	5282.02
466.183	5298.07
466.555	5478.85
466.928	5416.71
467.3	5453.09
467.672	5542.13
468.045	5745.74
468.417	5676.36
468.789	5738.06
469.161	5826.87
469.534	5930.59
469.906	6089.46
470.278	6081.1
470.65	6144.15
471.022	6268.89
471.394	6351.82
471.766	6445.61
472.138	6577.13
472.51	6689.22
472.882	6679.27
473.253	6818.7
473.625	6920.62
473.997	7053.5
474.369	7082.88
474.74	7121.3
475.112	7298.01
475.484	7375.3
475.855	7573.26
476.227	7529.42
476.598	7799.7
476.97	7862.29
477.341	8071.55
477.713	8163.3
478.084	8279.01
478.455	8487.81
478.827	8530.75
479.198	8751.08
479.569	8695.49
479.94	9017.29
480.311	9083.73
480.682	9257.96
481.053	9467.45
481.424	9637.16
481.795	9744.05
482.166	9895.91
482.537	10031.28
482.908	10260.2
483.279	10224.04
483.65	10460.87
484.021	10663.8
484.391	10759.17
484.762	10931.37
485.133	11018.82
485.503	11198.25
485.874	11385.36
486.244	11440.28
486.615	11792.81
486.985	11901.74
487.356	12091.33
487.726	12168.62
488.097	12480.48
488.467	12387.6
488.837	12766.57
489.207	12787.59
489.578	12992.1
489.948	13221.7
490.318	13379.21
490.688	13412.66
491.058	13627.34
491.428	13792.76
491.798	13926.31
492.168	14269.58
492.538	14254.22
492.908	14399.3
493.278	14650.36
493.648	14649.46
494.017	14810.81
494.387	14940.53
494.757	15016.91
495.126	15226.17
495.496	15283.12
495.866	15417.8
496.235	15613.5
496.605	15670.9
496.974	15886.26
497.344	15989.09
497.713	16065.47
498.082	16187.27
498.452	16307.49
498.821	16413.93
499.19	16446.93
499.559	16558.79
499.928	16744.77
500.298	16896.86
500.667	17038.78
501.036	16998.78
501.405	17261.37
501.774	17235.61
502.143	17437.18
502.512	17505.66
502.88	17630.85
503.249	17779.09
503.618	17811.64
503.987	17928.24
504.356	18091.85
504.724	18149.25
505.093	18244.39
505.462	18293.88
505.83	18476.03
506.199	18646.87
506.567	18868.11
506.936	18790.59
507.304	19112.62
507.672	19205.5
508.041	19231.71
508.409	19373.4
508.777	19523.68
509.145	19620.4
509.514	19764.81
509.882	19872.82
510.25	20046.15
510.618	20122.76
510.986	20226.26
511.354	20465.8
511.722	20543.32
512.09	20769.3
512.458	20716.87
512.826	20960.93
513.193	21002.74
513.561	21190.98
513.929	21397.08
514.297	21535.61
514.664	21702.38
515.032	21767.24
515.4	22057.17
515.767	21951.87
516.135	22208.36
516.502	22104.86
516.869	22573.09
517.237	22681.56
517.604	22655.35
517.972	22951.61
518.339	23091.05
518.706	23109.12
519.073	23322.45
519.44	23352.51
519.808	23778.26
520.175	23778.26
520.542	24033.17
520.909	24149.55
521.276	24188.64
521.643	24594.73
522.009	24608.75
522.376	24835.63
522.743	24992.69
523.11	25307.94
523.477	25480.59
523.843	25566.91
524.21	25941.59
524.577	26120.8
524.943	26179.1
525.31	26384.97
525.676	26565.3
526.043	26711.97
526.409	26864.51
526.776	27160.54
527.142	27286.42
527.508	27205.97
527.874	27538.61
528.241	27697.25
528.607	27923.01
528.973	28159.61
529.339	28125.04
529.705	28424.46
530.071	28675.08
530.437	28805.47
530.803	29092.47
531.169	29056.99
531.535	29132.02
531.901	29214.5
532.267	29520.25
532.632	29672.79
532.998	29737.88
533.364	30007.02
533.73	30066.91
534.095	30299.44
534.461	30327.47
534.826	30535.82
535.192	30661.02
535.557	30941.46
535.923	30823.5
536.288	31022.59
536.653	31198.18
537.019	31069.14
537.384	31319.3
537.749	31582.35
538.114	31500.54
538.479	31637.49
538.845	31747.99
539.21	31715.45
539.575	31933.52
539.94	32009.23
540.305	32260.07
540.67	32296.91
541.034	32418.26
541.399	32526.73
541.764	32703.45
542.129	32893.95
542.494	32910
542.858	33066.15
543.223	33024.34
543.587	33266.82
543.952	33211.68
544.316	33412.58
544.681	33462.75
545.045	33729.18
545.41	33832.68
545.774	33849.18
546.138	33857.09
546.503	34049.85
546.867	34014.83
547.231	34358.77
547.595	34426.34
547.959	34590.4
548.324	34528.48
548.688	34772.09
549.052	34736.39
549.416	35008.02
549.779	34992.88
550.143	35193.1
550.507	35342.93
550.871	35531.62
551.235	35501.79
551.599	35818.17
551.962	35913.76
552.326	36036.24
552.689	36155.79
553.053	36049.35
553.417	36220.87
553.78	36694.76
554.143	36637.81
554.507	36798.93
554.87	36864.47
555.234	37136.78
555.597	37162.99
555.96	37283.44
556.323	37432.14
556.686	37591.91
557.05	37841.39
557.413	37950.32
557.776	37935.17
558.139	38218.11
558.502	38208.39
558.865	38423.52
559.228	38670.75
559.59	38841.82
559.953	38930.85
560.316	39284.74
560.679	39254.69
561.041	39570.61
561.404	39756.14
561.767	40041.79
562.129	40033.42
562.492	40324.04
562.854	40429.57
563.217	40362.91
563.579	40552.96
563.941	40847.41
564.304	40995.43
564.666	41148.88
565.028	41290.57
565.39	41582.99
565.753	41686.94
566.115	41895.75
566.477	42091.68
566.839	42180.49
567.201	42493.25
567.563	42563.3
567.925	42881.94
568.287	42779.79
568.648	42872.45
569.01	43007.13
569.372	43358.08
569.734	43225.43
570.095	43583.61
570.457	43566.67
570.819	43668.13
571.18	43695.25
571.542	44000.55
571.903	44054.34
572.265	44151.06
572.626	44297.04
572.987	44385.63
573.349	44522.35
573.71	44716.92
574.071	44756.46
574.432	44880.53
574.794	45221.99
575.155	45109.45
575.516	45089.34
575.877	45292.5
576.238	45387.86
576.599	45471.02
576.96	45502.21
577.32	45589.66
577.681	45830.79
578.042	45861.75
578.403	45772.71
578.763	45840.96
579.124	46031.46
579.485	46165.24
579.845	46236.43
580.206	46047.96
580.566	46205.47
580.927	46238.91
581.287	46372.02
581.648	46256.54
582.008	46489.98
582.368	46299.7
582.728	46494.5
583.089	46473.03
583.449	46426.03
583.809	46558.45
584.169	46653.36
584.529	46436.19
584.889	46689.07
585.249	46533.82
585.609	46386.7
585.969	46659.01
586.329	46498.34
586.688	46444.78
587.048	46478.68
587.408	46518
587.768	46487.49
588.127	46504.89
588.487	46317.1
588.846	46821.72
589.206	46483.88
589.565	46442.3
589.925	46628.28
590.284	46482.97
590.643	46720.48
591.003	46699.24
591.362	46756.64
591.721	46814.04
592.08	46736.98
592.44	46785.11
592.799	46757.77
593.158	46747.6
593.517	46674.38
593.876	46669.86
594.235	46748.5
594.593	46721.84
594.952	46705.34
595.311	46746.24
595.67	46766.58
596.029	46966.12
596.387	46988.5
596.746	46941.04
597.104	46809.97
597.463	46943.98
597.822	47073.24
598.18	46887.93
598.538	46837.54
598.897	47134.26
599.255	46895.39
599.613	47424.87
599.972	47004.77
600.33	47276.62
600.688	46898.1
601.046	47146.23
601.404	47296.96
601.762	47143.07
602.12	47357.98
602.478	47335.83
602.836	47322.05
603.194	47033.01
603.552	47194.37
603.91	47122.96
604.268	47469.16
604.625	47187.13
604.983	47384.87
605.341	47263.29
605.698	47527.24
606.056	47687.23
606.413	47567.92
606.771	47598.88
607.128	47705.31
607.485	47549.39
607.843	47609.04
608.2	47804.29
608.557	47902.37
608.914	47791.86
609.272	47943.27
609.629	47999.77
609.986	48062.82
610.343	47972.2
610.7	48069.37
611.057	48032.31
611.414	48063.95
611.771	48060.56
612.127	48292.64
612.484	48243.38
612.841	48344.84
613.198	48163.61
613.554	48249.48
613.911	48338.74
614.267	48291.29
614.624	48173.55
614.98	48289.93
615.337	48476.59
615.693	48485.86
616.05	48498.74
616.406	48788.45
616.762	48620.09
617.118	48663.93
617.475	48627.78
617.831	48665.74
618.187	48697.6
618.543	48729.69
618.899	48912.51
619.255	48851.27
619.611	48745.29
619.967	48830.48
620.323	48926.3
620.678	48824.15
621.034	48698.28
621.39	48704.61
621.746	48616.02
622.101	49078.38
622.457	48800.2
622.812	48831.84
623.168	48809.24
623.523	48806.98
623.879	48855.79
624.234	48684.5
624.589	48822.8
624.945	48831.16
625.3	48889.46
625.655	48830.93
626.01	48842.01
626.365	48771.05
626.72	48891.5
627.075	48815.11
627.43	48759.3
627.785	48710.03
628.14	48654.67
628.495	48796.81
628.85	48713.2
629.205	48547.78
629.559	48649.47
629.914	48554.33
630.269	48630.49
630.623	48350.72
630.978	48401.34
631.332	48585.52
631.687	48574.67
632.041	48424.16
632.396	48400.66
632.75	48176.71
633.104	48289.25
633.459	48219.42
633.813	48155.7
634.167	48031.41
634.521	47989.37
634.875	48024.85
635.229	48024.18
635.583	47765.88
635.937	47772.88
636.291	47639.55
636.645	47713.22
636.999	47683.62
637.352	47712.32
637.706	47334.25
638.06	47474.59
638.413	47423.96
638.767	47385.32
639.121	47584.64
639.474	47135.38
639.828	47286.79
640.181	47253.57
640.534	47202.73
640.888	47093.8
641.241	46936.75
641.594	47059.45
641.947	47110.07
642.301	46903.3
642.654	46893.58
643.007	46932.23
643.36	46793.25
643.713	46785.11
644.066	46842.74
644.419	46484.55
644.771	46108.97
645.124	45509.44
645.477	45522.77
645.83	45445.03
646.182	45328.65
646.535	45438.03
646.888	45531.36
647.24	45334.3
647.593	45475.54
647.945	45465.82
648.298	45224.7
648.65	45203.46
649.002	45062.45
649.355	45147.87
649.707	45037.59
650.059	45022.67
650.411	45412.72
650.763	45459.5
651.115	45857.23
651.467	45687.97
651.819	45657.68
652.171	45544.24
652.523	45535.65
652.875	45557.8
653.227	45335.43
653.578	45523.9
653.93	45468.76
654.282	45247.07
654.633	45386.96
654.985	45323
655.337	45205.72
655.688	45339.05
656.039	45338.82
656.391	45044.82
656.742	45084.37
657.094	44963.92
657.445	45203.01
657.796	44945.39
658.147	44847.76
658.498	44650.93
658.849	44922.11
659.2	44825.16
659.551	44787.42
659.902	44811.38
660.253	44748.33
660.604	44613.19
660.955	44652.96
661.306	44668.33
661.656	44568.45
662.007	44532.52
662.358	44525.06
662.708	44598.5
663.059	44512.18
663.409	44159.42
663.76	44501.1
664.11	44425.63
664.461	44372.07
664.811	44447.09
665.161	44270.15
665.511	44233.31
665.862	44303.59
666.212	44344.05
666.562	44380.2
666.912	44135.92
667.262	44175.24
667.612	44205.07
667.962	44186.99
668.312	44261.79
668.662	44234.22
669.011	44148.57
669.361	44111.06
669.711	44097.27
670.06	44046.43
670.41	43908.35
670.76	43862.48
671.109	44017.95
671.459	43771.41
671.808	43620.9
672.157	43783.16
672.507	43457.74
672.856	43648.24
673.205	43578.19
673.554	43685.53
673.904	43587.46
674.253	43755.36
674.602	43507.68
674.951	42956.51
675.3	42764.43
675.649	43251.42
675.998	43373.68
676.346	43370.51
676.695	43492.77
677.044	43237.63
677.393	43285.32
677.741	43163.74
678.09	43058.2
678.438	42955.16
678.787	42941.37
679.135	42984.76
679.484	42660.93
679.832	42921.26
680.181	42669.74
680.529	42780.25
680.877	42555.17
681.225	42568.95
681.573	42674.03
681.922	42430.65
682.27	42432.23
682.618	42359.24
682.966	42490.08
683.314	42370.54
683.661	42247.15
684.009	42003.54
684.357	41917.67
684.705	41987.27
685.053	41929.65
685.4	41796.09
685.748	41689.88
686.095	41738.92
686.443	41649.65
686.79	41407.17
687.138	41487.85
687.485	41470.9
687.832	41363.56
688.18	41373.05
688.527	41048.54
688.874	40917.92
689.221	40868.21
689.568	40668.21
689.915	40496.01
690.262	40591.38
690.609	40538.04
690.956	40508.21
691.303	40378.27
691.65	40128.56
691.997	40052.86
692.344	39849.93
692.69	39861.9
693.037	39935.8
693.383	39426.44
693.73	39757.73
694.077	39479.32
694.423	39400
694.769	39274.35
695.116	39117.06
695.462	39074.13
695.808	38960.46
696.155	39081.36
696.501	38703.74
696.847	38702.84
697.193	38445.9
697.539	38531.77
697.885	38340.59
698.231	38167.26
698.577	38153.25
698.923	38002.07
699.269	37921.39
699.614	37701.06
699.96	37780.38
700.306	37658.8
700.651	37481.18
700.997	37454.96
701.342	37248.64
701.688	37108.76
702.033	37217.91
702.379	37090
702.724	37101.75
703.069	37043.22
703.415	36549.9
703.76	36632.38
704.105	36625.38
704.45	36449.79
704.795	36206.18
705.14	36214.99
705.485	36206.41
705.83	36027.88
706.175	36061.33
706.52	35776.36
706.865	35690.94
707.209	35692.97
707.554	35581.79
707.899	35588.34
708.243	35446.65
708.588	35429.25
708.932	35063.39
709.277	35173.89
709.621	35105.87
709.966	34941.58
710.31	35081.01
710.654	34651.65
710.998	34879.66
711.342	34753.79
711.687	34560.35
712.031	34558.09
712.375	34333.69
712.719	34383.86
713.063	34186.12
713.407	34348.38
713.75	34131.21
714.094	34076.75
714.438	33905
714.782	34020.93
715.125	33819.58
715.469	33705.46
715.812	33735.74
716.156	33483.31
716.499	33600.83
716.843	33553.37
717.186	33271.34
717.53	33432.24
717.873	33468.85
718.216	33249.42
718.559	33012.59
718.902	33027.96
719.246	32989.54
719.589	32869.09
719.932	32614.18
720.275	32654.86
720.617	32703
720.96	32601.98
721.303	32593.17
721.646	32619.83
721.989	32437.69
722.331	32452.16
722.674	32430.46
723.016	32497.58
723.359	32335.1
723.701	32300.75
724.044	32065.95
724.386	31826.41
724.729	31954.54
725.071	31893.07
725.413	31894.88
725.755	31804.71
726.097	31696.69
726.439	31475.68
726.782	31549.13
727.124	31700.76
727.465	31458.51
727.807	31369.02
728.149	31412.86
728.491	31324.05
728.833	31288.57
729.175	31201.11
729.516	31085.19
729.858	31025.75
730.199	31086.32
730.541	30996.15
730.882	30905.08
731.224	31040.67
731.565	30853.55
731.906	30649.04
732.248	30822.82
732.589	30562.26
732.93	30482.26
733.271	30517.52
733.612	30529.27
733.953	30506.67
734.294	30325.43
734.635	30353.68
734.976	30463.51
735.317	30174.47
735.658	30121.37
735.999	30135.61
736.339	30122.27
736.68	30138.32
737.021	29995.04
737.361	29865.78
737.702	29919.34
738.042	29862.84
738.383	29792.79
738.723	29749.85
739.063	29582.85
739.404	29721.15
739.744	29504.44
740.084	29449.07
740.424	29497.66
740.764	29380.37
741.104	29510.31
741.444	29351.22
741.784	29190.32
742.124	29211.34
742.464	29215.86
742.804	29010.89
743.143	29167.72
743.483	29101.51
743.823	28961.4
744.162	28818.13
744.502	28930.44
744.841	28702.42
745.181	28774.29
745.52	28542.88
745.86	28666.72
746.199	28572.94
746.538	28499.94
746.877	28596.66
747.216	28457.23
747.556	28351.02
747.895	28259.5
748.234	28303.34
748.573	28154.64
748.911	28172.95
749.25	28065.6
749.589	28013.18
749.928	28026.73
750.267	28036.9
750.605	27831.03
750.944	27857.93
751.283	27740.64
751.621	27761.43
751.96	27667.42
752.298	27566.41
752.636	27607.54
752.975	27380.88
753.313	27352.18
753.651	27530.48
753.989	27360.31
754.327	27244.16
754.666	27118.06
755.004	27140.88
755.342	27065.18
755.679	27045.07
756.017	26791.06
756.355	26852.08
756.693	26775.92
757.031	26860.89
757.368	26612.99
757.706	26652.31
758.044	26454.12
758.381	26339.55
758.719	26368.02
759.056	26351.52
759.394	26146.56
759.731	26057.52
760.068	26029.5
760.405	25849.84
760.743	25896.4
761.08	25884.87
761.417	25661.15
761.754	25672.67
762.091	25671.99
762.428	25498.89
762.765	25222.51
763.102	25399.46
763.438	25186.81
763.775	25145.45
764.112	25141.39
764.449	24938.45
764.785	24950.43
765.122	24773.94
765.458	24507.05
765.795	24578.92
766.131	24653.94
766.467	24485.81
766.804	24355.64
767.14	24267.06
767.476	24254.63
767.812	24139.38
768.148	24146.16
768.485	24056.44
768.821	23980.74
769.157	23935.77
769.492	23811.03
769.828	23740.52
770.164	23529.9
770.5	23480.64
770.836	23500.75
771.171	23177.6
771.507	23272.74
771.842	23082.23
772.178	23060.54
772.513	23082.46
772.849	22959.3
773.184	22980.77
773.519	22735.12
773.855	22557.27
774.19	22563.15
774.525	22409.93
774.86	22439.99
775.195	22289.94
775.53	22322.03
775.865	22208.13
776.2	22055.14
776.535	21824.86
776.87	21797.52
777.205	21733.11
777.539	21646.56
777.874	21648.37
778.209	21526.57
778.543	21507.58
778.878	21355.95
779.212	21301.71
779.547	21276.86
779.881	21164.32
780.215	21022.85
780.55	21020.82
780.884	20878.9
781.218	20713.03
781.552	20809.52
781.886	20734.27
782.22	20569.76
782.554	20572.47
782.888	20305.36
783.222	20289.76
783.556	20152.59
783.889	20095.42
784.223	19968.19
784.557	19903.11
784.89	19840.74
785.224	19837.8
785.557	19657.92
785.891	19608.88
786.224	19596.9
786.558	19552.83
786.891	19381.09
787.224	19337.47
787.557	19296.79
787.891	19225.61
788.224	19163.24
788.557	19111.26
788.89	18959.4
789.223	18983.58
789.556	18845.73
789.888	18771.38
790.221	18742.69
790.554	18569.36
790.887	18659.07
791.219	18578.85
791.552	18456.36
791.884	18304.28
792.217	18265.18
792.549	18287.33
792.882	18163.49
793.214	18062.48
793.546	18088.69
793.879	17993.1
794.211	17798.08
794.543	17971.18
794.875	17844.4
795.207	17934.12
795.539	17695.26
795.871	17699.77
796.203	17565.77
796.535	17417.75
796.867	17402.38
797.198	17429.27
797.53	17427.01
797.862	17238.32
798.193	17294.81
798.525	17156.51
798.856	17149.96
799.188	16937.08
799.519	16948.83
799.85	16945.67
800.182	16961.26
800.513	16816.63
800.844	16653.93
801.175	16720.59
801.506	16678.56
801.837	16547.04
802.168	16540.71
802.499	16531.67
802.83	16462.29
803.161	16401.05
803.491	16429.98
803.822	16377.55
804.153	16215.29
804.483	16081.96
804.814	15993.6
805.145	16105.01
805.475	16077.67
805.805	15916.77
806.136	15964.23
806.466	16010.33
806.796	15867.51
807.126	15653.05
807.457	15617.12
807.787	15659.15
808.117	15480.62
808.447	15512.26
808.777	15561.53
809.107	15511.81
809.436	15393.62
809.766	15388.2
810.096	15316.11
810.426	15280.63
810.755	15250.35
811.085	15347.75
811.414	15207.41
811.744	15061.88
812.073	15061.2
812.403	15021.2
812.732	14887.65
813.061	14899.17
813.39	14771.04
813.719	14689.01
814.049	14874.31
814.378	14733.07
814.707	14772.62
815.036	14723.36
815.365	14604.26
815.693	14447.2
816.022	14524.94
816.351	14471.16
816.68	14482.68
817.008	14533.3
817.337	14345.51
817.665	14243.82
817.994	14419.18
818.322	14401.56
818.651	14275.91
818.979	14206.76
819.307	14182.81
819.636	14079.3
819.964	14004.96
820.292	14104.39
820.62	14062.81
820.948	13989.14
821.276	14118.17
821.604	14011.06
821.932	13983.49
822.259	14050.83
822.587	13995.24
822.915	13954.56
823.243	13988.91
823.57	13959.76
823.898	14053.32
824.225	13885.64
824.553	13893.1
824.88	13994.11
825.207	13893.77
825.535	13844.73
825.862	13914.79
826.189	13848.35
826.516	13889.48
826.843	14022.81
827.17	13891.51
827.497	13877.95
827.824	13872.53
828.151	13866.43
828.478	13802.02
828.805	13947.11
829.131	13846.77
829.458	13884.06
829.785	13856.94
830.111	13806.32
830.438	13907.11
830.764	13847.67
831.09	13862.14
831.417	13729.71
831.743	13785.75
832.069	13765.19
832.395	13728.13
832.722	13838.86
833.048	13777.62
833.374	13699.43
833.7	13669.82
834.026	13752.08
834.351	13836.37
834.677	13685.87
835.003	13678.64
835.329	13694.46
835.654	13684.74
835.98	13616.49
836.306	13598.64
836.631	13596.83
836.956	13609.03
837.282	13632.09
837.607	13518.42
837.932	13541.24
838.258	13487.91
838.583	13493.78
838.908	13384.18
839.233	13471.19
839.558	13413.33
839.883	13324.3
840.208	13225.32
840.533	13243.39
840.858	13271.19
841.182	13294.92
841.507	13258.99
841.832	13178.31
842.156	13195.94
842.481	13147.8
842.805	13209.05
843.13	13158.88
843.454	13141.93
843.778	13105.55
844.103	13065.77
844.427	13008.6
844.751	12988.03
845.075	12876.17
845.399	12824.2
845.723	12762.05
846.047	12874.59
846.371	12661.94
846.695	12721.15
847.019	12706.46
847.343	12563.86
847.666	12465.34
847.99	12473.7
848.313	12393.47
848.637	12336.75
848.96	12360.71
849.284	12351.44
849.607	12229.86
849.931	12214.95
850.254	12075.74
850.577	12087.94
850.9	12053.14
851.223	12010.21
851.546	11956.42
851.869	11818.57
852.192	12013.14
852.515	11807.73
852.838	11797.33
853.161	11722.98
853.483	11739.93
853.806	11692.25
854.129	11592.59
854.451	11489.54
854.774	11562.76
855.096	11422.2
855.419	11478.7
855.741	11464.91
856.063	11367.06
856.385	11392.37
856.708	11261.98
857.03	11264.69
857.352	11291.13
857.674	11242.32
857.996	11111.25
858.318	11113.06
858.64	11115.77
858.961	11106.28
859.283	11036.9
859.605	11014.53
859.926	11061.98
860.248	11008.2
860.57	10919.16
860.891	10967.75
861.212	10859.28
861.534	10898.37
861.855	10844.81
862.176	10805.27
862.498	10918.26
862.819	10803.23
863.14	10850.01
863.461	10786.74
863.782	10832.38
864.103	10780.63
864.424	10734.31
864.745	10771.14
865.065	10717.81
865.386	10668.77
865.707	10680.52
866.027	10648.89
866.348	10649.11
866.668	10593.29
866.989	10633.07
867.309	10443.02
867.63	10500.19
867.95	10493.18
868.27	10448.44
868.59	10426.97
868.91	10448.67
869.23	10385.16
869.55	10490.7
869.87	10457.71
870.19	10457.25
870.51	10434.66
870.83	10375.22
871.15	10345.84
871.469	10312.17
871.789	10308.33
872.109	10292.29
872.428	10269.69
872.748	10297.03
873.067	10258.61
873.386	10278.95
873.706	10257.03
874.025	10220.88
874.344	10219.97
874.663	10188.79
874.982	10252.29
875.301	10195.57
875.62	10132.29
875.939	10084.16
876.258	10074.44
876.577	10105.62
876.896	10082.12
877.214	10100.88
877.533	10080.77
877.852	9989.24
878.17	10016.81
878.489	10025.63
878.807	10022.46
879.125	10034.44
879.444	9940.66
879.762	9919.87
880.08	9906.53
880.398	9902.47
880.716	9871.28
881.034	9838.74
881.352	9930.94
881.67	9871.05
881.988	9936.36
882.306	9817.27
882.624	9820.89
882.941	9721.45
883.259	9782.92
883.577	9669.93
883.894	9731.17
884.212	9692.75
884.529	9668.12
884.846	9668.35
885.164	9725.97
885.481	9611.63
885.798	9650.72
886.115	9571.4
886.432	9570.04
886.75	9482.82
887.067	9488.69
887.383	9468.13
887.7	9530.5
888.017	9410.05
888.334	9480.1
888.651	9427
888.967	9469.26
889.284	9365.08
889.6	9355.36
889.917	9328.02
890.233	9323.72
890.55	9233.33
890.866	9248.92
891.182	9150.39
891.498	9211.18
891.815	9168.7
892.131	9144.07
892.447	9142.94
892.763	9087.35
893.079	9069.27
893.395	9029.04
893.71	9017.97
894.026	8977.97
894.342	8988.14
894.657	8869.27
894.973	8862.27
895.289	8820.01
895.604	8842.83
895.92	8813.45
896.235	8736.39
896.55	8783.4
896.865	8745.43
897.181	8758.99
897.496	8686.9
897.811	8686
898.126	8633.8
898.441	8590.18
898.756	8593.12
899.071	8497.08
899.386	8551.31
899.7	8481.26
900.015	8474.71
900.33	8435.61
900.644	8340.92
900.959	8462.73
901.273	8319.68
901.588	8230.87
901.902	8337.54
902.216	8293.69
902.531	8227.03
902.845	8279.23
903.159	8203.3
903.473	8156.97
903.787	8070.2
904.101	8065
904.415	8073.36
904.729	8020.03
905.042	8022.97
905.356	8022.06
905.67	8011.89
905.984	7915.63
906.297	7867.04
906.611	7857.32
906.924	7831.11
907.237	7823.65
907.551	7754.73
907.864	7710.43
908.177	7755.18
908.491	7731.22
908.804	7688.96
909.117	7624.11
909.43	7604.67
909.743	7551.12
910.056	7578.68
910.368	7572.36
910.681	7511.12
910.994	7434.06
911.307	7465.69
911.619	7380.27
911.932	7345.47
912.244	7320.39
912.557	7298.92
912.869	7250.33
913.181	7230.22
913.494	7269.99
913.806	7196.32
914.118	7144.35
914.43	7128.53
914.742	7078.81
915.054	7119.71
915.366	7066.61
915.678	7035.2
915.99	6950.9
916.302	6893.96
916.613	6870.45
916.925	6895.99
917.236	6912.26
917.548	6838.14
917.859	6802.21
918.171	6770.12
918.482	6808.31
918.794	6739.38
919.105	6734.19
919.416	6670.69
919.727	6648.77
920.038	6591.82
920.349	6567.64
920.66	6590.46
920.971	6603.8
921.282	6545.04
921.593	6568.09
921.903	6449.45
922.214	6486.28
922.525	6408.32
922.835	6397.02
923.146	6288.78
923.456	6332.39
923.767	6267.76
924.077	6315.22
924.387	6262.34
924.697	6191.38
925.008	6179.63
925.318	6173.98
925.628	6222.34
925.938	6106.86
926.248	6115.45
926.558	6049.01
926.867	5986.86
927.177	6009.01
927.487	5976.92
927.796	5951.38
928.106	5917.26
928.416	5914.32
928.725	5903.47
929.034	5826.87
929.344	5895.34
929.653	5855.79
929.962	5774.44
930.271	5753.65
930.581	5804.27
930.89	5787.77
931.199	5716.59
931.508	5693.54
931.817	5668.68
932.125	5680.2
932.434	5599.75
932.743	5554.78
933.051	5564.5
933.36	5527.44
933.669	5526.99
933.977	5527.44
934.286	5472.75
934.594	5502.58
934.902	5418.74
935.21	5398.18
935.519	5396.6
935.827	5376.26
936.135	5356.37
936.443	5307.78
936.751	5253.77
937.059	5247.67
937.367	5243.83
937.674	5249.93
937.982	5200.89
938.29	5145.3
938.597	5150.95
938.905	5131.07
939.213	5094.91
939.52	5100.11
939.827	5120.44
940.135	5070.73
940.442	5028.92
940.749	4997.51
941.056	4936.49
941.363	4912.54
941.67	4901.47
941.977	4870.51
942.284	4842.26
942.591	4881.81
942.898	4829.6
943.205	4803.39
943.511	4794.58
943.818	4779.89
944.125	4750.51
944.431	4758.19
944.738	4719.78
945.044	4722.26
945.35	4682.94
945.657	4695.82
945.963	4673.22
946.269	4640.23
946.575	4638.42
946.881	4636.62
947.187	4593.23
947.493	4535.15
947.799	4581.25
948.105	4502.83
948.41	4494.7
948.716	4466.45
949.022	4455.83
949.327	4430.07
949.633	4401.14
949.938	4417.64
950.244	4393.23
950.549	4348.49
950.854	4355.27
951.16	4349.17
951.465	4317.3
951.77	4350.97
952.075	4221.26
952.38	4238.66
952.685	4271.88
952.99	4187.81
953.294	4174.03
953.599	4183.07
953.904	4122.96
954.209	4173.8
954.513	4099.68
954.818	4049.74
955.122	4063.07
955.426	4081.38
955.731	4046.12
956.035	4029.4
956.339	4038.21
956.643	4020.13
956.948	3967.25
957.252	3971.77
957.556	3933.58
957.86	3949.63
958.163	3890.19
958.467	3855.62
958.771	3863.98
959.075	3870.31
959.378	3847.71
959.682	3886.13
959.985	3815.17
960.289	3749.41
960.592	3787.37
960.896	3755.73
961.199	3744.89
961.502	3789.86
961.805	3737.43
962.108	3697.43
962.411	3700.37
962.714	3706.02
963.017	3639.58
963.32	3641.39
963.623	3638.22
963.926	3627.15
964.228	3607.94
964.531	3594.61
964.833	3557.77
965.136	3573.59
965.438	3550.99
965.741	3498.34
966.043	3509.87
966.345	3472.58
966.648	3481.17
966.95	3438.45
967.252	3395.07
967.554	3396.87
967.856	3424.22
968.158	3383.77
968.46	3385.12
968.761	3322.07
969.063	3346.03
969.365	3287.5
969.666	3329.31
969.968	3252.7
970.269	3270.1
970.571	3272.13
970.872	3244.34
971.174	3227.84
971.475	3226.93
971.776	3207.27
972.077	3202.98
972.378	3204.34
972.679	3167.5
972.98	3187.16
973.281	3163.43
973.582	3132.7
973.883	3144.23
974.183	3091.35
974.484	3124.79
974.785	3084.79
975.085	3055.41
975.386	3086.15
975.686	3047.96
975.986	3037.79
976.287	3026.04
976.587	2999.14
976.887	2999.14
977.187	3008.64
977.487	2987.39
977.787	2936.77
978.087	2933.84
978.387	2897.23
978.687	2894.06
978.987	2898.58
979.286	2824.91
979.586	2864.23
979.885	2823.33
980.185	2814.52
980.484	2822.65
980.784	2829.66
981.083	2819.71
981.382	2824.23
981.682	2781.3
981.981	2738.36
982.28	2766.83
982.579	2730
982.878	2756.21
983.177	2748.98
983.475	2701.3
983.774	2716.21
984.073	2733.16
984.372	2691.13
984.67	2648.42
984.969	2664.69
985.267	2659.72
985.566	2666.72
985.864	2616.1
986.162	2567.74
986.461	2562.55
986.759	2583.11
987.057	2571.81
987.355	2578.59
987.653	2540.85
987.951	2534.07
988.249	2517.12
988.547	2516.22
988.844	2480.51
989.142	2483.9
989.44	2447.29
989.737	2444.58
990.035	2431.02
990.332	2466.73
990.63	2447.97
990.927	2432.83
991.224	2414.98
991.521	2425.15
991.819	2399.39
992.116	2402.55
992.413	2383.57
992.71	2391.25
993.006	2341.08
993.303	2342.21
993.6	2315.55
993.897	2312.61
994.193	2262.89
994.49	2256.11
994.787	2275.32
995.083	2284.13
995.379	2271.93
995.676	2254.31
995.972	2231.71
996.268	2234.42
996.565	2205.72
996.861	2189
997.157	2137.7
997.453	2166.85
997.749	2182.44
998.044	2168.43
998.34	2160.52
998.636	2191.03
998.932	2118.49
999.227	2113.52
999.523	2130.69
999.818	2110.58
1000.114	2102.44
1000.409	2101.31
1000.704	2106.51
1001	2044.14
1001.295	2031.03
1001.59	2038.49
1001.885	2031.71
1002.18	1984.93
1002.475	1992.39
1002.77	1977.93
1003.065	2006.18
1003.359	1958.27
1003.654	1960.3
1003.949	1929.57
1004.243	1924.82
1004.538	1922.34
1004.832	1920.08
1005.127	1883.02
1005.421	1869.23
1005.715	1847.76
1006.009	1880.98
1006.304	1849.8
1006.598	1852.51
1006.892	1839.63
1007.186	1833.75
1007.48	1836.46
1007.773	1821.32
1008.067	1814.99
1008.361	1777.48
1008.655	1804.83
1008.948	1770.48
1009.242	1740.65
1009.535	1742
1009.829	1746.75
1010.122	1723.47
1010.415	1737.26
1010.708	1717.6
1011.001	1703.59
1011.295	1723.92
1011.588	1687.09
1011.881	1668.11
1012.173	1666.07
1012.466	1673.98
1012.759	1660.2
1013.052	1651.38
1013.344	1633.3
1013.637	1628.78
1013.93	1602.57
1014.222	1596.7
1014.514	1582.23
1014.807	1587.66
1015.099	1541.56
1015.391	1600.76
1015.683	1561.44
1015.976	1549.92
1016.268	1513.53
1016.56	1497.94
1016.851	1511.27
1017.143	1504.04
1017.435	1491.16
1017.727	1469.24
1018.018	1453.87
1018.31	1458.85
1018.602	1468.56
1018.893	1434.21
1019.185	1411.39
1019.476	1406.42
1019.767	1415.68
1020.058	1423.14
1020.35	1410.26
1020.641	1395.34
1020.932	1389.02
1021.223	1363.26
1021.514	1365.06
1021.804	1342.92
1022.095	1348.79
1022.386	1334.56
1022.677	1318.96
1022.967	1308.79
1023.258	1290.71
1023.548	1314.44
1023.839	1309.02
1024.129	1281
1024.419	1270.15
1024.709	1284.39
1025	1271.73
1025.29	1266.76
1025.58	1248.46
1025.87	1203.94
1026.16	1228.12
1026.449	1213.2
1026.739	1222.47
1027.029	1235.8
1027.319	1235.57
1027.608	1207.78
1027.898	1164.39
1028.187	1150.38
1028.477	1162.13
1028.766	1146.09
1029.055	1141.79
1029.344	1143.83
1029.634	1139.08
1029.923	1130.04
1030.212	1098.63
1030.501	1114.45
1030.79	1119.65
1031.078	1096.82
1031.367	1094.11
1031.656	1090.95
1031.945	1095.47
1032.233	1066.31
1032.522	1058.86
1032.81	1041.46
1033.099	1051.4
1033.387	1035.58
1033.675	1050.27
1033.963	1015.92
1034.251	1039.65
1034.54	1035.35
1034.828	995.81
1035.116	1005.52
1035.403	994.9
1035.691	1005.98
1035.979	981.12
1036.267	970.05
1036.554	965.53
1036.842	965.3
1037.129	970.5
1037.417	959.65
1037.704	956.49
1037.992	935.47
1038.279	935.24
1038.566	917.84
1038.853	917.84
1039.14	917.84
