Data from foil_FLMS001491_037.txt Node
Date: Tue Feb 07 11:26:15 GMT 2017
User: dcchb
Spectrometer: FLMS00149
Trigger mode: 0
Integration Time (sec): 2.000000E-2
Scans to average: 10
Electric dark correction enabled: true
Nonlinearity correction enabled: false
Boxcar width: 0
XAxis mode: Wavelengths
Number of Pixels in Spectrum: 2048
>>>>>Begin Spectral Data<<<<<
341.393	-16.23
341.776	-16.23
342.16	-16.23
342.543	-65.49
342.927	-53.52
343.31	-70.01
343.693	-78.83
344.077	-64.14
344.46	-46.96
344.843	-34.53
345.226	-53.06
345.61	-29.56
345.993	-19.62
346.376	-9.22
346.759	4.34
347.142	29.65
347.525	38.23
347.908	56.76
348.291	94.96
348.674	70.55
349.057	111.45
349.44	133.6
349.823	139.93
350.206	191.9
350.588	276.87
350.971	269.64
351.354	307.15
351.737	322.52
352.119	320.03
352.502	340.82
352.884	361.84
353.267	362.29
353.65	372.01
354.032	362.07
354.414	396.64
354.797	389.41
355.179	413.82
355.562	428.28
355.944	418.79
356.326	430.99
356.709	424.44
357.091	461.95
357.473	431.9
357.855	425.79
358.238	430.77
358.62	431.44
359.002	445.45
359.384	461.73
359.766	459.92
360.148	451.33
360.53	444.78
360.912	435.74
361.294	447.71
361.676	433.48
362.057	449.52
362.439	453.82
362.821	445.91
363.203	477.32
363.584	446.13
363.966	461.27
364.348	449.07
364.729	453.59
365.111	456.53
365.493	452.46
365.874	437.32
366.256	486.58
366.637	454.95
367.019	452.69
367.4	472.35
367.781	484.1
368.163	493.81
368.544	478.9
368.925	480.03
369.306	489.07
369.688	478
370.069	483.87
370.45	482.29
370.831	480.03
371.212	495.85
371.593	512.57
371.974	485.68
372.355	518.22
372.736	516.19
373.117	502.63
373.498	506.24
373.879	514.38
374.26	526.36
374.641	494.04
375.021	507.15
375.402	545.34
375.783	559.58
376.163	591.21
376.544	569.74
376.925	560.48
377.305	590.08
377.686	561.38
378.066	565.68
378.447	588.95
378.827	556.19
379.208	584.89
379.588	590.31
379.968	607.71
380.349	618.78
380.729	608.39
381.109	610.42
381.489	615.17
381.87	641.83
382.25	637.99
382.63	639.12
383.01	672.34
383.39	682.74
383.77	657.88
384.15	669.18
384.53	692.23
384.91	703.07
385.29	667.37
385.67	715.5
386.049	717.31
386.429	719.12
386.809	739.01
387.189	753.92
387.568	764.77
387.948	736.97
388.328	774.03
388.707	762.28
389.087	774.49
389.466	814.71
389.846	805.67
390.225	804.32
390.605	828.72
390.984	836.4
391.363	854.26
391.743	852.22
392.122	867.82
392.501	863.97
392.881	890.19
393.26	889.74
393.639	918.66
394.018	924.76
394.397	915.27
394.776	956.4
395.155	957.98
395.534	966.57
395.913	957.98
396.292	956.85
396.671	989.39
397.05	978.55
397.429	1007.25
397.808	1000.47
398.186	1029.85
398.565	1014.48
398.944	1043.86
399.323	1051.99
399.701	1063.07
400.08	1082.73
400.458	1112.33
400.837	1117.75
401.215	1119.79
401.594	1109.62
401.972	1138.32
402.351	1150.75
402.729	1184.19
403.107	1191.42
403.486	1190.52
403.864	1197.3
404.242	1196.85
404.62	1218.99
404.999	1223.51
405.377	1236.17
405.755	1267.81
406.133	1290.4
406.511	1287.24
406.889	1309.16
407.267	1331.31
407.645	1346.67
408.023	1377.63
408.401	1411.3
408.779	1419.67
409.156	1391.42
409.534	1451.98
409.912	1454.24
410.29	1518.65
410.667	1506.44
411.045	1499.44
411.422	1538.53
411.8	1573.56
412.178	1580.34
412.555	1626.44
412.933	1651.3
413.31	1677.06
413.687	1709.15
414.065	1714.57
414.442	1741.69
414.819	1744.86
415.197	1768.58
415.574	1813.78
415.951	1811.07
416.328	1849.94
416.705	1836.6
417.082	1867.56
417.46	1863.5
417.837	1891.29
418.214	1903.27
418.591	1958.86
418.967	1957.96
419.344	1991.63
419.721	2013.32
420.098	2021.23
420.475	2034.11
420.852	2057.84
421.228	2099.65
421.605	2129.48
421.982	2142.13
422.358	2161.12
422.735	2173.77
423.111	2170.61
423.488	2229.59
423.864	2229.14
424.241	2302.81
424.617	2295.35
424.994	2321.34
425.37	2346.87
425.746	2359.08
426.123	2417.83
426.499	2373.54
426.875	2424.16
427.251	2501.67
427.627	2489.47
428.003	2549.58
428.379	2596.81
428.756	2619.41
429.132	2686.98
429.507	2705.96
429.883	2753.19
430.259	2743.02
430.635	2771.72
431.011	2816.01
431.387	2867.09
431.763	2948.21
432.138	2924.26
432.514	2999.29
432.89	3043.13
433.265	3049.68
433.641	3119.51
434.016	3131.49
434.392	3172.84
434.767	3286.51
435.143	3249.45
435.518	3294.42
435.894	3289
436.269	3352.72
436.644	3439.05
437.02	3444.02
437.395	3466.39
437.77	3541.19
438.145	3556.33
438.52	3619.16
438.895	3650.12
439.271	3669.78
439.646	3748.64
440.021	3808.76
440.395	3805.59
440.77	3775.31
441.145	3794.52
441.52	3850.34
441.895	3900.28
442.27	3940.73
442.645	3936.21
443.019	3995.42
443.394	4029.99
443.769	4044.46
444.143	3992.25
444.518	4067.28
444.892	4081.52
445.267	4151.12
445.641	4163.1
446.016	4159.26
446.39	4220.04
446.764	4284
447.139	4236.54
447.513	4286.71
447.887	4365.13
448.262	4335.07
448.636	4371.45
449.01	4432.69
449.384	4469.98
449.758	4495.07
450.132	4559.92
450.506	4603.76
450.88	4601.73
451.254	4638.56
451.628	4697.32
452.002	4770.09
452.376	4762.63
452.75	4834.72
453.123	4883.76
453.497	4992.91
453.871	5033.36
454.244	5103.86
454.618	5166.46
454.992	5242.84
455.365	5182.5
455.739	5407.36
456.112	5365.78
456.486	5435.15
456.859	5506.34
457.232	5604.41
457.606	5582.27
457.979	5681.7
458.352	5782.94
458.725	5875.37
459.099	5935.03
459.472	6036.72
459.845	6094.12
460.218	6149.94
460.591	6240.33
460.964	6212.53
461.337	6413.89
461.71	6479.87
462.083	6602.81
462.456	6573.65
462.829	6615.69
463.201	6778.62
463.574	6783.82
463.947	6860.2
464.32	7007.09
464.692	7115.56
465.065	7139.06
465.438	7233.07
465.81	7372.96
466.183	7421.54
466.555	7539.05
466.928	7643.68
467.3	7675.77
467.672	7771.59
468.045	7943.11
468.417	7988.98
468.789	8008.42
469.161	8170
469.534	8347.17
469.906	8537.9
470.278	8567.95
470.65	8646.59
471.022	8859.02
471.394	8958.68
471.766	9000.71
472.138	9229.4
472.51	9337.2
472.882	9473.92
473.253	9607.7
473.625	9750.07
473.997	9940.57
474.369	9966.11
474.74	10091.3
475.112	10345.31
475.484	10512.76
475.855	10768.12
476.227	10734.68
476.598	11075.23
476.97	11178.73
477.341	11354.55
477.713	11554.54
478.084	11658.04
478.455	12009.22
478.827	12106.84
479.198	12472.93
479.569	12453.05
479.94	12801.06
480.311	12889.19
480.682	13225.91
481.053	13496.41
481.424	13732.34
481.795	13838.32
482.166	14035.83
482.537	14232.66
482.908	14496.16
483.279	14719.66
483.65	14943.83
484.021	15308.57
484.391	15460.88
484.762	15551.72
485.133	15760.08
485.503	15899.74
485.874	16327.3
486.244	16408.65
486.615	16822.2
486.985	16958.01
487.356	17298.34
487.726	17377.44
488.097	17796.86
488.467	17858.33
488.837	18313.46
489.207	18352.1
489.578	18718.19
489.948	18823.28
490.318	19094.23
490.688	19265.75
491.058	19527.21
491.428	19728.56
491.798	19992.29
492.168	20255.78
492.538	20355.44
492.908	20698.48
493.278	20947.51
493.648	20979.15
494.017	21276.09
494.387	21386.82
494.757	21689.64
495.126	21832.24
495.496	21973.25
495.866	22139.12
496.235	22341.38
496.605	22491.88
496.974	22677.19
497.344	22922.83
497.713	23056.61
498.082	23290.96
498.452	23479.43
498.821	23618.4
499.19	23725.52
499.559	23927.55
499.928	24014.78
500.298	24194.89
500.667	24466.97
501.036	24509.68
501.405	24789.45
501.774	24790.58
502.143	24940.18
502.512	25022.44
502.88	25367.74
503.249	25498.13
503.618	25687.05
503.987	25828.97
504.356	25991.68
504.724	26238.9
505.093	26232.12
505.462	26433.25
505.83	26579.68
506.199	26804.08
506.567	27157.29
506.936	27148.03
507.304	27474.57
507.672	27504.4
508.041	27717.51
508.409	27876.82
508.777	28088.34
509.145	28261.22
509.514	28352.29
509.882	28664.83
510.25	28677.71
510.618	29007.64
510.986	29113.18
511.354	29393.62
511.722	29711.35
512.09	29937.79
512.458	29892.36
512.826	30078.57
513.193	30196.54
513.561	30568.5
513.929	30667.48
514.297	31152.67
514.664	31420.46
515.032	31396.73
515.4	31674.24
515.767	31997.17
516.135	32031.52
516.502	32035.58
516.869	32630.82
517.237	32772.74
517.604	32792.63
517.972	33177.93
518.339	33356.91
518.706	33388.77
519.073	33638.71
519.44	33875.99
519.808	34271.01
520.175	34300.16
520.542	34851.1
520.909	34890.88
521.276	35054.49
521.643	35439.79
522.009	35677.07
522.376	35795.71
522.743	36039.55
523.11	36536.03
523.477	36743.71
523.843	37179.86
524.21	37373.97
524.577	37710.24
524.943	37912.94
525.31	38061.19
525.676	38389.77
526.043	38579.37
526.409	38930.54
526.776	39250.76
527.142	39338.67
527.508	39674.93
527.874	39969.84
528.241	40193.79
528.607	40266.1
528.973	40687.79
529.339	40835.8
529.705	41122.12
530.071	41579.97
530.437	41735.67
530.803	41792.16
531.169	42066.73
531.535	42046.39
531.901	42265.82
532.267	42531.13
532.632	42878.91
532.998	42974.96
533.364	43281.16
533.73	43442.06
534.095	43837.08
534.461	43941.49
534.826	44115.72
535.192	44298.31
535.557	44469.16
535.923	44524.75
536.288	44787.79
536.653	45035.92
537.019	44939.43
537.384	45235.92
537.749	45395.23
538.114	45458.06
538.479	45565.62
538.845	45903.02
539.21	45776.24
539.575	46026.85
539.94	46143.69
540.305	46708.87
540.67	46505.26
541.034	46780.51
541.399	46951.58
541.764	46958.13
542.129	47202.87
542.494	47391.11
542.858	47401.73
543.223	47451.9
543.587	47841.04
543.952	47700.26
544.316	47943.41
544.681	47881.95
545.045	48156.06
545.41	48368.94
545.774	48465.43
546.138	48608.03
546.503	48758.53
546.867	48746.33
547.231	49174.12
547.595	49216.83
547.959	49437.84
548.324	49494.79
548.688	49486.65
549.052	49686.19
549.416	49828.11
549.779	49743.59
550.143	49898.84
550.507	50284.82
550.871	50382.45
551.235	50314.88
551.599	50631.48
551.962	50710.12
552.326	50800.51
552.689	51106.04
553.053	51053.62
553.417	51146.72
553.78	51601.62
554.143	51447.5
554.507	51653.6
554.87	51712.58
555.234	52144.21
555.597	51917.55
555.96	52027.37
556.323	52120.71
556.686	52292.23
557.05	52660.35
557.413	52630.52
557.776	52801.37
558.139	53086.1
558.502	53129.49
558.865	53202.71
559.228	53488.81
559.59	53536.49
559.953	53612.42
560.316	53962.92
560.679	53923.37
561.041	54084.72
561.404	54219.41
561.767	54422.57
562.129	54315.9
562.492	54664.37
562.854	54793.63
563.217	54706.85
563.579	54912.27
563.941	55043.57
564.304	55187.97
564.666	55401.75
565.028	55458.02
565.39	55522.88
565.753	55772.14
566.115	55843.32
566.477	55969.42
566.839	56046.7
567.201	56225.23
567.563	56253.48
567.925	56474.94
568.287	56510.42
568.648	56534.83
569.01	56685.33
569.372	56916.06
569.734	56854.59
570.095	57038.09
570.457	57107.24
570.819	57201.48
571.18	57235.83
571.542	57339.55
571.903	57449.61
572.265	57534.8
572.626	57611.41
572.987	57636.27
573.349	57774.57
573.71	57860.22
574.071	57938.41
574.432	58017.27
574.794	58167.1
575.155	58114.45
575.516	58068.57
575.877	58201.45
576.238	58206.2
576.599	58384.04
576.96	58357.83
577.32	58483.02
577.681	58472.63
578.042	58561.67
578.403	58508.11
578.763	58524.15
579.124	58592.85
579.485	58748.55
579.845	58847.53
580.206	58715.79
580.566	58796.24
580.927	58741.77
581.287	58921.43
581.648	58842.34
582.008	58899.28
582.368	58862.45
582.728	58922.11
583.089	58989.23
583.449	58911.94
583.809	59017.93
584.169	59004.37
584.529	59033.74
584.889	59241.65
585.249	59076.91
585.609	58905.84
585.969	58956.46
586.329	59019.96
586.688	59055.44
587.048	59058.15
587.408	58995.33
587.768	59008.66
588.127	58994.88
588.487	59002.33
588.846	59192.38
589.206	58984.03
589.565	59108.77
589.925	59156.45
590.284	59157.36
590.643	59132.05
591.003	59168.43
591.362	59218.82
591.721	59176.11
592.08	59123.01
592.44	59265.38
592.799	59247.98
593.158	59191.25
593.517	59199.62
593.876	59205.04
594.235	59167.98
594.593	59142.22
594.952	59274.64
595.311	59239.61
595.67	59180.41
596.029	59373.62
596.387	59359.39
596.746	59436.22
597.104	59270.57
597.463	59320.97
597.822	59423.11
598.18	59327.75
598.538	59316
598.897	59555.99
599.255	59336.56
599.613	59725.03
599.972	59450.23
600.33	59558.48
600.688	59489.33
601.046	59482.09
601.404	59568.65
601.762	59519.16
602.12	59645.93
602.478	59678.7
602.836	59660.62
603.194	59471.47
603.552	59619.27
603.91	59581.98
604.268	59670.56
604.625	59629.43
604.983	59681.41
605.341	59578.81
605.698	59773.16
606.056	59801.86
606.413	59729.77
606.771	59876.21
607.128	59894.06
607.485	59826.94
607.843	59831.46
608.2	59909.2
608.557	60046.83
608.914	59994.4
609.272	60094.28
609.629	60089.99
609.986	60186.03
610.343	60091.57
610.7	60240.49
611.057	60188.97
611.414	60190.55
611.771	60232.81
612.127	60252.47
612.484	60259.25
612.841	60393.71
613.198	60182.64
613.554	60245.92
613.911	60401.62
614.267	60396.87
614.624	60400.49
614.98	60421.73
615.337	60581.27
615.693	60511.22
616.05	60475.29
616.406	60629.41
616.762	60506.47
617.118	60508.73
617.475	60490.66
617.831	60564.55
618.187	60567.26
618.543	60591.22
618.899	60723.42
619.255	60751.21
619.611	60674.83
619.967	60746.47
620.323	60828.95
620.678	60704.66
621.034	60680.48
621.39	60642.06
621.746	60619.92
622.101	60870.98
622.457	60702.85
622.812	60722.97
623.168	60798.22
623.523	60800.93
623.879	60962.06
624.234	60639.8
624.589	60863.98
624.945	60779.24
625.3	60858.78
625.655	60838.22
626.01	60840.93
626.365	60804.32
626.72	60720.71
627.075	60708.73
627.43	60753.93
627.785	60705.56
628.14	60718.22
628.495	60714.6
628.85	60697.43
629.205	60592.35
629.559	60765.9
629.914	60529.07
630.269	60627.15
630.623	60538.79
630.978	60523.87
631.332	60642.74
631.687	60668.5
632.041	60589.18
632.396	60561.16
632.75	60497.43
633.104	60512.35
633.459	60413.14
633.813	60370.88
634.167	60381.73
634.521	60274.84
634.875	60380.38
635.229	60222.64
635.583	60175.18
635.937	60157.78
636.291	60170.89
636.645	60203.88
636.999	60084.34
637.352	60153.04
637.706	59983.55
638.06	60054.28
638.413	59993.95
638.767	59931.12
639.121	60075.3
639.474	59891.57
639.828	59913.04
640.181	59952.82
640.534	59965.92
640.888	59950.78
641.241	59745.82
641.594	59828.3
641.947	59890.67
642.301	59730.68
642.654	59811.13
643.007	59761.86
643.36	59801.86
643.713	59662.65
644.066	59734.52
644.419	59555.99
644.771	59280.74
645.124	59019.06
645.477	58854.99
645.83	58764.15
646.182	58748.1
646.535	58796.01
646.888	58864.94
647.24	58800.76
647.593	59019.73
647.945	58914.43
648.298	58782.68
648.65	58684.6
649.002	58547.43
649.355	58653.42
649.707	58545.62
650.059	58538.62
650.411	58825.84
650.763	58857.03
651.115	59060.18
651.467	59039.85
651.819	59111.26
652.171	58951.94
652.523	58937.93
652.875	58958.27
653.227	58814.09
653.578	59014.76
653.93	58802.11
654.282	58732.51
654.633	58703.81
654.985	58806.63
655.337	58769.8
655.688	58771.83
656.039	58822.22
656.391	58592.85
656.742	58749.46
657.094	58569.58
657.445	58663.81
657.796	58676.01
658.147	58645.28
658.498	58618.39
658.849	58566.86
659.2	58563.93
659.551	58480.31
659.902	58581.55
660.253	58530.03
660.604	58556.69
660.955	58428.11
661.306	58593.53
661.656	58428.34
662.007	58407.55
662.358	58435.79
662.708	58493.65
663.059	58391.73
663.409	58295.01
663.76	58387.21
664.11	58416.59
664.461	58436.02
664.811	58382.91
665.161	58366.19
665.511	58231.28
665.862	58269.24
666.212	58338.85
666.562	58248.45
666.912	58189.47
667.262	58176.59
667.612	58239.87
667.962	58184.5
668.312	58160.55
668.662	58250.26
669.011	58215.46
669.361	58191.73
669.711	58119.19
670.06	58124.84
670.41	58062.7
670.76	58091.85
671.109	58222.24
671.459	58056.37
671.808	58044.84
672.157	58060.66
672.507	57839.88
672.856	57862.93
673.205	57947.22
673.554	58051.85
673.904	57977.27
674.253	58085.97
674.602	57946.54
674.951	57648.92
675.3	57491.19
675.649	57885.75
675.998	57751.74
676.346	57810.27
676.695	57887.79
677.044	57676.04
677.393	57743.38
677.741	57780.22
678.09	57612.09
678.438	57546.1
678.787	57591.3
679.135	57672.42
679.484	57499.77
679.832	57551.52
680.181	57396.27
680.529	57469.27
680.877	57348.82
681.225	57289.16
681.573	57431.53
681.922	57248.48
682.27	57173.91
682.618	57162.38
682.966	57095.26
683.314	57113.12
683.661	57038.09
684.009	56910.86
684.357	56890.75
684.705	56869.96
685.053	56897.76
685.4	56831.77
685.748	56685.11
686.095	56737.08
686.443	56587.71
686.79	56598.33
687.138	56653.02
687.485	56604.43
687.832	56474.72
688.18	56500.25
688.527	56342.97
688.874	56375.28
689.221	56307.26
689.568	56266.81
689.915	56095.97
690.262	56062.75
690.609	56025.01
690.956	56008.06
691.303	55993.82
691.65	55859.14
691.997	55760.61
692.344	55610.56
692.69	55644.45
693.037	55619.37
693.383	55306.38
693.73	55370.34
694.077	55202.88
694.423	55215.99
694.769	55126.5
695.116	54971.03
695.462	55014.64
695.808	54904.59
696.155	54954.53
696.501	54796.12
696.847	54714.31
697.193	54479.06
697.539	54588.66
697.885	54329.69
698.231	54340.08
698.577	54463.7
698.923	54246.75
699.269	54142.12
699.614	53910.49
699.96	53857.84
700.306	53926.53
700.651	53688.57
700.997	53636.37
701.342	53637.05
701.688	53640.67
702.033	53613.32
702.379	53651.06
702.724	53423.95
703.069	53476.15
703.415	53036.61
703.76	53134.92
704.105	53190.06
704.45	52950.29
704.795	52908.71
705.14	52675.04
705.485	52824.19
705.83	52638.66
706.175	52692.89
706.52	52506.23
706.865	52343.3
707.209	52364.54
707.554	52267.59
707.899	52292.23
708.243	52051.33
708.588	52014.72
708.932	51809.3
709.277	51812.24
709.621	51777.89
709.966	51570.44
710.31	51647.05
710.654	51406.6
710.998	51498.35
711.342	51510.1
711.687	51339.03
712.031	51217.45
712.375	51014.29
712.719	51045.48
713.063	50943.11
713.407	51007.51
713.75	50948.31
714.094	50759.39
714.438	50785.15
714.782	50743.11
715.125	50478.04
715.469	50573.4
715.812	50438.26
716.156	50226.07
716.499	50264.48
716.843	50317.59
717.186	49951.05
717.53	50151.49
717.873	50239.17
718.216	50111.27
718.559	49838.73
718.902	49556.03
719.246	49630.83
719.589	49719.41
719.932	49493.2
720.275	49564.84
720.617	49460.66
720.96	49270.39
721.303	49458.85
721.646	49299.54
721.989	49077.85
722.331	49224.28
722.674	49027.45
723.016	49092.99
723.359	48950.17
723.701	48935.25
724.044	48696.16
724.386	48615.49
724.729	48796.95
725.071	48591.53
725.413	48671.76
725.755	48465.66
726.097	48242.62
726.439	48230.19
726.782	48078.1
727.124	48119.23
727.465	48014.37
727.807	47862.06
728.149	47842.4
728.491	47650.99
728.833	47627.72
729.175	47546.36
729.516	47442.64
729.858	47319.7
730.199	47467.49
730.541	47374.62
730.882	47394.05
731.224	47365.8
731.565	47097.79
731.906	47254.39
732.248	47189.99
732.589	46834.52
732.93	46833.16
733.271	46971.24
733.612	47053.04
733.953	46858.7
734.294	46714.75
734.635	46383.23
734.976	46674.52
735.317	46518.37
735.658	46525.37
735.999	46470.91
736.339	46402.44
736.68	46469.1
737.021	46144.59
737.361	45955.44
737.702	46117.7
738.042	45978.04
738.383	45823.02
738.723	45844.94
739.063	45700.99
739.404	45798.39
739.744	45714.32
740.084	45520.2
740.424	45633.42
740.764	45410.15
741.104	45479.07
741.444	45224.62
741.784	45238.63
742.124	45190.49
742.464	45091.74
742.804	45024.4
743.143	45117.95
743.483	44964.74
743.823	44771.75
744.162	44813.78
744.502	44767.9
744.841	44569.49
745.181	44760
745.52	44419.67
745.86	44470.06
746.199	44371.76
746.538	44301.48
746.877	44289.5
747.216	44253.57
747.556	44105.32
747.895	43954.37
748.234	43856.74
748.573	43962.5
748.911	43710.08
749.25	43791.43
749.589	43644.09
749.928	43764.09
750.267	43693.13
750.605	43416.75
750.944	43314.84
751.283	43285.01
751.621	43363.65
751.96	43061.06
752.298	43005.47
752.636	42954.62
752.975	42615.87
753.313	42490.45
753.651	42803.21
753.989	42525.03
754.327	42661.97
754.666	42222.21
755.004	42303.79
755.342	42260.17
755.679	42169.1
756.017	41856.79
756.355	42054.98
756.693	41808.66
757.031	41750.81
757.368	41434.43
757.706	41387.88
758.044	41354.21
758.381	41399.41
758.719	41233.99
759.056	41055.69
759.394	40908.8
759.731	40764.62
760.068	40859.76
760.405	40754.45
760.743	40564.4
761.08	40739.54
761.417	40321.47
761.754	40378.64
762.091	40163.96
762.428	40003.51
762.765	39953.57
763.102	39707.92
763.438	39592.45
763.775	39497.99
764.112	39210.76
764.449	39432.23
764.785	39145.91
765.122	38892.35
765.458	38730.32
765.795	38640.38
766.131	38601.97
766.467	38451.46
766.804	38359.71
767.14	38207.85
767.476	37982.32
767.812	37893.74
768.148	37994.3
768.485	37635.89
768.821	37454.65
769.157	37365.61
769.492	37343.24
769.828	37339.63
770.164	37051.27
770.5	36962.91
770.836	36877.72
771.171	36673.65
771.507	36594.56
771.842	36367.9
772.178	36501.91
772.513	36345.75
772.849	36182.37
773.184	35978.76
773.519	35997.74
773.855	35762.04
774.19	35587.58
774.525	35396.85
774.86	35407.25
775.195	35370.19
775.53	35011.55
775.865	34989.86
776.2	34848.84
776.535	34446.82
776.87	34565.91
777.205	34316.88
777.539	34099.03
777.874	34164.12
778.209	33825.82
778.543	33719.38
778.878	33603
779.212	33611.14
779.547	33482.78
779.881	33440.07
780.215	33205.5
780.55	33257.02
780.884	32942.23
781.218	32894.77
781.552	32833.98
781.886	32756.7
782.22	32551.28
782.554	32466.31
782.888	32182.25
783.222	32195.35
783.556	32034
783.889	31907.45
784.223	31619.78
784.557	31678.08
784.89	31584.3
785.224	31389.73
785.557	31251.2
785.891	31236.96
786.224	31059.11
786.558	31053.92
786.891	30783.87
787.224	30659.58
787.557	30544.78
787.891	30460.26
788.224	30508.62
788.557	30490.54
788.89	30452.8
789.223	30336.87
789.556	30000.84
789.888	29950.44
790.221	29797
790.554	29462.32
790.887	29668.87
791.219	29368.99
791.552	29475.43
791.884	29273.4
792.217	29153.4
792.549	29088.32
792.882	28766.29
793.214	28638.84
793.546	28676.8
793.879	28641.55
794.211	28418.28
794.543	28525.62
794.875	28320.65
795.207	28423.93
795.539	28152.75
795.871	28246.31
796.203	27820.78
796.535	27611.75
796.867	27742.14
797.198	27650.84
797.53	27593.44
797.862	27496.27
798.193	27634.8
798.525	27277.74
798.856	27336.5
799.188	27026
799.519	26969.5
799.85	26874.82
800.182	26813.57
800.513	26810.64
800.844	26528.61
801.175	26638.66
801.506	26574.94
801.837	26386.69
802.168	26201.61
802.499	26281.39
802.83	26067.38
803.161	25968.17
803.491	26089.3
803.822	26120.71
804.153	25884.11
804.483	25656.54
804.814	25599.37
805.145	25528.18
805.475	25529.31
805.805	25348.98
806.136	25386.49
806.466	25290.9
806.796	25338.36
807.126	25206.16
807.457	25191.02
807.787	25088.65
808.117	24869.67
808.447	24847.98
808.777	24918.26
809.107	24833.51
809.436	24663.57
809.766	24596.46
810.096	24498.83
810.426	24523.24
810.755	24489.12
811.085	24398.72
811.414	24375.22
811.744	24020.2
812.073	24051.84
812.403	23977.72
812.732	23853.88
813.061	23898.85
813.39	23801.45
813.719	23702.47
814.049	23833.09
814.378	23558.07
814.707	23401.69
815.036	23531.18
815.365	23305.64
815.693	23227.23
816.022	23329.82
816.351	23190.62
816.68	22998.08
817.008	23179.77
817.337	22943.62
817.665	22809.84
817.994	22968.93
818.322	23016.84
818.651	22757.41
818.979	22665.21
819.307	22734.81
819.636	22620.92
819.964	22436.29
820.292	22532.78
820.62	22402.84
820.948	22420.47
821.276	22546.34
821.604	22366.46
821.932	22550.86
822.259	22574.59
822.587	22424.31
822.915	22421.83
823.243	22403.07
823.57	22370.08
823.898	22318.78
824.225	22415.95
824.553	22393.13
824.88	22376.4
825.207	22335.27
825.535	22236.97
825.862	22483.29
826.189	22325.11
826.516	22322.85
826.843	22457.08
827.17	22442.39
827.497	22395.16
827.824	22365.1
828.151	22313.81
828.478	22340.47
828.805	22308.61
829.131	22335.73
829.458	22146.8
829.785	22056.64
830.111	22054.15
830.438	22168.05
830.764	22183.19
831.09	22169.63
831.417	21975.96
831.743	22187.71
832.069	22206.46
832.395	21967.83
832.722	22050.99
833.048	22054.15
833.374	22080.37
833.7	21916.08
834.026	21914.72
834.351	21854.38
834.677	21847.83
835.003	21898.22
835.329	21869.75
835.654	21986.13
835.98	21877.21
836.306	21894.61
836.631	21899.13
836.956	21888.28
837.282	21802.18
837.607	21762.86
837.932	21767.38
838.258	21782.52
838.583	21764.67
838.908	21632.69
839.233	21689.42
839.558	21608.74
839.883	21508.18
840.208	21398.12
840.533	21477.67
840.858	21366.71
841.182	21449.87
841.507	21488.06
841.832	21286.49
842.156	21317
842.481	21173.04
842.805	21158.58
843.13	21062.99
843.454	21058.7
843.778	21015.53
844.103	21010.56
844.427	20885.37
844.751	21057.12
845.075	20913.39
845.399	20766.05
845.723	20740.51
846.047	20788.87
846.371	20517.24
846.695	20566.96
847.019	20392.73
847.343	20267.08
847.666	20209
847.99	20193.18
848.313	20088.1
848.637	19956.35
848.96	19917.26
849.284	19913.42
849.607	19630.49
849.931	19648.57
850.254	19527.89
850.577	19418.51
850.9	19348.69
851.223	19288.8
851.546	19350.49
851.869	19208.35
852.192	19257.16
852.515	19004.06
852.838	19008.36
853.161	19098.75
853.483	18917.06
853.806	18762.26
854.129	18719.1
854.451	18696.05
854.774	18599.55
855.096	18666.67
855.419	18647.91
855.741	18509.61
856.063	18374.7
856.385	18330.86
856.708	18332.44
857.03	18296.06
857.352	18349.62
857.674	18208.15
857.996	18153.69
858.318	17944.2
858.64	18035.73
858.961	17953.02
859.283	17965.9
859.605	17943.98
859.926	17887.93
860.248	17869.85
860.57	17681.39
860.891	17623.99
861.212	17602.52
861.534	17672.57
861.855	17591.22
862.176	17512.12
862.498	17546.25
862.819	17695.17
863.14	17511.22
863.461	17529.98
863.782	17460.6
864.103	17480.03
864.424	17337.44
864.745	17386.03
865.065	17193.04
865.386	17126.6
865.707	17180.61
866.027	17245.46
866.348	17171.79
866.668	17184.9
866.989	17224.22
867.309	17021.97
867.63	17117.11
867.95	17053.83
868.27	16987.17
868.59	17046.37
868.91	16885.47
869.23	16944.91
869.55	16930.67
869.87	17054.74
870.19	16924.57
870.51	16828.3
870.83	16913.72
871.15	16791.24
871.469	16807.96
871.789	16889.32
872.109	16787.17
872.428	16692.03
872.748	16753.05
873.067	16776.78
873.386	16653.39
873.706	16702.88
874.025	16622.2
874.344	16576.78
874.663	16541.3
874.982	16593.73
875.301	16496.11
875.62	16502.21
875.939	16454.75
876.258	16434.86
876.577	16358.71
876.896	16348.99
877.214	16285.94
877.533	16298.37
877.852	16303.12
878.17	16195.1
878.489	16183.8
878.807	16220.41
879.125	16168.88
879.444	16079.17
879.762	16106.74
880.08	16201.42
880.398	16068.77
880.716	16096.57
881.034	16096.12
881.352	16202.1
881.67	16089.11
881.988	16064.03
882.306	15935.44
882.624	15929.12
882.941	15869
883.259	15778.16
883.577	15862.22
883.894	15732.28
884.212	15801.66
884.529	15716.24
884.846	15703.13
885.164	15688.44
885.481	15604.15
885.798	15640.54
886.115	15648.67
886.432	15644.83
886.75	15488.9
887.067	15551.95
887.383	15542.91
887.7	15445.06
888.017	15410.94
888.334	15491.39
888.651	15434.21
888.967	15298.4
889.284	15179.98
889.6	15206.2
889.917	15096.14
890.233	15038.07
890.55	15033.09
890.866	15062.7
891.182	15065.63
891.498	14922.36
891.815	14935.69
892.131	14792.87
892.447	14904.28
892.763	14743.61
893.079	14727.11
893.395	14763.27
893.71	14693.89
894.026	14759.65
894.342	14650.5
894.657	14589.26
894.973	14510.17
895.289	14498.87
895.604	14469.04
895.92	14293.23
896.235	14280.12
896.55	14274.02
896.865	14231.53
897.181	14279.67
897.496	14308.59
897.811	14193.34
898.126	14171.2
898.441	14037.87
898.756	13992.22
899.071	13937.75
899.386	13910.41
899.7	13867.47
900.015	13822.05
900.33	13688.04
900.644	13744.54
900.959	13712
901.273	13620.93
901.588	13648.5
901.902	13458.9
902.216	13480.37
902.531	13435.4
902.845	13467.48
903.159	13449.86
903.473	13323.08
903.787	13320.37
904.101	13254.61
904.415	13145.91
904.729	13147.27
905.042	13021.85
905.356	13033.6
905.67	12989.31
905.984	12997.67
906.297	12940.04
906.611	12857.33
906.924	12875.41
907.237	12728.97
907.551	12727.17
907.864	12636.55
908.177	12652.37
908.491	12576.89
908.804	12528.75
909.117	12335.76
909.43	12436.33
909.743	12259.83
910.056	12314.75
910.368	12289.44
910.681	12203.11
910.994	12112.04
911.307	12139.61
911.619	12043.79
911.932	12057.8
912.244	11917.02
912.557	11983
912.869	11946.39
913.181	11831.37
913.494	11760.86
913.806	11756.57
914.118	11725.16
914.43	11608.1
914.742	11696.91
915.054	11565.39
915.366	11545.05
915.678	11523.81
915.99	11374.21
916.302	11274.55
916.613	11331.95
916.925	11263.48
917.236	11281.78
917.548	11159.07
917.859	11206.53
918.171	11133.76
918.482	11023.48
918.794	10948.68
919.105	10960.21
919.416	10823.71
919.727	10866.65
920.038	10790.72
920.349	10717.5
920.66	10682.02
920.971	10706.43
921.282	10589.82
921.593	10598.41
921.903	10535.81
922.214	10560.67
922.525	10576.71
922.835	10450.16
923.146	10466.21
923.456	10453.1
923.767	10363.84
924.077	10278.87
924.387	10255.59
924.697	10167.23
925.008	10077.52
925.318	10113.9
925.628	10120.91
925.938	10051.98
926.248	9884.3
926.558	9818.54
926.867	9852.66
927.177	9798.43
927.487	9811.31
927.796	9725.44
928.106	9724.08
928.416	9666.91
928.725	9701.48
929.034	9584.42
929.344	9506.46
929.653	9570.41
929.962	9435.95
930.271	9397.31
930.581	9332.45
930.89	9386.91
931.199	9274.15
931.508	9296.75
931.817	9252.23
932.125	9237.31
932.434	9216.52
932.743	9139.69
933.051	9052.69
933.36	9059.01
933.669	8945.57
933.977	8927.49
934.286	8851.56
934.594	8890.2
934.902	8838.68
935.21	8695.41
935.519	8809.98
935.827	8707.38
936.135	8659.48
936.443	8629.19
936.751	8576.99
937.059	8567.05
937.367	8520.04
937.674	8502.42
937.982	8443.66
938.29	8448.41
938.597	8409.09
938.905	8391.69
939.213	8332.03
939.52	8278.02
939.827	8285.02
940.135	8252.03
940.442	8164.35
940.749	8151.47
941.056	8100.39
941.363	8050.45
941.67	8063.56
941.977	8007.06
942.284	7943.34
942.591	7868.76
942.898	7848.42
943.205	7891.13
943.511	7827.18
943.818	7759.39
944.125	7767.07
944.431	7741.08
944.738	7725.26
945.044	7593.97
945.35	7600.29
945.657	7549
945.963	7510.35
946.269	7483.46
946.575	7476.68
946.881	7462.22
947.187	7433.97
947.493	7396.46
947.799	7363.92
948.105	7373.63
948.41	7290.25
948.716	7232.39
949.022	7239.4
949.327	7178.38
949.633	7139.06
949.938	7129.8
950.244	7111.95
950.549	7043.7
950.854	6997.82
951.16	6935
951.465	6934.55
951.77	6927.09
952.075	6868.11
952.38	6831.73
952.685	6856.13
952.99	6786.3
953.294	6783.82
953.599	6774.55
953.904	6685.52
954.209	6672.86
954.513	6687.32
954.818	6681.9
955.122	6636.03
955.426	6669.02
955.731	6561.45
956.035	6509.7
956.339	6545.86
956.643	6529.59
956.948	6464.73
957.252	6387.45
957.556	6354.9
957.86	6311.74
958.163	6278.3
958.467	6205.53
958.771	6188.58
959.075	6224.96
959.378	6195.81
959.682	6245.08
959.985	6151.07
960.289	6079.43
960.592	6114.46
960.896	6081.69
961.199	6010.05
961.502	5992.88
961.805	6003.95
962.108	5969.15
962.411	6020.68
962.714	5879.66
963.017	5856.61
963.32	5838.98
963.623	5827.23
963.926	5848.93
964.228	5781.59
964.531	5735.94
964.833	5732.32
965.136	5669.5
965.438	5660.46
965.741	5651.65
966.043	5598.54
966.345	5588.82
966.648	5560.12
966.95	5517.19
967.252	5529.61
967.554	5482.38
967.856	5516.73
968.158	5421.59
968.46	5447.81
968.761	5396.96
969.063	5359
969.365	5386.34
969.666	5319
969.968	5309.51
970.269	5304.08
970.571	5272.9
970.872	5209.17
971.174	5215.5
971.475	5204.65
971.776	5180.25
972.077	5168.95
972.378	5109.51
972.679	5105.67
972.98	5101.38
973.281	5010.98
973.582	5012.11
973.883	5045.56
974.183	4973.24
974.484	4948.84
974.785	4935.28
975.085	4971.66
975.386	4925.79
975.686	4901.16
975.986	4841.72
976.287	4802.63
976.587	4792.23
976.887	4777.54
977.187	4767.15
977.487	4764.89
977.787	4766.7
978.087	4685.34
978.387	4682.18
978.687	4660.94
978.987	4623.65
979.286	4567.83
979.586	4589.3
979.885	4567.83
980.185	4515.86
980.484	4541.84
980.784	4518.34
981.083	4545.23
981.382	4500.04
981.682	4466.37
981.981	4425.46
982.28	4458.68
982.579	4401.73
982.878	4384.11
983.177	4371.68
983.475	4331.91
983.774	4290.55
984.073	4211.46
984.372	4269.99
984.67	4270.89
984.969	4218.46
985.267	4186.37
985.566	4146.83
985.864	4135.3
986.162	4122.87
986.461	4085.81
986.759	4063.89
987.057	4064.34
987.355	4077.22
987.653	4064.34
987.951	3995.87
988.249	3990.67
988.547	3954.97
988.844	3966.94
989.142	3914.74
989.44	3962.88
989.737	3919.49
990.035	3864.35
990.332	3884.91
990.63	3870.68
990.927	3848.75
991.224	3805.14
991.521	3806.04
991.819	3817.57
992.116	3757.23
992.413	3725.37
992.71	3723.33
993.006	3714.07
993.303	3668.87
993.6	3674.07
993.897	3632.72
994.193	3627.74
994.49	3670.45
994.787	3590
995.083	3605.6
995.379	3562.21
995.676	3551.81
995.972	3539.84
996.268	3503.45
996.565	3460.74
996.861	3463.91
997.157	3465.04
997.453	3421.42
997.749	3403.34
998.044	3369.67
998.34	3380.52
998.636	3379.16
998.932	3349.11
999.227	3270.46
999.523	3322.44
999.818	3295.55
1000.114	3254.87
1000.409	3236.34
1000.704	3230.01
1001	3209.68
1001.295	3184.14
1001.59	3189.34
1001.885	3152.5
1002.18	3100.07
1002.475	3096.91
1002.77	3115.67
1003.065	3075.67
1003.359	3065.5
1003.654	3057.36
1003.949	3002.22
1004.243	2991.83
1004.538	2970.13
1004.832	2995.67
1005.127	2976.69
1005.421	2938.27
1005.715	2903.02
1006.009	2913.86
1006.304	2888.1
1006.598	2847.43
1006.892	2832.96
1007.186	2804.71
1007.48	2787.09
1007.773	2772.85
1008.067	2766.3
1008.361	2762.91
1008.655	2756.81
1008.948	2745.28
1009.242	2738.5
1009.535	2703.93
1009.829	2657.6
1010.122	2685.4
1010.415	2630.48
1010.708	2627.54
1011.001	2583.25
1011.295	2585.74
1011.588	2592.97
1011.881	2530.6
1012.173	2536.7
1012.466	2535.34
1012.759	2533.99
1013.052	2517.72
1013.344	2501.45
1013.637	2490.37
1013.93	2448.34
1014.222	2415.12
1014.514	2437.72
1014.807	2399.98
1015.099	2405.85
1015.391	2399.08
1015.683	2340.55
1015.976	2368.57
1016.268	2334.67
1016.56	2360.66
1016.851	2291.51
1017.143	2289.7
1017.435	2289.93
1017.727	2266.42
1018.018	2252.64
1018.31	2246.31
1018.602	2220.1
1018.893	2194.33
1019.185	2172.19
1019.476	2169.7
1019.767	2181.45
1020.058	2122.47
1020.35	2098.97
1020.641	2079.76
1020.932	2081.8
1021.223	2084.73
1021.514	2075.47
1021.804	2032.53
1022.095	2004.06
1022.386	2015.36
1022.677	1980.56
1022.967	1958.41
1023.258	1961.57
1023.548	1924.06
1023.839	1933.1
1024.129	1920.9
1024.419	1911.18
1024.709	1904.63
1025	1868.47
1025.29	1868.69
1025.58	1842.93
1025.87	1843.61
1026.16	1802.48
1026.449	1802.71
1026.739	1807
1027.029	1803.61
1027.319	1811.75
1027.608	1754.12
1027.898	1763.16
1028.187	1752.09
1028.477	1706.66
1028.766	1720.9
1029.055	1690.62
1029.344	1688.36
1029.634	1647.23
1029.923	1674.35
1030.212	1652.2
1030.501	1651.3
1030.79	1624.41
1031.078	1593.9
1031.367	1591.19
1031.656	1582.15
1031.945	1576.05
1032.233	1549.61
1032.522	1555.26
1032.81	1564.52
1033.099	1515.26
1033.387	1510.06
1033.675	1473.22
1033.963	1500.79
1034.251	1508.7
1034.54	1486.78
1034.828	1456.05
1035.116	1462.15
1035.403	1441.59
1035.691	1444.07
1035.979	1423.96
1036.267	1398.65
1036.554	1399.55
1036.842	1365.2
1037.129	1376.28
1037.417	1360.23
1037.704	1341.7
1037.992	1358.65
1038.279	1342.83
1038.566	1356.16
1038.853	1356.16
1039.14	1356.16
