Data from foil_FLMS001491_016.txt Node
Date: Tue Feb 07 11:25:28 GMT 2017
User: dcchb
Spectrometer: FLMS00149
Trigger mode: 0
Integration Time (sec): 2.000000E-2
Scans to average: 10
Electric dark correction enabled: true
Nonlinearity correction enabled: false
Boxcar width: 0
XAxis mode: Wavelengths
Number of Pixels in Spectrum: 2048
>>>>>Begin Spectral Data<<<<<
341.393	-6.82
341.776	-6.82
342.16	-6.82
342.543	-63.09
342.927	-67.39
343.31	-68.74
343.693	-59.02
344.077	-69.42
344.46	-62.64
344.843	-48.63
345.226	-37.56
345.61	-27.61
345.993	-16.77
346.376	-7.73
346.759	0.18
347.142	34.98
347.525	38.6
347.908	38.37
348.291	79.73
348.674	77.24
349.057	128.99
349.44	128.09
349.823	133.06
350.206	170.35
350.588	234.08
350.971	253.96
351.354	266.17
351.737	265.49
352.119	287.18
352.502	302.77
352.884	314.98
353.267	331.47
353.65	335.32
354.032	348.88
354.414	354.75
354.797	373.51
355.179	397.69
355.562	411.25
355.944	374.19
356.326	401.3
356.709	401.08
357.091	397.24
357.473	428.42
357.855	400.63
358.238	412.6
358.62	388.65
359.002	401.3
359.384	408.53
359.766	404.69
360.148	406.27
360.53	408.08
360.912	414.64
361.294	427.97
361.676	412.83
362.057	402.43
362.439	422.77
362.821	413.96
363.203	415.31
363.584	408.31
363.966	405.6
364.348	395.43
364.729	409.66
365.111	406.73
365.493	424.58
365.874	410.12
366.256	415.09
366.637	417.8
367.019	392.04
367.4	427.52
367.781	424.13
368.163	427.97
368.544	440.85
368.925	433.62
369.306	432.26
369.688	420.51
370.069	447.86
370.45	415.99
370.831	432.49
371.212	446.05
371.593	444.24
371.974	444.47
372.355	457.35
372.736	458.02
373.117	466.61
373.498	467.74
373.879	465.93
374.26	452.6
374.641	470.91
375.021	467.52
375.402	465.26
375.783	472.26
376.163	516.78
376.544	500.28
376.925	503.9
377.305	507.29
377.686	507.06
378.066	495.99
378.447	511.13
378.827	515.88
379.208	520.62
379.588	518.14
379.968	522.43
380.349	537.34
380.729	522.66
381.109	548.19
381.489	557.46
381.87	550.23
382.25	561.3
382.63	557.01
383.01	555.65
383.39	559.49
383.77	562.43
384.15	592.26
384.53	612.6
384.91	607.4
385.29	602.65
385.67	580.51
386.049	617.12
386.429	618.25
386.809	628.64
387.189	637.23
387.568	655.31
387.948	639.04
388.328	651.24
388.707	655.99
389.087	661.86
389.466	671.35
389.846	712.26
390.225	693.05
390.605	702.09
390.984	719.26
391.363	709.77
391.743	735.53
392.122	725.14
392.501	759.03
392.881	754.29
393.26	777.79
393.639	753.61
394.018	778.92
394.397	797.68
394.776	817.11
395.155	792.71
395.534	811.69
395.913	808.75
396.292	820.5
396.671	814.17
397.05	831.57
397.429	832.93
397.808	853.27
398.186	861.86
398.565	874.74
398.944	877.9
399.323	905.7
399.701	886.94
400.08	906.83
400.458	900.5
400.837	926.26
401.215	951.35
401.594	935.07
401.972	958.35
402.351	974.85
402.729	983.21
403.107	975.75
403.486	983.43
403.864	994.51
404.242	1014.17
404.62	1044.45
404.999	1067.5
405.377	1048.52
405.755	1058.01
406.133	1083.77
406.511	1066.37
406.889	1095.07
407.267	1125.8
407.645	1138.23
408.023	1155.41
408.401	1154.5
408.779	1181.4
409.156	1169.87
409.534	1197.21
409.912	1232.47
410.29	1253.48
410.667	1256.65
411.045	1281.28
411.422	1298.45
411.8	1328.96
412.178	1351.56
412.555	1365.12
412.933	1369.19
413.31	1382.52
413.687	1403.54
414.065	1411.22
414.442	1440.15
414.819	1430.43
415.197	1441.5
415.574	1505.23
415.951	1510.2
416.328	1481.5
416.705	1539.35
417.082	1524.89
417.46	1590.65
417.837	1608.5
418.214	1568.05
418.591	1575.74
418.967	1588.16
419.344	1672
419.721	1647.82
420.098	1660.25
420.475	1705.22
420.852	1735.96
421.228	1729.4
421.605	1737.77
421.982	1799.01
422.358	1789.52
422.735	1812.79
423.111	1823.64
423.488	1851.89
423.864	1859.57
424.241	1894.15
424.617	1951.09
424.994	1915.39
425.37	1958.32
425.746	1941.6
426.123	1978.89
426.499	1974.14
426.875	2007.81
427.251	2101.82
427.627	2083.29
428.003	2119.22
428.379	2143.63
428.756	2196.96
429.132	2213.46
429.507	2241.48
429.883	2255.49
430.259	2322.61
430.635	2344.98
431.011	2323.74
431.387	2414.36
431.763	2444.87
432.138	2464.53
432.514	2506.33
432.89	2512.89
433.265	2573.45
433.641	2592.21
434.016	2643.73
434.392	2684.18
434.767	2700.23
435.143	2714.01
435.518	2735.03
435.894	2762.37
436.269	2811.18
436.644	2829.71
437.02	2903.38
437.395	2912.88
437.77	2924.17
438.145	2970.28
438.52	3049.37
438.895	3021.57
439.271	3125.07
439.646	3152.19
440.021	3158.07
440.395	3184.51
440.77	3158.74
441.145	3237.84
441.52	3265.18
441.895	3283.26
442.27	3321.45
442.645	3350.6
443.019	3377.72
443.394	3377.04
443.769	3416.82
444.143	3412.3
444.518	3517.38
444.892	3463.82
445.267	3526.87
445.641	3586.53
446.016	3558.06
446.39	3631.73
446.764	3693.65
447.139	3673.53
447.513	3716.47
447.887	3751.72
448.262	3741.1
448.636	3769.8
449.01	3869.23
449.384	3862.91
449.758	3885.51
450.132	3967.31
450.506	4009.12
450.88	4014.99
451.254	4030.81
451.628	4085.95
452.002	4120.53
452.376	4183.35
452.75	4194.65
453.123	4275.33
453.497	4327.08
453.871	4330.92
454.244	4445.04
454.618	4446.17
454.992	4526.17
455.365	4511.48
455.739	4616.33
456.112	4679.61
456.486	4701.3
456.859	4740.4
457.232	4813.62
457.606	4782.2
457.979	4823.56
458.352	4958.7
458.725	4990.11
459.099	5006.38
459.472	5178.58
459.845	5224.45
460.218	5179.03
460.591	5303.32
460.964	5292.47
461.337	5426.71
461.71	5507.38
462.083	5566.36
462.456	5547.38
462.829	5580.38
463.201	5683.2
463.574	5748.28
463.947	5815.4
464.32	5921.61
464.692	5977.88
465.065	6010.2
465.438	6105.56
465.81	6156.86
466.183	6254.48
466.555	6400.02
466.928	6390.07
467.3	6407.47
467.672	6515.49
468.045	6690.4
468.417	6676.17
468.789	6734.92
469.161	6846.78
469.534	6955.93
469.906	7083.61
470.278	7100.11
470.65	7206.77
471.022	7329.03
471.394	7500.78
471.766	7546.43
472.138	7624.84
472.51	7752.97
472.882	7902.35
473.253	7997.71
473.625	8139.18
473.997	8312.28
474.369	8329.23
474.74	8410.58
475.112	8625.04
475.484	8697.13
475.855	8857.58
476.227	8924.02
476.598	9223.67
476.97	9282.88
477.341	9461.63
477.713	9601.29
478.084	9685.58
478.455	9881.73
478.827	9995.85
479.198	10290.08
479.569	10265
479.94	10544.31
480.311	10645.1
480.682	11036.73
481.053	11172.55
481.424	11329.6
481.795	11419.77
482.166	11621.12
482.537	11790.38
482.908	12054.78
483.279	12176.13
483.65	12410.25
484.021	12586.97
484.391	12791.94
484.762	12911.48
485.133	13056.11
485.503	13148.54
485.874	13534.52
486.244	13671.24
486.615	13916.88
486.985	14049.08
487.356	14370.65
487.726	14379.01
488.097	14729.97
488.467	14770.19
488.837	15100.13
489.207	15273.91
489.578	15475.71
489.948	15684.97
490.318	15844.51
490.688	15894.23
491.058	16224.84
491.428	16401.11
491.798	16566.75
492.168	16920.19
492.538	17006.52
492.908	17174.42
493.278	17352.95
493.648	17432.49
494.017	17632.94
494.387	17836.1
494.757	17968.07
495.126	18169.42
495.496	18241.29
495.866	18439.7
496.235	18644.89
496.605	18822.29
496.974	18915.17
497.344	18998.33
497.713	19303.63
498.082	19339.34
498.452	19517.18
498.821	19658.88
499.19	19694.81
499.559	19966.89
499.928	20056.15
500.298	20235.36
500.667	20366.43
501.036	20389.93
501.405	20562.58
501.774	20724.84
502.143	20984.72
502.512	20994.43
502.88	21161.66
503.249	21183.36
503.618	21433.07
503.987	21547.41
504.356	21743.79
504.724	21840.29
505.093	21991.47
505.462	22063.78
505.83	22222.88
506.199	22478.46
506.567	22755.74
506.936	22732.24
507.304	22958.9
507.672	23133.59
508.041	23277.76
508.409	23360.02
508.777	23522.28
509.145	23739.9
509.514	23837.3
509.882	24090.85
510.25	24092.21
510.618	24207.23
510.986	24429.15
511.354	24563.38
511.722	24836.37
512.09	25056.93
512.458	25025.97
512.826	25401.55
513.193	25536.91
513.561	25587.31
513.929	25741.65
514.297	26010.57
514.664	26230
515.032	26418.02
515.4	26671.12
515.767	26719.48
516.135	26930.55
516.502	26796.99
516.869	27312.01
517.237	27320.82
517.604	27382.97
517.972	27739.57
518.339	27902.5
518.706	28137.07
519.073	28196.28
519.44	28408.25
519.808	28724.4
520.175	28651.18
520.542	29141.79
520.909	29313.54
521.276	29252.75
521.643	29725.05
522.009	29831.49
522.376	30059.05
522.743	30260.18
523.11	30550.57
523.477	30812.71
523.843	31083.66
524.21	31380.15
524.577	31588.28
524.943	31704.21
525.31	31933.13
525.676	32175.83
526.043	32515.49
526.409	32646.56
526.776	33012.87
527.142	33103.27
527.508	33279.31
527.874	33530.38
528.241	33663.25
528.607	33639.53
528.973	34050.14
529.339	33989.8
529.705	34445.15
530.071	34767.18
530.437	34966.04
530.803	35149.99
531.169	35352.47
531.535	35250.56
531.901	35486.26
532.267	35746.36
532.632	35973.02
532.998	36053.47
533.364	36308.16
533.73	36389.74
534.095	36748.14
534.461	36732.55
534.826	36932.09
535.192	37058.87
535.557	37469.48
535.923	37375.02
536.288	37686.42
536.653	37845.97
537.019	37756.03
537.384	37935.68
537.749	37995.34
538.114	38137.71
538.479	38247.77
538.845	38367.76
539.21	38361.21
539.575	38618.15
539.94	38832.16
540.305	39078.25
540.67	38919.61
541.034	39163.9
541.399	39354.18
541.764	39501.52
542.129	39482.54
542.494	39680.5
542.858	39797.56
543.223	40023.76
543.587	40209.97
543.952	40211.1
544.316	40382.62
544.681	40308.73
545.045	40502.17
545.41	40782.61
545.774	40833.69
546.138	41061.48
546.503	41007.24
546.867	41073.45
547.231	41401.35
547.595	41451.07
547.959	41763.38
548.324	41659.88
548.688	41817.84
549.052	42059.64
549.416	41884.96
549.779	42109.58
550.143	42260.77
550.507	42550.48
550.871	42597.93
551.235	42599.06
551.599	43045.61
551.962	42999.73
552.326	43165.6
552.689	43365.6
553.053	43342.32
553.417	43379.38
553.78	43959.03
554.143	43747.06
554.507	43864.34
554.87	44009.65
555.234	44392.69
555.597	44428.85
555.96	44619.8
556.323	44688.73
556.686	44909.51
557.05	45140.92
557.413	45222.05
557.776	45353.34
558.139	45661.36
558.502	45684.63
558.865	45769.15
559.228	46103.6
559.59	46173.66
559.953	46334.78
560.316	46703.36
560.679	46758.73
561.041	46966.63
561.404	47120.3
561.767	47295.66
562.129	47365.94
562.492	47741.3
562.854	47661.76
563.217	47735.2
563.579	47937.91
563.941	48078.92
564.304	48267.39
564.666	48534.73
565.028	48672.8
565.39	48744.21
565.753	49026.69
566.115	49092.45
566.477	49230.75
566.839	49191.21
567.201	49484.76
567.563	49464.19
567.925	49839.55
568.287	49906.22
568.648	49886.1
569.01	50218.98
569.372	50319.99
569.734	50267.79
570.095	50452.42
570.457	50642.47
570.819	50719.75
571.18	50753.65
571.542	50927.66
571.903	50946.19
572.265	51020.99
572.626	51121.33
572.987	51249.91
573.349	51295.11
573.71	51542.11
574.071	51583.23
574.432	51724.25
574.794	51884.47
575.155	51817.58
575.516	51767.18
575.877	51994.07
576.238	52070
576.599	52072.71
576.96	52164.91
577.32	52078.14
577.681	52248.98
578.042	52257.11
578.403	52328.07
578.763	52325.14
579.124	52380.05
579.485	52523.55
579.845	52601.29
580.206	52592.02
580.566	52515.64
580.927	52530.78
581.287	52676.54
581.648	52538.92
582.008	52697.78
582.368	52606.03
582.728	52716.31
583.089	52649.87
583.449	52651
583.809	52640.38
584.169	52742.98
584.529	52628.4
584.889	52839.92
585.249	52718.35
585.609	52546.6
585.969	52770.77
586.329	52685.8
586.688	52802.19
587.048	52709.76
587.408	52676.99
587.768	52627.05
588.127	52659.14
588.487	52657.1
588.846	52831.79
589.206	52661.85
589.565	52749.76
589.925	52710.44
590.284	52652.36
590.643	52759.25
591.003	52851.68
591.362	52787.72
591.721	52769.42
592.08	52842.64
592.44	52888.28
592.799	52853.71
593.158	52775.52
593.517	52759.47
593.876	52745.46
594.235	52721.06
594.593	52792.24
594.952	52806.03
595.311	52726.71
595.67	52764.67
596.029	52965.12
596.387	52921.28
596.746	52968.73
597.104	52878.34
597.463	52847.16
597.822	52951.33
598.18	52740.49
598.538	52802.41
598.897	53047.15
599.255	52654.39
599.613	53193.14
599.972	52944.33
600.33	52976.64
600.688	52875.86
601.046	53024.55
601.404	53143.65
601.762	53047.6
602.12	53111.33
602.478	53086.02
602.836	53159.01
603.194	52946.81
603.552	53114.27
603.91	52953.37
604.268	53145.68
604.625	53069.3
604.983	53231.33
605.341	53111.1
605.698	53229.29
606.056	53195.62
606.413	53203.3
606.771	53287.82
607.128	53333.7
607.485	53150.65
607.843	53163.31
608.2	53304.09
608.557	53431.55
608.914	53286.69
609.272	53429.97
609.629	53498.44
609.986	53545.44
610.343	53575.95
610.7	53559.23
611.057	53601.94
611.414	53495.5
611.771	53537.76
612.127	53652.11
612.484	53636.51
612.841	53743.86
613.198	53585.89
613.554	53691.43
613.911	53845.55
614.267	53779.11
614.624	53752.67
614.98	53809.62
615.337	54011.64
615.693	53907.24
616.05	53824.08
616.406	54042.83
616.762	53940.46
617.118	53913.57
617.475	53878.54
617.831	53941.59
618.187	53955.38
618.543	53952.44
618.899	54076.95
619.255	53933.68
619.611	53892.78
619.967	54051.19
620.323	54142.04
620.678	53933.68
621.034	53848.03
621.39	53854.36
621.746	53870.41
622.101	54215.93
622.457	53863.85
622.812	53969.61
623.168	53997.18
623.523	53987.01
623.879	54081.47
624.234	53821.14
624.589	54006.67
624.945	53922.38
625.3	53910.86
625.655	53918.54
626.01	53914.47
626.365	53961.48
626.72	53910.4
627.075	53806.68
627.43	53891.2
627.785	53715.83
628.14	53779.11
628.495	53860.69
628.85	53839.9
629.205	53710.64
629.559	53787.7
629.914	53724.87
630.269	53802.16
630.623	53661.82
630.978	53593.35
631.332	53705.21
631.687	53726.45
632.041	53551.54
632.396	53559.23
632.75	53438.33
633.104	53592.22
633.459	53409.4
633.813	53369.4
634.167	53326.24
634.521	53213.7
634.875	53356.29
635.229	53162.85
635.583	53053.48
635.937	52972.8
636.291	52989.3
636.645	52947.72
636.999	52861.84
637.352	52984.33
637.706	52711.79
638.06	52803.99
638.413	52767.38
638.767	52690.32
639.121	52739.36
639.474	52484.23
639.828	52511.12
640.181	52530.33
640.534	52446.94
640.888	52329.66
641.241	52253.5
641.594	52193.39
641.947	52303.67
642.301	52186.83
642.654	52150.68
643.007	52115.2
643.36	52049.66
643.713	52054.18
644.066	52061.19
644.419	51924.24
644.771	51708.88
645.124	51423.92
645.477	51271.6
645.83	51089.46
646.182	50820.99
646.535	50831.62
646.888	50903.25
647.24	50577.16
647.593	50938.28
647.945	50933.76
648.298	50636.37
648.65	50593.88
649.002	50363.38
649.355	50496.93
649.707	50343.94
650.059	50550.49
650.411	50907.55
650.763	50872.52
651.115	51204.04
651.467	51039.52
651.819	50933.76
652.171	50894.44
652.523	50816.93
652.875	50792.52
653.227	50697.16
653.578	50880.43
653.93	50681.34
654.282	50667.55
654.633	50455.81
654.985	50566.31
655.337	50574.67
655.688	50509.36
656.039	50613.99
656.391	50330.61
656.742	50433.66
657.094	50406.32
657.445	50406.09
657.796	50427.78
658.147	50193.44
658.498	50132.88
658.849	50276.38
659.2	50181.91
659.551	50079.54
659.902	50208.13
660.253	50110.28
660.604	50065.99
660.955	50043.39
661.306	50023.5
661.656	49986.67
662.007	49919.55
662.358	49952.54
662.708	49941.7
663.059	49915.48
663.409	49589.61
663.76	49906.44
664.11	49833
664.461	49779.89
664.811	49761.36
665.161	49635.04
665.511	49527.02
665.862	49611.53
666.212	49693.57
666.562	49627.81
666.912	49547.58
667.262	49449.28
667.612	49497.19
667.962	49495.15
668.312	49495.83
668.662	49691.76
669.011	49479.56
669.361	49295.84
669.711	49287.48
670.06	49254.48
670.41	49160.25
670.76	49211.55
671.109	49300.13
671.459	48976.97
671.808	48915.28
672.157	49020.82
672.507	48751.9
672.856	48807.94
673.205	48913.93
673.554	48986.24
673.904	48894.04
674.253	49017.2
674.602	48906.69
674.951	48403.66
675.3	48127.73
675.649	48749.64
675.998	48670.09
676.346	48618.34
676.695	48695.17
677.044	48407.27
677.393	48574.05
677.741	48639.81
678.09	48455.86
678.438	48248.41
678.787	48341.96
679.135	48417.67
679.484	48072.37
679.832	48098.81
680.181	47921.18
680.529	47991.01
680.877	47913.73
681.225	47901.07
681.573	48000.5
681.922	47721.19
682.27	47656.78
682.618	47660.85
682.966	47690.68
683.314	47635.77
683.661	47374.98
684.009	47258.38
684.357	47267.87
684.705	47122.79
685.053	47143.8
685.4	47134.09
685.748	46877.37
686.095	46917.59
686.443	46785.39
686.79	46725.06
687.138	46752.63
687.485	46609.58
687.832	46493.65
688.18	46574.33
688.527	46220.21
688.874	46336.37
689.221	46215.47
689.568	45938.41
689.915	45858.64
690.262	45812.09
690.609	45647.12
690.956	45630.4
691.303	45702.71
691.65	45563.05
691.997	45346.79
692.344	45092.33
692.69	45029.73
693.037	45112.22
693.383	44666.58
693.73	44747.26
694.077	44481.5
694.423	44549.52
694.769	44229.98
695.116	44196.99
695.462	44300.04
695.808	44047.16
696.155	44067.5
696.501	43793.38
696.847	43766.26
697.193	43455.09
697.539	43554.74
697.885	43371.02
698.231	43170.8
698.577	43200.86
698.923	43000.63
699.269	42875.89
699.614	42599.06
699.96	42504.15
700.306	42551.38
700.651	42432.51
700.997	42216.47
701.342	42160.43
701.688	41923.83
702.033	41988.68
702.379	42035.46
702.724	41930.61
703.069	41905.07
703.415	41335.82
703.76	41409.04
704.105	41327.91
704.45	41211.98
704.795	40908.03
705.14	40833.01
705.485	40903.74
705.83	40714.59
706.175	40754.82
706.52	40493.36
706.865	40458.1
707.209	40395.28
707.554	40208.62
707.899	40288.84
708.243	40027.38
708.588	40033.26
708.932	39846.82
709.277	39797.78
709.621	39748.74
709.966	39308.75
710.31	39596.43
710.654	39140.4
710.998	39355.53
711.342	39230.79
711.687	39154.86
712.031	38971.81
712.375	38828.77
712.719	38857.47
713.063	38754.87
713.407	39040.96
713.75	38589.45
714.094	38606.17
714.438	38343.81
714.782	38498.83
715.125	38194.89
715.469	38243.02
715.812	38117.6
716.156	37803.94
716.499	37914.67
716.843	37838.74
717.186	37636.93
717.53	37799.19
717.873	37812.3
718.216	37446.88
718.559	37506.32
718.902	37296.38
719.246	37276.94
719.589	37275.14
719.932	37147.46
720.275	37022.49
720.617	36922.6
720.96	36944.07
721.303	36784.75
721.646	36763.06
721.989	36616.85
722.331	36648.94
722.674	36505.44
723.016	36519.45
723.359	36342.5
723.701	36419.56
724.044	36110.19
724.386	35890.31
724.729	36093.02
725.071	35931.22
725.413	35838.56
725.755	35879.69
726.097	35788.62
726.439	35584.56
726.782	35528.29
727.124	35664.1
727.465	35430.44
727.807	35282.42
728.149	35347.5
728.491	35358.8
728.833	35299.59
729.175	35159.94
729.516	35203.33
729.858	35134.85
730.199	35114.29
730.541	34834.3
730.882	34901.86
731.224	34895.54
731.565	34633.17
731.906	34644.02
732.248	34678.37
732.589	34586.84
732.93	34378.26
733.271	34395.21
733.612	34331.26
733.953	34453.06
734.294	34174.88
734.635	34092.62
734.976	34190.92
735.317	34054.43
735.658	34064.15
735.999	33907.31
736.339	33839.29
736.68	33974.43
737.021	33845.17
737.361	33659.64
737.702	33668.9
738.042	33672.74
738.383	33436.82
738.723	33526.99
739.063	33335.8
739.404	33449.02
739.744	33465.74
740.084	33169.71
740.424	33178.52
740.764	33122.25
741.104	33256.03
741.444	33124.51
741.784	32864.18
742.124	32982.37
742.464	32883.84
742.804	32829.83
743.143	32708.93
743.483	32720.45
743.823	32584.64
744.162	32649.49
744.502	32509.84
744.841	32418.09
745.181	32505.09
745.52	32324.08
745.86	32282.72
746.199	32222.16
746.538	32200.24
746.877	32284.08
747.216	32148.72
747.556	31924.99
747.895	31876.63
748.234	31833.47
748.573	31656.3
748.911	31737.43
749.25	31476.42
749.589	31403.43
749.928	31417.89
750.267	31461.05
750.605	31372.47
750.944	31369.98
751.283	31216.76
751.621	31312.58
751.96	31053.83
752.298	30984
752.636	31058.12
752.975	30962.53
753.313	30687.96
753.651	30939.48
753.989	30672.37
754.327	30707.62
754.666	30419.04
755.004	30497.91
755.342	30434.86
755.679	30363
756.017	30157.36
756.355	30244.81
756.693	30087.53
757.031	30053.86
757.368	29909.45
757.706	29834.43
758.044	29683.7
758.381	29772.51
758.719	29590.14
759.056	29629.91
759.394	29469.47
759.731	29209.36
760.068	29150.15
760.405	29090.94
760.743	29030.83
761.08	28954.68
761.417	28968.46
761.754	28825.41
762.091	28771.18
762.428	28591.97
762.765	28468.36
763.102	28424.29
763.438	28312.43
763.775	28172.32
764.112	28221.59
764.449	28165.32
764.785	28007.58
765.122	27886.46
765.458	27756.74
765.795	27646.01
766.131	27567.59
766.467	27349.97
766.804	27391.78
767.14	27187.49
767.476	27159.47
767.812	27051.45
768.148	27015.07
768.485	26890.1
768.821	26752.93
769.157	26874.73
769.492	26761.51
769.828	26641.74
770.164	26421.18
770.5	26373.5
770.836	26341.41
771.171	26036.56
771.507	26097.8
771.842	25802.67
772.178	25789.11
772.513	25723.12
772.849	25650.13
773.184	25630.24
773.519	25591.15
773.855	25580.08
774.19	25351.16
774.525	25276.36
774.86	25238.62
775.195	25234.32
775.53	25057.38
775.865	24786.42
776.2	24657.84
776.535	24605.41
776.87	24565.19
777.205	24503.49
777.539	24331.52
777.874	24439.54
778.209	24091.98
778.543	24063.73
778.878	23990.06
779.212	23990.51
779.547	23754.81
779.881	23732.89
780.215	23504.88
780.55	23610.64
780.884	23451.77
781.218	23256.52
781.552	23381.49
781.886	23231.44
782.22	23119.35
782.554	22989.64
782.888	22836.42
783.222	22792.58
783.556	22650.66
783.889	22546.03
784.223	22289.99
784.557	22306.26
784.89	22347.17
785.224	22264.91
785.557	22091.13
785.891	22054.07
786.224	21966.39
786.558	21866.5
786.891	21717.8
787.224	21756
787.557	21629.22
787.891	21583.8
788.224	21572.95
788.557	21546.96
788.89	21421.54
789.223	21325.95
789.556	21127.09
789.888	21216.8
790.221	21101.1
790.554	20906.3
790.887	20971.84
791.219	20765.06
791.552	20772.97
791.884	20698.85
792.217	20600.32
792.549	20498.85
792.882	20410.04
793.214	20289.59
793.546	20275.58
793.879	20065.19
794.211	20073.78
794.543	20194.23
794.875	19968.02
795.207	20080.33
795.539	19970.73
795.871	19950.85
796.203	19629.5
796.535	19645.99
796.867	19501.14
797.198	19474.47
797.53	19359.9
797.862	19370.3
798.193	19433.34
798.525	19221.6
798.856	19212.79
799.188	19051.43
799.519	18991.1
799.85	18826.13
800.182	18835.39
800.513	18916.07
800.844	18660.48
801.175	18787.49
801.506	18749.75
801.837	18633.82
802.168	18519.92
802.499	18504.78
802.83	18381.4
803.161	18356.76
803.491	18268.4
803.822	18207.84
804.153	18186.82
804.483	18040.39
804.814	17902.54
805.145	17883.78
805.475	17893.05
805.805	17822.09
806.136	17827.29
806.466	17774.18
806.796	17695.99
807.126	17685.82
807.457	17526.05
807.787	17615.09
808.117	17404.7
808.447	17399.05
808.777	17373.29
809.107	17324.93
809.436	17284.7
809.766	17248.09
810.096	17174.2
810.426	17117.02
810.755	17023.46
811.085	17050.13
811.414	16940.3
811.744	16750.7
812.073	16718.16
812.403	16755.22
812.732	16702.12
813.061	16672.29
813.39	16599.97
813.719	16591.39
814.049	16621.22
814.378	16486.08
814.707	16444.05
815.036	16486.98
815.365	16336.93
815.693	16314.78
816.022	16255.12
816.351	16227.78
816.68	16149.82
817.008	16156.59
817.337	15957.05
817.665	15953.21
817.994	15959.99
818.322	15942.59
818.651	15840.22
818.979	15742.82
819.307	15910.05
819.636	15793.89
819.964	15684.07
820.292	15811.07
820.62	15678.64
820.948	15610.17
821.276	15760.22
821.604	15677.51
821.932	15646.33
822.259	15630.96
822.587	15616.04
822.915	15675.7
823.243	15572.66
823.57	15588.7
823.898	15518.87
824.225	15474.13
824.553	15442.94
824.88	15521.13
825.207	15538.31
825.535	15390.06
825.862	15545.54
826.189	15566.1
826.516	15575.37
826.843	15552.09
827.17	15590.28
827.497	15521.13
827.824	15498.53
828.151	15588.7
828.478	15467.57
828.805	15545.31
829.131	15469.61
829.458	15359.33
829.785	15300.12
830.111	15352.55
830.438	15527.46
830.764	15423.28
831.09	15412.66
831.417	15286.56
831.743	15374.47
832.069	15374.24
832.395	15278.43
832.722	15405.43
833.048	15355.26
833.374	15317.52
833.7	15256.28
834.026	15263.29
834.351	15373.56
834.677	15270.29
835.003	15286.79
835.329	15287.24
835.654	15196.39
835.98	15173.34
836.306	15090.18
836.631	15092.44
836.956	15146.23
837.282	15194.36
837.607	15110.29
837.932	15068.04
838.258	15095.83
838.583	15062.84
838.908	14939
839.233	14976.96
839.558	14954.82
839.883	14883.18
840.208	14838.21
840.533	14844.77
840.858	14840.02
841.182	14849.74
841.507	14693.58
841.832	14685
842.156	14641.15
842.481	14647.93
842.805	14546.47
843.13	14577.88
843.454	14599.12
843.778	14556.19
844.103	14479.35
844.427	14400.03
844.751	14400.93
845.075	14354.16
845.399	14305.34
845.723	14298.11
846.047	14322.74
846.371	14173.82
846.695	14245.23
847.019	14019.93
847.343	14018.35
847.666	13975.64
847.99	13930.44
848.313	13874.85
848.637	13730.22
848.96	13760.73
849.284	13722.99
849.607	13694.74
849.931	13605.48
850.254	13512.6
850.577	13442.99
850.9	13363.22
851.223	13405.48
851.546	13287.29
851.869	13303.56
852.192	13199.38
852.515	13176.56
852.838	13069.44
853.161	13171.59
853.483	13016.79
853.806	13009.11
854.129	12983.8
854.451	12869
854.774	12748.1
855.096	12768.66
855.419	12776.12
855.741	12713.97
856.063	12758.04
856.385	12680.53
856.708	12580.42
857.03	12556.92
857.352	12545.16
857.674	12447.77
857.996	12455
858.318	12343.81
858.64	12333.64
858.961	12258.84
859.283	12266.08
859.605	12253.42
859.926	12342.91
860.248	12264.04
860.57	12249.13
860.891	12124.38
861.212	12204.38
861.534	12128.68
861.855	12083.26
862.176	12110.6
862.498	12214.33
862.819	12115.8
863.14	12068.79
863.461	12021.79
863.782	11913.32
864.103	11934.79
864.424	11949.93
864.745	11959.42
865.065	11921.9
865.386	11869.02
865.707	11879.42
866.027	11861.11
866.348	11857.5
866.668	11835.58
866.989	11785.64
867.309	11684.62
867.63	11683.27
867.95	11611.4
868.27	11560.11
868.59	11681.91
868.91	11702.47
869.23	11637.62
869.55	11599.2
869.87	11675.81
870.19	11611.86
870.51	11627.9
870.83	11560.56
871.15	11515.14
871.469	11494.12
871.789	11536.6
872.109	11424.74
872.428	11384.74
872.748	11464.29
873.067	11412.54
873.386	11387.68
873.706	11424.97
874.025	11316.95
874.344	11339.32
874.663	11282.15
874.982	11295.93
875.301	11380.9
875.62	11272.2
875.939	11225.88
876.258	11248.93
876.577	11235.59
876.896	11224.75
877.214	11204.86
877.533	11240.34
877.852	11242.37
878.17	11231.98
878.489	11118.54
878.807	11135.71
879.125	11124.86
879.444	11102.72
879.762	11095.49
880.08	11050.29
880.398	11003.51
880.716	11035.37
881.034	11033.79
881.352	10982.04
881.67	10902.5
881.988	10936.62
882.306	10916.05
882.624	10897.52
882.941	10812.55
883.259	10777.3
883.577	10840.12
883.894	10794.7
884.212	10834.93
884.529	10748.15
884.846	10755.61
885.164	10767.81
885.481	10734.14
885.798	10724.42
886.115	10628.6
886.432	10660.69
886.75	10596.52
887.067	10597.42
887.383	10542.05
887.7	10544.99
888.017	10507.25
888.334	10518.55
888.651	10491.66
888.967	10479.46
889.284	10353.36
889.6	10328.95
889.917	10271.78
890.233	10313.13
890.55	10259.35
890.866	10324.21
891.182	10248.73
891.498	10138.45
891.815	10238.78
892.131	10035.85
892.447	10113.36
892.763	10065
893.079	10090.31
893.395	10024.1
893.71	9975.51
894.026	10017.1
894.342	9927.83
894.657	9872.47
894.973	9846.03
895.289	9796.08
895.604	9867.04
895.92	9738.91
896.235	9693.26
896.55	9723.32
896.865	9642.64
897.181	9625.24
897.496	9664.56
897.811	9697.1
898.126	9605.58
898.441	9549.09
898.756	9593.15
899.071	9557.45
899.386	9549.54
899.7	9472.7
900.015	9416.21
900.33	9324.91
900.644	9284.46
900.959	9278.58
901.273	9320.62
901.588	9150.68
901.902	9214.18
902.216	9206.5
902.531	9100.51
902.845	9068.42
903.159	9059.61
903.473	9058.48
903.787	9043.11
904.101	8980.06
904.415	8982.55
904.729	8923.56
905.042	8840.4
905.356	8833.62
905.67	8745.72
905.984	8819.16
906.297	8818.48
906.611	8703.01
906.924	8655.55
907.237	8757.92
907.551	8659.62
907.864	8596.34
908.177	8594.08
908.491	8570.81
908.804	8496.91
909.117	8453.07
909.43	8376.46
909.743	8404.26
910.056	8338.04
910.368	8342.11
910.681	8309.12
910.994	8275.67
911.307	8294.2
911.619	8256.46
911.932	8236.35
912.244	8109.57
912.557	8151.16
912.869	8116.58
913.181	8025.96
913.494	8014.21
913.806	7988.67
914.118	7962.46
914.43	7890.6
914.742	7878.39
915.054	7838.85
915.366	7867.77
915.678	7792.97
915.99	7781.67
916.302	7694.44
916.613	7748.23
916.925	7729.02
917.236	7678.63
917.548	7582.58
917.859	7571.51
918.171	7579.19
918.482	7496.26
918.794	7505.52
919.105	7488.12
919.416	7411.06
919.727	7405.19
920.038	7376.71
920.349	7331.06
920.66	7220.78
920.971	7274.34
921.282	7284.29
921.593	7145.31
921.903	7131.52
922.214	7185.31
922.525	7110.05
922.835	7096.27
923.146	7080.45
923.456	7074.35
923.767	6995.03
924.077	6950.96
924.387	6971.53
924.697	6876.16
925.008	6886.78
925.318	6857.4
925.628	6867.35
925.938	6790.74
926.248	6746.45
926.558	6764.75
926.867	6753.68
927.177	6644.98
927.487	6595.72
927.796	6604.53
928.106	6546.23
928.416	6553.68
928.725	6557.3
929.034	6521.14
929.344	6450.18
929.653	6442.95
929.962	6430.3
930.271	6407.7
930.581	6343.07
930.89	6338.77
931.199	6316.63
931.508	6281.15
931.817	6264.88
932.125	6268.27
932.434	6210.87
932.743	6165.22
933.051	6106.01
933.36	6141.04
933.669	6104.88
933.977	6063.08
934.286	6078.22
934.594	6003.64
934.902	6007.94
935.21	5981.5
935.519	5960.03
935.827	5964.09
936.135	5892.91
936.443	5831.89
936.751	5785.34
937.059	5792.12
937.367	5743.76
937.674	5826.7
937.982	5747.15
938.29	5717.55
938.597	5729.98
938.905	5652.01
939.213	5628.74
939.52	5612.01
939.827	5644.78
940.135	5599.36
940.442	5527.95
940.749	5533.15
941.056	5520.49
941.363	5481.17
941.67	5470.77
941.977	5397.56
942.284	5372.02
942.591	5381.29
942.898	5306.26
943.205	5380.16
943.511	5264
943.818	5314.39
944.125	5278.24
944.431	5230.55
944.738	5242.76
945.044	5220.39
945.35	5214.06
945.657	5187.17
945.963	5110.33
946.269	5101.52
946.575	5082.08
946.881	5051.8
947.187	5054.51
947.493	5051.35
947.799	5022.65
948.105	5041.18
948.41	4949.66
948.716	4908.98
949.022	4924.12
949.327	4907.63
949.633	4852.94
949.938	4888.19
950.244	4883.45
950.549	4786.05
950.854	4773.62
951.16	4782.43
951.465	4725.71
951.77	4738.14
952.075	4740.17
952.38	4678.93
952.685	4675.54
952.99	4608.42
953.294	4606.84
953.599	4579.72
953.904	4568.65
954.209	4536.11
954.513	4538.14
954.818	4528.65
955.122	4485.49
955.426	4523.23
955.731	4446.62
956.035	4436.68
956.339	4429.45
956.643	4413.85
956.948	4400.29
957.252	4335.89
957.556	4339.28
957.86	4369.11
958.163	4297.7
958.467	4240.3
958.771	4313.97
959.075	4259.73
959.378	4242.11
959.682	4265.16
959.985	4178.83
960.289	4203.91
960.592	4198.49
960.896	4160.3
961.199	4109.91
961.502	4096.57
961.805	4110.36
962.108	4088.66
962.411	4046.86
962.714	4008.67
963.017	4011.6
963.32	3969.57
963.623	3980.87
963.926	3977.93
964.228	3953.53
964.531	3904.71
964.833	3897.71
965.136	3867.65
965.438	3859.07
965.741	3878.95
966.043	3852.29
966.345	3849.12
966.648	3829.69
966.95	3866.07
967.252	3780.2
967.554	3789.46
967.856	3796.24
968.158	3757.15
968.46	3749.01
968.761	3734.32
969.063	3672.4
969.365	3646.19
969.666	3660.88
969.968	3650.71
970.269	3625.63
970.571	3593.99
970.872	3622.01
971.174	3584.95
971.475	3584.04
971.776	3555.8
972.077	3522.8
972.378	3471.96
972.679	3491.62
972.98	3479.41
973.281	3449.58
973.582	3474.22
973.883	3444.39
974.183	3422.92
974.484	3410.94
974.785	3441.9
975.085	3361.23
975.386	3336.14
975.686	3341.34
975.986	3330.49
976.287	3328.23
976.587	3306.31
976.887	3298.4
977.187	3237.61
977.487	3276.26
977.787	3239.42
978.087	3212.75
978.387	3248.23
978.687	3216.14
978.987	3176.15
979.286	3177.5
979.586	3205.07
979.885	3081.91
980.185	3090.95
980.484	3101.35
980.784	3119.2
981.083	3084.4
981.382	3061.12
981.682	3054.34
981.981	3047.56
982.28	3020.9
982.579	3026.09
982.878	2987.9
983.177	3005.08
983.475	2996.26
983.774	2936.38
984.073	2972.08
984.372	2924.63
984.67	2931.18
984.969	2916.72
985.267	2911.97
985.566	2918.98
985.864	2856.83
986.162	2865.87
986.461	2827.91
986.759	2817.06
987.057	2796.72
987.355	2753.33
987.653	2791.3
987.951	2767.57
988.249	2765.99
988.547	2751.98
988.844	2737.74
989.142	2717.17
989.44	2675.82
989.737	2675.82
990.035	2682.15
990.332	2669.04
990.63	2670.85
990.927	2686.44
991.224	2629.94
991.521	2650.28
991.819	2620.68
992.116	2609.38
992.413	2576.16
992.71	2549.27
993.006	2578.87
993.303	2550.17
993.6	2510.4
993.897	2542.94
994.193	2547.91
994.49	2503.85
994.787	2520.34
995.083	2482.83
995.379	2469.27
995.676	2474.24
995.972	2448.25
996.268	2430.4
996.565	2402.61
996.861	2401.93
997.157	2411.87
997.453	2345.66
997.749	2372.32
998.044	2352.44
998.34	2309.95
998.636	2338.88
998.932	2330.52
999.227	2301.59
999.523	2286
999.818	2309.5
1000.114	2245.55
1000.409	2263.4
1000.704	2243.74
1001	2245.32
1001.295	2219.79
1001.59	2204.42
1001.885	2221.82
1002.18	2200.35
1002.475	2186.57
1002.77	2191.76
1003.065	2140.01
1003.359	2128.72
1003.654	2152.9
1003.949	2146.57
1004.243	2102.5
1004.538	2096.63
1004.832	2067.47
1005.127	2079.68
1005.421	2088.49
1005.715	2066.34
1006.009	2072.9
1006.304	2040.13
1006.598	2011.43
1006.892	2009.17
1007.186	1989.96
1007.48	1985.44
1007.773	1960.13
1008.067	1940.92
1008.361	1941.83
1008.655	1953.13
1008.948	1955.16
1009.242	1930.3
1009.535	1909.96
1009.829	1874.48
1010.122	1863.64
1010.415	1890.08
1010.708	1864.99
1011.001	1837.2
1011.295	1803.53
1011.588	1826.8
1011.881	1817.08
1012.173	1806.01
1012.466	1806.69
1012.759	1826.12
1013.052	1782.06
1013.344	1743.41
1013.637	1769.63
1013.93	1759.91
1014.222	1733.25
1014.514	1748.61
1014.807	1736.41
1015.099	1708.39
1015.391	1720.59
1015.683	1686.24
1015.976	1708.84
1016.268	1688.05
1016.56	1632.91
1016.851	1631.78
1017.143	1656.64
1017.435	1646.02
1017.727	1617.99
1018.018	1616.64
1018.31	1580.48
1018.602	1590.88
1018.893	1575.06
1019.185	1531.89
1019.476	1528.28
1019.767	1529.18
1020.058	1530.09
1020.35	1535.06
1020.641	1513.14
1020.932	1498.68
1021.223	1507.49
1021.514	1503.87
1021.804	1465.91
1022.095	1446.93
1022.386	1469.07
1022.677	1416.19
1022.967	1441.05
1023.258	1408.28
1023.548	1415.06
1023.839	1397.21
1024.129	1382.07
1024.419	1399.69
1024.709	1368.74
1025	1371.9
1025.29	1361.5
1025.58	1350.43
1025.87	1335.97
1026.16	1334.61
1026.449	1331.22
1026.739	1305.46
1027.029	1319.7
1027.319	1289.42
1027.608	1318.57
1027.898	1275.86
1028.187	1266.82
1028.477	1224.56
1028.766	1286.93
1029.055	1251.68
1029.344	1217.78
1029.634	1247.38
1029.923	1222.07
1030.212	1202.86
1030.501	1205.58
1030.79	1201.06
1031.078	1202.86
1031.367	1179.59
1031.656	1171.9
1031.945	1147.5
1032.233	1135.75
1032.522	1129.87
1032.81	1132.58
1033.099	1132.13
1033.387	1151.79
1033.675	1136.2
1033.963	1102.98
1034.251	1125.13
1034.54	1112.47
1034.828	1076.31
1035.116	1069.76
1035.403	1085.58
1035.691	1080.83
1035.979	1049.87
1036.267	1050.78
1036.554	1046.94
1036.842	1016.88
1037.129	1014.17
1037.417	1031.12
1037.704	994.73
1037.992	1011
1038.279	988.86
1038.566	1006.71
1038.853	1006.71
1039.14	1006.71
