Data from foil_FLMS001491_095.txt Node
Date: Tue Feb 07 11:37:33 GMT 2017
User: dcchb
Spectrometer: FLMS00149
Trigger mode: 0
Integration Time (sec): 2.000000E-2
Scans to average: 10
Electric dark correction enabled: true
Nonlinearity correction enabled: false
Boxcar width: 0
XAxis mode: Wavelengths
Number of Pixels in Spectrum: 2048
>>>>>Begin Spectral Data<<<<<
341.393	-21.41
341.776	-21.41
342.16	-21.41
342.543	-80.85
342.927	-77
343.31	-58.25
343.693	-87.17
344.077	-48.08
344.46	-52.6
344.843	-54.63
345.226	-48.3
345.61	-36.33
345.993	-11.24
346.376	-9.43
346.759	12.03
347.142	15.42
347.525	37.12
347.908	54.74
348.291	48.87
348.674	106.49
349.057	131.35
349.44	123.9
349.823	151.69
350.206	165.7
350.588	259.71
350.971	253.16
351.354	255.64
351.737	285.7
352.119	296.77
352.502	315.75
352.884	341.74
353.267	340.61
353.65	343.55
354.032	348.75
354.414	356.43
354.797	378.58
355.179	381.74
355.562	365.47
355.944	387.62
356.326	396.43
356.709	401.18
357.091	407.28
357.473	392.36
357.855	405.24
358.238	395.3
358.62	430.1
359.002	429.42
359.384	410.89
359.766	410.67
360.148	415.41
360.53	424.45
360.912	414.28
361.294	415.19
361.676	424.23
362.057	436.2
362.439	428.97
362.821	420.16
363.203	428.07
363.584	413.83
363.966	407.05
364.348	427.39
364.729	425.36
365.111	426.03
365.493	398.69
365.874	413.38
366.256	416.09
366.637	420.38
367.019	423.55
367.4	405.92
367.781	434.4
368.163	454.51
368.544	427.39
368.925	440.04
369.306	435.07
369.688	433.49
370.069	434.4
370.45	430.78
370.831	440.27
371.212	447.28
371.593	468.07
371.974	458.8
372.355	452.25
372.736	489.99
373.117	462.87
373.498	466.71
373.879	472.81
374.26	452.02
374.641	448.63
375.021	454.06
375.402	486.82
375.783	510.33
376.163	537.22
376.544	522.53
376.925	482.76
377.305	511.68
377.686	507.84
378.066	502.19
378.447	510.78
378.827	525.24
379.208	514.62
379.588	498.12
379.968	532.47
380.349	545.35
380.729	545.8
381.109	543.77
381.489	556.65
381.87	561.62
382.25	572.47
382.63	573.83
383.01	580.15
383.39	584.9
383.77	594.62
384.15	591.23
384.53	597.78
384.91	617.22
385.29	591.45
385.67	597.1
386.049	619.25
386.429	652.47
386.809	621.28
387.189	631.45
387.568	657.67
387.948	655.63
388.328	680.04
388.707	652.47
389.087	683.88
389.466	683.2
389.846	697.21
390.225	699.93
390.605	709.19
390.984	735.63
391.363	720.72
391.743	735.4
392.122	752.81
392.501	753.93
392.881	762.97
393.26	788.51
393.639	790.09
394.018	778.34
394.397	783.76
394.776	792.13
395.155	819.02
395.534	826.93
395.913	813.59
396.292	851.79
396.671	839.81
397.05	850.66
397.429	869.64
397.808	858.11
398.186	853.59
398.565	894.04
398.944	888.17
399.323	896.98
399.701	934.95
400.08	926.81
400.458	937.66
400.837	944.66
401.215	940.82
401.594	964.32
401.972	956.64
402.351	997.32
402.729	989.41
403.107	994.83
403.486	1028.05
403.864	1015.17
404.242	1055.4
404.62	1053.59
404.999	1047.71
405.377	1089.52
405.755	1100.14
406.133	1105.56
406.511	1098.33
406.889	1104.43
407.267	1104.66
407.645	1144.21
408.023	1164.77
408.401	1202.74
408.779	1169.97
409.156	1227.59
409.534	1230.98
409.912	1230.53
410.29	1270.53
410.667	1306.01
411.045	1306.69
411.422	1322.51
411.8	1314.15
412.178	1347.59
412.555	1380.13
412.933	1385.78
413.31	1443.86
413.687	1440.02
414.065	1430.75
414.442	1469.17
414.819	1517.3
415.197	1491.99
415.574	1482.73
415.951	1543.97
416.328	1566.12
416.705	1541.48
417.082	1554.59
417.46	1589.85
417.837	1606.79
418.214	1644.53
418.591	1666.68
418.967	1636.85
419.344	1697.64
419.721	1694.7
420.098	1681.14
420.475	1755.94
420.852	1752.33
421.228	1764.98
421.605	1779.22
421.982	1827.35
422.358	1820.57
422.735	1842.95
423.111	1822.61
423.488	1876.17
423.864	1898.09
424.241	1934.69
424.617	1941.02
424.994	1963.17
425.37	1960.68
425.746	1999.1
426.123	1997.29
426.499	2058.08
426.875	2060.34
427.251	2118.42
427.627	2141.47
428.003	2173.78
428.379	2188.7
428.756	2227.12
429.132	2244.07
429.507	2287.91
429.883	2282.48
430.259	2342.37
430.635	2365.42
431.011	2373.1
431.387	2428.02
431.763	2486.54
432.138	2477.96
432.514	2546.2
432.89	2525.19
433.265	2579.65
433.641	2630.5
434.016	2654
434.392	2735.35
434.767	2723.6
435.143	2770.61
435.518	2814.67
435.894	2833.43
436.269	2832.3
436.644	2861.9
437.02	2883.6
437.395	2900.32
437.77	3010.15
438.145	3015.57
438.52	3053.99
438.895	3082.01
439.271	3088.34
439.646	3174.66
440.021	3178.96
440.395	3203.81
440.77	3193.19
441.145	3235.23
441.52	3314.09
441.895	3303.02
442.27	3300.53
442.645	3323.81
443.019	3385.05
443.394	3380.53
443.769	3402.9
444.143	3383.24
444.518	3485.16
444.892	3507.76
445.267	3530.59
445.641	3497.82
446.016	3567.65
446.39	3599.28
446.764	3623.24
447.139	3576.23
447.513	3698.72
447.887	3678.38
448.262	3715.21
448.636	3730.58
449.01	3771.48
449.384	3850.8
449.758	3797.24
450.132	3908.43
450.506	3898.71
450.88	3954.75
451.254	3973.29
451.628	3954.53
452.002	4092.83
452.376	4069.78
452.75	4138.7
453.123	4155.2
453.497	4284.01
453.871	4246.95
454.244	4340.28
454.618	4375.31
454.992	4424.35
455.365	4441.75
455.739	4567.39
456.112	4622.99
456.486	4670.22
456.859	4695.98
457.232	4771.68
457.606	4764.9
457.979	4834.28
458.352	4956.08
458.725	5006.25
459.099	5038.12
459.472	5141.62
459.845	5180.49
460.218	5233.82
460.591	5319.24
460.964	5315.62
461.337	5456.86
461.71	5504.77
462.083	5621.15
462.456	5599.46
462.829	5645.33
463.201	5740.47
463.574	5777.08
463.947	5874.48
464.32	5980.46
464.692	6064.08
465.065	6086.68
465.438	6229.72
465.81	6283.73
466.183	6333.22
466.555	6455.71
466.928	6449.38
467.3	6449.38
467.672	6617.74
468.045	6781.35
468.417	6797.39
468.789	6820.44
469.161	6979.99
469.534	7072.41
469.906	7239.19
470.278	7277.38
470.65	7357.15
471.022	7515.11
471.394	7649.8
471.766	7737.48
472.138	7857.25
472.51	7982.45
472.882	8053.86
473.253	8201.87
473.625	8283.23
473.997	8517.12
474.369	8503.79
474.74	8581.75
475.112	8824.23
475.484	9030.55
475.855	9117.56
476.227	9151.45
476.598	9424.22
476.97	9513.93
477.341	9741.72
477.713	9931.09
478.084	9947.37
478.455	10265.78
478.827	10298.32
479.198	10667.35
479.569	10685.2
479.94	10956.15
480.311	11058.97
480.682	11225.3
481.053	11532.63
481.424	11697.38
481.795	11798.62
482.166	12001.32
482.537	12099.85
482.908	12406.96
483.279	12429.11
483.65	12761.3
484.021	13031.58
484.391	13143.89
484.762	13338.69
485.133	13423.21
485.503	13675.4
485.874	13897.09
486.244	14073.13
486.615	14348.61
486.985	14500.92
487.356	14722.16
487.726	14929.61
488.097	15170.28
488.467	15264.74
488.837	15550.61
489.207	15732.52
489.578	15981.56
489.948	16010.03
490.318	16309.46
490.688	16429.91
491.058	16638.94
491.428	16868.77
491.798	17042.77
492.168	17430.33
492.538	17412.03
492.908	17658.35
493.278	17974.27
493.648	17979.92
494.017	18133.82
494.387	18303.08
494.757	18452.9
495.126	18724.76
495.496	18697.64
495.866	18939.67
496.235	19172.21
496.605	19308.02
496.974	19432.99
497.344	19527.45
497.713	19686.09
498.082	19896.93
498.452	20061.45
498.821	20172.41
499.19	20211.5
499.559	20388.67
499.928	20708.44
500.298	20709.34
500.667	20962.44
501.036	21006.74
501.405	21200.4
501.774	21151.14
502.143	21401.3
502.512	21431.81
502.88	21665.93
503.249	21749.09
503.618	21904.34
503.987	21970.78
504.356	22272.24
504.724	22392.69
505.093	22469.07
505.462	22617.99
505.83	22832.9
506.199	22978.44
506.567	23290.74
506.936	23174.36
507.304	23426.11
507.672	23530.06
508.041	23670.17
508.409	23901.35
508.777	24060.89
509.145	24290.72
509.514	24374.1
509.882	24602.35
510.25	24642.8
510.618	24888.67
510.986	24843.92
511.354	25122.56
511.722	25349.45
512.09	25566.39
512.458	25543.34
512.826	25825.82
513.193	25982.65
513.561	26109.43
513.929	26410.44
514.297	26672.12
514.664	26826.02
515.032	26878.9
515.4	27099.91
515.767	27212.9
516.135	27361.37
516.502	27173.58
516.869	27945.08
517.237	27949.38
517.604	27867.12
517.972	28315.47
518.339	28495.8
518.706	28521.34
519.073	28806.98
519.44	28971.05
519.808	29274.32
520.175	29344.82
520.542	29737.35
520.909	29895.54
521.276	29875.2
521.643	30226.61
522.009	30413.27
522.376	30583.21
522.743	30924.44
523.11	31160.82
523.477	31491.21
523.843	31716.51
524.21	31906.56
524.577	32130.96
524.943	32353.78
525.31	32389.94
525.676	32731.4
526.043	32951.51
526.409	33220.2
526.776	33544.03
527.142	33584.26
527.508	33915.1
527.874	34061.31
528.241	34189.67
528.607	34274.86
528.973	34708.75
529.339	34711.91
529.705	35172.01
530.071	35438.67
530.437	35454.49
530.803	35697.87
531.169	35995.72
531.535	35977.64
531.901	36064.64
532.267	36284.53
532.632	36570.85
532.998	36651.97
533.364	36943.72
533.73	37047.67
534.095	37204.95
534.461	37360.2
534.826	37479.52
535.192	37819.85
535.557	38015.33
535.923	37973.3
536.288	38180.75
536.653	38402.89
537.019	38295.55
537.384	38563.11
537.749	38802.88
538.114	38789.77
538.479	38922.65
538.845	39177.33
539.21	39109.99
539.575	39387.5
539.94	39603.53
540.305	39715.85
540.67	39648.73
541.034	39809.63
541.399	40049.62
541.764	40165.55
542.129	40212.78
542.494	40317.19
542.858	40387.24
543.223	40405.77
543.587	40823.84
543.952	40792.2
544.316	40954.91
544.681	40963.05
545.045	41342.92
545.41	41412.07
545.774	41611.84
546.138	41554.22
546.503	41819.07
546.867	41809.13
547.231	42116.01
547.595	42228.55
547.959	42258.61
548.324	42407.08
548.688	42492.27
549.052	42585.38
549.416	42683.68
549.779	42882.54
550.143	42809.1
550.507	43315.3
550.871	43446.6
551.235	43381.74
551.599	43784.44
551.962	43750.54
552.326	43836.42
552.689	44115.73
553.053	43914.38
553.417	44110.54
553.78	44680.92
554.143	44464.42
554.507	44749.61
554.87	44821.93
555.234	45261.01
555.597	45032.32
555.96	45404.06
556.323	45420.11
556.686	45582.59
557.05	45831.39
557.413	46014.44
557.776	46110.93
558.139	46412.17
558.502	46469.34
558.865	46559.06
559.228	46891.25
559.59	47024.13
559.953	47112.49
560.316	47417.79
560.679	47325.14
561.041	47731.68
561.404	47732.13
561.767	48033.14
562.129	48000.83
562.492	48409.86
562.854	48305.9
563.217	48448.95
563.579	48585.45
563.941	48850.52
564.304	48994.25
564.666	49250.74
565.028	49272.89
565.39	49424.97
565.753	49683.04
566.115	49771.18
566.477	49865.86
566.839	49968.91
567.201	50115.12
567.563	50274.89
567.925	50428.56
568.287	50451.39
568.648	50586.52
569.01	50732.96
569.372	50983.12
569.734	50957.81
570.095	51196.9
570.457	51406.16
570.819	51406.16
571.18	51433.28
571.542	51600.96
571.903	51591.69
572.265	51833.27
572.626	51809.54
572.987	51839.15
573.349	51921.18
573.71	52136.54
574.071	52223.32
574.432	52277.1
574.794	52523.42
575.155	52532.69
575.516	52434.61
575.877	52564.32
576.238	52614.04
576.599	52783.3
576.96	52769.74
577.32	52796.86
577.681	52822.17
578.042	52924.31
578.403	52931.32
578.763	52986.01
579.124	53072.33
579.485	53177.64
579.845	53198.66
580.206	53169.05
580.566	53222.16
580.927	53242.05
581.287	53271.42
581.648	53182.84
582.008	53389.16
582.368	53223.97
582.728	53402.72
583.089	53317.07
583.449	53376.28
583.809	53465.77
584.169	53375.6
584.529	53338.32
584.889	53573.34
585.249	53353.23
585.609	53315.94
585.969	53510.74
586.329	53401.14
586.688	53431.87
587.048	53353.68
587.408	53265.32
587.768	53378.99
588.127	53356.62
588.487	53387.58
588.846	53570.4
589.206	53444.98
589.565	53409.5
589.925	53568.82
590.284	53431.19
590.643	53536.28
591.003	53522.72
591.362	53623.28
591.721	53487.01
592.08	53579.66
592.44	53582.15
592.799	53588.03
593.158	53444.98
593.517	53422.38
593.876	53536.28
594.235	53466.45
594.593	53531.76
594.952	53614.01
595.311	53529.5
595.67	53588.93
596.029	53690.4
596.387	53662.37
596.746	53661.02
597.104	53628.02
597.463	53607.23
597.822	53715.71
598.18	53719.32
598.538	53566.11
598.897	53825.76
599.255	53583.51
599.613	53981.24
599.972	53784.63
600.33	53845.19
600.688	53650.62
601.046	53818.53
601.404	53903.72
601.762	53867.11
602.12	53990.95
602.478	53980.78
602.836	53931.97
603.194	53923.16
603.552	53890.16
603.91	53803.16
604.268	54069.37
604.625	53915.02
604.983	54080.67
605.341	53964.51
605.698	54031.86
606.056	54126.77
606.413	54128.12
606.771	54175.36
607.128	54289.7
607.485	54089.93
607.843	54150.72
608.2	54258.74
608.557	54380.1
608.914	54175.13
609.272	54344.39
609.629	54406.99
609.986	54520.2
610.343	54312.75
610.7	54564.95
611.057	54489.25
611.414	54413.54
611.771	54569.7
612.127	54564.05
612.484	54548.9
612.841	54680.88
613.198	54534.89
613.554	54602.46
613.911	54803.81
614.267	54685.4
614.624	54725.85
614.98	54857.82
615.337	54823.93
615.693	54835.68
616.05	54809.01
616.406	54878.39
616.762	54857.6
617.118	54802.68
617.475	54880.87
617.831	54900.76
618.187	54915
618.543	54939.18
618.899	55094.65
619.255	55088.1
619.611	54973.07
619.967	55013.75
620.323	55116.35
620.678	54962.45
621.034	54950.02
621.39	54975.33
621.746	54905.51
622.101	55187.08
622.457	54921.32
622.812	54945.96
623.168	55075.67
623.523	55080.87
623.879	55122
624.234	54888.56
624.589	55021.43
624.945	55043.35
625.3	55103.69
625.655	54986.63
626.01	55070.7
626.365	55056.91
626.72	55009.46
627.075	55029.34
627.43	54993.19
627.785	54917.71
628.14	54955
628.495	54911.16
628.85	54883.36
629.205	54841.33
629.559	54994.09
629.914	54783.7
630.269	54767.43
630.623	54765.17
630.978	54598.39
631.332	54718.84
631.687	54795
632.041	54628
632.396	54815.34
632.75	54519.98
633.104	54541.22
633.459	54490.6
633.813	54459.19
634.167	54451.96
634.521	54365.63
634.875	54480.88
635.229	54382.13
635.583	54282.7
635.937	54326.76
636.291	54239.53
636.645	54148.01
636.999	54132.42
637.352	54158.63
637.706	54005.42
638.06	54055.58
638.413	53989.15
638.767	53925.64
639.121	53972.87
639.474	53892.65
639.828	53872.54
640.181	53860.79
640.534	53843.61
640.888	53759.77
641.241	53551.19
641.594	53542.6
641.947	53667.8
642.301	53504.19
642.654	53552.32
643.007	53463.96
643.36	53435.49
643.713	53427.58
644.066	53519.55
644.419	53216.96
644.771	53035.27
645.124	52618.56
645.477	52506.7
645.83	52480.26
646.182	52420.6
646.535	52244.56
646.888	52371.79
647.24	52062.87
647.593	52249.53
647.945	52280.49
648.298	52018.12
648.65	51973.83
649.002	51872.36
649.355	51994.4
649.707	51886.6
650.059	52036.88
650.411	52322.75
650.763	52409.3
651.115	52659.69
651.467	52495.17
651.819	52499.69
652.171	52397.32
652.523	52403.88
652.875	52400.49
653.227	52331.34
653.578	52443.65
653.93	52382.63
654.282	52201.85
654.633	52187.84
654.985	52117.56
655.337	52141.74
655.688	52065.35
656.039	52175.18
656.391	51911.23
656.742	52016.09
657.094	51918.24
657.445	52116.43
657.796	51981.29
658.147	51788.98
658.498	51826.49
658.849	51886.83
659.2	51758.24
659.551	51669.43
659.902	51791.24
660.253	51766.6
660.604	51752.82
660.955	51589.89
661.306	51744.91
661.656	51702.2
662.007	51655.2
662.358	51534.29
662.708	51606.84
663.059	51567.29
663.409	51275.77
663.76	51497.91
664.11	51515.76
664.461	51432.15
664.811	51392.15
665.161	51326.84
665.511	51303.79
665.862	51362.55
666.212	51402.09
666.562	51354.41
666.912	51305.15
667.262	51265.15
667.612	51204.59
667.962	51221.76
668.312	51110.58
668.662	51223.12
669.011	51191.25
669.361	51117.13
669.711	51129.11
670.06	51045.27
670.41	50943.12
670.76	50894.99
671.109	51067.87
671.459	50887.08
671.808	50829.23
672.157	50940.41
672.507	50680.98
672.856	50723.02
673.205	50601.89
673.554	50781.55
673.904	50625.17
674.253	50882.56
674.602	50708.1
674.951	50299.98
675.3	49985.63
675.649	50523.02
675.998	50386.75
676.346	50565.73
676.695	50433.98
677.044	50250.94
677.393	50315.8
677.741	50332.97
678.09	50304.95
678.438	50207.32
678.787	50253.42
679.135	50267.44
679.484	49955.81
679.832	49980.44
680.181	49810.95
680.529	49953.77
680.877	49862.02
681.225	49738.41
681.573	50039.87
681.922	49616.15
682.27	49535.48
682.618	49498.42
682.966	49447.8
683.314	49508.81
683.661	49359.44
684.009	49149.05
684.357	49120.35
684.705	49088.94
685.053	49156.5
685.4	49105.21
685.748	48886.91
686.095	48757.42
686.443	48675.61
686.79	48609.17
687.138	48604.43
687.485	48652.11
687.832	48410.31
688.18	48326.47
688.527	48141.39
688.874	48118.57
689.221	48127.15
689.568	48023.88
689.915	47924.9
690.262	47818.23
690.609	47709.08
690.956	47560.16
691.303	47553.61
691.65	47408.75
691.997	47294.63
692.344	47131.47
692.69	47073.17
693.037	47062.77
693.383	46587.08
693.73	46856.45
694.077	46693.07
694.423	46555.22
694.769	46360.87
695.116	46145.06
695.462	46146.87
695.808	46018.06
696.155	46008.56
696.501	45752.07
696.847	45679.08
697.193	45440.9
697.539	45649.03
697.885	45343.05
698.231	45191.64
698.577	45130.4
698.923	45144.63
699.269	44900.12
699.614	44692.67
699.96	44625.55
700.306	44637.98
700.651	44451.09
700.997	44397.53
701.342	44106.02
701.688	44207.93
702.033	44004.32
702.379	43941.95
702.724	43825.34
703.069	43960.03
703.415	43391.01
703.76	43388.97
704.105	43488.63
704.45	43297.22
704.795	43139.04
705.14	42947.4
705.485	42870.34
705.83	42747.86
706.175	42791.7
706.52	42553.29
706.865	42538.37
707.209	42469.9
707.554	42381.32
707.899	42431.71
708.243	42127.76
708.588	42124.15
708.932	41833.31
709.277	41736.13
709.621	41845.51
709.966	41544.05
710.31	41537.04
710.654	41060.9
710.998	41227.22
711.342	41139.31
711.687	41033.78
712.031	40955.82
712.375	40728.7
712.719	40869.49
713.063	40775.48
713.407	40742.49
713.75	40637.63
714.094	40550.4
714.438	40424.76
714.782	40325.55
715.125	40235.38
715.469	40159.68
715.812	39831.1
716.156	39790.87
716.499	39790.42
716.843	39880.14
717.186	39550.65
717.53	39621.84
717.873	39561.5
718.216	39385.46
718.559	39513.37
718.902	39286.03
719.246	39292.36
719.589	39011.01
719.932	38968.07
720.275	39009.65
720.617	38937.11
720.96	38743.9
721.303	38823.22
721.646	38591.81
721.989	38471.59
722.331	38550.91
722.674	38469.33
723.016	38423
723.359	38364.47
723.701	38294.19
724.044	38116.34
724.386	37903.24
724.729	38192.5
725.071	37871.83
725.413	37815.33
725.755	37873.86
726.097	37558.16
726.439	37462.57
726.782	37456.92
727.124	37598.16
727.465	37232.07
727.807	37223.48
728.149	37142.58
728.491	37150.49
728.833	37060.78
729.175	36983.26
729.516	36941.91
729.858	36744.4
730.199	36885.64
730.541	36780.56
730.882	36596.61
731.224	36796.38
731.565	36530.62
731.906	36397.29
732.248	36579.21
732.589	36215.83
732.93	36202.49
733.271	36087.02
733.612	36158.88
733.953	36169.95
734.294	35896.06
734.635	35858.1
734.976	35935.61
735.317	35676.86
735.658	35547.37
735.999	35710.3
736.339	35414.94
736.68	35633.92
737.021	35384.44
737.361	35373.36
737.702	35461.5
738.042	35263.08
738.383	35310.54
738.723	35228.51
739.063	35099.47
739.404	35225.12
739.744	34871
740.084	34747.62
740.424	34874.39
740.764	34828.29
741.104	34788.52
741.444	34615.42
741.784	34540.17
742.124	34579.49
742.464	34632.82
742.804	34518.7
743.143	34324.58
743.483	34423.56
743.823	34151.93
744.162	34110.8
744.502	34222.21
744.841	33957.36
745.181	34006.85
745.52	33867.64
745.86	33865.15
746.199	33749.23
746.538	33719.62
746.877	33785.16
747.216	33611.15
747.556	33512.4
747.895	33512.17
748.234	33272.4
748.573	33158.05
748.911	33280.76
749.25	33337.03
749.589	32968.23
749.928	33068.11
750.267	33050.94
750.605	32830.15
750.944	32687.78
751.283	32791.51
751.621	32751.96
751.96	32634.23
752.298	32633.32
752.636	32546.77
752.975	32250.51
753.313	32190.17
753.651	32393.1
753.989	32079.21
754.327	32022.49
754.666	31925.54
755.004	31800.8
755.342	31928.48
755.679	31799.9
756.017	31616.17
756.355	31649.17
756.693	31501.38
757.031	31575.5
757.368	31321.72
757.706	31284.88
758.044	31188.84
758.381	31139.12
758.719	31029.07
759.056	30987.49
759.394	30920.83
759.731	30723.54
760.068	30676.99
760.405	30553.6
760.743	30473.38
761.08	30441.97
761.417	30324
761.754	30144.57
762.091	30107.29
762.428	30013.96
762.765	29793.85
763.102	29956.1
763.438	29728.99
763.775	29578.71
764.112	29652.61
764.449	29501.88
764.785	29291.04
765.122	29145.28
765.458	29021.67
765.795	29021.89
766.131	28987.99
766.467	28787.1
766.804	28630.04
767.14	28503.94
767.476	28513.43
767.812	28386.65
768.148	28448.12
768.485	28296.94
768.821	27862.6
769.157	27977.17
769.492	27918.87
769.828	27838.65
770.164	27586.45
770.5	27485.44
770.836	27350.3
771.171	27326.12
771.507	27296.51
771.842	27181.26
772.178	26977.88
772.513	26946.24
772.849	26852.68
773.184	26717.55
773.519	26642.75
773.855	26603.88
774.19	26398.68
774.525	26395.97
774.86	26255.19
775.195	26290.89
775.53	26093.83
775.865	25873.95
776.2	25743.56
776.535	25572.94
776.87	25574.53
777.205	25527.29
777.539	25311.93
777.874	25365.04
778.209	25101.32
778.543	25128.66
778.878	24927.08
779.212	24962.79
779.547	24810.25
779.881	24887.76
780.215	24653.19
780.55	24578.62
780.884	24352.86
781.218	24432.86
781.552	24283.71
781.886	24181.79
782.22	23980.44
782.554	23820.9
782.888	23659.1
783.222	23572.77
783.556	23511.53
783.889	23512.66
784.223	23358.54
784.557	23241.93
784.89	23267.24
785.224	23040.35
785.557	22946.35
785.891	22967.59
786.224	22785.67
786.558	22787.25
786.891	22560.82
787.224	22589.07
787.557	22502.74
787.891	22377.32
788.224	22362.86
788.557	22396.76
788.89	22271.11
789.223	22190.66
789.556	21964
789.888	21979.37
790.221	21920.38
790.554	21747.96
790.887	21696.21
791.219	21612.37
791.552	21544.57
791.884	21427.74
792.217	21230.91
792.549	21255.77
792.882	21108.43
793.214	20996.79
793.546	21062.1
793.879	21003.12
794.211	20674.09
794.543	20923.57
794.875	20599.74
795.207	20719.29
795.539	20657.14
795.871	20730.36
796.203	20431.38
796.535	20303.48
796.867	20341.22
797.198	20235
797.53	20193.2
797.862	20064.39
798.193	19991.4
798.525	19873.43
798.856	19904.39
799.188	19773.77
799.519	19613.78
799.85	19611.97
800.182	19531.75
800.513	19491.75
800.844	19325.65
801.175	19426.66
801.506	19277.06
801.837	19180.57
802.168	19239.78
802.499	19089.05
802.83	18981.25
803.161	18953.91
803.491	18924.53
803.822	18924.3
804.153	18774.93
804.483	18643.63
804.814	18560.25
805.145	18522.96
805.475	18515.95
805.805	18385.11
806.136	18498.33
806.466	18384.21
806.796	18346.24
807.126	18137.66
807.457	18127.04
807.787	18162.52
808.117	17990.54
808.447	17965.23
808.777	17948.74
809.107	17877.33
809.436	17912.35
809.766	17878.23
810.096	17729.53
810.426	17808.4
810.755	17739.93
811.085	17710.1
811.414	17551.91
811.744	17341.52
812.073	17420.62
812.403	17392.14
812.732	17338.36
813.061	17270.11
813.39	17182.88
813.719	17069.44
814.049	17180.4
814.378	17070.12
814.707	17050.23
815.036	17081.19
815.365	16836.22
815.693	16655.66
816.022	16777.69
816.351	16711.48
816.68	16610.92
817.008	16599.17
817.337	16581.54
817.665	16472.17
817.994	16472.17
818.322	16519.62
818.651	16363.92
818.979	16287.54
819.307	16412.28
819.636	16293.87
819.964	16175.22
820.292	16205.51
820.62	16144.04
820.948	16137.26
821.276	16171.83
821.604	16078.28
821.932	16174.55
822.259	16143.81
822.587	16046.19
822.915	16006.19
823.243	16104.49
823.57	16013.42
823.898	15946.08
824.225	15934.78
824.553	15982.91
824.88	16045.96
825.207	16011.61
825.535	15971.84
825.862	16043.48
826.189	15944.95
826.516	16000.09
826.843	16064.04
827.17	16048.45
827.497	16024.49
827.824	15900.66
828.151	15952.41
828.478	15853.2
828.805	15923.71
829.131	15917.83
829.458	15869.7
829.785	15869.24
830.111	15793.54
830.438	15859.3
830.764	15869.02
831.09	15893.65
831.417	15800.32
831.743	15806.19
832.069	15801
832.395	15687.1
832.722	15876.25
833.048	15718.06
833.374	15777.27
833.7	15698.17
834.026	15674.67
834.351	15701.56
834.677	15654.11
835.003	15731.17
835.329	15721.23
835.654	15666.31
835.98	15617.95
836.306	15606.43
836.631	15540.89
836.956	15603.71
837.282	15560.1
837.607	15447.11
837.932	15464.51
838.258	15436.49
838.583	15396.71
838.908	15260.9
839.233	15389.26
839.558	15349.26
839.883	15265.87
840.208	15189.71
840.533	15178.87
840.858	15197.62
841.182	15267.23
841.507	15207.34
841.832	15093.44
842.156	15116.27
842.481	15112.88
842.805	14998.31
843.13	14950.17
843.454	15035.37
843.778	14878.31
844.103	14888.7
844.427	14870.17
844.751	14858.42
845.075	14745.66
845.399	14800.12
845.723	14702.04
846.047	14670.41
846.371	14630.18
846.695	14523.74
847.019	14468.6
847.343	14349.96
847.666	14219.12
847.99	14241.26
848.313	14167.37
848.637	14096.18
848.96	14095.05
849.284	14077.2
849.607	13988.16
849.931	14005.11
850.254	13897.54
850.577	13794.04
850.9	13601.05
851.223	13671.79
851.546	13531.9
851.869	13514.05
852.192	13528.74
852.515	13427.27
852.838	13444.45
853.161	13414.39
853.483	13388.41
853.806	13333.04
854.129	13288.75
854.451	13265.47
854.774	13207.17
855.096	13094.63
855.419	13044.91
855.741	13058.02
856.063	12945.7
856.385	12986.38
856.708	12939.15
857.03	12882.2
857.352	12841.75
857.674	12814.63
857.996	12732.6
858.318	12702.55
858.64	12726.73
858.961	12672.72
859.283	12558.82
859.605	12566.96
859.926	12554.98
860.248	12459.16
860.57	12475.43
860.891	12508.65
861.212	12339.39
861.534	12474.08
861.855	12416.45
862.176	12372.16
862.498	12366.06
862.819	12352.95
863.14	12253.29
863.461	12274.99
863.782	12244.03
864.103	12262.78
864.424	12207.42
864.745	12211.26
865.065	12054.2
865.386	12123.35
865.707	12115.9
866.027	12230.24
866.348	12138.72
866.668	12112.28
866.989	12069.8
867.309	11950.48
867.63	11930.14
867.95	11974.43
868.27	11883.81
868.59	11910.93
868.91	11848.56
869.23	11906.18
869.55	11816.92
869.87	11932.4
870.19	11886.98
870.51	11802.23
870.83	11851.27
871.15	11773.53
871.469	11822.12
871.789	11784.15
872.109	11671.16
872.428	11658.73
872.748	11699.41
873.067	11691.05
873.386	11729.69
873.706	11689.92
874.025	11618.51
874.344	11503.48
874.663	11514.1
874.982	11571.96
875.301	11513.88
875.62	11461.45
875.939	11384.16
876.258	11468.23
876.577	11566.53
876.896	11493.09
877.214	11381
877.533	11398.63
877.852	11398.63
878.17	11391.62
878.489	11373.99
878.807	11359.31
879.125	11318.63
879.444	11345.75
879.762	11244.05
880.08	11246.54
880.398	11148.92
880.716	11247.9
881.034	11130.16
881.352	11228.69
881.67	11157.05
881.988	11150.72
882.306	11162.02
882.624	11074.57
882.941	11049.71
883.259	11090.61
883.577	11049.26
883.894	10986.66
884.212	11006.55
884.529	11006.32
884.846	10963.61
885.164	10856.72
885.481	10811.52
885.798	10923.39
886.115	10781.69
886.432	10887.91
886.75	10809.04
887.067	10786.21
887.383	10712.54
887.7	10745.08
888.017	10691.3
888.334	10738.76
888.651	10650.4
888.967	10632.55
889.284	10560.23
889.6	10587.8
889.917	10445.43
890.233	10489.05
890.55	10449.27
890.866	10505.09
891.182	10401.82
891.498	10366.11
891.815	10384.19
892.131	10227.58
892.447	10262.61
892.763	10240.47
893.079	10184.87
893.395	10180.35
893.71	10151.43
894.026	10122.95
894.342	10120.69
894.657	10074.82
894.973	10013.58
895.289	10000.02
895.604	10026.01
895.92	9988.27
896.235	9874.37
896.55	9920.7
896.865	9921.83
897.181	9790.08
897.496	9804.54
897.811	9771.78
898.126	9768.16
898.441	9703.53
898.756	9708.28
899.071	9593.02
899.386	9640.25
899.7	9549.41
900.015	9582.18
900.33	9422.41
900.644	9414.72
900.959	9478.45
901.273	9426.93
901.588	9358.91
901.902	9355.97
902.216	9389.87
902.531	9332.92
902.845	9282.75
903.159	9266.48
903.473	9214.96
903.787	9085.69
904.101	9110.78
904.415	9078.01
904.729	9016.54
905.042	9072.81
905.356	9037.56
905.67	8918.24
905.984	8932.7
906.297	8949.2
906.611	8913.27
906.924	8873.72
907.237	8807.28
907.551	8808.19
907.864	8751.01
908.177	8727.28
908.491	8765.02
908.804	8637.8
909.117	8555.54
909.43	8539.94
909.743	8606.61
910.056	8537.46
910.368	8496.33
910.681	8476.44
910.994	8453.62
911.307	8405.49
911.619	8331.36
911.932	8379.27
912.244	8302.21
912.557	8273.29
912.869	8242.78
913.181	8161.2
913.494	8189.9
913.806	8130.46
914.118	8076
914.43	8029.68
914.742	8067.19
915.054	7922.33
915.366	7941.09
915.678	7933.86
915.99	7921.43
916.302	7864.93
916.613	7809.79
916.925	7818.38
917.236	7765.73
917.548	7690.48
917.859	7738.61
918.171	7668.33
918.482	7586.52
918.794	7622.91
919.105	7530.25
919.416	7501.78
919.727	7467.2
920.038	7441.89
920.349	7431.73
920.66	7348.11
920.971	7391.05
921.282	7368.45
921.593	7329.81
921.903	7243.48
922.214	7239.87
922.525	7217.27
922.835	7182.01
923.146	7150.6
923.456	7134.78
923.767	7077.16
924.077	7037.61
924.387	7107.89
924.697	6992.87
925.008	7027.67
925.318	6965.52
925.628	6906.77
925.938	6924.17
926.248	6850.5
926.558	6846.43
926.867	6827.45
927.177	6792.42
927.487	6738.86
927.796	6648.02
928.106	6697.96
928.416	6658.86
928.725	6615.48
929.034	6625.87
929.344	6687.11
929.653	6592.65
929.962	6559.43
930.271	6535.03
930.581	6477.85
930.89	6426.78
931.199	6399.89
931.508	6382.26
931.817	6329.61
932.125	6352.21
932.434	6349.27
932.743	6249.16
933.051	6240.34
933.36	6265.65
933.669	6162.83
933.977	6167.58
934.286	6102.72
934.594	6191.76
934.902	6035.83
935.21	5996.06
935.519	6001.48
935.827	6029.73
936.135	5984.08
936.443	5965.55
936.751	5924.65
937.059	5885.55
937.367	5862.73
937.674	5916.74
937.982	5893.01
938.29	5808.72
938.597	5812.56
938.905	5782.96
939.213	5709.96
939.52	5699.12
939.827	5667.7
940.135	5629.96
940.442	5633.58
940.749	5627.25
941.056	5606.24
941.363	5568.5
941.67	5545.22
941.977	5514.26
942.284	5497.09
942.591	5460.25
942.898	5421.83
943.205	5472.45
943.511	5388.84
943.818	5389.97
944.125	5341.38
944.431	5319.69
944.738	5359.92
945.044	5290.31
945.35	5214.83
945.657	5222.07
945.963	5255.06
946.269	5154.95
946.575	5135.06
946.881	5208.73
947.187	5153.59
947.493	5067.95
947.799	5095.06
948.105	5082.63
948.41	5044.44
948.716	5006.93
949.022	4963.32
949.327	4975.97
949.633	4939.59
949.938	4918.35
950.244	4921.28
950.549	4900.72
950.854	4829.53
951.16	4853.49
951.465	4821.17
951.77	4796.54
952.075	4724.23
952.38	4717.45
952.685	4736.43
952.99	4695.07
953.294	4673.38
953.599	4654.4
953.904	4634.74
954.209	4615.08
954.513	4586.15
954.818	4560.16
955.122	4558.81
955.426	4560.16
955.731	4546.6
956.035	4527.85
956.339	4496.44
956.643	4501.63
956.948	4474.74
957.252	4440.39
957.556	4391.35
957.86	4359.94
958.163	4371.24
958.467	4341.41
958.771	4339.6
959.075	4327.63
959.378	4272.71
959.682	4289.21
959.985	4247.18
960.289	4223.22
960.592	4237.69
960.896	4229.78
961.199	4203.11
961.502	4152.49
961.805	4163.11
962.108	4092.15
962.411	4093.28
962.714	4060.51
963.017	4077.92
963.32	4105.71
963.623	4051.48
963.926	4058.48
964.228	3996.11
964.531	3994.75
964.833	4000.18
965.136	3918.15
965.438	3921.99
965.741	3919.05
966.043	3888.09
966.345	3897.81
966.648	3892.16
966.95	3849.9
967.252	3823.46
967.554	3816.45
967.856	3821.42
968.158	3778.94
968.46	3739.17
968.761	3733.74
969.063	3747.53
969.365	3717.25
969.666	3677.25
969.968	3686.29
970.269	3682.9
970.571	3690.58
970.872	3669.11
971.174	3630.7
971.475	3576.69
971.776	3620.3
972.077	3600.64
972.378	3592.28
972.679	3591.37
972.98	3547.99
973.281	3534.43
973.582	3516.35
973.883	3495.56
974.183	3463.02
974.484	3434.77
974.785	3453.07
975.085	3420.76
975.386	3402.23
975.686	3419.63
975.986	3376.69
976.287	3376.46
976.587	3349.12
976.887	3310.03
977.187	3313.87
977.487	3308.67
977.787	3283.59
978.087	3262.57
978.387	3252.63
978.687	3248.33
978.987	3225.73
979.286	3213.31
979.586	3197.71
979.885	3196.58
980.185	3182.12
980.484	3156.81
980.784	3124.27
981.083	3138.96
981.382	3116.58
981.682	3105.96
981.981	3096.7
982.28	3035.68
982.579	3064.38
982.878	3036.59
983.177	3018.51
983.475	3045.85
983.774	3003.37
984.073	3003.82
984.372	2999.75
984.67	3007.44
984.969	2965.63
985.267	2968.34
985.566	2919.75
985.864	2911.84
986.162	2917.27
986.461	2889.02
986.759	2900.55
987.057	2876.37
987.355	2839.53
987.653	2865.07
987.951	2817.84
988.249	2831.17
988.547	2816.71
988.844	2731.96
989.142	2765.86
989.44	2749.14
989.737	2730.15
990.035	2715.69
990.332	2758.85
990.63	2711.4
990.927	2678.18
991.224	2691.29
991.521	2702.81
991.819	2662.13
992.116	2611.29
992.413	2628.91
992.71	2606.32
993.006	2585.53
993.303	2588.24
993.6	2557.28
993.897	2589.37
994.193	2543.27
994.49	2540.55
994.787	2521.57
995.083	2483.38
995.379	2456.72
995.676	2509.37
995.972	2460.1
996.268	2482.03
996.565	2445.42
996.861	2428.92
997.157	2426.21
997.453	2392.08
997.749	2411.74
998.044	2367.23
998.34	2360.22
998.636	2394.8
998.932	2361.12
999.227	2348.92
999.523	2338.75
999.818	2329.26
1000.114	2285.19
1000.409	2311.86
1000.704	2290.17
1001	2270.96
1001.295	2262.37
1001.59	2242.71
1001.885	2262.14
1002.18	2210.85
1002.475	2205.65
1002.77	2217.63
1003.065	2157.29
1003.359	2176.04
1003.654	2177.63
1003.949	2149.38
1004.243	2152.09
1004.538	2127.91
1004.832	2119.77
1005.127	2096.27
1005.421	2062.38
1005.715	2069.38
1006.009	2049.95
1006.304	2074.58
1006.598	2017.4
1006.892	2022.15
1007.186	2013.11
1007.48	2001.81
1007.773	2004.07
1008.067	1988.03
1008.361	1951.19
1008.655	1936.95
1008.948	1936.5
1009.242	1942.6
1009.535	1963.39
1009.829	1920.91
1010.122	1905.54
1010.415	1881.59
1010.708	1877.75
1011.001	1870.97
1011.295	1850.86
1011.588	1844.98
1011.881	1828.93
1012.173	1815.6
1012.466	1831.42
1012.759	1812.21
1013.052	1832.1
1013.344	1756.85
1013.637	1780.57
1013.93	1758.65
1014.222	1733.12
1014.514	1755.49
1014.807	1747.58
1015.099	1746
1015.391	1727.24
1015.683	1706.9
1015.976	1706.23
1016.268	1705.77
1016.56	1686.11
1016.851	1663.52
1017.143	1670.07
1017.435	1638.88
1017.727	1651.31
1018.018	1618.55
1018.31	1613.8
1018.602	1593.91
1018.893	1573.57
1019.185	1604.31
1019.476	1558.43
1019.767	1547.81
1020.058	1545.1
1020.35	1543.52
1020.641	1498.77
1020.932	1523.63
1021.223	1502.39
1021.514	1474.82
1021.804	1479.34
1022.095	1463.75
1022.386	1453.8
1022.677	1454.03
1022.967	1435.72
1023.258	1422.39
1023.548	1431.21
1023.839	1406.12
1024.129	1412.22
1024.419	1414.93
1024.709	1383.52
1025	1370.19
1025.29	1392.56
1025.58	1356.18
1025.87	1383.52
1026.16	1349.4
1026.449	1332.68
1026.739	1336.29
1027.029	1312.56
1027.319	1284.99
1027.608	1306.91
1027.898	1296.07
1028.187	1272.11
1028.477	1275.5
1028.766	1261.94
1029.055	1273.02
1029.344	1234.6
1029.634	1231.66
1029.923	1243.87
1030.212	1229.85
1030.501	1231.66
1030.79	1196.64
1031.078	1224.21
1031.367	1172.23
1031.656	1169.29
1031.945	1174.26
1032.233	1156.18
1032.522	1137.2
1032.81	1155.96
1033.099	1153.02
1033.387	1126.81
1033.675	1138.56
1033.963	1148.73
1034.251	1105.56
1034.54	1108.28
1034.828	1112.8
1035.116	1090.65
1035.403	1075.06
1035.691	1099.69
1035.979	1070.54
1036.267	1059.46
1036.554	1036.41
1036.842	1051.1
1037.129	1025.57
1037.417	1030.09
1037.704	1037.77
1037.992	1008.39
1038.279	1009.75
1038.566	1011.56
1038.853	1011.56
1039.14	1011.56
