Data from foil_FLMS001491_055.txt Node
Date: Tue Feb 07 11:27:11 GMT 2017
User: dcchb
Spectrometer: FLMS00149
Trigger mode: 0
Integration Time (sec): 2.000000E-2
Scans to average: 10
Electric dark correction enabled: true
Nonlinearity correction enabled: false
Boxcar width: 0
XAxis mode: Wavelengths
Number of Pixels in Spectrum: 2048
>>>>>Begin Spectral Data<<<<<
341.393	-18.02
341.776	-18.02
342.16	-18.02
342.543	-79.26
342.927	-67.06
343.31	-40.39
343.693	-62.54
344.077	-76.55
344.46	-60.96
344.843	-44.46
345.226	-52.82
345.61	-40.85
345.993	-8.98
346.376	-1.98
346.759	-8.98
347.142	17.01
347.525	34.41
347.908	71.92
348.291	68.3
348.674	97
349.057	109.88
349.44	148.08
349.823	148.3
350.206	160.28
350.588	241.18
350.971	260.84
351.354	265.13
351.737	290.67
352.119	300.84
352.502	311.23
352.884	327.73
353.267	325.7
353.65	330.44
354.032	344.91
354.414	360.72
354.797	371.12
355.179	363.44
355.562	360.72
355.944	387.39
356.326	391.68
356.709	385.58
357.091	398.69
357.473	393.04
357.855	389.65
358.238	401.85
358.62	413.6
359.002	390.33
359.384	402.08
359.766	416.99
360.148	425.36
360.53	407.73
360.912	402.08
361.294	402.08
361.676	410.67
362.057	425.36
362.439	412.93
362.821	402.31
363.203	393.94
363.584	404.79
363.966	404.79
364.348	385.81
364.729	400.5
365.111	407.96
365.493	430.55
365.874	417.45
366.256	419.25
366.637	418.8
367.019	407.73
367.4	407.28
367.781	415.41
368.163	409.09
368.544	408.63
368.925	441.63
369.306	443.21
369.688	420.84
370.069	430.78
370.45	420.84
370.831	426.49
371.212	431.68
371.593	428.52
371.974	448.63
372.355	457.45
372.736	447.73
373.117	455.19
373.498	443.21
373.879	445.02
374.26	436.66
374.641	445.92
375.021	448.18
375.402	455.19
375.783	475.52
376.163	505.35
376.544	490.21
376.925	490.21
377.305	485.69
377.686	501.29
378.066	504.22
378.447	516.88
378.827	508.07
379.208	512.59
379.588	515.07
379.968	516.88
380.349	528.63
380.729	513.26
381.109	551
381.489	562.3
381.87	554.62
382.25	551.23
382.63	545.35
383.01	548.97
383.39	585.13
383.77	560.27
384.15	581.74
384.53	568.18
384.91	602.07
385.29	587.61
385.67	609.76
386.049	643.66
386.429	622.64
386.809	639.81
387.189	633.94
387.568	643.2
387.948	651.56
388.328	639.14
388.707	691.11
389.087	670.55
389.466	657.67
389.846	670.32
390.225	689.76
390.605	700.6
390.984	688.85
391.363	700.6
391.743	709.87
392.122	734.27
392.501	726.82
392.881	753.48
393.26	764.78
393.639	789.87
394.018	763.65
394.397	783.09
394.776	793.26
395.155	785.57
395.534	828.96
395.913	815.85
396.292	822.41
396.671	845.23
397.05	847.72
397.429	852.24
397.808	850.88
398.186	860.82
398.565	853.37
398.944	873.03
399.323	892.91
399.701	911.9
400.08	900.37
400.458	905.8
400.837	906.47
401.215	955.51
401.594	951.44
401.972	961.84
402.351	939.69
402.729	986.7
403.107	993.48
403.486	1026.47
403.864	995.74
404.242	1056.07
404.62	1051.78
404.999	1033.93
405.377	1089.75
405.755	1083.64
406.133	1086.13
406.511	1097.65
406.889	1108.28
407.267	1172.23
407.645	1176.75
408.023	1165.22
408.401	1191.44
408.779	1186.47
409.156	1197.09
409.534	1240.93
409.912	1251.32
410.29	1280.02
410.667	1283.41
411.045	1306.46
411.422	1367.03
411.8	1347.59
412.178	1353.92
412.555	1356.86
412.933	1387.82
413.31	1411.09
413.687	1465.33
414.065	1449.06
414.442	1475.27
414.819	1499.68
415.197	1488.83
415.574	1543.97
415.951	1567.7
416.328	1573.57
416.705	1562.5
417.082	1586
417.46	1611.31
417.837	1640.24
418.214	1680.92
418.591	1666.91
418.967	1704.64
419.344	1687.02
419.721	1736.51
420.098	1714.59
420.475	1746.23
420.852	1770.41
421.228	1810.4
421.605	1823.74
421.982	1824.87
422.358	1873.45
422.735	1897.18
423.111	1903.96
423.488	1941.02
423.864	1945.99
424.241	1959.33
424.617	1988.7
424.994	2007.46
425.37	2042.04
425.746	2048.36
426.123	2044.52
426.499	2105.99
426.875	2121.36
427.251	2173.56
427.627	2219.66
428.003	2205.42
428.379	2269.6
428.756	2307.11
429.132	2305.76
429.507	2383.95
429.883	2423.5
430.259	2477.73
430.635	2449.26
431.011	2463.27
431.387	2526.77
431.763	2555.02
432.138	2595.47
432.514	2633.66
432.89	2648.12
433.265	2740.55
433.641	2782.58
434.016	2768.12
434.392	2826.87
434.767	2896.25
435.143	2897.16
435.518	2970.37
435.894	3007.89
436.269	2989.58
436.644	3066.64
437.02	3093.76
437.395	3106.64
437.77	3167.2
438.145	3209.01
438.52	3312.06
438.895	3281.33
439.271	3305.51
439.646	3367.2
440.021	3404.49
440.395	3418.27
440.77	3434.54
441.145	3475.45
441.52	3569.91
441.895	3533.07
442.27	3559.74
442.645	3598.38
443.019	3654.2
443.394	3663.24
443.769	3750.01
444.143	3699.62
444.518	3783.01
444.892	3820.3
445.267	3834.31
445.641	3867.3
446.016	3920.86
446.39	3989.33
446.764	3967.41
447.139	3970.57
447.513	4041.53
447.887	4075.2
448.262	4096.22
448.636	4166.27
449.01	4236.56
449.384	4241.53
449.758	4251.24
450.132	4346.83
450.506	4350.68
450.88	4371.24
451.254	4412.37
451.628	4498.24
452.002	4554.96
452.376	4580.73
452.75	4609.88
453.123	4639.93
453.497	4755.41
453.871	4761.51
454.244	4901.17
454.618	4936.65
454.992	5023.2
455.365	4985.91
455.739	5138.9
456.112	5178.23
456.486	5246.7
456.859	5223.2
457.232	5340.26
457.606	5339.13
457.979	5452.79
458.352	5509.29
458.725	5598.1
459.099	5639.68
459.472	5750.19
459.845	5785.67
460.218	5771.66
460.591	5880.58
460.964	5907.47
461.337	6015.94
461.71	6155.83
462.083	6247.58
462.456	6244.64
462.829	6251.87
463.201	6397.85
463.574	6425.65
463.947	6514.24
464.32	6644.63
464.692	6683.04
465.065	6728.02
465.438	6860.44
465.81	6955.81
466.183	6976.37
466.555	7173.43
466.928	7237.15
467.3	7217.04
467.672	7317.6
468.045	7521.44
468.417	7568.45
468.789	7595.34
469.161	7730.93
469.534	7849.34
469.906	8057.92
470.278	8069.45
470.65	8186.73
471.022	8274.19
471.394	8473.51
471.766	8575.2
472.138	8599.6
472.51	8863.78
472.882	8945.81
473.253	9038.69
473.625	9248.63
473.997	9420.83
474.369	9481.84
474.74	9617.43
475.112	9762.51
475.484	9873.24
475.855	10104.42
476.227	10188.94
476.598	10451.76
476.97	10553.45
477.341	10781.24
477.713	10963.38
478.084	10975.14
478.455	11307.56
478.827	11409.02
479.198	11874.55
479.569	11804.27
479.94	12197.25
480.311	12192.96
480.682	12554.3
481.053	12778.25
481.424	12985.48
481.795	13092.14
482.166	13341.85
482.537	13492.58
482.908	13790.2
483.279	13931.22
483.65	14203.75
484.021	14519
484.391	14655.49
484.762	14829.27
485.133	15006.67
485.503	15147.68
485.874	15532.08
486.244	15605.75
486.615	15940.88
486.985	16138.62
487.356	16544.93
487.726	16675.55
488.097	17040.74
488.467	17031.93
488.837	17427.39
489.207	17604.57
489.578	17885.69
489.948	18168.39
490.318	18313.47
490.688	18439.57
491.058	18712.78
491.428	18975.15
491.798	19076.62
492.168	19415.14
492.538	19541.24
492.908	19799.99
493.278	20108.23
493.648	20201.33
494.017	20462.12
494.387	20668.44
494.757	20821.88
495.126	21068.2
495.496	21198.82
495.866	21325.15
496.235	21522.88
496.605	21779.37
496.974	21782.99
497.344	22140.04
497.713	22187.27
498.082	22456.42
498.452	22664.77
498.821	22680.14
499.19	22786.35
499.559	23196.96
499.928	23247.81
500.298	23450.97
500.667	23758.08
501.036	23588.59
501.405	23985.41
501.774	24012.98
502.143	24215.24
502.512	24364.61
502.88	24537.04
503.249	24738.16
503.618	24916.92
503.987	24993.75
504.356	25166.17
504.724	25249.11
505.093	25437.35
505.462	25622.43
505.83	25743.56
506.199	26012.25
506.567	26348.06
506.936	26342.41
507.304	26662.63
507.672	26765.91
508.041	26881.38
508.409	27089.97
508.777	27399.56
509.145	27582.83
509.514	27731.76
509.882	27785.77
510.25	28056.27
510.618	28161.8
510.986	28261.01
511.354	28578.97
511.722	28752.52
512.09	28997.26
512.458	29083.81
512.826	29519.96
513.193	29639.96
513.561	29700.07
513.929	29933.51
514.297	30277.9
514.664	30478.35
515.032	30469.54
515.4	30809.87
515.767	30936.19
516.135	31199.69
516.502	31155.85
516.869	31598.1
517.237	31649.17
517.604	31755.83
517.972	32146.56
518.339	32499.09
518.706	32537.96
519.073	32782.02
519.44	32984.05
519.808	33261.78
520.175	33357.15
520.542	33720.07
520.909	33904.48
521.276	33956.45
521.643	34286.61
522.009	34476.21
522.376	34706.49
522.743	34966.14
523.11	35337.21
523.477	35633.7
523.843	35786.01
524.21	36354.81
524.577	36600.22
524.943	36644.52
525.31	36886.77
525.676	37178.29
526.043	37398.85
526.409	37591.38
526.776	37998.15
527.142	38157.02
527.508	38427.75
527.874	38599.72
528.241	38786.83
528.607	38878.13
528.973	39423.43
529.339	39344.33
529.705	39788.39
530.071	40121.71
530.437	40217.76
530.803	40503.85
531.169	40763.5
531.535	40672.89
531.901	40873.33
532.267	41023.16
532.632	41329.59
532.998	41408.69
533.364	41597.38
533.73	41784.04
534.095	42039.4
534.461	42231.04
534.826	42438.49
535.192	42695.43
535.557	42871.25
535.923	42865.14
536.288	43217.9
536.653	43271.24
537.019	43188.07
537.384	43571.79
537.749	43704.9
538.114	43733.82
538.479	43861.5
538.845	44158.22
539.21	44061.04
539.575	44176.3
539.94	44431.88
540.305	44657.41
540.67	44492.67
541.034	44856.28
541.399	45087.23
541.764	45046.1
542.129	45243.16
542.494	45327
542.858	45465.75
543.223	45388.24
543.587	45928.34
543.952	45842.24
544.316	45900.09
544.681	46042.91
545.045	46155.68
545.41	46377.82
545.774	46474.77
546.138	46330.59
546.503	46588.89
546.867	46763.8
547.231	47184.13
547.595	47077.69
547.959	47181.64
548.324	47297.34
548.688	47354.52
549.052	47645.13
549.416	47667.73
549.779	47798.57
550.143	47768.97
550.507	48133.03
550.871	48186.81
551.235	48163.54
551.599	48416.86
551.962	48387.26
552.326	48568.27
552.689	48758.1
553.053	48648.72
553.417	48762.84
553.78	49249.38
554.143	49214.81
554.507	49370.74
554.87	49624.97
555.234	49995.13
555.597	49732.99
555.96	49902.02
556.323	50077.38
556.686	50155.57
557.05	50282.12
557.413	50428.56
557.776	50614.32
558.139	50904.25
558.502	50938.38
558.865	50994.2
559.228	51200.29
559.59	51360.74
559.953	51369.55
560.316	51672.37
560.679	51631.92
561.041	51864.46
561.404	51953.04
561.767	52132.25
562.129	52106.26
562.492	52397.1
562.854	52338.34
563.217	52621.05
563.579	52624.66
563.941	52823.3
564.304	52995.05
564.666	53152.78
565.028	53207.02
565.39	53266.68
565.753	53423.96
566.115	53601.36
566.477	53657.18
566.839	53768.13
567.201	53983.95
567.563	53970.61
567.925	54211.96
568.287	54177.16
568.648	54214
569.01	54412.86
569.372	54616.7
569.734	54561.56
570.095	54769.01
570.457	54832.97
570.819	54973.75
571.18	54892.85
571.542	55103.69
571.903	55030.7
572.265	55171.04
572.626	55265.04
572.987	55369.67
573.349	55370.13
573.71	55498.03
574.071	55528.09
574.432	55684.24
574.794	55786.61
575.155	55860.73
575.516	55800.17
575.877	55996.55
576.238	55943.9
576.599	56041.97
576.96	55986.83
577.32	56017.57
577.681	56108.19
578.042	56170.1
578.403	56132.82
578.763	56199.48
579.124	56283.1
579.485	56376.65
579.845	56437.67
580.206	56328.97
580.566	56360.83
580.927	56446.71
581.287	56523.77
581.648	56441.96
582.008	56594.27
582.368	56568.74
582.728	56553.15
583.089	56521.28
583.449	56495.29
583.809	56506.59
584.169	56511.34
584.529	56449.42
584.889	56659.81
585.249	56463.43
585.609	56465.46
585.969	56607.83
586.329	56597.21
586.688	56562.86
587.048	56456.65
587.408	56485.35
587.768	56533.49
588.127	56561.28
588.487	56487.38
588.846	56766.7
589.206	56495.07
589.565	56533.26
589.925	56623.2
590.284	56619.58
590.643	56673.14
591.003	56681.5
591.362	56716.76
591.721	56603.09
592.08	56639.7
592.44	56658.91
592.799	56750.43
593.158	56654.61
593.517	56668.85
593.876	56682.18
594.235	56604.9
594.593	56713.59
594.952	56751.56
595.311	56639.02
595.67	56712.46
596.029	56807.6
596.387	56785.46
596.746	56894.15
597.104	56700.49
597.463	56773.25
597.822	56840.6
598.18	56732.12
598.538	56688.28
598.897	56844.89
599.255	56598.57
599.613	56954.27
599.972	56863.65
600.33	56936.64
600.688	56803.76
601.046	56885.57
601.404	56980.93
601.762	56900.93
602.12	57088.05
602.478	57093.92
602.836	57150.64
603.194	56968.95
603.552	57015.96
603.91	56938.45
604.268	57077.65
604.625	56989.52
604.983	57112.45
605.341	57034.26
605.698	57153.36
606.056	57140.93
606.413	57170.76
606.771	57170.08
607.128	57148.84
607.485	57144.32
607.843	57113.58
608.2	57206.46
608.557	57287.82
608.914	57164.2
609.272	57283.75
609.629	57324.88
609.986	57431.09
610.343	57330.3
610.7	57514.48
611.057	57470.18
611.414	57429.51
611.771	57469.73
612.127	57628.82
612.484	57511.76
612.841	57637.64
613.198	57536.4
613.554	57586.34
613.911	57727.58
614.267	57676.05
614.624	57647.58
614.98	57620.69
615.337	57791.08
615.693	57743.4
616.05	57693
616.406	57824.52
616.762	57687.81
617.118	57708.6
617.475	57770.06
617.831	57787.01
618.187	57810.74
618.543	57828.59
618.899	57932.54
619.255	57865.2
619.611	57839.21
619.967	57881.25
620.323	57912.43
620.678	57752.21
621.034	57787.01
621.39	57713.57
621.746	57734.81
622.101	58055.25
622.457	57795.6
622.812	57874.24
623.168	57886.9
623.523	57783.62
623.879	57898.87
624.234	57656.17
624.589	57826.11
624.945	57808.25
625.3	57768.03
625.655	57824.52
626.01	57726.67
626.365	57707.92
626.72	57759.22
627.075	57693.91
627.43	57763.51
627.785	57629.28
628.14	57694.81
628.495	57708.37
628.85	57678.99
629.205	57598.32
629.559	57776.62
629.914	57553.35
630.269	57566
630.623	57363.97
630.978	57409.17
631.332	57529.84
631.687	57546.11
632.041	57385.21
632.396	57423.41
632.75	57249.62
633.104	57304.31
633.459	57144.32
633.813	57197.2
634.167	57144.99
634.521	57140.7
634.875	57096.86
635.229	57177.99
635.583	57030.87
635.937	56973.25
636.291	56993.59
636.645	56975.96
636.999	56881.72
637.352	56977.32
637.706	56695.29
638.06	56870.88
638.413	56797.89
638.767	56708.4
639.121	56740.49
639.474	56603.99
639.828	56569.19
640.181	56618.68
640.534	56565.12
640.888	56448.97
641.241	56276.99
641.594	56416.43
641.947	56419.82
642.301	56280.84
642.654	56248.3
643.007	56250.1
643.36	56232.48
643.713	56160.39
644.066	56223.89
644.419	56032.93
644.771	55882.43
645.124	55673.85
645.477	55588.88
645.83	55430.69
646.182	55364.7
646.535	55183.46
646.888	55298.49
647.24	55101.66
647.593	55105.73
647.945	55073.41
648.298	54906.86
648.65	54850.37
649.002	54795.23
649.355	54980.53
649.707	54795
650.059	54944.15
650.411	55259.39
650.763	55247.42
651.115	55552.72
651.467	55372.61
651.819	55319.05
652.171	55243.8
652.523	55153.63
652.875	55192.05
653.227	55079.74
653.578	55235.21
653.93	55101.21
654.282	55106.18
654.633	54902.12
654.985	54905.96
655.337	54937.6
655.688	54928.1
656.039	55034.77
656.391	54726.08
656.742	54771.95
657.094	54829.58
657.445	54957.71
657.796	54776.02
658.147	54684.04
658.498	54854.43
658.849	54846.98
659.2	54733.08
659.551	54602.01
659.902	54658.05
660.253	54592.52
660.604	54627.09
660.955	54418.74
661.306	54477.72
661.656	54365.86
662.007	54384.16
662.358	54421
662.708	54416.03
663.059	54383.03
663.409	54189.37
663.76	54391.62
664.11	54406.99
664.461	54288.8
664.811	54265.97
665.161	54268.01
665.511	54221.23
665.862	54253.77
666.212	54277.05
666.562	54233.88
666.912	54293.32
667.262	54158.63
667.612	54154.79
667.962	54175.13
668.312	53999.54
668.662	54262.58
669.011	54085.19
669.361	53973.1
669.711	53938.98
670.06	53877.06
670.41	53771.07
670.76	53763.61
671.109	53931.29
671.459	53804.97
671.808	53729.04
672.157	53861.47
672.507	53577.63
672.856	53612.66
673.205	53673.22
673.554	53523.85
673.904	53522.94
674.253	53638.65
674.602	53614.47
674.951	53127.47
675.3	53005.44
675.649	53492.44
675.998	53367.01
676.346	53335.6
676.695	53503.06
677.044	53182.39
677.393	53265.32
677.741	53350.97
678.09	53158.66
678.438	53092.22
678.787	53200.69
679.135	53150.07
679.484	52948.27
679.832	52991.66
680.181	52835.05
680.529	52889.06
680.877	52824.88
681.225	52723.42
681.573	52885.9
681.922	52662.17
682.27	52433.93
682.618	52514.61
682.966	52519.13
683.314	52581.95
683.661	52508.28
684.009	52196.65
684.357	52189.42
684.705	52176.76
685.053	52132.47
685.4	52102.64
685.748	51893.83
686.095	51857.45
686.443	51732.03
686.79	51656.33
687.138	51738.81
687.485	51634.41
687.832	51529.78
688.18	51488.65
688.527	51242.32
688.874	51310.57
689.221	51177.69
689.568	51071.03
689.915	51048.66
690.262	51056.79
690.609	50890.92
690.956	50827.19
691.303	50809.34
691.65	50635.56
691.997	50476.47
692.344	50335.91
692.69	50180.66
693.037	50258.4
693.383	49983.15
693.73	50096.37
694.077	49904.51
694.423	49812.98
694.769	49584.74
695.116	49558.75
695.462	49427.68
695.808	49273.79
696.155	49364.63
696.501	49161.02
696.847	49151.08
697.193	48851.88
697.539	48999.9
697.885	48666.35
698.231	48497.31
698.577	48564.88
698.923	48370.31
699.269	48307.26
699.614	48107.49
699.96	48033.14
700.306	48052.13
700.651	47849.65
700.997	47610.1
701.342	47751.12
701.688	47566.94
702.033	47469.09
702.379	47518.13
702.724	47288.08
703.069	47396.78
703.415	46891.25
703.76	46795.21
704.105	46863.23
704.45	46830.01
704.795	46448.1
705.14	46390.25
705.485	46299.4
705.83	46171.05
706.175	46278.16
706.52	46060.54
706.865	45867.33
707.209	45837.27
707.554	45869.81
707.899	45831.62
708.243	45639.99
708.588	45571.51
708.932	45230.73
709.277	45227.34
709.621	45312.54
709.966	45086.78
710.31	45020.12
710.654	44714.59
710.998	44862.38
711.342	44691.31
711.687	44607.25
712.031	44298.55
712.375	44220.59
712.719	44172
713.063	44138.33
713.407	44214.71
713.75	43889.75
714.094	43798.68
714.438	43660.15
714.782	43759.36
715.125	43569.31
715.469	43505.58
715.812	43272.59
716.156	43074.4
716.499	43125.7
716.843	43121.86
717.186	42883.67
717.53	43059.26
717.873	42944.01
718.216	42837.12
718.559	42628.09
718.902	42453.63
719.246	42574.3
719.589	42304.48
719.932	42188.33
720.275	42111.72
720.617	42167.54
720.96	42095.9
721.303	42012.51
721.646	41993.08
721.989	41632.18
722.331	41835.34
722.674	41611.17
723.016	41680.09
723.359	41501.56
723.701	41607.32
724.044	41425.86
724.386	41098.18
724.729	41235.81
725.071	41043.27
725.413	40943.16
725.755	40890.05
726.097	40829.04
726.439	40473.79
726.782	40527.35
727.124	40598.99
727.465	40475.15
727.807	40480.8
728.149	40321.48
728.491	40153.13
728.833	40273.35
729.175	40127.14
729.516	40101.83
729.858	40037.65
730.199	39989.74
730.541	39788.61
730.882	39909.97
731.224	39852.57
731.565	39602.18
731.906	39497.32
732.248	39588.85
732.589	39238.8
732.93	39333.94
733.271	39340.27
733.612	39251.23
733.953	39190.44
734.294	38972.14
734.635	38770.79
734.976	39004
735.317	38597.69
735.658	38809.66
735.999	38733.95
736.339	38514.52
736.68	38447.18
737.021	38440.63
737.361	38249.45
737.702	38506.39
738.042	38246.51
738.383	38121.54
738.723	38163.12
739.063	38076.8
739.404	38193.63
739.744	37944.82
740.084	37757.03
740.424	37799.74
740.764	37622.8
741.104	37793.41
741.444	37506.87
741.784	37476.13
742.124	37444.72
742.464	37365.4
742.804	37285.4
743.143	37262.13
743.483	37128.12
743.823	37137.84
744.162	36976.94
744.502	36890.61
744.841	36869.14
745.181	36839.54
745.52	36660.34
745.86	36665.08
746.199	36577.17
746.538	36458.31
746.877	36671.63
747.216	36528.59
747.556	36389.16
747.895	36396.39
748.234	36291.08
748.573	36022.16
748.911	36195.49
749.25	36146.9
749.589	35841.37
749.928	35975.38
750.267	36034.14
750.605	35665.33
750.944	35703.3
751.283	35525
751.621	35653.13
751.96	35329.3
752.298	35334.27
752.636	35451.1
752.975	35165.23
753.313	34913.94
753.651	35059.47
753.989	34770.89
754.327	34647.73
754.666	34555.08
755.004	34610.45
755.342	34748.3
755.679	34612.93
756.017	34301.3
756.355	34320.51
756.693	34199.61
757.031	34179.72
757.368	34000.74
757.706	34010.46
758.044	33899.28
758.381	33782.9
758.719	33616.35
759.056	33696.12
759.394	33484.83
759.731	33227.88
760.068	33175.91
760.405	33011.39
760.743	33071.05
761.08	33105.17
761.417	32793.77
761.754	32815.24
762.091	32611.4
762.428	32643.04
762.765	32518.52
763.102	32436.49
763.438	32286.44
763.775	32132.09
764.112	32262.71
764.449	32234.46
764.785	31954.47
765.122	31638.09
765.458	31542.73
765.795	31422.73
766.131	31330.98
766.467	31276.07
766.804	31151.33
767.14	30976.87
767.476	30975.29
767.812	30939.81
768.148	30850.09
768.485	30614.39
768.821	30406.94
769.157	30403.55
769.492	30338.24
769.828	30410.1
770.164	30075.65
770.5	29971.02
770.836	29955.65
771.171	29814.19
771.507	29758.37
771.842	29457.14
772.178	29496
772.513	29308.44
772.849	29146.41
773.184	29041.55
773.519	28992.29
773.855	28806.3
774.19	28767.66
774.525	28596.82
774.86	28606.76
775.195	28391.85
775.53	28238.86
775.865	28125.87
776.2	28047.45
776.535	27892.88
776.87	27771.3
777.205	27696.73
777.539	27549.16
777.874	27491.31
778.209	27355.27
778.543	27280.24
778.878	27257.19
779.212	27235.27
779.547	27049.97
779.881	26926.81
780.215	26792.57
780.55	26782.63
780.884	26585.57
781.218	26441.4
781.552	26466.93
781.886	26287.05
782.22	26129.09
782.554	26024.23
782.888	25934.06
783.222	25768.19
783.556	25817
783.889	25646.84
784.223	25512.61
784.557	25420.18
784.89	25479.61
785.224	25295.66
785.557	25155.1
785.891	25031.49
786.224	24880.98
786.558	24949.46
786.891	24748.33
787.224	24548.34
787.557	24609.58
787.891	24553.54
788.224	24557.83
788.557	24413.65
788.89	24330.26
789.223	24244.84
789.556	24026.77
789.888	23905.87
790.221	23921.01
790.554	23716.5
790.887	23817.28
791.219	23706.55
791.552	23661.36
791.884	23452.77
792.217	23406.67
792.549	23181.59
792.882	23135.72
793.214	23078.32
793.546	22965.33
793.879	22909.51
794.211	22839.68
794.543	22788.38
794.875	22703.41
795.207	22834.03
795.539	22532.57
795.871	22599.69
796.203	22301.17
796.535	22248.51
796.867	22272.24
797.198	22145.69
797.53	22114.73
797.862	21780.27
798.193	21964.9
798.525	21790.67
798.856	21801.74
799.188	21606.72
799.519	21457.57
799.85	21336.9
800.182	21421.87
800.513	21377.57
800.844	21168.77
801.175	21279.05
801.506	21252.15
801.837	21030.92
802.168	20958.83
802.499	20970.35
802.83	20898.26
803.161	20729.45
803.491	20804.26
803.822	20739.85
804.153	20629.12
804.483	20320.2
804.814	20289.01
805.145	20264.38
805.475	20337.83
805.805	20241.11
806.136	20249.47
806.466	20230.03
806.796	20178.73
807.126	19925.86
807.457	19925.63
807.787	19868.69
808.117	19682.93
808.447	19684.28
808.777	19735.13
809.107	19632.31
809.436	19680.44
809.766	19582.82
810.096	19455.36
810.426	19399.77
810.755	19328.36
811.085	19371.3
811.414	19234.58
811.744	19137.41
812.073	19074.36
812.403	18994.59
812.732	18976.51
813.061	19003.62
813.39	18849.5
813.719	18788.26
814.049	18919.56
814.378	18840.47
814.707	18696.51
815.036	18617.65
815.365	18598.44
815.693	18416.52
816.022	18515.28
816.351	18293.59
816.68	18206.58
817.008	18269.63
817.337	18135.62
817.665	18113.25
817.994	18096.98
818.322	18008.85
818.651	17884.78
818.979	17916.87
819.307	17977.21
819.636	17910.77
819.964	17829.87
820.292	17934.95
820.62	17836.65
820.948	17763.66
821.276	17830.32
821.604	17725.01
821.932	17781.51
822.259	17691.57
822.587	17655.64
822.915	17600.5
823.243	17661.96
823.57	17569.31
823.898	17689.99
824.225	17597.33
824.553	17579.26
824.88	17647.05
825.207	17711.46
825.535	17633.04
825.862	17643.89
826.189	17572.93
826.516	17604.34
826.843	17670.1
827.17	17605.92
827.497	17594.62
827.824	17623.32
828.151	17616.32
828.478	17551.23
828.805	17563.66
829.131	17545.36
829.458	17512.14
829.785	17541.74
830.111	17614.06
830.438	17708.52
830.764	17670.78
831.09	17509.43
831.417	17429.88
831.743	17468.3
832.069	17395.98
832.395	17335.19
832.722	17463.78
833.048	17396.89
833.374	17447.28
833.7	17342.43
834.026	17426.26
834.351	17475.53
834.677	17236.67
835.003	17368.19
835.329	17343.56
835.654	17293.84
835.98	17292.48
836.306	17283.44
836.631	17179.27
836.956	17244.35
837.282	17248.64
837.607	17145.37
837.932	17106.95
838.258	17032.83
838.583	17047.74
838.908	16977.01
839.233	16928.2
839.558	16881.87
839.883	16920.06
840.208	16758.71
840.533	16722.1
840.858	16862.89
841.182	16847.3
841.507	16828.09
841.832	16717.58
842.156	16787.86
842.481	16767.75
842.805	16634.2
843.13	16610.69
843.454	16499.28
843.778	16518.04
844.103	16412.28
844.427	16459.06
844.751	16419.74
845.075	16379.51
845.399	16390.59
845.723	16264.26
846.047	16241.44
846.371	16176.35
846.695	16130.03
847.019	15940.65
847.343	15914.89
847.666	15820.21
847.99	15663.83
848.313	15676.25
848.637	15556.26
848.96	15545.41
849.284	15516.94
849.607	15480.33
849.931	15399.88
850.254	15339.54
850.577	15141.58
850.9	15078.76
851.223	15085.54
851.546	15012.77
851.869	14988.14
852.192	15060
852.515	14964.18
852.838	14862.72
853.161	14876.05
853.483	14761.93
853.806	14697.3
854.129	14721.48
854.451	14600.8
854.774	14574.59
855.096	14522.16
855.419	14511.99
855.741	14510.64
856.063	14399.9
856.385	14292.11
856.708	14347.93
857.03	14325.78
857.352	14218.44
857.674	14258.66
857.996	14153.81
858.318	14068.16
858.64	14080.36
858.961	14023.19
859.283	13963.98
859.605	13993.81
859.926	13930.09
860.248	13863.87
860.57	13872.23
860.891	13842.63
861.212	13827.26
861.534	13780.94
861.855	13730.77
862.176	13742.29
862.498	13685.12
862.819	13705.91
863.14	13563.99
863.461	13565.35
863.782	13466.6
864.103	13581.85
864.424	13448.52
864.745	13494.39
865.065	13440.61
865.386	13438.8
865.707	13372.36
866.027	13363.55
866.348	13398.57
866.668	13445.13
866.989	13371.68
867.309	13272.93
867.63	13250.1
867.95	13260.72
868.27	13156.55
868.59	13232.48
868.91	13208.3
869.23	13173.27
869.55	13091.46
869.87	13151.12
870.19	13114.74
870.51	13160.61
870.83	13112.03
871.15	13034.29
871.469	13052.82
871.789	12985.48
872.109	13077.68
872.428	12932.15
872.748	13020.05
873.067	13004.46
873.386	13002.43
873.706	12988.42
874.025	12894.41
874.344	12837.01
874.663	12820.06
874.982	12865.71
875.301	12783
875.62	12862.32
875.939	12772.83
876.258	12793.17
876.577	12716.33
876.896	12759.95
877.214	12674.07
877.533	12798.14
877.852	12726.05
878.17	12726.73
878.489	12795.65
878.807	12667.97
879.125	12716.33
879.444	12603.79
879.762	12498.71
880.08	12494.42
880.398	12458.03
880.716	12433.85
881.034	12403.8
881.352	12412.16
881.67	12350.92
881.988	12377.58
882.306	12462.55
882.624	12284.48
882.941	12282.22
883.259	12200.41
883.577	12296.46
883.894	12186.4
884.212	12188.66
884.529	12170.81
884.846	12071.83
885.164	12052.62
885.481	12048.1
885.798	12093.75
886.115	12004.94
886.432	12061.66
886.75	11950.93
887.067	11959.29
887.383	11968.56
887.7	11954.54
888.017	11920.65
888.334	11943.7
888.651	11890.82
888.967	11860.31
889.284	11784.61
889.6	11800.2
889.917	11700.77
890.233	11815.57
890.55	11683.37
890.866	11700.77
891.182	11647.89
891.498	11590.49
891.815	11623.25
892.131	11508.68
892.447	11449.7
892.763	11467.78
893.079	11393.2
893.395	11381.68
893.71	11297.16
894.026	11296.26
894.342	11245.64
894.657	11236.15
894.973	11249.48
895.289	11151.63
895.604	11245.18
895.92	11105.3
896.235	11035.47
896.55	11053.33
896.865	11021.01
897.181	11065.08
897.496	10997.73
897.811	10929.26
898.126	10851.52
898.441	10798.87
898.756	10821.47
899.071	10776.5
899.386	10767.68
899.7	10679.78
900.015	10682.26
900.33	10574.24
900.644	10600.46
900.959	10591.87
901.273	10502.61
901.588	10476.84
901.902	10459.44
902.216	10436.62
902.531	10442.95
902.845	10411.31
903.159	10326.79
903.473	10378.09
903.787	10285.44
904.101	10174.25
904.415	10157.3
904.729	10098.1
905.042	10026.01
905.356	9985.1
905.67	10006.12
905.984	10060.58
906.297	9924.09
906.611	9898.55
906.924	9876.86
907.237	9827.82
907.551	9847.48
907.864	9768.61
908.177	9702.85
908.491	9619.24
908.804	9702.17
909.117	9613.14
909.43	9531.33
909.743	9456.08
910.056	9492.01
910.368	9457.43
910.681	9452.92
910.994	9383.76
911.307	9466.93
911.619	9305.57
911.932	9335.18
912.244	9237.1
912.557	9271.68
912.869	9238.68
913.181	9153.04
913.494	9200.04
913.806	9100.83
914.118	9075.3
914.43	9064.45
914.742	8961.18
915.054	8946.71
915.366	8979.03
915.678	8878.69
915.99	8877.56
916.302	8677.79
916.613	8769.54
916.925	8759.83
917.236	8701.3
917.548	8658.59
917.859	8633.95
918.171	8569.55
918.482	8495.43
918.794	8438.7
919.105	8434.64
919.416	8387.41
919.727	8412.49
920.038	8354.41
920.349	8329.78
920.66	8248.65
920.971	8201.65
921.282	8170.46
921.593	8146.06
921.903	8119.62
922.214	8148.77
922.525	8114.19
922.835	8042.1
923.146	7994.42
923.456	7982.22
923.767	7987.19
924.077	7995.1
924.387	7960.98
924.697	7861.54
925.008	7911.26
925.318	7807.53
925.628	7750.59
925.938	7776.12
926.248	7689.57
926.558	7716.24
926.867	7633.3
927.177	7623.36
927.487	7544.72
927.796	7483.48
928.106	7523.02
928.416	7501.1
928.725	7459.3
929.034	7422.01
929.344	7396.02
929.653	7364.83
929.962	7287.55
930.271	7323.93
930.581	7249.58
930.89	7172.3
931.199	7154.44
931.508	7169.81
931.817	7121.68
932.125	7091.85
932.434	7038.97
932.743	6994.9
933.051	6980.44
933.36	6981.34
933.669	6905.41
933.977	6913.77
934.286	6885.75
934.594	6859.54
934.902	6832.19
935.21	6840.1
935.519	6791.74
935.827	6775.92
936.135	6690.5
936.443	6594.01
936.751	6686.43
937.059	6654.34
937.367	6621.58
937.674	6616.61
937.982	6546.55
938.29	6483.5
938.597	6487.34
938.905	6414.35
939.213	6417.51
939.52	6312.66
939.827	6442.82
940.135	6312.66
940.442	6253.23
940.749	6315.37
941.056	6239.44
941.363	6253.9
941.67	6278.31
941.977	6152.44
942.284	6110.86
942.591	6102.95
942.898	6071.54
943.205	6110.63
943.511	6024.98
943.818	6061.14
944.125	5994.7
944.431	5974.59
944.738	5920.35
945.044	5930.75
945.35	5891.2
945.657	5885.55
945.963	5873.57
946.269	5843.52
946.575	5841.48
946.881	5761.49
947.187	5741.83
947.493	5701.38
947.799	5718.55
948.105	5694.82
948.41	5636.74
948.716	5621.15
949.022	5551.55
949.327	5566.69
949.633	5491.21
949.938	5519.46
950.244	5482.4
950.549	5455.51
950.854	5492.79
951.16	5409.18
951.465	5399.69
951.77	5406.92
952.075	5358.11
952.38	5286.47
952.685	5325.57
952.99	5276.75
953.294	5266.36
953.599	5196.53
953.904	5210.99
954.209	5177.1
954.513	5173.48
954.818	5140.94
955.122	5107.04
955.426	5087.38
955.731	5054.61
956.035	5069.08
956.339	5020.04
956.643	4976.42
956.948	4978.91
957.252	4980.49
957.556	4979.59
957.86	4923.09
958.163	4901.17
958.467	4921.28
958.771	4914.5
959.075	4844.22
959.378	4799.25
959.682	4804.22
959.985	4784.56
960.289	4752.47
960.592	4820.72
960.896	4733.94
961.199	4716.09
961.502	4735.07
961.805	4642.87
962.108	4624.57
962.411	4643.32
962.714	4585.02
963.017	4557.45
963.32	4545.7
963.623	4525.14
963.926	4559.03
964.228	4491.92
964.531	4480.39
964.833	4446.95
965.136	4438.13
965.438	4384.35
965.741	4347.29
966.043	4348.64
966.345	4347.74
966.648	4337.34
966.95	4333.5
967.252	4316.33
967.554	4313.39
967.856	4290.11
968.158	4237.23
968.46	4218.25
968.761	4195.2
969.063	4206.73
969.365	4200.4
969.666	4173.05
969.968	4115.43
970.269	4125.6
970.571	4062.32
970.872	4127.18
971.174	4077.01
971.475	4053.06
971.776	4001.53
972.077	4036.11
972.378	4021.19
972.679	3968.99
972.98	3955.88
973.281	3928.77
973.582	3935.32
973.883	3903.23
974.183	3890.35
974.484	3844.25
974.785	3828.43
975.085	3801.99
975.386	3806.74
975.686	3812.84
975.986	3735.55
976.287	3747.08
976.587	3776.91
976.887	3718.83
977.187	3711.82
977.487	3706.85
977.787	3722.44
978.087	3651.03
978.387	3661.2
978.687	3610.36
978.987	3646.06
979.286	3632.73
979.586	3603.13
979.885	3561.54
980.185	3576.46
980.484	3503.24
980.784	3498.95
981.083	3554.31
981.382	3486.97
981.682	3470.25
981.981	3464.15
982.28	3435.45
982.579	3445.16
982.878	3406.29
983.177	3404.71
983.475	3361.1
983.774	3355.67
984.073	3371.04
984.372	3335.34
984.67	3304.83
984.969	3350.25
985.267	3310.48
985.566	3288.78
985.864	3286.52
986.162	3265.73
986.461	3258.05
986.759	3246.07
987.057	3211.95
987.355	3177.83
987.653	3189.8
987.951	3164.95
988.249	3165.17
988.547	3130.82
988.844	3125.17
989.142	3109.58
989.44	3106.19
989.737	3069.58
990.035	3019.86
990.332	3051.05
990.63	3046.3
990.927	3002.24
991.224	3032.29
991.521	3033.88
991.819	2970.15
992.116	2968.57
992.413	2939.87
992.71	2922.69
993.006	2932.63
993.303	2883.6
993.6	2854.9
993.897	2830.72
994.193	2859.19
994.49	2818.29
994.787	2828.23
995.083	2777.38
995.379	2773.09
995.676	2824.61
995.972	2762.02
996.268	2761.34
996.565	2763.37
996.861	2716.14
997.157	2757.5
997.453	2726.09
997.749	2712.3
998.044	2655.81
998.34	2654.68
998.636	2679.99
998.932	2626.65
999.227	2624.85
999.523	2616.94
999.818	2600.21
1000.114	2569.71
1000.409	2552.31
1000.704	2548.92
1001	2515.92
1001.295	2565.41
1001.59	2534.91
1001.885	2480.22
1002.18	2482.93
1002.475	2463.95
1002.77	2450.39
1003.065	2442.48
1003.359	2449.71
1003.654	2451.97
1003.949	2387.79
1004.243	2438.41
1004.538	2393.89
1004.832	2372.2
1005.127	2362.48
1005.421	2388.24
1005.715	2318.41
1006.009	2355.25
1006.304	2327.68
1006.598	2312.99
1006.892	2308.47
1007.186	2236.83
1007.48	2285.87
1007.773	2248.36
1008.067	2210.39
1008.361	2198.19
1008.655	2200.68
1008.948	2187.8
1009.242	2154.8
1009.535	2141.47
1009.829	2137.85
1010.122	2149.15
1010.415	2137.63
1010.708	2118.19
1011.001	2079.55
1011.295	2095.82
1011.588	2048.59
1011.881	2030.74
1012.173	2032.77
1012.466	2051.3
1012.759	2021.47
1013.052	2048.14
1013.344	2022.15
1013.637	2017.86
1013.93	1948.71
1014.222	1922.04
1014.514	1937.63
1014.807	1930.63
1015.099	1924.07
1015.391	1889.95
1015.683	1900.35
1015.976	1916.16
1016.268	1866.67
1016.56	1861.25
1016.851	1836.39
1017.143	1838.65
1017.435	1845.21
1017.727	1782.61
1018.018	1795.94
1018.31	1818.09
1018.602	1774.47
1018.893	1757.07
1019.185	1764.53
1019.476	1744.87
1019.767	1738.77
1020.058	1734.47
1020.35	1721.37
1020.641	1711.65
1020.932	1661.03
1021.223	1697.86
1021.514	1679.11
1021.804	1647.47
1022.095	1659.45
1022.386	1645.21
1022.677	1637.98
1022.967	1600.47
1023.258	1579.68
1023.548	1607.47
1023.839	1587.36
1024.129	1588.04
1024.419	1557.53
1024.709	1535.61
1025	1519.79
1025.29	1515.27
1025.58	1520.02
1025.87	1529.06
1026.16	1481.6
1026.449	1516.4
1026.739	1484.09
1027.029	1473.24
1027.319	1467.14
1027.608	1405.44
1027.898	1440.7
1028.187	1425.78
1028.477	1433.01
1028.766	1437.98
1029.055	1379.23
1029.344	1400.25
1029.634	1386.46
1029.923	1360.02
1030.212	1382.39
1030.501	1360.02
1030.79	1338.33
1031.078	1350.98
1031.367	1314.15
1031.656	1347.82
1031.945	1322.51
1032.233	1300.81
1032.522	1283.19
1032.81	1264.43
1033.099	1279.57
1033.387	1244.32
1033.675	1258.1
1033.963	1239.12
1034.251	1242.28
1034.54	1235.28
1034.828	1217.43
1035.116	1237.76
1035.403	1222.4
1035.691	1205
1035.979	1179.01
1036.267	1188.73
1036.554	1173.36
1036.842	1164.77
1037.129	1154.6
1037.417	1157.54
1037.704	1147.6
1037.992	1149.63
1038.279	1110.76
1038.566	1118.67
1038.853	1118.67
1039.14	1118.67
