Data from foil_FLMS001491_026.txt Node
Date: Tue Feb 07 11:25:41 GMT 2017
User: dcchb
Spectrometer: FLMS00149
Trigger mode: 0
Integration Time (sec): 2.000000E-2
Scans to average: 10
Electric dark correction enabled: true
Nonlinearity correction enabled: false
Boxcar width: 0
XAxis mode: Wavelengths
Number of Pixels in Spectrum: 2048
>>>>>Begin Spectral Data<<<<<
341.393	19.94
341.776	19.94
342.16	19.94
342.543	-49.89
342.927	-54.18
343.31	-90.56
343.693	-85.14
344.077	-65.7
344.46	-54.86
344.843	-52.37
345.226	-51.24
345.61	-34.74
345.993	-34.07
346.376	-9.66
346.759	26.95
347.142	34.86
347.525	48.19
347.908	66.04
348.291	76.66
348.674	103.56
349.057	122.09
349.44	151.46
349.823	140.84
350.206	174.29
350.588	263.78
350.971	284.34
351.354	293.16
351.737	311.69
352.119	327.96
352.502	339.48
352.884	345.13
353.267	345.81
353.65	351.91
354.032	363.44
354.414	372.48
354.797	387.62
355.179	399.14
355.562	408.63
355.944	416.99
356.326	427.16
356.709	438.01
357.091	422.19
357.473	436.88
357.855	455.19
358.238	438.46
358.62	452.93
359.002	419.93
359.384	456.99
359.766	454.96
360.148	436.43
360.53	435.3
360.912	433.49
361.294	436.88
361.676	446.6
362.057	432.59
362.439	447.95
362.821	447.73
363.203	459.93
363.584	459.93
363.966	435.53
364.348	440.5
364.729	462.64
365.111	446.37
365.493	453.38
365.874	436.66
366.256	443.21
366.637	456.32
367.019	438.46
367.4	449.08
367.781	471.68
368.163	480.04
368.544	476.88
368.925	459.48
369.306	455.64
369.688	454.06
370.069	497.44
370.45	485.69
370.831	484.56
371.212	488.63
371.593	486.82
371.974	486.82
372.355	491.12
372.736	504.68
373.117	512.36
373.498	513.26
373.879	511.23
374.26	490.44
374.641	480.72
375.021	474.17
375.402	519.14
375.783	525.01
376.163	571.11
376.544	562.08
376.925	582.19
377.305	569.76
377.686	545.35
378.066	540.16
378.447	576.99
378.827	560.49
379.208	561.4
379.588	597.1
379.968	572.7
380.349	602.3
380.729	612.92
381.109	588.06
381.489	621.06
381.87	645.24
382.25	606.14
382.63	654.5
383.01	638.91
383.39	633.49
383.77	669.87
384.15	656.08
384.53	673.03
384.91	665.12
385.29	698.34
385.67	690.89
386.049	693.15
386.429	712.13
386.809	710.77
387.189	700.15
387.568	727.95
387.948	723.2
388.328	728.4
388.707	765.23
389.087	751.9
389.466	759.13
389.846	778.79
390.225	794.61
390.605	808.4
390.984	789.41
391.363	814.27
391.743	852.46
392.122	841.84
392.501	851.33
392.881	856.53
393.26	846.14
393.639	883.65
394.018	880.94
394.397	887.94
394.776	905.34
395.155	896.08
395.534	920.26
395.913	945.34
396.292	952.8
396.671	963.65
397.05	973.59
397.429	982.63
397.808	967.04
398.186	982.4
398.565	998.45
398.944	972.91
399.323	1021.95
399.701	1006.58
400.08	1024.66
400.458	1065.57
400.837	1062.4
401.215	1046.58
401.594	1057.2
401.972	1077.99
402.351	1111.21
402.729	1133.13
403.107	1141.5
403.486	1138.11
403.864	1156.64
404.242	1157.54
404.62	1166.58
404.999	1180.36
405.377	1219.46
405.755	1240.93
406.133	1233.02
406.511	1257.42
406.889	1254.03
407.267	1299.23
407.645	1281.83
408.023	1306.46
408.401	1346.01
408.779	1355.95
409.156	1390.75
409.534	1369.96
409.912	1394.82
410.29	1435.05
410.667	1443.41
411.045	1460.13
411.422	1473.01
411.8	1482.96
412.178	1535.61
412.555	1531.77
412.933	1592.56
413.31	1581.03
413.687	1597.98
414.065	1597.3
414.442	1644.76
414.819	1672.1
415.197	1690.18
415.574	1732.44
415.951	1686.57
416.328	1747.13
416.705	1758.65
417.082	1777.86
417.46	1769.5
417.837	1771.99
418.214	1804.53
418.591	1866.9
418.967	1827.35
419.344	1875.71
419.721	1905.77
420.098	1887.01
420.475	1916.62
420.852	1963.17
421.228	1968.82
421.605	2000
421.982	1967.46
422.358	2020.79
422.735	2056.27
423.111	2041.36
423.488	2121.58
423.864	2113.22
424.241	2140.79
424.617	2152.54
424.994	2175.14
425.37	2191.86
425.746	2193.9
426.123	2262.14
426.499	2231.64
426.875	2305.08
427.251	2324.97
427.627	2395.93
428.003	2352.76
428.379	2417.39
428.756	2427.11
429.132	2509.14
429.507	2510.5
429.883	2552.31
430.259	2604.73
430.635	2586.43
431.011	2627.78
431.387	2652.64
431.763	2720.66
432.138	2733.32
432.514	2776.71
432.89	2815.35
433.265	2901
433.641	2884.73
434.016	2880.88
434.392	2968.57
434.767	3046.53
435.143	3012.63
435.518	3065.96
435.894	3107.77
436.269	3161.56
436.644	3213.53
437.02	3207.88
437.395	3223.25
437.77	3282.91
438.145	3315.45
438.52	3329.23
438.895	3374.21
439.271	3410.36
439.646	3432.96
440.021	3465.95
440.395	3510.47
440.77	3442.23
441.145	3470.25
441.52	3569
441.895	3538.27
442.27	3668.89
442.645	3568.78
443.019	3662.11
443.394	3671.37
443.769	3678.15
444.143	3690.81
444.518	3752.27
444.892	3749.56
445.267	3818.71
445.641	3795.21
446.016	3864.36
446.39	3870.46
446.764	3909.11
447.139	3870.46
447.513	3924.7
447.887	3935.32
448.262	3982.55
448.636	4001.76
449.01	4091.25
449.384	4127.86
449.758	4157.69
450.132	4187.52
450.506	4229.55
450.88	4211.47
451.254	4237.46
451.628	4249.44
452.002	4340.96
452.376	4349.32
452.75	4444.01
453.123	4432.71
453.497	4505.02
453.871	4585.47
454.244	4672.25
454.618	4687.39
454.992	4766.71
455.365	4782.76
455.739	4896.42
456.112	4909.08
456.486	4970.1
456.859	5003.77
457.232	5091.67
457.606	5095.06
457.979	5157.66
458.352	5263.87
458.725	5272.91
459.099	5346.13
459.472	5459.35
459.845	5517.43
460.218	5562.85
460.591	5566.01
460.964	5602.17
461.337	5794.03
461.71	5786.12
462.083	5920.58
462.456	5959.9
462.829	5970.52
463.201	6014.14
463.574	6140.46
463.947	6171.65
464.32	6299.78
464.692	6351.08
465.065	6371.41
465.438	6516.27
465.81	6558.98
466.183	6669.71
466.555	6757.62
466.928	6811.63
467.3	6855.24
467.672	6910.61
468.045	7155.35
468.417	7198.96
468.789	7205.97
469.161	7306.53
469.534	7434.44
469.906	7621.33
470.278	7614.32
470.65	7699.52
471.022	7904.26
471.394	8023.57
471.766	8073.06
472.138	8142.89
472.51	8395.09
472.882	8471.02
473.253	8552.37
473.625	8694.29
473.997	8861.97
474.369	8931.57
474.74	8999.37
475.112	9144.45
475.484	9273.03
475.855	9499.02
476.227	9539.24
476.598	9812.23
476.97	9949.63
477.341	10152.11
477.713	10278.43
478.084	10290.63
478.455	10706.89
478.827	10708.02
479.198	10966.32
479.569	10962.93
479.94	11405.41
480.311	11431.39
480.682	11703.48
481.053	11949.57
481.424	12094.43
481.795	12254.42
482.166	12436.57
482.537	12577.58
482.908	12811.7
483.279	13006.04
483.65	13187.96
484.021	13460.04
484.391	13593.37
484.762	13837.21
485.133	13901.39
485.503	14036.52
485.874	14434.93
486.244	14492.33
486.615	14918.08
486.985	14943.39
487.356	15240.11
487.726	15312.65
488.097	15630.61
488.467	15710.15
488.837	15950.37
489.207	16225.84
489.578	16412.05
489.948	16598.26
490.318	16882.32
490.688	16908.76
491.058	17239.15
491.428	17392.37
491.798	17565.7
492.168	17905.12
492.538	18039.81
492.908	18157.77
493.278	18425.79
493.648	18482.28
494.017	18690.19
494.387	18942.84
494.757	18957.3
495.126	19190.29
495.496	19404.74
495.866	19424.4
496.235	19709.37
496.605	19775.58
496.974	19969.02
497.344	20145.29
497.713	20218.96
498.082	20419.41
498.452	20543.25
498.821	20764.03
499.19	20826.4
499.559	21081.99
499.928	21235.2
500.298	21386.61
500.667	21513.16
501.036	21447.4
501.405	21726.72
501.774	21812.14
502.143	21943.21
502.512	22060.72
502.88	22267.27
503.249	22333.48
503.618	22579.12
503.987	22641.27
504.356	22833.35
504.724	23014.59
505.093	23177.53
505.462	23309.27
505.83	23342.04
506.199	23583.17
506.567	23811.41
506.936	23808.92
507.304	24199.19
507.672	24327.78
508.041	24468.11
508.409	24534.55
508.777	24822.23
509.145	25043.47
509.514	25040.75
509.882	25170.47
510.25	25412.5
510.618	25634.41
510.986	25602.32
511.354	25948.75
511.722	26046.6
512.09	26314.84
512.458	26316.43
512.826	26683.65
513.193	26629.86
513.561	26922.51
513.929	27147.37
514.297	27343.52
514.664	27635.26
515.032	27689.05
515.4	27840.91
515.767	28019.21
516.135	28311.18
516.502	28174.91
516.869	28719.98
517.237	28776.47
517.604	28797.72
517.972	29260.76
518.339	29442.45
518.706	29454.65
519.073	29578.49
519.44	29761.99
519.808	30260.28
520.175	30278.58
520.542	30693.49
520.909	30810.09
521.276	31037.66
521.643	31147.94
522.009	31487.36
522.376	31684.42
522.743	31977.29
523.11	32278.98
523.477	32551.97
523.843	32760.78
524.21	33160.77
524.577	33446.18
524.943	33577.03
525.31	33826.51
525.676	33995.77
526.043	34225.6
526.409	34410.9
526.776	34748.52
527.142	34859.93
527.508	35075.97
527.874	35369.52
528.241	35606.58
528.607	35686.58
528.973	36001.37
529.339	36089.05
529.705	36582.6
530.071	36824.85
530.437	36940.78
530.803	37031.63
531.169	37330.6
531.535	37416.47
531.901	37574.66
532.267	37626.41
532.632	38012.16
532.998	38224.36
533.364	38464.81
533.73	38572.83
534.095	38815.08
534.461	38991.35
534.826	39156.54
535.192	39275.86
535.557	39716.98
535.923	39681.95
536.288	39720.82
536.653	39960.81
537.019	39958.55
537.384	40170.75
537.749	40440.12
538.114	40655.03
538.479	40685.54
538.845	40866.78
539.21	40834.91
539.575	41120.78
539.94	41176.37
540.305	41558.29
540.67	41587.44
541.034	41903.59
541.399	41940.42
541.764	42141.32
542.129	42253.18
542.494	42467.41
542.858	42519.16
543.223	42622.66
543.587	42960.73
543.952	42910.57
544.316	43151.92
544.681	43024.01
545.045	43354.17
545.41	43559.14
545.774	43655.41
546.138	43745.12
546.503	43859.92
546.867	43932.69
547.231	44208.84
547.595	44239.57
547.959	44509.39
548.324	44690.86
548.688	44747.35
549.052	45059.89
549.416	45050.17
549.779	45115.25
550.143	45294.68
550.507	45763.6
550.871	45763.15
551.235	45768.8
551.599	46174.21
551.962	46173.08
552.326	46169.01
552.689	46536.01
553.053	46359.52
553.417	46613.75
553.78	47245.14
554.143	46985.26
554.507	47192.04
554.87	47328.08
555.234	47739.59
555.597	47592.7
555.96	47766.26
556.323	48019.58
556.686	48084.22
557.05	48315.85
557.413	48392.23
557.776	48610.53
558.139	48850.3
558.502	48920.8
558.865	49214.58
559.228	49421.36
559.59	49484.41
559.953	49680.78
560.316	50005.07
560.679	50026.76
561.041	50196.25
561.404	50323.03
561.767	50561.66
562.129	50476.02
562.492	50895.89
562.854	51004.37
563.217	51041.65
563.579	51118.26
563.941	51427.4
564.304	51592.82
564.666	51733.84
565.028	51891.35
565.39	52006.37
565.753	52152.81
566.115	52299.7
566.477	52375.18
566.839	52384.22
567.201	52632.34
567.563	52713.02
567.925	52959.57
568.287	52999.79
568.648	53042.96
569.01	53232.56
569.372	53378.09
569.734	53322.5
570.095	53554.13
570.457	53698.98
570.819	53778.98
571.18	53816.04
571.542	54017.85
571.903	54055.36
572.265	54162.25
572.626	54249.7
572.987	54315.92
573.349	54460.32
573.71	54502.35
574.071	54588
574.432	54706.64
574.794	54949.8
575.155	54888.78
575.516	54858.28
575.877	54999.97
576.238	54948.44
576.599	54991.83
576.96	55041.1
577.32	55025.28
577.681	55229.79
578.042	55333.74
578.403	55337.58
578.763	55397.24
579.124	55449.45
579.485	55571.02
579.845	55692.6
580.206	55578.93
580.566	55598.37
580.927	55616.67
581.287	55735.54
581.648	55625.94
582.008	55742.09
582.368	55682.43
582.728	55704.58
583.089	55751.36
583.449	55760.4
583.809	55844.69
584.169	55892.15
584.529	55799.27
584.889	55984.8
585.249	55767.4
585.609	55707.97
585.969	55922.2
586.329	55779.15
586.688	55858.02
587.048	55929.66
587.408	55785.71
587.768	55825.93
588.127	55791.13
588.487	55769.89
588.846	55931.02
589.206	55719.72
589.565	55725.37
589.925	55961.07
590.284	55844.92
590.643	55950.45
591.003	55947.06
591.362	56014.4
591.721	55965.82
592.08	55994.97
592.44	56101.86
592.799	55985.25
593.158	55978.92
593.517	55934.63
593.876	56038.36
594.235	56067.96
594.593	55999.71
594.952	56091.24
595.311	55965.59
595.67	56058.02
596.029	56156.77
596.387	56112.71
596.746	56131.46
597.104	56084.23
597.463	56110.67
597.822	56316.32
598.18	56126.26
598.538	56074.29
598.897	56340.5
599.255	56114.51
599.613	56482.87
599.972	56219.37
600.33	56380.04
600.688	56283.55
601.046	56377.78
601.404	56467.05
601.762	56387.73
602.12	56426.82
602.478	56485.12
602.836	56520.38
603.194	56347.95
603.552	56420.95
603.91	56399.7
604.268	56526.48
604.625	56411.23
604.983	56484.9
605.341	56462.3
605.698	56672.69
606.056	56698.9
606.413	56594.73
606.771	56766.47
607.128	56664.56
607.485	56596.31
607.843	56532.58
608.2	56716.31
608.557	56787.04
608.914	56779.58
609.272	56830.2
609.629	56860.03
609.986	56997.43
610.343	56893.7
610.7	57105.45
611.057	56952.68
611.414	56965.11
611.771	57065.45
612.127	57145.45
612.484	57067.93
612.841	57171.89
613.198	57099.35
613.554	57068.84
613.911	57301.15
614.267	57191.55
614.624	57226.12
614.98	57290.98
615.337	57375.27
615.693	57288.95
616.05	57290.3
616.406	57375.95
616.762	57318.78
617.118	57335.72
617.475	57332.33
617.831	57407.59
618.187	57350.41
618.543	57465.44
618.899	57572.1
619.255	57569.39
619.611	57424.54
619.967	57485.55
620.323	57539.79
620.678	57484.65
621.034	57387.25
621.39	57428.83
621.746	57360.58
622.101	57734.81
622.457	57498.43
622.812	57514.93
623.168	57654.59
623.523	57565.77
623.879	57681.25
624.234	57501.82
624.589	57634.93
624.945	57663.63
625.3	57746.79
625.655	57650.07
626.01	57639.22
626.365	57683.96
626.72	57629.95
627.075	57618.43
627.43	57588.6
627.785	57468.83
628.14	57572.33
628.495	57629.5
628.85	57601.71
629.205	57454.82
629.559	57569.62
629.914	57430.64
630.269	57401.26
630.623	57356.74
630.978	57359
631.332	57506.12
631.687	57439.22
632.041	57344.76
632.396	57336.18
632.75	57242.17
633.104	57350.64
633.459	57186.35
633.813	57126.92
634.167	57087.59
634.521	57154.71
634.875	57112.91
635.229	57135.05
635.583	56954.04
635.937	56936.19
636.291	56843.31
636.645	56893.25
636.999	56875.17
637.352	56923.31
637.706	56708.62
638.06	56868.62
638.413	56778.45
638.767	56794.04
639.121	56774.83
639.474	56597.89
639.828	56632.69
640.181	56732.8
640.534	56685.8
640.888	56666.82
641.241	56580.72
641.594	56576.42
641.947	56599.02
642.301	56448.52
642.654	56533.03
643.007	56396.09
643.36	56294.4
643.713	56332.81
644.066	56452.81
644.419	56157.68
644.771	55963.1
645.124	55582.1
645.477	55463
645.83	55364.02
646.182	55257.81
646.535	55286.96
646.888	55528.09
647.24	55400.63
647.593	55651.7
647.945	55517.92
648.298	55502.78
648.65	55365.38
649.002	55272.73
649.355	55201.09
649.707	55006.29
650.059	55019.17
650.411	55446.51
650.763	55429.33
651.115	55733.96
651.467	55692.83
651.819	55671.81
652.171	55580.97
652.523	55521.08
652.875	55516.34
653.227	55349.79
653.578	55596.33
653.93	55515.43
654.282	55515.88
654.633	55330.35
654.985	55371.93
655.337	55323.57
655.688	55343.23
656.039	55402.67
656.391	55133.97
656.742	55217.14
657.094	55268.66
657.445	55346.4
657.796	55188.44
658.147	55211.49
658.498	55151.83
658.849	55157.93
659.2	55017.59
659.551	54982.57
659.902	55067.54
660.253	55033.41
660.604	54981.44
660.955	54864.6
661.306	54947.76
661.656	54818.28
662.007	54831.61
662.358	54937.82
662.708	54872.74
663.059	54780.54
663.409	54672.07
663.76	54830.93
664.11	54826.19
664.461	54867.54
664.811	54817.6
665.161	54799.29
665.511	54710.93
665.862	54681.56
666.212	54777.37
666.562	54767.43
666.912	54720.65
667.262	54652.63
667.612	54590.49
667.962	54729.69
668.312	54627.32
668.662	54730.14
669.011	54580.77
669.361	54572.41
669.711	54360.89
670.06	54520.88
670.41	54493.09
670.76	54393.43
671.109	54529.02
671.459	54391.39
671.808	54349.59
672.157	54509.81
672.507	54351.62
672.856	54261.68
673.205	54207.9
673.554	54365.86
673.904	54248.12
674.253	54364.05
674.602	54251.74
674.951	53860.56
675.3	53664.63
675.649	54123.15
675.998	54159.31
676.346	54169.71
676.695	54215.13
677.044	53936.27
677.393	54068.47
677.741	54136.49
678.09	54023.49
678.438	53871.41
678.787	53968.13
679.135	53957.28
679.484	53801.35
679.832	53962.93
680.181	53668.02
680.529	53757.29
680.877	53746.67
681.225	53612.21
681.573	53746.67
681.922	53553.9
682.27	53419.67
682.618	53397.52
682.966	53464.87
683.314	53473.45
683.661	53393.23
684.009	53239.79
684.357	53153.46
684.705	53055.38
685.053	53082.73
685.4	53037.98
685.748	52930.42
686.095	52781.27
686.443	52772.45
686.79	52816.29
687.138	52723.42
687.485	52762.51
687.832	52645.23
688.18	52532.91
688.527	52373.82
688.874	52462.41
689.221	52498.56
689.568	52213.82
689.915	52130.44
690.262	52192.13
690.609	52078.46
690.956	51970.44
691.303	51999.14
691.65	51908.07
691.997	51763.44
692.344	51507.85
692.69	51460.4
693.037	51579.27
693.383	51228.99
693.73	51437.57
694.077	51183.34
694.423	51266.51
694.769	51092.72
695.116	51030.35
695.462	51008.43
695.808	50853.86
696.155	50944.03
696.501	50610.7
696.847	50486.64
697.193	50309.02
697.539	50527.54
697.885	50116.03
698.231	50060.21
698.577	50090.26
698.923	50025.63
699.269	49808.69
699.614	49720.56
699.96	49567.79
700.306	49547.68
700.651	49399.44
700.997	49364.41
701.342	49217.75
701.688	49154.24
702.033	49161.02
702.379	49018.65
702.724	48830.86
703.069	48849.62
703.415	48567.37
703.76	48397.65
704.105	48491.66
704.45	48410.08
704.795	48136.87
705.14	48124.21
705.485	48032.47
705.83	47860.94
706.175	48076.08
706.52	47853.49
706.865	47709.08
707.209	47558.35
707.554	47534.4
707.899	47607.84
708.243	47198.36
708.588	47158.36
708.932	46874.53
709.277	46850.35
709.621	46940.52
709.966	46689
710.31	46837.7
710.654	46415.33
710.998	46518.16
711.342	46454.88
711.687	46286.98
712.031	46192.06
712.375	45989.13
712.719	46111.61
713.063	46033.65
713.407	46145.28
713.75	45937.38
714.094	45882.01
714.438	45563.83
714.782	45633.21
715.125	45566.99
715.469	45460.78
715.812	45022.6
716.156	44944.19
716.499	44901.93
716.843	45054.47
717.186	44716.85
717.53	44966.11
717.873	45093.79
718.216	44865.54
718.559	44690.18
718.902	44474.59
719.246	44447.48
719.589	44397.53
719.932	44130.87
720.275	44213.36
720.617	44081.16
720.96	43971.78
721.303	44070.76
721.646	44008.39
721.989	43790.54
722.331	43788.96
722.674	43648.85
723.016	43656.99
723.359	43552.58
723.701	43679.59
724.044	43338.58
724.386	43266.26
724.729	43474.85
725.071	43306.26
725.413	43279.14
725.755	43102.43
726.097	42878.03
726.439	42772.04
726.782	42757.58
727.124	42894.75
727.465	42633.96
727.807	42569.56
728.149	42349.45
728.491	42468.77
728.833	42437.36
729.175	42165.5
729.516	42217.48
729.858	42192.85
730.199	42108.78
730.541	41945.17
730.882	41878.96
731.224	42042.11
731.565	41739.52
731.906	41961.44
732.248	41779.52
732.589	41640.09
732.93	41424.96
733.271	41478.51
733.612	41473.32
733.953	41634.44
734.294	41453.2
734.635	41256.6
734.976	41276.71
735.317	41108.81
735.658	41106.32
735.999	40982.48
736.339	40734.8
736.68	41041.92
737.021	40979.54
737.361	40876.04
737.702	40873.11
738.042	40649.38
738.383	40607.35
738.723	40700.91
739.063	40391.08
739.404	40369.16
739.744	40399.67
740.084	40059.79
740.424	40228.83
740.764	40125.33
741.104	40292.1
741.444	39885.11
741.784	39787.26
742.124	39879.69
742.464	39738.67
742.804	39725.34
743.143	39572.8
743.483	39705
743.823	39527.15
744.162	39448.96
744.502	39389.3
744.841	39261.4
745.181	39458
745.52	39103.66
745.86	39162.42
746.199	39075.87
746.538	38893.95
746.877	39054.17
747.216	39080.61
747.556	38834.06
747.895	38730.34
748.234	38550.68
748.573	38599.95
748.911	38645.37
749.25	38651.02
749.589	38378.26
749.928	38422.32
750.267	38408.76
750.605	38154.31
750.944	38068.66
751.283	37907.76
751.621	37953.18
751.96	37653.3
752.298	37743.02
752.636	37821.66
752.975	37585.28
753.313	37390.49
753.651	37497.83
753.989	37291.96
754.327	37145.75
754.666	37028.24
755.004	37138.52
755.342	37230.26
755.679	36917.5
756.017	36798.41
756.355	36845.87
756.693	36548.93
757.031	36705.53
757.368	36357.97
757.706	36336.95
758.044	36407.69
758.381	36531.07
758.719	36183.06
759.056	36124.08
759.394	35933.35
759.731	35569.29
760.068	35689.74
760.405	35506.92
760.743	35551.44
761.08	35388.05
761.417	35333.14
761.754	35206.36
762.091	35214.72
762.428	35023.32
762.765	34844.56
763.102	35018.12
763.438	34729.99
763.775	34580.39
764.112	34460.62
764.449	34685.7
764.785	34474.18
765.122	34130.91
765.458	34039.61
765.795	34013.4
766.131	33924.14
766.467	33746.97
766.804	33665.16
767.14	33341.78
767.476	33339.97
767.812	33227.66
768.148	33251.16
768.485	32988.12
768.821	32782.47
769.157	32715.58
769.492	32799.19
769.828	32633.77
770.164	32349.04
770.5	32280.11
770.836	32279.66
771.171	32027.69
771.507	32057.52
771.842	31799.67
772.178	31660.47
772.513	31631.77
772.849	31494.37
773.184	31481.26
773.519	31363.75
773.855	31340.25
774.19	31050.54
774.525	30914.95
774.86	30879.24
775.195	30793.15
775.53	30669.08
775.865	30421.86
776.2	30361.97
776.535	30106.61
776.87	30197.45
777.205	30099.83
777.539	29820.52
777.874	30034.97
778.209	29785.49
778.543	29717.02
778.878	29465.95
779.212	29404.71
779.547	29239.97
779.881	29307.99
780.215	29059.63
780.55	29141.44
780.884	29002.91
781.218	28913.42
781.552	28845.63
781.886	28568.12
782.22	28383.26
782.554	28353.21
782.888	28066.89
783.222	28037.96
783.556	27841.36
783.889	27856.95
784.223	27702.83
784.557	27684.98
784.89	27596.84
785.224	27328.6
785.557	27148.72
785.891	27270.53
786.224	27091.55
786.558	27023.07
786.891	26896.52
787.224	26655.17
787.557	26717.55
787.891	26674.84
788.224	26504.44
788.557	26438.68
788.89	26518.23
789.223	26493.6
789.556	26328.18
789.888	26223.55
790.221	25982.42
790.554	25896.1
790.887	25797.8
791.219	25682.55
791.552	25577.69
791.884	25627.18
792.217	25583.11
792.549	25385.38
792.882	25325.94
793.214	25089.34
793.546	25139.28
793.879	24959.63
794.211	24857.71
794.543	24956.69
794.875	24946.97
795.207	24904.71
795.539	24658.84
795.871	24672.63
796.203	24387.66
796.535	24199.87
796.867	24304.05
797.198	24210.27
797.53	24206.2
797.862	24070.61
798.193	24182.7
798.525	24016.6
798.856	23989.48
799.188	23697.06
799.519	23571.19
799.85	23552.88
800.182	23674.91
800.513	23565.09
800.844	23278.09
801.175	23256.39
801.506	23200.35
801.837	23093.91
802.168	23051.88
802.499	22909.96
802.83	22880.13
803.161	22846.69
803.491	22782.06
803.822	22608.73
804.153	22476.75
804.483	22305.91
804.814	22227.49
805.145	22309.07
805.475	22201.73
805.805	22143.66
806.136	22270.66
806.466	22224.1
806.796	22173.03
807.126	22020.49
807.457	22017.78
807.787	21943.43
808.117	21804.91
808.447	21743.89
808.777	21653.95
809.107	21608.08
809.436	21585.03
809.766	21664.12
810.096	21548.19
810.426	21344.35
810.755	21457.35
811.085	21402.88
811.414	21255.54
811.744	21125.38
812.073	21029.11
812.403	21039.73
812.732	20911.15
813.061	20859.62
813.39	20908.66
813.719	20694.2
814.049	20816.46
814.378	20699.63
814.707	20598.38
815.036	20569.23
815.365	20505.96
815.693	20323.82
816.022	20398.62
816.351	20286.08
816.68	20097.61
817.008	20180.77
817.337	19950.72
817.665	19885.64
817.994	19942.58
818.322	20002.69
818.651	19871.62
818.979	19835.02
819.307	19881.34
819.636	19814.68
819.964	19675.25
820.292	19626.43
820.62	19703.27
820.948	19581.24
821.276	19658.75
821.604	19652.87
821.932	19637.28
822.259	19696.04
822.587	19533.55
822.915	19490.17
823.243	19591.86
823.57	19340.11
823.898	19446.78
824.225	19366.1
824.553	19468.25
824.88	19397.29
825.207	19560.45
825.535	19415.82
825.862	19360.23
826.189	19372.43
826.516	19423.27
826.843	19549.6
827.17	19483.84
827.497	19638.18
827.824	19412.43
828.151	19523.38
828.478	19419.66
828.805	19493.78
829.131	19426.21
829.458	19487.45
829.785	19385.54
830.111	19470.28
830.438	19570.62
830.764	19488.58
831.09	19490.39
831.417	19404.29
831.743	19451.75
832.069	19447.23
832.395	19306.44
832.722	19470.05
833.048	19368.81
833.374	19378.3
833.7	19206.33
834.026	19218.31
834.351	19217.63
834.677	19282.26
835.003	19163.85
835.329	19143.06
835.654	19083.4
835.98	19112.1
836.306	19117.52
836.631	18946.22
836.956	18956.85
837.282	18955.49
837.607	18967.92
837.932	18821.93
838.258	18928.37
838.583	18855.83
838.908	18810.41
839.233	18792.78
839.558	18884.08
839.883	18764.31
840.208	18689.73
840.533	18744.2
840.858	18668.49
841.182	18716.17
841.507	18666.68
841.832	18718.43
842.156	18605.67
842.481	18575.61
842.805	18586.91
843.13	18399.57
843.454	18384.21
843.778	18311.89
844.103	18146.92
844.427	18200.26
844.751	18181.95
845.075	18237.77
845.399	18130.43
845.723	17959.58
846.047	18189.86
846.371	18007.94
846.695	17987.83
847.019	17793.26
847.343	17720.49
847.666	17714.84
847.99	17636.43
848.313	17573.38
848.637	17447.28
848.96	17467.17
849.284	17390.79
849.607	17139.94
849.931	17205.71
850.254	16900.18
850.577	16957.8
850.9	16786.96
851.223	16852.72
851.546	16758.71
851.869	16700.18
852.192	16793.06
852.515	16637.36
852.838	16527.76
853.161	16603.69
853.483	16487.08
853.806	16383.35
854.129	16377.03
854.451	16373.64
854.774	16264.26
855.096	16201.44
855.419	16173.19
855.741	16186.98
856.063	16078.28
856.385	16025.17
856.708	15941.11
857.03	15889.36
857.352	15827.89
857.674	15805.06
857.996	15885.74
858.318	15810.94
858.64	15843.71
858.961	15673.99
859.283	15596.71
859.605	15608.69
859.926	15636.71
860.248	15629.7
860.57	15601
860.891	15586.54
861.212	15526.88
861.534	15405.08
861.855	15385.87
862.176	15368.69
862.498	15358.3
862.819	15346.77
863.14	15292.76
863.461	15263.84
863.782	15265.42
864.103	15241.01
864.424	15158.53
864.745	15179.54
865.065	15095.48
865.386	15182.03
865.707	15166.21
866.027	15158.08
866.348	15063.84
866.668	15048.47
866.989	14972.32
867.309	14875.37
867.63	14982.94
867.95	14879.44
868.27	14754.92
868.59	14845.32
868.91	14794.02
869.23	14844.64
869.55	14724.19
869.87	14868.37
870.19	14911.98
870.51	14799.89
870.83	14819.78
871.15	14726.45
871.469	14742.95
871.789	14775.94
872.109	14768.26
872.428	14722.16
872.748	14668.6
873.067	14754.02
873.386	14699.78
873.706	14652.33
874.025	14475.38
874.344	14425.67
874.663	14552.67
874.982	14468.38
875.301	14506.34
875.62	14394.71
875.939	14406.68
876.258	14359.9
876.577	14343.41
876.896	14331.43
877.214	14332.11
877.533	14353.58
877.852	14309.74
878.17	14382.05
878.489	14243.52
878.807	14304.54
879.125	14296.63
879.444	14342.5
879.762	14160.14
880.08	14207.14
880.398	14097.76
880.716	14214.6
881.034	14114.49
881.352	14088.27
881.67	14135.28
881.988	14082.4
882.306	14032.68
882.624	13978.9
882.941	14001.95
883.259	13936.19
883.577	13909.75
883.894	13818.45
884.212	13882.63
884.529	13825.23
884.846	13719.24
885.164	13738.45
885.481	13702.3
885.798	13681.96
886.115	13688.51
886.432	13654.61
886.75	13595.18
887.067	13608.96
887.383	13558.12
887.7	13563.99
888.017	13421.4
888.334	13453.49
888.651	13427.5
888.967	13387.05
889.284	13311.57
889.6	13247.39
889.917	13275.87
890.233	13252.59
890.55	13229.31
890.866	13292.59
891.182	13258.92
891.498	13129.88
891.815	13041.97
892.131	13085.59
892.447	13133.95
892.763	13064.12
893.079	13055.08
893.395	12927.63
893.71	12979.83
894.026	12902.09
894.342	12922.65
894.657	12693.73
894.973	12706.84
895.289	12773.51
895.604	12777.35
895.92	12696.45
896.235	12625.49
896.55	12633.85
896.865	12578.03
897.181	12528.09
897.496	12496.23
897.811	12383.23
898.126	12404.02
898.441	12406.74
898.756	12329.68
899.071	12323.35
899.386	12239.96
899.7	12166.74
900.015	12065.28
900.33	12022.79
900.644	12066.63
900.959	12015.56
901.273	11956.58
901.588	11951.15
901.902	11900.08
902.216	11882
902.531	11869.8
902.845	11858.05
903.159	11851.95
903.473	11788.67
903.787	11763.59
904.101	11752.06
904.415	11737.15
904.729	11564.72
905.042	11580.77
905.356	11457.61
905.67	11430.26
905.984	11409.02
906.297	11378.97
906.611	11277.95
906.924	11325.18
907.237	11306.43
907.551	11332.19
907.864	11209.48
908.177	11225.07
908.491	11047
908.804	11042.48
909.117	10905.76
909.43	10885.42
909.743	10869.6
910.056	10903.27
910.368	10870.73
910.681	10793.67
910.994	10726.78
911.307	10734.92
911.619	10618.76
911.932	10619.21
912.244	10542.6
912.557	10544.86
912.869	10539.21
913.181	10580.34
913.494	10533.34
913.806	10407.47
914.118	10344.19
914.43	10324.53
914.742	10329.05
915.054	10240.47
915.366	10213.35
915.678	10141.26
915.99	10113.24
916.302	10119.56
916.613	10101.94
916.925	9989.4
917.236	10023.75
917.548	9946.69
917.859	9875.96
918.171	9922.51
918.482	9770.42
918.794	9760.03
919.105	9740.82
919.416	9591.67
919.727	9632.12
920.038	9557.32
920.349	9593.93
920.66	9602.52
920.971	9557.77
921.282	9472.58
921.593	9318.68
921.903	9352.13
922.214	9346.03
922.525	9334.5
922.835	9311.9
923.146	9191.68
923.456	9175.18
923.767	9143.09
924.077	9171.11
924.387	9055.19
924.697	8971.8
925.008	8946.49
925.318	8987.16
925.628	8919.14
925.938	8887.28
926.248	8875.3
926.558	8796.44
926.867	8791.01
927.177	8779.26
927.487	8662.43
927.796	8638.25
928.106	8691.81
928.416	8667.63
928.725	8590.34
929.034	8507.18
929.344	8590.79
929.653	8528.87
929.962	8399.38
930.271	8436.44
930.581	8393.06
930.89	8297.24
931.199	8260.63
931.508	8281.19
931.817	8223.34
932.125	8231.7
932.434	8183.34
932.743	8144.25
933.051	8057.7
933.36	8043.23
933.669	7942.67
933.977	7931.6
934.286	7963.24
934.594	7873.07
934.902	7873.3
935.21	7833.52
935.519	7803.47
935.827	7759.4
936.135	7743.81
936.443	7626.3
936.751	7646.86
937.059	7684.37
937.367	7570.48
937.674	7598.27
937.982	7538.62
938.29	7483.7
938.597	7558.28
938.905	7503.81
939.213	7423.59
939.52	7435.12
939.827	7369.13
940.135	7402.57
940.442	7324.84
940.749	7323.03
941.056	7289.58
941.363	7150.38
941.67	7177.04
941.977	7158.96
942.284	7180.21
942.591	7018.85
942.898	7087.33
943.205	7074.45
943.511	7022.02
943.818	7001
944.125	6955.35
944.431	6932.3
944.738	6938.18
945.044	6813.21
945.35	6836.49
945.657	6777.05
945.963	6763.04
946.269	6688.69
946.575	6787
946.881	6678.75
947.187	6645.98
947.493	6597.62
947.799	6617.06
948.105	6501.81
948.41	6490.51
948.716	6470.17
949.022	6459.32
949.327	6489.15
949.633	6469.04
949.938	6417.29
950.244	6384.75
950.549	6322.38
950.854	6318.08
951.16	6314.47
951.465	6242.83
951.77	6228.59
952.075	6191.31
952.38	6140.01
952.685	6192.21
952.99	6071.54
953.294	6053
953.599	6083.51
953.904	6040.58
954.209	6005.55
954.513	5925.32
954.818	5968.49
955.122	5943.63
955.426	5979.79
955.731	5876.29
956.035	5856.85
956.339	5864.31
956.643	5897.53
956.948	5813.91
957.252	5764.42
957.556	5785.67
957.86	5686.23
958.163	5655.73
958.467	5663.41
958.771	5573.7
959.075	5569.63
959.378	5585.9
959.682	5569.4
959.985	5600.81
960.289	5484.66
960.592	5501.83
960.896	5485.34
961.199	5438.33
961.502	5474.26
961.805	5396.75
962.108	5429.07
962.411	5342.06
962.714	5341.61
963.017	5351.33
963.32	5316.3
963.623	5253.93
963.926	5284.66
964.228	5163.31
964.531	5218.45
964.833	5185
965.136	5142.97
965.438	5111.11
965.741	5131.22
966.043	5048.06
966.345	5057.1
966.648	5059.58
966.95	5054.16
967.252	5022.3
967.554	4963.99
967.856	4967.61
968.158	4885.13
968.46	4919.48
968.761	4858.69
969.063	4871.34
969.365	4849.87
969.666	4819.14
969.968	4794.28
970.269	4777.11
970.571	4728.52
970.872	4737.56
971.174	4687.39
971.475	4701.85
971.776	4698.92
972.077	4636.32
972.378	4616.66
972.679	4647.39
972.98	4589.31
973.281	4574.85
973.582	4567.62
973.883	4546.15
974.183	4578.02
974.484	4557.22
974.785	4457.79
975.085	4506.6
975.386	4507.73
975.686	4491.69
975.986	4429.09
976.287	4402.65
976.587	4347.51
976.887	4334.18
977.187	4342.54
977.487	4318.14
977.787	4263.45
978.087	4258.7
978.387	4298.25
978.687	4222.09
978.987	4181.19
979.286	4184.58
979.586	4162.43
979.885	4168.99
980.185	4195.65
980.484	4143.68
980.784	4111.36
981.083	4109.55
981.382	4049.67
981.682	4041.31
981.981	4023
982.28	3995.66
982.579	3995.43
982.878	3990.01
983.177	3951.82
983.475	3961.76
983.774	3928.77
984.073	3869.11
984.372	3852.16
984.67	3877.92
984.969	3857.36
985.267	3815.55
985.566	3830.46
985.864	3794.76
986.162	3780.07
986.461	3723.12
986.759	3717.02
987.057	3702.11
987.355	3687.19
987.653	3681.32
987.951	3687.42
988.249	3645.38
988.547	3660.53
988.844	3638.83
989.142	3599.96
989.44	3571.71
989.737	3584.37
990.035	3555.22
990.332	3566.06
990.63	3550.92
990.927	3510.02
991.224	3528.55
991.521	3545.95
991.819	3460.98
992.116	3446.07
992.413	3451.27
992.71	3370.36
993.006	3387.54
993.303	3412.62
993.6	3378.5
993.897	3346.41
994.193	3347.09
994.49	3292.17
994.787	3270.48
995.083	3259.41
995.379	3248.33
995.676	3250.14
995.972	3258.28
996.268	3166.07
996.565	3207.88
996.861	3169.24
997.157	3174.89
997.453	3146.41
997.749	3135.57
998.044	3109.81
998.34	3123.14
998.636	3105.06
998.932	3079.3
999.227	3044.95
999.523	3022.35
999.818	3027.77
1000.114	2998.17
1000.409	2999.53
1000.704	2974.67
1001	2979.19
1001.295	2921.34
1001.59	2905.52
1001.885	2905.97
1002.18	2921.79
1002.475	2861.45
1002.77	2847.21
1003.065	2846.08
1003.359	2848.12
1003.654	2796.37
1003.949	2809.25
1004.243	2764.28
1004.538	2791.62
1004.832	2749.36
1005.127	2752.98
1005.421	2693.77
1005.715	2700.78
1006.009	2685.41
1006.304	2671.85
1006.598	2664.85
1006.892	2626.88
1007.186	2603.83
1007.48	2616.71
1007.773	2588.24
1008.067	2529.03
1008.361	2543.04
1008.655	2507.34
1008.948	2521.57
1009.242	2483.83
1009.535	2517.5
1009.829	2457.39
1010.122	2466.43
1010.415	2431.18
1010.708	2411.29
1011.001	2420.78
1011.295	2388.69
1011.588	2413.33
1011.881	2399.09
1012.173	2377.85
1012.466	2381.46
1012.759	2344.4
1013.052	2329.94
1013.344	2315.93
1013.637	2284.74
1013.93	2276.15
1014.222	2268.92
1014.514	2243.16
1014.807	2237.51
1015.099	2235.7
1015.391	2209.72
1015.683	2199.09
1015.976	2181.24
1016.268	2153.45
1016.56	2143.73
1016.851	2113.67
1017.143	2140.34
1017.435	2085.2
1017.727	2094.69
1018.018	2091.75
1018.31	2053.11
1018.602	2058.99
1018.893	2032.55
1019.185	2026.44
1019.476	2037.29
1019.767	2016.95
1020.058	1994.35
1020.35	1965.43
1020.641	1950.51
1020.932	1920.68
1021.223	1913.68
1021.514	1903.74
1021.804	1924.75
1022.095	1907.58
1022.386	1854.47
1022.677	1863.96
1022.967	1855.83
1023.258	1831.42
1023.548	1866.9
1023.839	1824.19
1024.129	1797.3
1024.419	1768.15
1024.709	1764.3
1025	1767.92
1025.29	1748.03
1025.58	1753.46
1025.87	1719.56
1026.16	1718.43
1026.449	1704.19
1026.739	1669.84
1027.029	1674.36
1027.319	1654.48
1027.608	1647.02
1027.898	1637.98
1028.187	1616.96
1028.477	1638.88
1028.766	1592.11
1029.055	1592.78
1029.344	1586.91
1029.634	1587.13
1029.923	1542.61
1030.212	1522.05
1030.501	1549.85
1030.79	1532.67
1031.078	1509.62
1031.367	1501.71
1031.656	1473.01
1031.945	1484.09
1032.233	1451.54
1032.522	1444.99
1032.81	1465.1
1033.099	1418.55
1033.387	1439.57
1033.675	1416.29
1033.963	1397.53
1034.251	1366.8
1034.54	1386.91
1034.828	1401.38
1035.116	1364.09
1035.403	1346.91
1035.691	1363.41
1035.979	1329.97
1036.267	1304.2
1036.554	1322.96
1036.842	1283.19
1037.129	1319.12
1037.417	1275.5
1037.704	1263.3
1037.992	1268.5
1038.279	1254.26
1038.566	1240.93
1038.853	1240.93
1039.14	1240.93
