Data from foil_FLMS001491_067.txt Node
Date: Tue Feb 07 11:36:27 GMT 2017
User: dcchb
Spectrometer: FLMS00149
Trigger mode: 0
Integration Time (sec): 2.000000E-2
Scans to average: 10
Electric dark correction enabled: true
Nonlinearity correction enabled: false
Boxcar width: 0
XAxis mode: Wavelengths
Number of Pixels in Spectrum: 2048
>>>>>Begin Spectral Data<<<<<
341.393	-23.62
341.776	-23.62
342.16	-23.62
342.543	-74.46
342.927	-51.19
343.31	-64.29
343.693	-76.95
344.077	-64.07
344.46	-59.55
344.843	-49.15
345.226	-28.13
345.61	-31.75
345.993	-24.07
346.376	-5.54
346.759	2.82
347.142	30.85
347.525	37.63
347.908	48.47
348.291	77.4
348.674	87.57
349.057	118.75
349.44	110.39
349.823	146.32
350.206	170.96
350.588	259.99
350.971	276.49
351.354	301.12
351.737	332.99
352.119	324.4
352.502	353.32
352.884	346.54
353.267	371.4
353.65	368.24
354.032	379.54
354.414	426.54
354.797	389.26
355.179	391.29
355.562	411.18
355.944	431.06
356.326	429.03
356.709	419.54
357.091	422.47
357.473	445.53
357.855	439.42
358.238	439.88
358.62	457.73
359.002	436.71
359.384	437.62
359.766	437.62
360.148	453.21
360.53	448.46
360.912	450.95
361.294	443.94
361.676	439.88
362.057	465.19
362.439	431.29
362.821	448.01
363.203	460.44
363.584	446.2
363.966	453.43
364.348	457.28
364.729	445.98
365.111	450.95
365.493	446.2
365.874	445.07
366.256	459.31
366.637	450.04
367.019	459.31
367.4	462.93
367.781	464.73
368.163	457.28
368.544	483.94
368.925	473.32
369.306	484.39
369.688	474.9
370.069	466.09
370.45	477.61
370.831	489.59
371.212	510.83
371.593	483.04
371.974	495.92
372.355	489.14
372.736	501.34
373.117	506.09
373.498	516.48
373.879	517.84
374.26	492.76
374.641	475.81
375.021	493.89
375.402	526.43
375.783	549.7
376.163	550.38
376.544	555.8
376.925	538.18
377.305	540.21
377.686	563.71
378.066	556.48
378.447	553.77
378.827	557.84
379.208	571.62
379.588	568.69
379.968	591.74
380.349	589.48
380.729	595.35
381.109	596.93
381.489	587.89
381.87	604.16
382.25	648.01
382.63	604.62
383.01	634.67
383.39	647.33
383.77	624.05
384.15	644.84
384.53	642.36
384.91	669.47
385.29	676.03
385.67	673.32
386.049	687.78
386.429	689.59
386.809	693.88
387.189	695.24
387.568	736.59
387.948	734.56
388.328	724.61
388.707	753.77
389.087	763.03
389.466	764.16
389.846	773.2
390.225	787.21
390.605	796.48
390.984	798.74
391.363	793.99
391.743	793.54
392.122	788.34
392.501	805.29
392.881	847.55
393.26	844.61
393.639	859.3
394.018	847.32
394.397	865.4
394.776	862.01
395.155	875.34
395.534	889.36
395.913	906.76
396.292	892.74
396.671	919.86
397.05	919.41
397.429	955.12
397.808	964.38
398.186	948.34
398.565	942.24
398.944	969.35
399.323	1000.99
399.701	1004.83
400.08	995.12
400.458	1009.35
400.837	1012.06
401.215	1018.17
401.594	1041.67
401.972	1054.32
402.351	1033.08
402.729	1061.78
403.107	1055
403.486	1104.26
403.864	1100.65
404.242	1139.07
404.62	1140.2
404.999	1160.53
405.377	1171.16
405.755	1181.1
406.133	1185.39
406.511	1202.79
406.889	1204.83
407.267	1234.43
407.645	1255.9
408.023	1279.85
408.401	1280.08
408.779	1314.65
409.156	1334.32
409.534	1326.18
409.912	1354.43
410.29	1384.26
410.667	1411.6
411.045	1423.13
411.422	1440.3
411.8	1460.64
412.178	1454.54
412.555	1494.76
412.933	1509
413.31	1535.21
413.687	1566.17
414.065	1546.96
414.442	1602.78
414.819	1608.66
415.197	1614.31
415.574	1608.88
415.951	1672.61
416.328	1685.94
416.705	1717.58
417.082	1690.46
417.46	1751.25
417.837	1770.91
418.214	1750.12
418.591	1772.04
418.967	1784.02
419.344	1815.66
419.721	1810.69
420.098	1823.12
420.475	1891.36
420.852	1859.73
421.228	1917.35
421.605	1912.61
421.982	1951.25
422.358	1948.54
422.735	1991.7
423.111	1965.71
423.488	1990.12
423.864	2052.71
424.241	2055.88
424.617	2112.37
424.994	2114.18
425.37	2112.37
425.746	2144.01
426.123	2196.21
426.499	2188.53
426.875	2229.66
427.251	2294.74
427.627	2305.59
428.003	2344.23
428.379	2364.57
428.756	2367.28
429.132	2407.51
429.507	2478.47
429.883	2520.72
430.259	2514.17
430.635	2539.26
431.011	2573.6
431.387	2664.9
431.763	2671.23
432.138	2704.22
432.514	2738.35
432.89	2746.48
433.265	2767.05
433.641	2809.98
434.016	2867.83
434.392	2890.66
434.767	2966.14
435.143	2946.7
435.518	3001.62
435.894	3048.17
436.269	3103.08
436.644	3114.38
437.02	3178.11
437.395	3153.93
437.77	3195.96
438.145	3208.84
438.52	3275.96
438.895	3302.4
439.271	3328.84
439.646	3398.22
440.021	3424.66
440.395	3449.06
440.77	3398.67
441.145	3455.16
441.52	3526.35
441.895	3523.41
442.27	3578.1
442.645	3602.96
443.019	3622.39
443.394	3640.92
443.769	3675.72
444.143	3659.9
444.518	3760.47
444.892	3727.7
445.267	3698.77
445.641	3793.23
446.016	3824.87
446.39	3847.24
446.764	3882.04
447.139	3880.01
447.513	3967.24
447.887	3939.22
448.262	3933.34
448.636	3996.84
449.01	4056.96
449.384	4109.16
449.758	4077.29
450.132	4172.21
450.506	4217.86
450.88	4205.43
451.254	4200.68
451.628	4315.48
452.002	4345.76
452.376	4339.43
452.75	4405.19
453.123	4506.21
453.497	4509.82
453.871	4581.46
454.244	4627.34
454.618	4696.26
454.992	4811.51
455.365	4733.1
455.739	4889.7
456.112	4944.84
456.486	5011.96
456.859	5006.76
457.232	5126.53
457.606	5110.94
457.979	5200.43
458.352	5314.32
458.725	5405.85
459.099	5389.58
459.472	5511.38
459.845	5503.25
460.218	5627.76
460.591	5673.18
460.964	5712.28
461.337	5781.2
461.71	5850.81
462.083	5938.49
462.456	5993.18
462.829	6048.09
463.201	6140.06
463.574	6143.23
463.947	6249.89
464.32	6413.5
464.692	6409.44
465.065	6474.07
465.438	6542.77
465.81	6666.15
466.183	6768.52
466.555	6856.2
466.928	6934.39
467.3	6928.97
467.672	7000.61
468.045	7222.75
468.417	7236.08
468.789	7335.06
469.161	7355.63
469.534	7464.1
469.906	7740.02
470.278	7695.5
470.65	7829.06
471.022	7993.35
471.394	8140.92
471.766	8160.35
472.138	8271.31
472.51	8519.66
472.882	8588.81
473.253	8668.36
473.625	8828.81
473.997	9024.06
474.369	9027.9
474.74	9195.58
475.112	9293.65
475.484	9496.36
475.855	9669.69
476.227	9788.78
476.598	9992.39
476.97	10070.36
477.341	10289.11
477.713	10478.71
478.084	10513.73
478.455	10817.91
478.827	10921.18
479.198	11203.21
479.569	11267.84
479.94	11594.84
480.311	11610.66
480.682	11944.21
481.053	12170.64
481.424	12417.19
481.795	12475.72
482.166	12726.56
482.537	12898.53
482.908	13178.75
483.279	13238.41
483.65	13473.88
484.021	13749.36
484.391	13984.15
484.762	14045.17
485.133	14165.39
485.503	14450.81
485.874	14745.04
486.244	14807.86
486.615	15166.72
486.985	15279.71
487.356	15579.14
487.726	15644.22
488.097	16050.99
488.467	16078.56
488.837	16330.76
489.207	16501.83
489.578	16875.38
489.948	16981.36
490.318	17266.1
490.688	17308.13
491.058	17579.09
491.428	17817.27
491.798	17913.31
492.168	18417.03
492.538	18530.7
492.908	18574.54
493.278	18905.15
493.648	18931.82
494.017	19119.84
494.387	19298.36
494.757	19576.55
495.126	19748.29
495.496	19821.29
495.866	19922.53
496.235	20183.31
496.605	20403.19
496.974	20479.57
497.344	20687.7
497.713	20722.28
498.082	20903.74
498.452	21203.17
498.821	21347.57
499.19	21369.72
499.559	21621.47
499.928	21693.1
500.298	21843.61
500.667	22104.16
501.036	21974.68
501.405	22396.36
501.774	22425.06
502.143	22541.22
502.512	22622.34
502.88	22841.32
503.249	22965.61
503.618	23103.69
503.987	23109.79
504.356	23425.26
504.724	23525.14
505.093	23629.1
505.462	23830.45
505.83	23966.49
506.199	24125.81
506.567	24423.2
506.936	24387.49
507.304	24761.5
507.672	24832.68
508.041	25042.84
508.409	25200.13
508.777	25283.97
509.145	25444.42
509.514	25510.4
509.882	25732.32
510.25	25918.3
510.618	26127.79
510.986	26227.22
511.354	26458.17
511.722	26688.68
512.09	26951.72
512.458	27016.35
512.826	27200.08
513.193	27269
513.561	27506.51
513.929	27612.27
514.297	27965.48
514.664	28056.55
515.032	28185.81
515.4	28498.12
515.767	28629.87
516.135	28754.16
516.502	28794.16
516.869	29183.75
517.237	29332.9
517.604	29331.55
517.972	29721.82
518.339	29872.55
518.706	29868.71
519.073	30238.41
519.44	30423.49
519.808	30857.15
520.175	30778.06
520.542	31255.34
520.909	31436.8
521.276	31400.42
521.643	31820.52
522.009	32025.03
522.376	32153.84
522.743	32277.23
523.11	32723.77
523.477	33085.12
523.843	33219.35
524.21	33526.69
524.577	33687.81
524.943	33842.61
525.31	34162.15
525.676	34398.3
526.043	34564.4
526.409	34826.77
526.776	35078.74
527.142	35273.76
527.508	35524.6
527.874	35832.84
528.241	36080.52
528.607	36106.06
528.973	36392.15
529.339	36450.23
529.705	36857.67
530.071	37056.99
530.437	37317.1
530.803	37569.07
531.169	37715.28
531.535	37675.73
531.901	37875.5
532.267	38068.04
532.632	38262.38
532.998	38560
533.364	38715.03
533.73	38775.14
534.095	39099.65
534.461	39314.11
534.826	39438.85
535.192	39457.83
535.557	39899.18
535.923	39930.59
536.288	40079.51
536.653	40230.69
537.019	40311.6
537.384	40600.63
537.749	40699.61
538.114	40655.77
538.479	40779.61
538.845	41148.86
539.21	40934.86
539.575	41230.89
539.94	41393.83
540.305	41604.22
540.67	41566.93
541.034	41727.6
541.399	41982.96
541.764	41957.65
542.129	42137.76
542.494	42241.04
542.858	42472.44
543.223	42640.57
543.587	42993.56
543.952	42800.8
544.316	42956.05
544.681	42895.93
545.045	43333.66
545.41	43600.32
545.774	43657.95
546.138	43486.65
546.503	43777.04
546.867	43701.56
547.231	44200.76
547.595	44188.56
547.959	44390.36
548.324	44358.27
548.688	44546.06
549.052	44703.34
549.416	44857.24
549.779	44914.41
550.143	45123.67
550.507	45406.38
550.871	45481.85
551.235	45533.15
551.599	45946.02
551.962	45838.23
552.326	46003.42
552.689	46286.35
553.053	46210.42
553.417	46274.83
553.78	46907.35
554.143	46658.1
554.507	46908.26
554.87	47055.37
555.234	47336.72
555.597	47191.87
555.96	47339.89
556.323	47613.55
556.686	47691.06
557.05	47977.83
557.413	48092.41
557.776	48195.91
558.139	48498.72
558.502	48604.48
558.865	48722.67
559.228	48847.19
559.59	49000.86
559.953	49113.17
560.316	49555.65
560.679	49611.46
561.041	49847.16
561.404	49917.22
561.767	50120.38
562.129	50051
562.492	50539.58
562.854	50469.07
563.217	50529.63
563.579	50710.87
563.941	50936.4
564.304	51152.89
564.666	51281.7
565.028	51434.92
565.39	51464.75
565.753	51634.46
566.115	51838.52
566.477	51956.71
566.839	51983.6
567.201	52359.41
567.563	52289.36
567.925	52507.21
568.287	52458.62
568.648	52645.51
569.01	52790.14
569.372	53024.26
569.734	52998.49
570.095	53236.23
570.457	53269.67
570.819	53327.75
571.18	53400.74
571.542	53633.51
571.903	53614.07
572.265	53643.45
572.626	53746.04
572.987	53902.42
573.349	53988.3
573.71	54089.31
574.071	54196.2
574.432	54205.02
574.794	54460.38
575.155	54353.71
575.516	54368.85
575.877	54529.98
576.238	54540.83
576.599	54703.31
576.96	54709.18
577.32	54722.06
577.681	54881.38
578.042	54889.52
578.403	54942.4
578.763	54961.15
579.124	55053.58
579.485	55160.7
579.845	55207.47
580.206	55159.34
580.566	55148.04
580.927	55252.45
581.287	55250.64
581.648	55190.3
582.008	55370.41
582.368	55301.94
582.728	55319.34
583.089	55278.89
583.449	55262.61
583.809	55330.64
584.169	55414.25
584.529	55382.16
584.889	55542.83
585.249	55397.53
585.609	55350.97
585.969	55506.9
586.329	55494.47
586.688	55456.96
587.048	55455.38
587.408	55469.84
587.768	55414.25
588.127	55448.15
588.487	55379
588.846	55584.87
589.206	55450.86
589.565	55428.03
589.925	55577.41
590.284	55467.36
590.643	55507.58
591.003	55603.85
591.362	55717.97
591.721	55604.53
592.08	55655.82
592.44	55677.97
592.799	55796.39
593.158	55616.28
593.517	55577.86
593.876	55590.29
594.235	55539.22
594.593	55532.89
594.952	55656.95
595.311	55490.41
595.67	55661.7
596.029	55870.28
596.387	55785.76
596.746	55831.19
597.104	55612.66
597.463	55710.06
597.822	55842.94
598.18	55748.03
598.538	55723.85
598.897	55860.11
599.255	55668.03
599.613	56145.3
599.972	55886.1
600.33	55966.33
600.688	55892.2
601.046	55974.01
601.404	56069.83
601.762	55931.3
602.12	56069.83
602.478	55994.8
602.836	56069.37
603.194	55898.3
603.552	55960.22
603.91	55949.83
604.268	56088.36
604.625	56022.59
604.983	56078.19
605.341	55964.52
605.698	56134.23
606.056	56204.96
606.413	56170.16
606.771	56266.2
607.128	56323.15
607.485	56171.07
607.843	56287.22
608.2	56432.98
608.557	56515.24
608.914	56413.32
609.272	56480.89
609.629	56524.05
609.986	56548.68
610.343	56449.7
610.7	56661.9
611.057	56699.87
611.414	56525.86
611.771	56608.12
612.127	56759.52
612.484	56764.27
612.841	56795.46
613.198	56768.34
613.554	56693.76
613.911	56851.27
614.267	56856.02
614.624	56748.45
614.98	56889.69
615.337	57002.91
615.693	56970.59
616.05	56857.38
616.406	57047.88
616.762	56890.37
617.118	56991.61
617.475	56975.56
617.831	57108.89
618.187	57064.38
618.543	57131.72
618.899	57271.6
619.255	57135.56
619.611	57190.93
619.967	57204.48
620.323	57263.01
620.678	57098.05
621.034	57042
621.39	57114.09
621.746	57072.28
622.101	57337.36
622.457	57123.58
622.812	57238.83
623.168	57218.5
623.523	57155.45
623.879	57279.28
624.234	57199.74
624.589	57196.58
624.945	57281.77
625.3	57190.02
625.655	57214.2
626.01	57245.61
626.365	57277.03
626.72	57243.35
627.075	57151.83
627.43	57185.5
627.785	57149.12
628.14	57191.83
628.495	57234.09
628.85	57111.61
629.205	57003.13
629.559	57224.37
629.914	57088.1
630.269	57033.64
630.623	56925.4
630.978	56871.39
631.332	56941.67
631.687	56996.35
632.041	56895.11
632.396	56918.39
632.75	56802.01
633.104	56929.01
633.459	56740.77
633.813	56715.91
634.167	56674.1
634.521	56660.54
634.875	56717.04
635.229	56689.47
635.583	56558.4
635.937	56512.3
636.291	56575.57
636.645	56542.36
636.999	56451.28
637.352	56589.13
637.706	56431.17
638.06	56427.33
638.413	56329.71
638.767	56265.53
639.121	56426.88
639.474	56212.87
639.828	56228.47
640.181	56300.33
640.534	56245.41
640.888	56153.21
641.241	55975.59
641.594	56092.88
641.947	56163.61
642.301	56065.31
642.654	56063.5
643.007	56027.11
643.36	55918.19
643.713	55957.96
644.066	55999.54
644.419	55643.17
644.771	55402.05
645.124	55049.51
645.477	55147.59
645.83	54985.79
646.182	54989.4
646.535	54983.75
646.888	55077.53
647.24	54882.51
647.593	55060.81
647.945	54965.9
648.298	54835.73
648.65	54788.95
649.002	54731.1
649.355	54868.05
649.707	54709.63
650.059	54780.37
650.411	55024.2
650.763	54976.75
651.115	55336.29
651.467	55334.93
651.819	55209.51
652.171	55194.37
652.523	55092.45
652.875	55147.59
653.227	54991.89
653.578	55158.89
653.93	55177.42
654.282	54996.86
654.633	54807.71
654.985	54973.36
655.337	54973.36
655.688	54897.65
656.039	54969.74
656.391	54739.24
656.742	54727.94
657.094	54750.54
657.445	54839.58
657.796	54743.53
658.147	54651.11
658.498	54645.91
658.849	54695.62
659.2	54646.59
659.551	54548.28
659.902	54665.79
660.253	54598.23
660.604	54669.41
660.955	54492.24
661.306	54665.79
661.656	54454.27
662.007	54523.88
662.358	54447.95
662.708	54440.94
663.059	54469.64
663.409	54321.85
663.76	54464.22
664.11	54409.53
664.461	54365.92
664.811	54402.75
665.161	54390.1
665.511	54310.32
665.862	54227.84
666.212	54403.43
666.562	54310.1
666.912	54311
667.262	54228.74
667.612	54175.41
667.962	54194.85
668.312	54113.94
668.662	54273.04
669.011	54191.91
669.361	54141.51
669.711	54067.84
670.06	54029.88
670.41	54001.18
670.76	53985.59
671.109	54022.2
671.459	53933.84
671.808	53966.6
672.157	54023.78
672.507	53795.76
672.856	53788.08
673.205	53775.42
673.554	53907.85
673.904	53821.3
674.253	53913.05
674.602	53801.18
674.951	53404.58
675.3	53177.47
675.649	53694.52
675.998	53611.81
676.346	53671.47
676.695	53765.25
677.044	53449.1
677.393	53638.93
677.741	53593.96
678.09	53565.94
678.438	53445.49
678.787	53483.9
679.135	53503.34
679.484	53261.99
679.832	53405.49
680.181	53180.86
680.529	53339.28
680.877	53254.08
681.225	53173.86
681.573	53345.83
681.922	53072.39
682.27	53050.47
682.618	53067.64
682.966	53034.42
683.314	53043.69
683.661	52765.51
684.009	52659.07
684.357	52673.76
684.705	52570.93
685.053	52669.01
685.4	52612.51
685.748	52471.28
686.095	52448.9
686.443	52318.51
686.79	52248
687.138	52271.28
687.485	52154.9
687.832	52069.48
688.18	52088.23
688.527	51948.13
688.874	51938.86
689.221	51871.07
689.568	51757.85
689.915	51514.69
690.262	51648.25
690.609	51495.26
690.956	51499.78
691.303	51371.19
691.65	51319.22
691.997	51238.77
692.344	50991.54
692.69	51048.71
693.037	51099.56
693.383	50750.19
693.73	50761.72
694.077	50607.82
694.423	50560.59
694.769	50534.38
695.116	50362.18
695.462	50324.21
695.808	50208.06
696.155	50300.49
696.501	50029.53
696.847	49933.49
697.193	49825.24
697.539	49801.97
697.885	49603.78
698.231	49442.43
698.577	49525.14
698.923	49408.08
699.269	49233.39
699.614	48988.88
699.96	48937.13
700.306	49066.17
700.651	48721.54
700.997	48716.12
701.342	48621.21
701.688	48413.76
702.033	48406.3
702.379	48317.94
702.724	48269.35
703.069	48370.82
703.415	47790.49
703.76	47835.47
704.105	47892.19
704.45	47751.4
704.795	47587.34
705.14	47394.8
705.485	47552.53
705.83	47145.99
706.175	47239.32
706.52	47087.24
706.865	46952.78
707.209	46936.96
707.554	46697.64
707.899	46891.08
708.243	46617.42
708.588	46468.95
708.932	46292
709.277	46282.74
709.621	46063.31
709.966	46002.07
710.31	46111.67
710.654	45736.09
710.998	45807.72
711.342	45727.27
711.687	45683.43
712.031	45506.94
712.375	45352.59
712.719	45361.41
713.063	45320.96
713.407	45335.64
713.75	45034.86
714.094	45114.18
714.438	45073.05
714.782	44994.64
715.125	44734.3
715.469	44870.57
715.812	44407.98
716.156	44425.16
716.499	44414.09
716.843	44479.62
717.186	44274.88
717.53	44342.68
717.873	44302.9
718.216	44211.38
718.559	43987.66
718.902	43632.64
719.246	43801.67
719.589	43527.33
719.932	43483.26
720.275	43428.8
720.617	43302.7
720.96	43313.55
721.303	43461.8
721.646	43379.09
721.989	43018.64
722.331	43120.34
722.674	42863.84
723.016	42982.49
723.359	42912.88
723.701	42913.33
724.044	42579.33
724.386	42528.94
724.729	42546.11
725.071	42466.34
725.413	42505.21
725.755	42339.11
726.097	42271.32
726.439	42010.31
726.782	42050.31
727.124	42218.44
727.465	41891.67
727.807	41862.97
728.149	41799.69
728.491	41685.12
728.833	41873.36
729.175	41632.46
729.516	41486.71
729.858	41417.56
730.199	41340.49
730.541	41358.57
730.882	41267.28
731.224	41324.45
731.565	41034.51
731.906	41112.48
732.248	41074.51
732.589	40833.84
732.93	40766.72
733.271	40676.11
733.612	40857.57
733.953	40690.57
734.294	40564.02
734.635	40488.54
734.976	40628.42
735.317	40335.55
735.658	40331.93
735.999	40286.51
736.339	40037.93
736.68	40183.46
737.021	39994.54
737.361	39767.43
737.702	39840.42
738.042	39952.73
738.383	39756.13
738.723	39795.45
739.063	39726.98
739.404	39832.96
739.744	39642.01
740.084	39477.49
740.424	39569.69
740.764	39258.06
741.104	39520.66
741.444	39171.29
741.784	39049.03
742.124	39131.97
742.464	39156.82
742.804	38996.38
743.143	38945.76
743.483	38962.93
743.823	38594.58
744.162	38662.83
744.502	38713.67
744.841	38534.47
745.181	38655.82
745.52	38408.82
745.86	38500.8
746.199	38330.18
746.538	38192.33
746.877	38399.56
747.216	38297.64
747.556	38213.35
747.895	38113.24
748.234	37843.41
748.573	37875.05
748.911	37831.66
749.25	37800.02
749.589	37527.26
749.928	37580.59
750.267	37665.79
750.605	37421.5
750.944	37318.91
751.283	37238.91
751.621	37327.04
751.96	37056.54
752.298	37085.24
752.636	37015.86
752.975	36816.09
753.313	36689.09
753.651	36860.39
753.989	36605.7
754.327	36458.82
754.666	36346.73
755.004	36488.87
755.342	36452.26
755.679	36309.67
756.017	36014.31
756.355	36137.92
756.693	35959.85
757.031	36038.26
757.368	35833.52
757.706	35629.01
758.044	35529.12
758.381	35677.37
758.719	35489.12
759.056	35376.36
759.394	35144.27
759.731	35020.21
760.068	34983.83
760.405	34950.61
760.743	34738.41
761.08	34788.35
761.417	34627.23
761.754	34593.33
762.091	34458.64
762.428	34412.54
762.765	34236.73
763.102	34274.47
763.438	33954.02
763.775	33777.08
764.112	33730.75
764.449	33760.13
764.785	33706.12
765.122	33460.93
765.458	33370.31
765.795	33190.88
766.131	33296.19
766.467	33029.3
766.804	32945.01
767.14	32829.31
767.476	32815.75
767.812	32625.02
768.148	32659.82
768.485	32363.78
768.821	32253.95
769.157	32205.37
769.492	31976.9
769.828	32003.34
770.164	31742.56
770.5	31632.5
770.836	31651.48
771.171	31605.61
771.507	31282.91
771.842	31176.69
772.178	31109.35
772.513	31148.67
772.849	31046.3
773.184	30802.01
773.519	30878.17
773.855	30647.67
774.19	30494.23
774.525	30408.35
774.86	30323.61
775.195	30226.21
775.53	30133.56
775.865	30032.32
776.2	29746.22
776.535	29573.8
776.87	29520.69
777.205	29474.37
777.539	29425.33
777.874	29395.5
778.209	29038.67
778.543	29066.02
778.878	28813.14
779.212	28794.16
779.547	28656.99
779.881	28644.78
780.215	28458.35
780.55	28484.34
780.884	28276.21
781.218	28101.52
781.552	28224.91
781.886	28061.97
782.22	27798.25
782.554	27751.25
782.888	27486.85
783.222	27342.44
783.556	27301.54
783.889	27379.96
784.223	27013.64
784.557	27003.02
784.89	27057.25
785.224	26860.88
785.557	26743.36
785.891	26624.95
786.224	26552.86
786.558	26437.84
786.891	26230.38
787.224	26124.4
787.557	26033.33
787.891	26020.22
788.224	26059.31
788.557	26011.86
788.89	25930.28
789.223	25867
789.556	25548.82
789.888	25528.03
790.221	25478.09
790.554	25175.72
790.887	25236.06
791.219	25133.24
791.552	25102.96
791.884	25053.69
792.217	24940.93
792.549	24873.58
792.882	24673.14
793.214	24566.02
793.546	24579.58
793.879	24368.29
794.211	24267.05
794.543	24243.09
794.875	24116.09
795.207	24119.7
795.539	23944.79
795.871	24071.57
796.203	23779.83
796.535	23724.01
796.867	23710.9
797.198	23656.44
797.53	23574.86
797.862	23385.94
798.193	23459.38
798.525	23179.62
798.856	23209.45
799.188	23084.93
799.519	23035.67
799.85	22900.53
800.182	22842.9
800.513	22825.05
800.844	22615.34
801.175	22687.2
801.506	22653.75
801.837	22463.93
802.168	22413.99
802.499	22365.17
802.83	22192.07
803.161	22195.01
803.491	22269.36
803.822	22163.82
804.153	22034.34
804.483	21765.87
804.814	21770.84
805.145	21713.89
805.475	21632.54
805.805	21572.65
806.136	21607
806.466	21597.06
806.796	21427.12
807.126	21317.29
807.457	21354.81
807.787	21315.26
808.117	21177.86
808.447	21116.17
808.777	21074.81
809.107	21061.71
809.436	20948.49
809.766	20962.95
810.096	20853.12
810.426	20782.17
810.755	20842.05
811.085	20757.31
811.414	20646.12
811.744	20619.68
812.073	20489.74
812.403	20424.43
812.732	20408.16
813.061	20375.4
813.39	20202.75
813.719	20174.72
814.049	20136.08
814.378	20088.17
814.707	20005.01
815.036	20012.02
815.365	19881.4
815.693	19755.98
816.022	19729.76
816.351	19746.03
816.68	19700.39
817.008	19757.56
817.337	19531.12
817.665	19462.2
817.994	19524.8
818.322	19509.66
818.651	19394.86
818.979	19339.27
819.307	19340.17
819.636	19334.52
819.964	19046.39
820.292	19198.25
820.62	19058.82
820.948	19061.53
821.276	19092.72
821.604	19094.98
821.932	19130.23
822.259	19085.94
822.587	19018.14
822.915	18957.35
823.243	19057.47
823.57	19014.53
823.898	18969.56
824.225	18866.74
824.553	18984.25
824.88	18968.2
825.207	19011.59
825.535	18879.39
825.862	18890.92
826.189	18974.3
826.516	19018.37
826.843	19050.23
827.17	18992.61
827.497	19017.01
827.824	18797.81
828.151	19005.04
828.478	18953.96
828.805	18943.8
829.131	18841.2
829.458	18895.89
829.785	18687.53
830.111	18858.6
830.438	18985.38
830.764	18878.26
831.09	18890.92
831.417	18753.07
831.743	18868.77
832.069	18831.71
832.395	18733.86
832.722	18777.47
833.048	18616.12
833.374	18751.48
833.7	18720.3
834.026	18669.68
834.351	18750.58
834.677	18672.16
835.003	18644.37
835.329	18680.98
835.654	18673.29
835.98	18558.72
836.306	18506.97
836.631	18645.27
836.956	18454.77
837.282	18523.69
837.607	18410.02
837.932	18366.18
838.258	18478.95
838.583	18440.76
838.908	18214.78
839.233	18350.82
839.558	18220.42
839.883	18282.12
840.208	18165.51
840.533	18258.16
840.858	18241.22
841.182	18253.42
841.507	18160.54
841.832	18057.27
842.156	18015.91
842.481	17936.82
842.805	17923.94
843.13	17963.26
843.454	17830.6
843.778	17779.53
844.103	17769.14
844.427	17724.84
844.751	17785.18
845.075	17632.19
845.399	17653.89
845.723	17527.34
846.047	17601.46
846.371	17422.25
846.695	17387
847.019	17289.6
847.343	17115.6
847.666	17083.28
847.99	16958.54
848.313	17068.82
848.637	16968.25
848.96	16963.28
849.284	16855.49
849.607	16760.35
849.931	16665.89
850.254	16516.97
850.577	16468.83
850.9	16363.75
851.223	16412.11
851.546	16335.05
851.869	16287.82
852.192	16321.94
852.515	16151.55
852.838	16116.53
853.161	16153.81
853.483	15999.92
853.806	15979.13
854.129	15904.78
854.451	15848.51
854.774	15775.52
855.096	15716.08
855.419	15738.68
855.741	15674.05
856.063	15528.97
856.385	15476.77
856.708	15497.11
857.03	15382.76
857.352	15377.34
857.674	15411.69
857.996	15238.36
858.318	15145.48
858.64	15221.86
858.961	15090.79
859.283	15087.4
859.605	15022.54
859.926	15119.72
860.248	15005.82
860.57	14953.17
860.891	14953.84
861.212	14808.31
861.534	14891.92
861.855	14828.88
862.176	14874.98
862.498	14899.61
862.819	14901.19
863.14	14806.96
863.461	14852.83
863.782	14855.09
864.103	14752.49
864.424	14646.06
864.745	14737.8
865.065	14557.24
865.386	14546.62
865.707	14504.59
866.027	14574.87
866.348	14564.93
866.668	14465.72
866.989	14471.6
867.309	14346.63
867.63	14385.5
867.95	14340.07
868.27	14251.04
868.59	14320.41
868.91	14371.03
869.23	14349.34
869.55	14293.07
869.87	14337.36
870.19	14269.34
870.51	14210.59
870.83	14225.73
871.15	14097.6
871.469	14115.67
871.789	14127.43
872.109	14154.77
872.428	13961.78
872.748	14080.19
873.067	14067.99
873.386	14007.2
873.706	14092.85
874.025	13980.99
874.344	13977.6
874.663	14011.72
874.982	13961.33
875.301	13981.89
875.62	13827.55
875.939	13789.35
876.258	13849.92
876.577	13815.57
876.896	13804.72
877.214	13711.84
877.533	13785.74
877.852	13726.31
878.17	13743.93
878.489	13734.44
878.807	13667.78
879.125	13615.8
879.444	13673.65
879.762	13552.98
880.08	13599.3
880.398	13579.19
880.716	13533.77
881.034	13567.44
881.352	13549.81
881.67	13421.46
881.988	13558.85
882.306	13486.09
882.624	13525.41
882.941	13371.29
883.259	13245.41
883.577	13267.79
883.894	13268.46
884.212	13282.7
884.529	13219.2
884.846	13225.75
885.164	13261.69
885.481	13204.96
885.798	13152.99
886.115	13060.33
886.432	13107.79
886.75	13032.09
887.067	12961.81
887.383	12941.69
887.7	12871.86
888.017	12824.41
888.334	12902.82
888.651	12831.19
888.967	12757.74
889.284	12694.47
889.6	12774.47
889.917	12555.26
890.233	12637.29
890.55	12630.74
890.866	12621.93
891.182	12554.13
891.498	12526.11
891.815	12466
892.131	12404.53
892.447	12397.3
892.763	12362.73
893.079	12357.08
893.395	12371.31
893.71	12314.14
894.026	12246.57
894.342	12181.26
894.657	12165.44
894.973	12137.19
895.289	12110.98
895.604	12080.7
895.92	11997.31
896.235	11990.76
896.55	11945.34
896.865	11917.99
897.181	11885.68
897.496	11920.25
897.811	11766.36
898.126	11759.8
898.441	11722.97
898.756	11757.54
899.071	11625.12
899.386	11619.69
899.7	11555.74
900.015	11516.19
900.33	11433.71
900.644	11408.4
900.959	11405.69
901.273	11393.49
901.588	11379.7
901.902	11312.36
902.216	11268.74
902.531	11285.01
902.845	11223.09
903.159	11174.51
903.473	11107.84
903.787	11101.06
904.101	10903.1
904.415	10966.38
904.729	10974.51
905.042	10874.63
905.356	10782.43
905.67	10842.99
905.984	10797.57
906.297	10755.76
906.611	10649.1
906.924	10656.56
907.237	10664.47
907.551	10570.23
907.864	10521.19
908.177	10498.82
908.491	10501.31
908.804	10393.29
909.117	10316.68
909.43	10354.42
909.743	10239.17
910.056	10334.08
910.368	10254.76
910.681	10149
910.994	10174.53
911.307	10158.94
911.619	10038.72
911.932	10030.13
912.244	9932.06
912.557	9972.73
912.869	9882.11
913.181	9852.51
913.494	9843.47
913.806	9814.54
914.118	9758.05
914.43	9700.87
914.742	9718.95
915.054	9568.9
915.366	9569.8
915.678	9495.91
915.99	9545.17
916.302	9454.78
916.613	9440.77
916.925	9416.14
917.236	9361.9
917.548	9278.74
917.859	9279.42
918.171	9299.3
918.482	9119.87
918.794	9191.96
919.105	9084.17
919.416	9025.86
919.727	9026.54
920.038	8986.54
920.349	8895.25
920.66	8874.68
920.971	8907
921.282	8791.97
921.593	8775.7
921.903	8779.32
922.214	8736.61
922.525	8727.79
922.835	8659.55
923.146	8614.8
923.456	8571.19
923.767	8482.38
924.077	8535.26
924.387	8413.68
924.697	8446.22
925.008	8419.55
925.318	8390.17
925.628	8337.75
925.938	8258.88
926.248	8219.11
926.558	8194.25
926.867	8213.68
927.177	8143.63
927.487	8129.16
927.796	8051.88
928.106	8029.96
928.416	8024.76
928.725	8020.02
929.034	7973.46
929.344	7881.49
929.653	7867.48
929.962	7843.3
930.271	7839.68
930.581	7758.1
930.89	7701.15
931.199	7716.75
931.508	7602.17
931.817	7624.77
932.125	7656.41
932.434	7558.33
932.743	7521.95
933.051	7487.6
933.36	7455.06
933.669	7420.48
933.977	7392.46
934.286	7364.44
934.594	7344.55
934.902	7292.8
935.21	7261.84
935.519	7263.88
935.827	7257.32
936.135	7208.51
936.443	7076.31
936.751	7105.01
937.059	7032.47
937.367	7023.21
937.674	6992.7
937.982	7018.69
938.29	6954.51
938.597	6987.5
938.905	6888.29
939.213	6835.19
939.52	6808.3
939.827	6847.62
940.135	6792.02
940.442	6727.39
940.749	6761.29
941.056	6697.56
941.363	6624.57
941.67	6641.97
941.977	6568.53
942.284	6561.07
942.591	6569.21
942.898	6464.12
943.205	6467.74
943.511	6454.18
943.818	6415.54
944.125	6381.19
944.431	6335.54
944.738	6318.36
945.044	6320.4
945.35	6318.82
945.657	6255.54
945.963	6238.59
946.269	6193.62
946.575	6178.93
946.881	6125.38
947.187	6106.62
947.493	6056.9
947.799	6087.18
948.105	6012.38
948.41	5952.5
948.716	5948.66
949.022	5910.24
949.327	5928.54
949.633	5852.16
949.938	5842.9
950.244	5865.04
950.549	5799.96
950.854	5787.76
951.16	5779.17
951.465	5694.88
951.77	5691.94
952.075	5661.89
952.38	5712.51
952.685	5680.42
952.99	5572.85
953.294	5596.58
953.599	5559.97
953.904	5521.55
954.209	5451.27
954.513	5498.05
954.818	5397.26
955.122	5452.62
955.426	5439.29
955.731	5402.46
956.035	5406.98
956.339	5346.64
956.643	5300.76
956.948	5235.46
957.252	5305.51
957.556	5213.99
957.86	5252.86
958.163	5221.44
958.467	5192.74
958.771	5131.05
959.075	5162.01
959.378	5087.21
959.682	5085.18
959.985	5075.01
960.289	5041.11
960.592	5034.78
960.896	5039.75
961.199	4917.5
961.502	4950.04
961.805	4892.64
962.108	4875.47
962.411	4890.15
962.714	4844.28
963.017	4858.29
963.32	4879.98
963.623	4779.42
963.926	4821.23
964.228	4734
964.531	4752.3
964.833	4658.07
965.136	4708.69
965.438	4634.34
965.741	4619.43
966.043	4606.32
966.345	4580.56
966.648	4551.63
966.95	4564.96
967.252	4553.89
967.554	4529.71
967.856	4516.38
968.158	4472.54
968.46	4449.04
968.761	4475.48
969.063	4447.68
969.365	4411.75
969.666	4398.64
969.968	4349.6
970.269	4315.25
970.571	4305.54
970.872	4298.31
971.174	4260.34
971.475	4238.65
971.776	4268.02
972.077	4181.25
972.378	4209.49
972.679	4209.95
972.98	4186.67
973.281	4172.66
973.582	4126.78
973.883	4075.03
974.183	4109.16
974.484	4059.44
974.785	4051.08
975.085	4072.55
975.386	4096.95
975.686	3984.64
975.986	3980.8
976.287	3975.15
976.587	3926.34
976.887	3959.1
977.187	3940.35
977.487	3907.58
977.787	3853.35
978.087	3863.51
978.387	3802.5
978.687	3841.37
978.987	3807.24
979.286	3777.87
979.586	3775.83
979.885	3734.93
980.185	3726.12
980.484	3698.55
980.784	3699.22
981.083	3696.29
981.382	3640.24
981.682	3682.28
981.981	3633.46
982.28	3603.63
982.579	3586.46
982.878	3570.87
983.177	3591.43
983.475	3528.61
983.774	3558.89
984.073	3475.95
984.372	3475.28
984.67	3466.69
984.969	3429.85
985.267	3445.22
985.566	3425.33
985.864	3402.74
986.162	3421.49
986.461	3360.48
986.759	3355.28
987.057	3359.57
987.355	3322.96
987.653	3351.44
987.951	3308.5
988.249	3291.1
988.547	3241.61
988.844	3259.69
989.142	3242.51
989.44	3209.29
989.737	3238.9
990.035	3205.9
990.332	3200.71
990.63	3192.57
990.927	3195.96
991.224	3138.56
991.521	3104.66
991.819	3104.89
992.116	3084.55
992.413	3078.45
992.71	3085
993.006	3085
993.303	3070.77
993.6	3054.95
993.897	3015.63
994.193	2992.35
994.49	2974.95
994.787	2978.79
995.083	2951.9
995.379	2906.7
995.676	2910.09
995.972	2897.89
996.268	2881.85
996.565	2882.75
996.861	2878.68
997.157	2825.58
997.453	2823.54
997.749	2812.02
998.044	2787.61
998.34	2777.22
998.636	2771.79
998.932	2748.97
999.227	2733.15
999.523	2701.06
999.818	2680.72
1000.114	2658.35
1000.409	2684.11
1000.704	2636.2
1001	2635.07
1001.295	2642.08
1001.59	2641.63
1001.885	2591.68
1002.18	2585.81
1002.475	2566.15
1002.77	2548.29
1003.065	2559.82
1003.359	2538.58
1003.654	2512.36
1003.949	2471.01
1004.243	2509.65
1004.538	2514.85
1004.832	2442.31
1005.127	2442.08
1005.421	2436.89
1005.715	2396.66
1006.009	2399.82
1006.304	2361.63
1006.598	2385.36
1006.892	2352.82
1007.186	2344.68
1007.48	2374.06
1007.773	2301.97
1008.067	2336.32
1008.361	2262.2
1008.655	2234.4
1008.948	2252.26
1009.242	2224.24
1009.535	2240.73
1009.829	2232.82
1010.122	2233.05
1010.415	2172.03
1010.708	2165.93
1011.001	2130
1011.295	2154.41
1011.588	2119.61
1011.881	2120.06
1012.173	2107.63
1012.466	2084.35
1012.759	2097.46
1013.052	2094.52
1013.344	2052.49
1013.637	2065.82
1013.93	2048.42
1014.222	2048.19
1014.514	1989.44
1014.807	1978.59
1015.099	2003.9
1015.391	1988.76
1015.683	1956.22
1015.976	1971.59
1016.268	1963
1016.56	1923.45
1016.851	1925.03
1017.143	1922.77
1017.435	1885.26
1017.727	1844.58
1018.018	1852.49
1018.31	1828.77
1018.602	1829.9
1018.893	1821.53
1019.185	1814.3
1019.476	1806.62
1019.767	1802.78
1020.058	1781.31
1020.35	1765.04
1020.641	1749.45
1020.932	1720.75
1021.223	1719.16
1021.514	1718.94
1021.804	1711.03
1022.095	1695.66
1022.386	1656.79
1022.677	1662.44
1022.967	1672.61
1023.258	1653.85
1023.548	1646.17
1023.839	1627.41
1024.129	1604.59
1024.419	1568.21
1024.709	1545.84
1025	1560.52
1025.29	1579.96
1025.58	1546.74
1025.87	1525.72
1026.16	1538.38
1026.449	1529.11
1026.739	1513.29
1027.029	1485.72
1027.319	1486.63
1027.608	1478.27
1027.898	1456.57
1028.187	1473.75
1028.477	1434.65
1028.766	1450.24
1029.055	1412.28
1029.344	1417.02
1029.634	1431.71
1029.923	1412.96
1030.212	1394.88
1030.501	1369.12
1030.79	1367.08
1031.078	1339.51
1031.367	1340.87
1031.656	1347.87
1031.945	1325.28
1032.233	1342
1032.522	1329.8
1032.81	1308.55
1033.099	1288.44
1033.387	1309.68
1033.675	1297.25
1033.963	1275.33
1034.251	1246.86
1034.54	1239.63
1034.828	1221.55
1035.116	1249.35
1035.403	1229.01
1035.691	1203.7
1035.979	1219.52
1036.267	1190.36
1036.554	1180.65
1036.842	1210.25
1037.129	1170.93
1037.417	1188.1
1037.704	1165.05
1037.992	1177.71
1038.279	1150.59
1038.566	1146.52
1038.853	1146.52
1039.14	1146.52
