Data from foil_FLMS001491_014.txt Node
Date: Tue Feb 07 11:25:27 GMT 2017
User: dcchb
Spectrometer: FLMS00149
Trigger mode: 0
Integration Time (sec): 2.000000E-2
Scans to average: 10
Electric dark correction enabled: true
Nonlinearity correction enabled: false
Boxcar width: 0
XAxis mode: Wavelengths
Number of Pixels in Spectrum: 2048
>>>>>Begin Spectral Data<<<<<
341.393	-10.08
341.776	-10.08
342.16	-10.08
342.543	-57.77
342.927	-62.06
343.31	-82.4
343.693	-87.37
344.077	-75.17
344.46	-36.3
344.843	-58.67
345.226	-42.63
345.61	-16.64
345.993	-18.45
346.376	2.57
346.759	8.9
347.142	49.57
347.525	27.43
347.908	62.68
348.291	64.04
348.674	103.36
349.057	99.07
349.44	118.27
349.823	166.63
350.206	182.23
350.588	252.28
350.971	262.9
351.354	289.57
351.737	278.72
352.119	297.25
352.502	305.16
352.884	334.09
353.267	318.04
353.65	356.23
354.032	357.36
354.414	351.26
354.797	382
355.179	372.73
355.562	369.57
355.944	376.12
356.326	399.17
356.709	383.8
357.091	417.7
357.473	397.14
357.855	406.4
358.238	413.63
358.62	405.05
359.002	404.82
359.384	410.92
359.766	409.79
360.148	397.59
360.53	410.92
360.912	423.8
361.294	415.67
361.676	418.6
362.057	407.31
362.439	401.66
362.821	422.9
363.203	422.67
363.584	411.37
363.966	438.27
364.348	405.05
364.729	423.8
365.111	396.23
365.493	426.29
365.874	417.47
366.256	414.54
366.637	410.47
367.019	425.16
367.4	428.32
367.781	430.81
368.163	439.62
368.544	406.85
368.925	409.11
369.306	436.23
369.688	416.8
370.069	429.45
370.45	429.68
370.831	424.03
371.212	441.43
371.593	452.05
371.974	443.69
372.355	426.29
372.736	471.94
373.117	467.19
373.498	459.28
373.879	452.5
374.26	449.79
374.641	446.4
375.021	443.91
375.402	457.47
375.783	493.41
376.163	504.48
376.544	512.16
376.925	508.77
377.305	499.51
377.686	513.74
378.066	510.81
378.447	524.36
378.827	526.4
379.208	520.3
379.588	507.42
379.968	524.14
380.349	526.85
380.729	546.29
381.109	554.65
381.489	545.16
381.87	544.25
382.25	570.92
382.63	554.87
383.01	574.76
383.39	592.61
383.77	574.53
384.15	559.17
384.53	586.74
384.91	601.65
385.29	606.62
385.67	636.45
386.049	621.76
386.429	619.5
386.809	616.11
387.189	656.79
387.568	671.25
387.948	659.28
388.328	663.57
388.707	666.51
389.087	660.86
389.466	678.26
389.846	701.31
390.225	727.98
390.605	706.96
390.984	712.61
391.363	735.66
391.743	727.3
392.122	751.93
392.501	733.85
392.881	767.52
393.26	760.74
393.639	761.65
394.018	782.44
394.397	779.05
394.776	790.35
395.155	808.2
395.534	800.74
395.913	826.5
396.292	832.83
396.671	832.61
397.05	846.39
397.429	839.61
397.808	884.81
398.186	869.21
398.565	859.95
398.944	892.04
399.323	895.88
399.701	902.21
400.08	924.35
400.458	893.62
400.837	961.42
401.215	933.39
401.594	940.4
401.972	955.31
402.351	979.49
402.729	970.23
403.107	983.79
403.486	984.01
403.864	1019.72
404.242	1011.58
404.62	1033.96
404.999	1031.24
405.377	1053.62
405.755	1077.12
406.133	1072.37
406.511	1089.55
406.889	1123.22
407.267	1125.93
407.645	1132.26
408.023	1151.47
408.401	1156.89
408.779	1192.37
409.156	1198.7
409.534	1201.86
409.912	1226.49
410.29	1264.91
410.667	1278.24
411.045	1278.7
411.422	1309.43
411.8	1318.92
412.178	1322.76
412.555	1374.29
412.933	1361.63
413.31	1416.32
413.687	1430.1
414.065	1427.17
414.442	1454.51
414.819	1463.32
415.197	1469.42
415.574	1467.39
415.951	1504
416.328	1521.63
416.705	1512.59
417.082	1538.58
417.46	1582.64
417.837	1601.62
418.214	1587.61
418.591	1630.1
418.967	1637.1
419.344	1677.1
419.721	1639.59
420.098	1649.76
420.475	1688.85
420.852	1694.28
421.228	1748.97
421.605	1771.34
421.982	1781.05
422.358	1811.11
422.735	1809.53
423.111	1812.24
423.488	1832.13
423.864	1862.41
424.241	1884.33
424.617	1921.62
424.994	1926.36
425.37	1943.31
425.746	1963.42
426.123	1978.34
426.499	1995.29
426.875	2038
427.251	2082.52
427.627	2087.71
428.003	2094.04
428.379	2174.94
428.756	2176.75
429.132	2245.9
429.507	2266.92
429.883	2295.84
430.259	2326.8
430.635	2329.29
431.011	2345.11
431.387	2396.86
431.763	2450.42
432.138	2441.6
432.514	2504.65
432.89	2492.22
433.265	2593.24
433.641	2612.67
434.016	2623.52
434.392	2692.44
434.767	2704.19
435.143	2737.19
435.518	2781.71
435.894	2777.19
436.269	2894.47
436.644	2857.64
437.02	2920.23
437.395	2899.44
437.77	2950.74
438.145	3003.62
438.52	3038.65
438.895	3105.99
439.271	3087.46
439.646	3159.78
440.021	3134.01
440.395	3213.79
440.77	3195.25
441.145	3191.64
441.52	3282.48
441.895	3288.13
442.27	3339.43
442.645	3383.72
443.019	3376.04
443.394	3376.04
443.769	3450.62
444.143	3390.96
444.518	3524.06
444.892	3536.71
445.267	3566.32
445.641	3578.75
446.016	3613.1
446.39	3630.05
446.764	3639.76
447.139	3643.6
447.513	3737.61
447.887	3730.61
448.262	3759.99
448.636	3808.12
449.01	3856.03
449.384	3865.97
449.758	3884.73
450.132	3965.86
450.506	4011.73
450.88	4015.35
451.254	4028.68
451.628	4100.77
452.002	4123.82
452.376	4187.09
452.75	4202.23
453.123	4230.26
453.497	4275.68
453.871	4390.48
454.244	4427.99
454.618	4426.18
454.992	4509.8
455.365	4491.04
455.739	4663.46
456.112	4685.61
456.486	4709.79
456.859	4728.55
457.232	4836.79
457.606	4820.52
457.979	4890.58
458.352	4971.25
458.725	5029.33
459.099	5102.32
459.472	5142.1
459.845	5190.46
460.218	5239.27
460.591	5257.12
460.964	5301.87
461.337	5427.96
461.71	5454.4
462.083	5582.99
462.456	5602.42
462.829	5579.6
463.201	5704.34
463.574	5711.35
463.947	5781.63
464.32	5938.46
464.692	5941.62
465.065	5981.4
465.438	6078.34
465.81	6170.32
466.183	6232.46
466.555	6375.74
466.928	6433.36
467.3	6408.28
467.672	6532.34
468.045	6702.51
468.417	6625
468.789	6763.07
469.161	6821.83
469.534	6925.78
469.906	7102.95
470.278	7153.79
470.65	7207.58
471.022	7348.59
471.394	7507.46
471.766	7555.14
472.138	7602.14
472.51	7765.3
472.882	7885.3
473.253	8022.02
473.625	8091.4
473.997	8247.1
474.369	8347.66
474.74	8429.69
475.112	8540.88
475.484	8695
475.855	8872.85
476.227	8924.82
476.598	9170.24
476.97	9270.58
477.341	9472.38
477.713	9628.53
478.084	9714.63
478.455	9966.6
478.827	10035.3
479.198	10308.29
479.569	10279.36
479.94	10652.46
480.311	10717.54
480.682	11052.22
481.053	11196.85
481.424	11347.13
481.795	11463.96
482.166	11659.21
482.537	11793.9
482.908	12103.04
483.279	12190.05
483.65	12385.07
484.021	12686.08
484.391	12793.19
484.762	12915.68
485.133	12967.43
485.503	13224.37
485.874	13470.92
486.244	13661.42
486.615	13899.61
486.985	14052.6
487.356	14399.03
487.726	14533.49
488.097	14778.68
488.467	14780.49
488.837	15144.55
489.207	15220.25
489.578	15452.33
489.948	15684.19
490.318	15771.87
490.688	15898.2
491.058	16168.25
491.428	16450.05
491.798	16515.81
492.168	16901.34
492.538	16869.02
492.908	17112.4
493.278	17410.02
493.648	17474.43
494.017	17619.73
494.387	17818.6
494.757	17911.93
495.126	18193.5
495.496	18236.89
495.866	18380.39
496.235	18661.97
496.605	18791.91
496.974	18804.56
497.344	19108.73
497.713	19162.29
498.082	19397.54
498.452	19545.56
498.821	19700.13
499.19	19754.14
499.559	20003.4
499.928	20122.27
500.298	20181.25
500.667	20350.74
501.036	20410.85
501.405	20697.17
501.774	20785.3
502.143	20835.92
502.512	20976.26
502.88	21147.55
503.249	21248.11
503.618	21403.14
503.987	21595.22
504.356	21782.34
504.724	21901.88
505.093	21997.47
505.462	22103.68
505.83	22276.79
506.199	22472.26
506.567	22750.9
506.936	22693.27
507.304	23073.83
507.672	23032.7
508.041	23211.68
508.409	23505
508.777	23541.39
509.145	23739.35
509.514	23777.31
509.882	24054.37
510.25	24149.28
510.618	24367.13
510.986	24366.68
511.354	24684.63
511.722	24855.25
512.09	25034.68
512.458	25012.76
512.826	25318.97
513.193	25492.75
513.561	25605.29
513.929	25736.58
514.297	25989.23
514.664	26177.02
515.032	26431.25
515.4	26601.87
515.767	26773.84
516.135	26894.29
516.502	26759.61
516.869	27317.56
517.237	27337.9
517.604	27305.36
517.972	27853.36
518.339	27993.02
518.706	28157.08
519.073	28257.87
519.44	28360.24
519.808	28674.13
520.175	28846.78
520.542	29076.38
520.909	29287.45
521.276	29328.81
521.643	29606.99
522.009	29928.34
522.376	30116.58
522.743	30321.1
523.11	30604.03
523.477	30857.8
523.843	31099.15
524.21	31469.31
524.577	31604.23
524.943	31725.35
525.31	31799.25
525.676	32430.19
526.043	32436.97
526.409	32622.73
526.776	33070.18
527.142	33064.53
527.508	33257.29
527.874	33495.7
528.241	33710.38
528.607	33856.6
528.973	34091.39
529.339	34107.89
529.705	34521.66
530.071	34795.55
530.437	34966.4
530.803	35191.48
531.169	35308.53
531.535	35206.39
531.901	35485.03
532.267	35660.39
532.632	35953.72
532.998	36007.5
533.364	36332.24
533.73	36417.88
534.095	36723.86
534.461	36822.17
534.826	36887.7
535.192	37127.92
535.557	37468.93
535.923	37449.27
536.288	37571.98
536.653	37707.57
537.019	37644.74
537.384	37883.16
537.749	38065.75
538.114	38100.33
538.479	38195.01
538.845	38568.56
539.21	38486.3
539.575	38635.45
539.94	38824.6
540.305	39092.16
540.67	38993.18
541.034	39241.54
541.399	39385.49
541.764	39530.8
542.129	39754.07
542.494	39688.98
542.858	39935.53
543.223	40006.26
543.587	40186.6
543.952	40264.56
544.316	40348.63
544.681	40264.79
545.045	40610.32
545.41	40742.29
545.774	40968.73
546.138	41051.21
546.503	41153.35
546.867	41114.71
547.231	41596.73
547.595	41592.44
547.959	41692.32
548.324	41746.11
548.688	41824.75
549.052	42111.29
549.416	42087.57
549.779	42221.57
550.143	42365.07
550.507	42645.97
550.871	42804.61
551.235	42823.82
551.599	42910.14
551.962	43115.79
552.326	43229.46
552.689	43534.31
553.053	43299.29
553.417	43395.1
553.78	44026.72
554.143	43670.57
554.507	44000.96
554.87	44211.8
555.234	44629.87
555.597	44459.25
555.96	44667.38
556.323	44796.87
556.686	44864.89
557.05	45231.89
557.413	45332.9
557.776	45390.53
558.139	45794.36
558.502	45565.21
558.865	45871.87
559.228	46087.91
559.59	46164.97
559.953	46539.65
560.316	46653.1
560.679	46826.42
561.041	47017.15
561.404	47137.15
561.767	47474.77
562.129	47197.71
562.492	47696.68
562.854	47698.94
563.217	47834.08
563.579	47958.15
563.941	48209.44
564.304	48348.87
564.666	48619.6
565.028	48673.16
565.39	48729.2
565.753	49068.17
566.115	49224.78
566.477	49218.68
566.839	49314.49
567.201	49595.39
567.563	49530.08
567.925	49878.77
568.287	49864.76
568.648	49883.74
569.01	50267.92
569.372	50410.51
569.734	50308.59
570.095	50494.35
570.457	50704.74
570.819	50742.25
571.18	50745.87
571.542	50988.8
571.903	51014.11
572.265	51102.47
572.626	51154.67
572.987	51272.41
573.349	51296.59
573.71	51518.05
574.071	51590.82
574.432	51659.29
574.794	51932.73
575.155	51888.44
575.516	51844.15
575.877	51988.1
576.238	52034.42
576.599	52093.86
576.96	52110.8
577.32	52153.06
577.681	52293.4
578.042	52309.67
578.403	52328.2
578.763	52329.33
579.124	52506.5
579.485	52496.11
579.845	52561.19
580.206	52594.41
580.566	52597.57
580.927	52596.44
581.287	52727.51
581.648	52606.61
582.008	52671.47
582.368	52665.59
582.728	52697.68
583.089	52583.33
583.449	52650.45
583.809	52664.69
584.169	52682.54
584.529	52653.39
584.889	52902.42
585.249	52659.27
585.609	52586.05
585.969	52876.43
586.329	52733.84
586.688	52826.49
587.048	52782.65
587.408	52644.35
587.768	52697.46
588.127	52720.28
588.487	52661.52
588.846	52912.14
589.206	52650.68
589.565	52725.48
589.925	52860.62
590.284	52832.59
590.643	52775.42
591.003	52931.57
591.362	52952.14
591.721	52869.2
592.08	52765.03
592.44	52946.72
592.799	52821.29
593.158	52811.13
593.517	52851.12
593.876	52806.61
594.235	52747.62
594.593	52745.36
594.952	52821.97
595.311	52700.62
595.67	52756.89
596.029	52917.11
596.387	52874.63
596.746	52967.73
597.104	52886.38
597.463	52850.9
597.822	52946.94
598.18	52838.7
598.538	52872.59
598.897	52930.67
599.255	52739.26
599.613	53198.01
599.972	52948.07
600.33	53012.48
600.688	52921.63
601.046	53015.19
601.404	53104
601.762	53072.36
602.12	53193.94
602.478	53196.88
602.836	53176.99
603.194	53113.72
603.552	53038.01
603.91	53112.59
604.268	53266.03
604.625	53075.53
604.983	53195.52
605.341	53097.22
605.698	53327.04
606.056	53275.75
606.413	53200.49
606.771	53230.78
607.128	53403.88
607.485	53292.69
607.843	53233.71
608.2	53391.45
608.557	53453.82
608.914	53410.43
609.272	53540.6
609.629	53509.86
609.986	53561.84
610.343	53471.9
610.7	53674.83
611.057	53626.02
611.414	53583.99
611.771	53593.03
612.127	53721.61
612.484	53628.05
612.841	53760.71
613.198	53650.88
613.554	53662.63
613.911	53858.33
614.267	53900.36
614.624	53761.38
614.98	53863.3
615.337	53893.81
615.693	53899.01
616.05	53844.32
616.406	54019.23
616.762	53924.54
617.118	53928.16
617.475	53965.67
617.831	53947.14
618.187	53957.54
618.543	53963.41
618.899	54123.86
619.255	54009.06
619.611	53972.45
619.967	54043.18
620.323	54015.61
620.678	53922.28
621.034	53870.08
621.39	53858.78
621.746	53924.99
622.101	54270.75
622.457	53930.19
622.812	53945.33
623.168	54079.79
623.523	54075.27
623.879	54049.29
624.234	53937.88
624.589	53983.07
624.945	54016.07
625.3	54000.25
625.655	54033.92
626.01	53988.72
626.365	54005.44
626.72	53858.1
627.075	53881.15
627.43	53888.39
627.785	53805.9
628.14	53824.88
628.495	53944.43
628.85	53804.32
629.205	53798.44
629.559	53920.47
629.914	53741.72
630.269	53826.01
630.623	53645.68
630.978	53653.59
631.332	53746.47
631.687	53732.46
632.041	53559.35
632.396	53553.93
632.75	53429.41
633.104	53500.6
633.459	53349.87
633.813	53333.15
634.167	53349.42
634.521	53298.57
634.875	53241.17
635.229	53291.34
635.583	53013.61
635.937	53058.35
636.291	52995.75
636.645	53005.02
636.999	52904.23
637.352	52955.08
637.706	52768.19
638.06	52749.43
638.413	52695.2
638.767	52677.57
639.121	52686.61
639.474	52527.52
639.828	52487.52
640.181	52465.15
640.534	52487.52
640.888	52305.6
641.241	52224.93
641.594	52284.36
641.947	52338.37
642.301	52204.14
642.654	52171.59
643.007	52174.76
643.36	52130.47
643.713	52008.43
644.066	52195.32
644.419	51897.03
644.771	51774.09
645.124	51359.19
645.477	51270.6
645.83	51042.13
646.182	50873.78
646.535	50802.59
646.888	50858.86
647.24	50785.19
647.593	50911.51
647.945	50805.98
648.298	50619.09
648.65	50610.96
649.002	50370.96
649.355	50566.21
649.707	50456.84
650.059	50485.54
650.411	50969.37
650.763	50898.63
651.115	51263.37
651.467	51115.58
651.819	50982.02
652.171	50851.4
652.523	50883.49
652.875	50945.19
653.227	50735.47
653.578	50975.69
653.93	50915.36
654.282	50662.48
654.633	50570.28
654.985	50700.67
655.337	50606.21
655.688	50481.92
656.039	50704.51
656.391	50266.33
656.742	50318.99
657.094	50324.64
657.445	50461.58
657.796	50384.52
658.147	50251.87
658.498	50213.23
658.849	50352.66
659.2	50222.27
659.551	50130.97
659.902	50187.01
660.253	50106.56
660.604	50128.26
660.955	50020.24
661.306	50064.76
661.656	49959.9
662.007	49910.41
662.358	49910.64
662.708	49817.53
663.059	49860.24
663.409	49631.1
663.76	49882.84
664.11	49862.73
664.461	49774.37
664.811	49848.04
665.161	49751.09
665.511	49610.08
665.862	49669.29
666.212	49683.07
666.562	49714.71
666.912	49624.32
667.262	49403.98
667.612	49522.17
667.962	49596.07
668.312	49373.7
668.662	49615.05
669.011	49483.76
669.361	49312.91
669.711	49289.64
670.06	49196.98
670.41	49195.63
670.76	49089.87
671.109	49183.65
671.459	49149.3
671.808	48978.01
672.157	49022.52
672.507	48843.09
672.856	48887.84
673.205	48952.24
673.554	49048.96
673.904	48792.7
674.253	49073.82
674.602	48895.75
674.951	48317.68
675.3	48194.52
675.649	48767.84
675.998	48642.42
676.346	48610.56
676.695	48738.01
677.044	48504.8
677.393	48597.23
677.741	48481.3
678.09	48467.74
678.438	48250.57
678.787	48458.25
679.135	48359.72
679.484	48058.26
679.832	48122.44
680.181	47903.23
680.529	48072.27
680.877	47910.46
681.225	47900.07
681.573	48084.02
681.922	47774.65
682.27	47587.99
682.618	47794.08
682.966	47531.72
683.314	47626.4
683.661	47574.2
684.009	47301.21
684.357	47241.78
684.705	47064.38
685.053	47162.01
685.4	47047.44
685.748	47026.19
686.095	46974.67
686.443	46764.05
686.79	46767.67
687.138	46687.9
687.485	46588.69
687.832	46412.42
688.18	46463.04
688.527	46445.87
688.874	46277.74
689.221	46074.35
689.568	46053.79
689.915	45949.84
690.262	45846.34
690.609	45768.15
690.956	45728.6
691.303	45650.18
691.65	45407.25
691.997	45396.86
692.344	45088.16
692.69	44920.03
693.037	45008.17
693.383	44705.12
693.73	44832.13
694.077	44430.1
694.423	44461.74
694.769	44226.94
695.116	44292.25
695.462	44177.45
695.808	44142.43
696.155	44092.03
696.501	43805.49
696.847	43760.29
697.193	43501.54
697.539	43713.06
697.885	43321.21
698.231	43237.82
698.577	43168.44
698.923	43110.82
699.269	42884.61
699.614	42645.29
699.96	42591.73
700.306	42595.57
700.651	42370.04
700.997	42245.98
701.342	42210.27
701.688	42209.14
702.033	41956.72
702.379	42091.18
702.724	41861.13
703.069	41969.6
703.415	41294.37
703.76	41420.46
704.105	41332.78
704.45	41110.19
704.795	40983.64
705.14	40927.14
705.485	40853.47
705.83	40582.29
706.175	40785.45
706.52	40603.08
706.865	40426.82
707.209	40387.5
707.554	40273.15
707.899	40389.76
708.243	40120.16
708.588	40133.27
708.932	39719.94
709.277	39789.77
709.621	39703.9
709.966	39418.48
710.31	39462.55
710.654	39159.96
710.998	39217.13
711.342	39096.01
711.687	39175.1
712.031	39005.39
712.375	38897.82
712.719	38888.78
713.063	38881.77
713.407	38874.54
713.75	38747.77
714.094	38634.55
714.438	38317.72
714.782	38438.62
715.125	38220.1
715.469	38408.11
715.812	38086.09
716.156	37879.09
716.499	37877.96
716.843	37759.54
717.186	37616.27
717.53	37733.78
717.873	37764.06
718.216	37565.88
718.559	37564.52
718.902	37237.52
719.246	37356.62
719.589	37093.57
719.932	37023.07
720.275	36953.01
720.617	36955.27
720.96	36883.86
721.303	36805.9
721.646	36784.2
721.989	36551.44
722.331	36723.64
722.674	36555.96
723.016	36569.52
723.359	36425.79
723.701	36463.53
724.044	36135.18
724.386	36048.18
724.729	36036.43
725.071	36011.34
725.413	35947.16
725.755	35867.84
726.097	35819.93
726.439	35684.12
726.782	35647.06
727.124	35633.5
727.465	35433.96
727.807	35535.87
728.149	35529.55
728.491	35239.38
728.833	35394.63
729.175	35198.48
729.516	35094.53
729.858	35050.46
730.199	35014.31
730.541	34919.84
730.882	34804.59
731.224	34940.41
731.565	34835.33
731.906	34716.69
732.248	34724.14
732.589	34440.31
732.93	34345.62
733.271	34386.98
733.612	34465.39
733.953	34419.97
734.294	34116.93
734.635	34037.38
734.976	34202.35
735.317	34012.3
735.658	34056.59
735.999	33997.16
736.339	33930.27
736.68	33905.41
737.021	33749.93
737.361	33522.59
737.702	33894.56
738.042	33613.89
738.383	33473.55
738.723	33453.89
739.063	33476.27
739.404	33509.94
739.744	33465.65
740.084	33301.81
740.424	33162.6
740.764	33220.91
741.104	33241.02
741.444	33130.74
741.784	32982.49
742.124	33144.98
742.464	32874.02
742.804	32799.45
743.143	32758.32
743.483	32776.17
743.823	32616.4
744.162	32551.32
744.502	32545.67
744.841	32370.31
745.181	32463.41
745.52	32277.65
745.86	32347.03
746.199	32172.35
746.538	32154.04
746.877	32154.49
747.216	32059.81
747.556	31969.87
747.895	31958.34
748.234	31821.85
748.573	31786.59
748.911	31823.65
749.25	31550.67
749.589	31424.57
749.928	31341.63
750.267	31551.35
750.605	31397.45
750.944	31451.24
751.283	31286.49
751.621	31338.47
751.96	31038.82
752.298	30998.37
752.636	31136.22
752.975	30943.45
753.313	30740.75
753.651	30839.05
753.989	30700.97
754.327	30592.27
754.666	30499.62
755.004	30508.89
755.342	30505.5
755.679	30334.88
756.017	30236.8
756.355	30281.32
756.693	30134.43
757.031	30188.22
757.368	29858.06
757.706	29788.45
758.044	29700.55
758.381	29723.37
758.719	29615.13
759.056	29588.23
759.394	29404.74
759.731	29128.13
760.068	29175.14
760.405	29161.8
760.743	29051.07
761.08	29033.22
761.417	28913.9
761.754	28835.71
762.091	28821.93
762.428	28552.1
762.765	28618.99
763.102	28513.01
763.438	28408.83
763.775	28072.11
764.112	28225.11
764.449	28224.2
764.785	28012.68
765.122	27787.15
765.458	27756.64
765.795	27797.32
766.131	27676.87
766.467	27460.83
766.804	27230.1
767.14	27275.98
767.476	27190.78
767.812	26991.24
768.148	27162.53
768.485	26980.17
768.821	26812.71
769.157	26784.69
769.492	26720.96
769.828	26692.94
770.164	26455.66
770.5	26468.77
770.836	26322.1
771.171	26137.25
771.507	26090.25
771.842	25870.36
772.178	25939.06
772.513	25868.33
772.849	25626.3
773.184	25610.48
773.519	25542.01
773.855	25469.02
774.19	25311.96
774.525	25244.17
774.86	25205.07
775.195	25228.12
775.53	25037.62
775.865	24880.79
776.2	24688.25
776.535	24497.07
776.87	24509.95
777.205	24384.08
777.539	24358.31
777.874	24384.53
778.209	24094.59
778.543	24027.7
778.878	23924.65
779.212	23986.57
779.547	23707.71
779.881	23751.32
780.215	23561.05
780.55	23584.55
780.884	23457.55
781.218	23308.4
781.552	23289.64
781.886	23192.24
782.22	23096.43
782.554	23058.69
782.888	22742.54
783.222	22761.75
783.556	22601.3
783.889	22599.72
784.223	22414.64
784.557	22308.2
784.89	22390
785.224	22219.84
785.557	22152.04
785.891	21988.89
786.224	21884.03
786.558	21933.52
786.891	21842.67
787.224	21765.61
787.557	21709.12
787.891	21503.47
788.224	21552.06
788.557	21412.4
788.89	21443.36
789.223	21301.67
789.556	21310.26
789.888	21226.19
790.221	20941.46
790.554	20890.61
790.887	20906.65
791.219	20855.13
791.552	20834.34
791.884	20698.52
792.217	20576.27
792.549	20567.23
792.882	20259.21
793.214	20358.19
793.546	20431.19
793.879	20138.09
794.211	20116.39
794.543	20141.48
794.875	20077.07
795.207	19981.71
795.539	19964.53
795.871	19941.03
796.203	19680.02
796.535	19624.43
796.867	19487.03
797.198	19521.61
797.53	19466.24
797.862	19381.04
798.193	19345.11
798.525	19218.56
798.856	19242.74
799.188	18980.15
799.519	19000.72
799.85	18894.05
800.182	18847.05
800.513	18944.45
800.844	18628.75
801.175	18861.96
801.506	18661.29
801.837	18663.55
802.168	18578.13
802.499	18555.98
802.83	18352.82
803.161	18339.04
803.491	18374.97
803.822	18269.21
804.153	18119.16
804.483	18138.59
804.814	17964.81
805.145	17924.36
805.475	17863.34
805.805	17821.54
806.136	17867.64
806.466	17766.62
806.796	17812.95
807.126	17546.97
807.457	17539.28
807.787	17581.32
808.117	17454.99
808.447	17266.07
808.777	17360.31
809.107	17335.67
809.436	17243.02
809.766	17258.84
810.096	17111.73
810.426	17125.06
810.755	17076.47
811.085	17124.61
811.414	17092.74
811.744	16754.45
812.073	16756.93
812.403	16823.6
812.732	16680.78
813.061	16755.35
813.39	16595.13
813.719	16567.33
814.049	16630.61
814.378	16490.27
814.707	16457.51
815.036	16467.22
815.365	16411.63
815.693	16211.86
816.022	16241.01
816.351	16245.99
816.68	16133.45
817.008	16160.34
817.337	15968.7
817.665	15989.72
817.994	15976.39
818.322	15937.97
818.651	15841.7
818.979	15853.45
819.307	15892.32
819.636	15818.65
819.964	15725.32
820.292	15824.53
820.62	15809.61
820.948	15630.41
821.276	15787.69
821.604	15576.17
821.932	15623.63
822.259	15642.84
822.587	15563.07
822.915	15565.1
823.243	15531.2
823.57	15470.64
823.898	15555.16
824.225	15526.23
824.553	15527.59
824.88	15539.11
825.207	15568.49
825.535	15520.13
825.862	15583.63
826.189	15471.32
826.516	15544.99
826.843	15603.74
827.17	15588.6
827.497	15491.65
827.824	15456.85
828.151	15586.57
828.478	15426.8
828.805	15498.66
829.131	15454.59
829.458	15397.87
829.785	15268.84
830.111	15402.84
830.438	15473.12
830.764	15459.34
831.09	15506.12
831.417	15485.78
831.743	15509.73
832.069	15496.4
832.395	15300.7
832.722	15302.96
833.048	15350.42
833.374	15307.7
833.7	15341.15
834.026	15293.47
834.351	15241.49
834.677	15338.89
835.003	15356.52
835.329	15260.02
835.654	15348.16
835.98	15212.11
836.306	15184.77
836.631	15151.78
836.956	15115.85
837.282	15192.23
837.607	15066.13
837.932	15090.54
838.258	15021.38
838.583	14967.83
838.908	14949.97
839.233	14876.3
839.558	14955.4
839.883	14915.17
840.208	14871.56
840.533	14837.89
840.858	14835.17
841.182	14836.76
841.507	14775.06
841.832	14598.57
842.156	14669.3
842.481	14640.6
842.805	14614.62
843.13	14545.01
843.454	14572.13
843.778	14541.85
844.103	14568.29
844.427	14433.83
844.751	14447.84
845.075	14452.13
845.399	14340.5
845.723	14296.43
846.047	14312.48
846.371	14210.33
846.695	14180.73
847.019	14086.49
847.343	13985.03
847.666	14047.62
847.99	13851.47
848.313	13895.76
848.637	13794.07
848.96	13744.13
849.284	13802.43
849.607	13644.25
849.931	13646.05
850.254	13565.83
850.577	13486.51
850.9	13408.09
851.223	13447.64
851.546	13273.41
851.869	13216.01
852.192	13282
852.515	13109.57
852.838	13130.13
853.161	13061.89
853.483	13024.38
853.806	12923.13
854.129	13027.54
854.451	12938.73
854.774	12817.15
855.096	12820.99
855.419	12735.34
855.741	12808.34
856.063	12684.27
856.385	12664.84
856.708	12632.75
857.03	12611.73
857.352	12555.91
857.674	12469.36
857.996	12399.98
858.318	12337.16
858.64	12406.31
858.961	12311.17
859.283	12196.6
859.605	12263.94
859.926	12308.46
860.248	12287.67
860.57	12246.32
860.891	12212.19
861.212	12122.7
861.534	12141.91
861.855	12047.9
862.176	12057.62
862.498	12107.79
862.819	12114.79
863.14	12069.6
863.461	11993.89
863.782	12000.9
864.103	11991.41
864.424	11911.18
864.745	11931.75
865.065	11984.63
865.386	11919.77
865.707	11923.16
866.027	11845.42
866.348	11849.72
866.668	11859.21
866.989	11820.79
867.309	11676.84
867.63	11708.7
867.95	11662.15
868.27	11590.29
868.59	11660.34
868.91	11612.21
869.23	11662.6
869.55	11597.75
869.87	11651.3
870.19	11646.11
870.51	11675.26
870.83	11552.78
871.15	11510.74
871.469	11582.61
871.789	11588.03
872.109	11494.47
872.428	11392.33
872.748	11426.68
873.067	11434.36
873.386	11410.86
873.706	11366.79
874.025	11368.15
874.344	11369.5
874.663	11339
874.982	11304.19
875.301	11322.05
875.62	11273.01
875.939	11251.54
876.258	11263.52
876.577	11224.42
876.896	11201.37
877.214	11202.28
877.533	11230.3
877.852	11252.67
878.17	11154.82
878.489	11080.92
878.807	11099
879.125	11140.13
879.444	11107.14
879.762	11126.57
880.08	11037.08
880.398	11048.38
880.716	11055.84
881.034	10983.07
881.352	11040.92
881.67	10914.83
881.988	10967.25
882.306	10877.09
882.624	10921.83
882.941	10833.92
883.259	10800.48
883.577	10818.11
883.894	10800.25
884.212	10859.69
884.529	10797.54
884.846	10727.71
885.164	10735.17
885.481	10693.36
885.798	10677.32
886.115	10627.38
886.432	10603.2
886.75	10558.45
887.067	10554.38
887.383	10559.36
887.7	10514.38
888.017	10508.96
888.334	10476.87
888.651	10403.43
888.967	10453.14
889.284	10453.82
889.6	10401.85
889.917	10328.85
890.233	10342.19
890.55	10314.62
890.866	10264.9
891.182	10240.72
891.498	10174.51
891.815	10118.46
892.131	10174.05
892.447	10120.27
892.763	10134.73
893.079	10104.45
893.395	10026.26
893.71	10074.4
894.026	9949.88
894.342	9958.69
894.657	9887.51
894.973	9929.99
895.289	9867.17
895.604	9846.38
895.92	9780.39
896.235	9790.11
896.55	9754.18
896.865	9697.46
897.181	9742.2
897.496	9669.44
897.811	9573.39
898.126	9583.79
898.441	9500.4
898.756	9576.33
899.071	9487.52
899.386	9490.46
899.7	9499.5
900.015	9389.22
900.33	9316
900.644	9341.99
900.959	9368.43
901.273	9242.1
901.588	9233.06
901.902	9203.91
902.216	9177.47
902.531	9114.42
902.845	9146.51
903.159	9037.81
903.473	9052.95
903.787	8994.88
904.101	8954.88
904.415	8982.67
904.729	8965.95
905.042	8910.36
905.356	8813.86
905.67	8838.04
905.984	8850.93
906.297	8807.54
906.611	8673.3
906.924	8748.56
907.237	8641.21
907.551	8639.18
907.864	8588.33
908.177	8624.26
908.491	8556.7
908.804	8526.87
909.117	8499.75
909.43	8417.26
909.743	8403.03
910.056	8383.59
910.368	8297.27
910.681	8358.96
910.994	8299.75
911.307	8223.82
911.619	8225.41
911.932	8294.33
912.244	8160.55
912.557	8167.55
912.869	8104.96
913.181	8053.66
913.494	8049.36
913.806	7982.02
914.118	7928.92
914.43	7873.1
914.742	7859.09
915.054	7831.97
915.366	7836.04
915.678	7783.83
915.99	7772.31
916.302	7753.78
916.613	7683.05
916.925	7724.63
917.236	7709.94
917.548	7660.67
917.859	7640.79
918.171	7603.73
918.482	7512.43
918.794	7511.75
919.105	7449.38
919.416	7401.02
919.727	7477.85
920.038	7392.66
920.349	7360.57
920.66	7321.47
920.971	7251.42
921.282	7271.31
921.593	7240.12
921.903	7220.46
922.214	7188.6
922.525	7182.49
922.835	7106.79
923.146	7092.33
923.456	7004.65
923.767	6944.76
924.077	7018.66
924.387	6966.91
924.697	6891.43
925.008	6915.61
925.318	6841.49
925.628	6804.2
925.938	6820.47
926.248	6758.55
926.558	6720.36
926.867	6741.38
927.177	6678.1
927.487	6632.23
927.796	6599.91
928.106	6575.96
928.416	6588.39
928.725	6568.73
929.034	6481.72
929.344	6538.9
929.653	6460.71
929.962	6441.05
930.271	6311.11
930.581	6376.64
930.89	6312.24
931.199	6330.09
931.508	6350.2
931.817	6274.27
932.125	6203.99
932.434	6238.11
932.743	6215.74
933.051	6112.69
933.36	6150.66
933.669	6093.03
933.977	6091.22
934.286	6042.41
934.594	6016.65
934.902	6004.9
935.21	5963.32
935.519	5987.72
935.827	5945.92
936.135	5884
936.443	5827.73
936.751	5812.36
937.059	5815.53
937.367	5767.62
937.674	5819.14
937.982	5759.03
938.29	5713.15
938.597	5726.49
938.905	5639.26
939.213	5627.96
939.52	5610.56
939.827	5676.32
940.135	5611.01
940.442	5594.29
940.749	5574.4
941.056	5497.12
941.363	5460.73
941.67	5508.19
941.977	5418.7
942.284	5373.95
942.591	5346.16
942.898	5356.55
943.205	5346.84
943.511	5359.27
943.818	5329.89
944.125	5253.73
944.431	5278.59
944.738	5248.31
945.044	5322.66
945.35	5212.6
945.657	5195.43
945.963	5178.03
946.269	5089.44
946.575	5080.18
946.881	5060.97
947.187	5037.24
947.493	5051.93
947.799	5033.17
948.105	5032.04
948.41	4909.11
948.716	4927.19
949.022	4885.83
949.327	4924.02
949.633	4829.11
949.938	4859.62
950.244	4831.6
950.549	4835.21
950.854	4745.72
951.16	4778.94
951.465	4742.33
951.77	4759.06
952.075	4718.15
952.38	4705.95
952.685	4672.96
952.99	4642.9
953.294	4625.05
953.599	4591.15
953.904	4570.13
954.209	4554.77
954.513	4584.6
954.818	4520.42
955.122	4555.9
955.426	4523.58
955.731	4481.1
956.035	4409.46
956.339	4404.04
956.643	4428.44
956.948	4391.16
957.252	4402.91
957.556	4331.27
957.86	4332.4
958.163	4299.41
958.467	4307.54
958.771	4265.06
959.075	4289.46
959.378	4259.18
959.682	4245.62
959.985	4243.59
960.289	4172.63
960.592	4132.86
960.896	4187.77
961.199	4171.05
961.502	4110.71
961.805	4119.52
962.108	4107.1
962.411	4069.58
962.714	4068.23
963.017	4008.79
963.32	4053.99
963.623	4015.57
963.926	3964.05
964.228	3927.67
964.531	3965.18
964.833	3944.84
965.136	3866.88
965.438	3884.28
965.741	3861.23
966.043	3852.19
966.345	3805.63
966.648	3820.78
966.95	3818.06
967.252	3748.91
967.554	3780.1
967.856	3776.03
968.158	3795.24
968.46	3763.15
968.761	3725.86
969.063	3700.33
969.365	3666.2
969.666	3611.52
969.968	3656.26
970.269	3629.59
970.571	3581.01
970.872	3612.87
971.174	3559.99
971.475	3555.47
971.776	3547.34
972.077	3535.36
972.378	3501.46
972.679	3486.32
972.98	3475.25
973.281	3448.36
973.582	3451.52
973.883	3463.72
974.183	3426.89
974.484	3433.67
974.785	3405.42
975.085	3388.7
975.386	3389.83
975.686	3350.96
975.986	3324.07
976.287	3312.09
976.587	3290.17
976.887	3288.59
977.187	3291.07
977.487	3244.29
977.787	3261.02
978.087	3244.52
978.387	3234.35
978.687	3242.26
978.987	3189.38
979.286	3158.87
979.586	3179.21
979.885	3164.07
980.185	3114.13
980.484	3101.25
980.784	3100.34
981.083	3083.17
981.382	3127.23
981.682	3084.07
981.981	3087.91
982.28	3035.71
982.579	3028.71
982.878	3014.24
983.177	2990.06
983.475	2977.41
983.774	2973.79
984.073	2939.44
984.372	2939.67
984.67	2920.69
984.969	2930.63
985.267	2910.97
985.566	2898.99
985.864	2843.85
986.162	2845.43
986.461	2806.34
986.759	2821.71
987.057	2840.01
987.355	2795.04
987.653	2820.58
987.951	2765.44
988.249	2772.44
988.547	2776.28
988.844	2722.05
989.142	2723.85
989.44	2681.14
989.737	2720.47
990.035	2704.87
990.332	2666.46
990.63	2664.42
990.927	2683.18
991.224	2657.87
991.521	2626.23
991.819	2649.73
992.116	2577.19
992.413	2603.86
992.71	2618.32
993.006	2576.74
993.303	2571.32
993.6	2562.73
993.897	2533.8
994.193	2536.74
994.49	2537.87
994.787	2538.32
995.083	2466.91
995.379	2492.22
995.676	2456.29
995.972	2458.55
996.268	2440.02
996.565	2444.31
996.861	2421.49
997.157	2379.68
997.453	2388.72
997.749	2372
998.044	2351.89
998.34	2348.5
998.636	2343.3
998.932	2324.32
999.227	2288.61
999.523	2305.11
999.818	2320.93
1000.114	2265.34
1000.409	2239.12
1000.704	2229.4
1001	2239.12
1001.295	2220.14
1001.59	2215.39
1001.885	2205.22
1002.18	2198.22
1002.475	2196.86
1002.77	2198.67
1003.065	2146.24
1003.359	2179.91
1003.654	2138.11
1003.949	2140.59
1004.243	2106.02
1004.538	2115.06
1004.832	2075.51
1005.127	2092.91
1005.421	2066.47
1005.715	2045.45
1006.009	2040.48
1006.304	2054.95
1006.598	1984.89
1006.892	2005.91
1007.186	2012.46
1007.48	1998.22
1007.773	1981.5
1008.067	1947.15
1008.361	1917.77
1008.655	1923.88
1008.948	1944.89
1009.242	1935.63
1009.535	1912.8
1009.829	1886.36
1010.122	1871.67
1010.415	1884.55
1010.708	1857.44
1011.001	1843.2
1011.295	1829.64
1011.588	1835.52
1011.881	1814.05
1012.173	1808.17
1012.466	1798.91
1012.759	1803.65
1013.052	1752.81
1013.344	1790.09
1013.637	1775.86
1013.93	1766.59
1014.222	1760.49
1014.514	1722.3
1014.807	1736.08
1015.099	1706.93
1015.391	1704.9
1015.683	1690.66
1015.976	1679.81
1016.268	1658.57
1016.56	1635.52
1016.851	1650.44
1017.143	1627.61
1017.435	1635.75
1017.727	1631.91
1018.018	1618.35
1018.31	1561.4
1018.602	1592.13
1018.893	1577.9
1019.185	1583.77
1019.476	1542.42
1019.767	1555.07
1020.058	1527.5
1020.35	1508.52
1020.641	1525.69
1020.932	1493.15
1021.223	1492.25
1021.514	1486.37
1021.804	1494.51
1022.095	1469.65
1022.386	1476.66
1022.677	1434.85
1022.967	1445.47
1023.258	1424.68
1023.548	1415.41
1023.839	1418.58
1024.129	1375.42
1024.419	1378.81
1024.709	1389.65
1025	1361.86
1025.29	1364.34
1025.58	1350.78
1025.87	1342.42
1026.16	1315.08
1026.449	1316.43
1026.739	1327.51
1027.029	1296.77
1027.319	1278.7
1027.608	1274.18
1027.898	1294.06
1028.187	1270.56
1028.477	1263.78
1028.766	1268.98
1029.055	1233.95
1029.344	1246.38
1029.634	1229.43
1029.923	1209.54
1030.212	1202.54
1030.501	1201.41
1030.79	1190.11
1031.078	1184.23
1031.367	1175.65
1031.656	1178.36
1031.945	1162.54
1032.233	1173.39
1032.522	1166.16
1032.81	1173.84
1033.099	1150.79
1033.387	1124.8
1033.675	1115.31
1033.963	1089.32
1034.251	1073.05
1034.54	1099.72
1034.828	1069.44
1035.116	1115.76
1035.403	1062.66
1035.691	1084.58
1035.979	1084.12
1036.267	1041.87
1036.554	1052.26
1036.842	1036.89
1037.129	1037.8
1037.417	1012.26
1037.704	1023.79
1037.992	998.02
1038.279	1014.75
1038.566	993.5
1038.853	993.5
1039.14	993.5
