Data from foil_FLMS001491_091.txt Node
Date: Tue Feb 07 11:37:32 GMT 2017
User: dcchb
Spectrometer: FLMS00149
Trigger mode: 0
Integration Time (sec): 2.000000E-2
Scans to average: 10
Electric dark correction enabled: true
Nonlinearity correction enabled: false
Boxcar width: 0
XAxis mode: Wavelengths
Number of Pixels in Spectrum: 2048
>>>>>Begin Spectral Data<<<<<
341.393	-7.23
341.776	-7.23
342.16	-7.23
342.543	-46.33
342.927	-61.24
343.31	-44.07
343.693	-48.59
344.077	-81.35
344.46	-61.47
344.843	-56.95
345.226	-54.01
345.61	-47.23
345.993	-32.54
346.376	-1.81
346.759	24.41
347.142	40.9
347.525	35.93
347.908	52.65
348.291	58.08
348.674	92.65
349.057	123.39
349.44	124.74
349.823	155.93
350.206	173.33
350.588	236.15
350.971	275.7
351.354	277.96
351.737	274.34
352.119	319.77
352.502	327.68
352.884	336.26
353.267	348.01
353.65	323.16
354.032	373.78
354.414	363.15
354.797	349.37
355.179	371.06
355.562	395.92
355.944	393.66
356.326	406.32
356.709	408.8
357.091	390.05
357.473	423.04
357.855	423.49
358.238	423.72
358.62	425.75
359.002	414
359.384	419.65
359.766	424.85
360.148	422.14
360.53	404.06
360.912	426.88
361.294	431.4
361.676	412.19
362.057	406.09
362.439	422.81
362.821	416.71
363.203	415.58
363.584	430.05
363.966	418.52
364.348	442.25
364.729	418.75
365.111	409.93
365.493	425.53
365.874	418.29
366.256	429.37
366.637	421.68
367.019	397.5
367.4	447.22
367.781	446.77
368.163	433.66
368.544	433.21
368.925	445.64
369.306	442.93
369.688	446.09
370.069	434.11
370.45	439.08
370.831	450.38
371.212	443.6
371.593	472.53
371.974	441.8
372.355	463.04
372.736	461.68
373.117	486.09
373.498	444.06
373.879	436.37
374.26	464.39
374.641	459.42
375.021	455.58
375.402	499.65
375.783	512.98
376.163	526.99
376.544	507.33
376.925	507.33
377.305	512.98
377.686	519.76
378.066	520.21
378.447	506.2
378.827	533.32
379.208	534.22
379.588	532.19
379.968	531.29
380.349	544.39
380.729	538.52
381.109	534.9
381.489	557.5
381.87	546.2
382.25	576.93
382.63	586.43
383.01	579.19
383.39	565.86
383.77	577.39
384.15	606.54
384.53	605.86
384.91	597.27
385.29	611.06
385.67	603.15
386.049	638.18
386.429	630.04
386.809	630.72
387.189	628.46
387.568	666.42
387.948	652.19
388.328	683.82
388.707	651.73
389.087	679.08
389.466	704.39
389.846	711.62
390.225	706.65
390.605	692.64
390.984	709.36
391.363	750.49
391.743	731.73
392.122	752.3
392.501	787.32
392.881	752.97
393.26	770.83
393.639	799.75
394.018	776.7
394.397	815.8
394.776	794.33
395.155	846.31
395.534	840.66
395.913	833.88
396.292	856.93
396.671	845.18
397.05	875.46
397.429	882.24
397.808	861.9
398.186	857.83
398.565	891.05
398.944	889.69
399.323	906.87
399.701	920.43
400.08	921.56
400.458	943.93
400.837	967.66
401.215	956.13
401.594	970.6
401.972	959.52
402.351	997.49
402.729	977.6
403.107	983.25
403.486	1022.12
403.864	1027.09
404.242	1027.77
404.62	1052.18
404.999	1064.15
405.377	1085.85
405.755	1100.31
406.133	1105.73
406.511	1114.32
406.889	1119.52
407.267	1138.05
407.645	1150.7
408.023	1194.32
408.401	1205.39
408.779	1208.78
409.156	1225.28
409.534	1237.48
409.912	1243.58
410.29	1283.36
410.667	1288.55
411.045	1317.03
411.422	1355.44
411.8	1312.96
412.178	1357.25
412.555	1385.27
412.933	1413.75
413.31	1417.14
413.687	1437.7
414.065	1433.63
414.442	1456.01
414.819	1474.54
415.197	1529.45
415.574	1525.84
415.951	1537.13
416.328	1576.91
416.705	1549.11
417.082	1580.98
417.46	1589.56
417.837	1645.38
418.214	1637.25
418.591	1664.14
418.967	1674.76
419.344	1690.35
419.721	1711.14
420.098	1698.26
420.475	1743.91
420.852	1748.88
421.228	1761.54
421.605	1816
421.982	1800.4
422.358	1815.32
422.735	1830.23
423.111	1819.16
423.488	1887.63
423.864	1887.86
424.241	1920.4
424.617	1954.07
424.994	1958.82
425.37	1975.77
425.746	1991.13
426.123	2004.69
426.499	2021.19
426.875	2076.1
427.251	2113.16
427.627	2129.21
428.003	2159.72
428.379	2206.27
428.756	2205.59
429.132	2213.28
429.507	2288.08
429.883	2310.45
430.259	2333.27
430.635	2393.84
431.011	2398.13
431.387	2440.16
431.763	2483.78
432.138	2491.23
432.514	2489.65
432.89	2550.22
433.265	2631.57
433.641	2639.93
434.016	2674.05
434.392	2723.09
434.767	2788.18
435.143	2745.01
435.518	2787.05
435.894	2815.07
436.269	2841.28
436.644	2886.48
437.02	2901.39
437.395	2932.35
437.77	2948.4
438.145	3036.98
438.52	3056.19
438.895	3113.36
439.271	3079.92
439.646	3160.59
440.021	3184.78
440.395	3199.69
440.77	3176.87
441.145	3241.27
441.52	3304.32
441.895	3287.15
442.27	3314.04
442.645	3344.09
443.019	3383.19
443.394	3349.29
443.769	3432.68
444.143	3404.2
444.518	3493.02
444.892	3519.68
445.267	3543.18
445.641	3540.7
446.016	3549.51
446.39	3615.5
446.764	3622.28
447.139	3593.35
447.513	3657.98
447.887	3695.5
448.262	3712.22
448.636	3679.23
449.01	3759.68
449.384	3783.63
449.758	3803.29
450.132	3921.03
450.506	3905.21
450.88	3871.76
451.254	3964.19
451.628	4005.09
452.002	3993.79
452.376	4062.72
452.75	4137.97
453.123	4173.45
453.497	4200.57
453.871	4210.51
454.244	4389.26
454.618	4382.48
454.992	4431.97
455.365	4453.89
455.739	4568.69
456.112	4591.29
456.486	4651.4
456.859	4654.11
457.232	4760.78
457.606	4734.11
457.979	4854.11
458.352	4952.41
458.725	4967.78
459.099	5030.83
459.472	5141.56
459.845	5139.98
460.218	5218.62
460.591	5302.69
460.964	5321.22
461.337	5481.44
461.71	5524.6
462.083	5609.8
462.456	5631.94
462.829	5651.83
463.201	5753.75
463.574	5742.9
463.947	5864.48
464.32	6011.14
464.692	6058.37
465.065	6067.41
465.438	6173.62
465.81	6248.2
466.183	6287.29
466.555	6487.29
466.928	6520.73
467.3	6566.83
467.672	6639.83
468.045	6743.55
468.417	6771.8
468.789	6873.94
469.161	6925.69
469.534	7076.42
469.906	7291.79
470.278	7307.38
470.65	7356.87
471.022	7457.88
471.394	7625.56
471.766	7687.48
472.138	7792.34
472.51	7957.76
472.882	8121.59
473.253	8206.56
473.625	8309.84
473.997	8495.37
474.369	8487.46
474.74	8590.28
475.112	8874.57
475.484	8967.45
475.855	9098.52
476.227	9254.67
476.598	9397.72
476.97	9541.67
477.341	9732.85
477.713	9923.13
478.084	9966.29
478.455	10210.35
478.827	10278.6
479.198	10607.18
479.569	10601.53
479.94	10895.53
480.311	10959.94
480.682	11278.12
481.053	11469.98
481.424	11653.48
481.795	11758.11
482.166	12069.06
482.537	12165.1
482.908	12448.03
483.279	12504.76
483.65	12857.74
484.021	12989.49
484.391	13206.21
484.762	13289.82
485.133	13472.64
485.503	13678.06
485.874	13995.11
486.244	14047.54
486.615	14264.94
486.985	14476.91
487.356	14767.75
487.726	14919.83
488.097	15159.15
488.467	15208.64
488.837	15508.52
489.207	15673.03
489.578	15929.07
489.948	16079.8
490.318	16292.45
490.688	16374.03
491.058	16642.27
491.428	16949.84
491.798	17009.27
492.168	17429.37
492.538	17460.11
492.908	17567.22
493.278	17897.61
493.648	17929.25
494.017	18225.06
494.387	18363.13
494.757	18526.07
495.126	18626.63
495.496	18774.2
495.866	18886.96
496.235	19140.74
496.605	19373.95
496.974	19392.94
497.344	19526.04
497.713	19741.63
498.082	19856.88
498.452	20119.24
498.821	20200.15
499.19	20185.68
499.559	20478.56
499.928	20601.04
500.298	20797.19
500.667	21017.98
501.036	20984.76
501.405	21138.65
501.774	21158.54
502.143	21463.39
502.512	21576.16
502.88	21754.46
503.249	21704.74
503.618	21912.64
503.987	22036.03
504.356	22136.82
504.724	22391.05
505.093	22454.55
505.462	22565.73
505.83	22780.87
506.199	23017.7
506.567	23167.3
506.936	23195.77
507.304	23510.34
507.672	23679.15
508.041	23696.78
508.409	23900.61
508.777	24039.59
509.145	24340.38
509.514	24345.12
509.882	24438.45
510.25	24653.14
510.618	24838.44
510.986	24926.35
511.354	25106.91
511.722	25380.58
512.09	25585.54
512.458	25513.68
512.826	25755.71
513.193	26007.68
513.561	26108.01
513.929	26218.52
514.297	26576.7
514.664	26649.92
515.032	26847.43
515.4	27115.9
515.767	27110.25
516.135	27433.85
516.502	27294.65
516.869	27827.97
517.237	27948.42
517.604	27812.15
517.972	28316.54
518.339	28542.3
518.706	28514.96
519.073	28808.73
519.44	28904.78
519.808	29153.58
520.175	29193.81
520.542	29652.33
520.909	29870.18
521.276	29817.3
521.643	30234.01
522.009	30517.39
522.376	30659.31
522.743	30866.76
523.11	31139.07
523.477	31338.61
523.843	31551.71
524.21	31897.47
524.577	32136.56
524.943	32204.12
525.31	32558.24
525.676	32831
526.043	32919.13
526.409	33186.25
526.776	33457.88
527.142	33636.4
527.508	33727.7
527.874	34144.86
528.241	34229.83
528.607	34375.82
528.973	34688.35
529.339	34799.54
529.705	35213.31
530.071	35363.36
530.437	35436.58
530.803	35621.89
531.169	35861.2
531.535	35971.71
531.901	36004.03
532.267	36263.23
532.632	36658.02
532.998	36706.38
533.364	36831.35
533.73	37043.09
534.095	37391.33
534.461	37334.61
534.826	37603.31
535.192	37726.24
535.557	38038.1
535.923	37817.08
536.288	38101.82
536.653	38378.43
537.019	38305.89
537.384	38633.56
537.749	38754.01
538.114	38859.09
538.479	38930.5
538.845	39109.71
539.21	39022.25
539.575	39431.96
539.94	39422.24
540.305	39680.31
540.67	39677.6
541.034	39822.46
541.399	39944.03
541.764	40071.49
542.129	40167.08
542.494	40261.09
542.858	40503.34
543.223	40461.99
543.587	40738.82
543.952	40819.04
544.316	40918.47
544.681	41084.8
545.045	41245.02
545.41	41475.07
545.774	41585.12
546.138	41512.81
546.503	41652.01
546.867	41811.1
547.231	42138.78
547.595	42198.21
547.959	42230.75
548.324	42461.48
548.688	42462.16
549.052	42669.61
549.416	42736.96
549.779	42756.84
550.143	42996.38
550.507	43192.99
550.871	43390.5
551.235	43397.73
551.599	43684.05
551.962	43711.39
552.326	43865.29
552.689	44176.01
553.053	44012.85
553.417	44062.12
553.78	44532.39
554.143	44487.42
554.507	44745.49
554.87	44867.75
555.234	45257.34
555.597	45122.88
555.96	45174.41
556.323	45476.54
556.686	45405.59
557.05	45689.42
557.413	45803.54
557.776	46182.51
558.139	46374.6
558.502	46409.4
558.865	46522.39
559.228	46904.76
559.59	46841.25
559.953	47030.85
560.316	47387.68
560.679	47326.67
561.041	47455.7
561.404	47889.81
561.767	48038.51
562.129	48027.44
562.492	48321.22
562.854	48357.37
563.217	48354.89
563.579	48637.14
563.941	48780.64
564.304	49042.55
564.666	49135.88
565.028	49279.16
565.39	49412.94
565.753	49512.14
566.115	49662.2
566.477	49775.87
566.839	49917.56
567.201	50049.08
567.563	50153.71
567.925	50407.94
568.287	50513.47
568.648	50544.43
569.01	50791.21
569.372	51048.83
569.734	50887.48
570.095	51168.15
570.457	51252.44
570.819	51306.22
571.18	51473.45
571.542	51480
571.903	51595.03
572.265	51718.87
572.626	51885.19
572.987	51890.39
573.349	51947.11
573.71	52005.41
574.071	52269.81
574.432	52241.11
574.794	52490.6
575.155	52437.27
575.516	52503.7
575.877	52524.95
576.238	52517.49
576.599	52627.77
576.96	52692.63
577.32	52655.79
577.681	52874.32
578.042	52895.56
578.403	52987.08
578.763	52959.06
579.124	53044.48
579.485	53132.16
579.845	53178.04
580.206	53189.34
580.566	53153.4
580.927	53160.64
581.287	53282.44
581.648	53148.21
582.008	53352.72
582.368	53236.57
582.728	53255.55
583.089	53277.7
583.449	53310.91
583.809	53332.61
584.169	53377.13
584.529	53301.2
584.889	53528.76
585.249	53286.06
585.609	53288.09
585.969	53515.66
586.329	53395.43
586.688	53431.82
587.048	53400.18
587.408	53357.02
587.768	53364.92
588.127	53380.29
588.487	53347.52
588.846	53610.79
589.206	53286.96
589.565	53348.65
589.925	53550.46
590.284	53430.46
590.643	53398.82
591.003	53514.3
591.362	53547.52
591.721	53514.53
592.08	53504.36
592.44	53569.66
592.799	53545.94
593.158	53449.89
593.517	53373.74
593.876	53488.54
594.235	53436.11
594.593	53454.64
594.952	53524.47
595.311	53426.62
595.67	53558.14
596.029	53742.99
596.387	53736.67
596.746	53743.45
597.104	53608.99
597.463	53618.03
597.822	53827.29
598.18	53648.76
598.538	53659.38
598.897	53790
599.255	53536.9
599.613	53942.31
599.972	53722.66
600.33	53771.47
600.688	53644.24
601.046	53796.1
601.404	53943.44
601.762	53782.77
602.12	53972.37
602.478	53921.52
602.836	53867.96
603.194	53826.61
603.552	53846.04
603.91	53897.34
604.268	53973.95
604.625	53859.6
604.983	54063.21
605.341	53977.79
605.698	54037
606.056	54113.61
606.413	54103.89
606.771	54109.31
607.128	54240.38
607.485	54074.28
607.843	54117.67
608.2	54290.78
608.557	54298.69
608.914	54280.15
609.272	54370.1
609.629	54394.95
609.986	54459.36
610.343	54305.01
610.7	54540.94
611.057	54444.22
611.414	54459.81
611.771	54473.37
612.127	54509.98
612.484	54510.43
612.841	54618.9
613.198	54524.67
613.554	54563.09
613.911	54725.79
614.267	54765.79
614.624	54725.11
614.98	54729.86
615.337	54858.22
615.693	54744.32
616.05	54715.85
616.406	54891.21
616.762	54723.08
617.118	54832.46
617.475	54867.48
617.831	54931.44
618.187	54862.51
618.543	54857.54
618.899	55040.81
619.255	55040.81
619.611	54931.89
619.967	55030.42
620.323	55012.56
620.678	54938.89
621.034	54894.38
621.39	54867.71
621.746	54811.67
622.101	55159.68
622.457	54982.51
622.812	54919.91
623.168	55006.92
623.523	54963.07
623.879	55122.84
624.234	54949.74
624.589	55007.14
624.945	55003.53
625.3	55075.16
625.655	55023.41
626.01	55014.15
626.365	54994.03
626.72	54988.61
627.075	54973.47
627.43	54921.95
627.785	54848.95
628.14	54917.43
628.495	54993.36
628.85	54796.98
629.205	54844.21
629.559	54983.86
629.914	54806.47
630.269	54787.03
630.623	54757.43
630.978	54605.34
631.332	54763.08
631.687	54757.2
632.041	54640.82
632.396	54649.41
632.75	54506.82
633.104	54600.6
633.459	54482.86
633.813	54451
634.167	54382.75
634.521	54421.39
634.875	54441.28
635.229	54356.08
635.583	54201.74
635.937	54227.5
636.291	54214.39
636.645	54174.62
636.999	54119.48
637.352	54166.03
637.706	54035.87
638.06	54091.23
638.413	53987.06
638.767	53959.49
639.121	54072.48
639.474	53753.16
639.828	53872.03
640.181	53803.33
640.534	53762.88
640.888	53615.54
641.241	53562.89
641.594	53568.76
641.947	53664.35
642.301	53509.78
642.654	53467.97
643.007	53486.28
643.36	53380.52
643.713	53357.47
644.066	53377.13
644.419	53165.83
644.771	52982.79
645.124	52591.39
645.477	52505.51
645.83	52374.67
646.182	52255.58
646.535	52249.7
646.888	52289.7
647.24	52157.72
647.593	52250.83
647.945	52216.48
648.298	52043.38
648.65	51908.69
649.002	51809.03
649.355	51962.93
649.707	51824.85
650.059	51950.27
650.411	52320.66
650.763	52343.26
651.115	52691.27
651.467	52469.13
651.819	52437.49
652.171	52496.47
652.523	52304.84
652.875	52340.32
653.227	52210.83
653.578	52404.5
653.93	52353.2
654.282	52205.41
654.633	52166.54
654.985	52197.95
655.337	52127.89
655.688	52115.01
656.039	52176.93
656.391	51884.96
656.742	51919.09
657.094	51965.87
657.445	52019.42
657.796	51989.14
658.147	51752.76
658.498	51803.16
658.849	51891.97
659.2	51745.98
659.551	51686.78
659.902	51790.5
660.253	51609.04
660.604	51750.28
660.955	51630.96
661.306	51684.06
661.656	51677.74
662.007	51508.02
662.358	51520.91
662.708	51449.95
663.059	51481.58
663.409	51124.31
663.76	51501.47
664.11	51378.54
664.461	51390.29
664.811	51321.36
665.161	51390.74
665.511	51296.05
665.862	51287.69
666.212	51360.91
666.562	51370.17
666.912	51165.43
667.262	51137.19
667.612	51122.72
667.962	51185.77
668.312	51089.73
668.662	51228.26
669.011	51188.48
669.361	51045.44
669.711	51084.98
670.06	50929.96
670.41	50873.01
670.76	50847.48
671.109	50884.09
671.459	50807.03
671.808	50777.2
672.157	50828.49
672.507	50634.6
672.856	50605.9
673.205	50774.26
673.554	50822.62
673.904	50617.65
674.253	50792.11
674.602	50718.21
674.951	50144.9
675.3	49977.44
675.649	50459.01
675.998	50355.06
676.346	50400.03
676.695	50497.88
677.044	50286.36
677.393	50299.02
677.741	50337.89
678.09	50241.84
678.438	50191.22
678.787	50252.24
679.135	50131.79
679.484	49961.17
679.832	50013.37
680.181	49950.33
680.529	49807.28
680.877	49794.62
681.225	49709.2
681.573	49954.62
681.922	49667.85
682.27	49501.3
682.618	49524.8
682.966	49425.59
683.314	49467.63
683.661	49386.05
684.009	49124.36
684.357	48985.15
684.705	49097.24
685.053	49112.38
685.4	48916
685.748	48803.24
686.095	48782.45
686.443	48658.16
686.79	48505.84
687.138	48604.6
687.485	48511.72
687.832	48438.5
688.18	48411.38
688.527	48110.15
688.874	48008.23
689.221	48144.5
689.568	47854.56
689.915	47895.92
690.262	47809.14
690.609	47574.12
690.956	47571.63
691.303	47479.2
691.65	47405.31
691.997	47284.18
692.344	47105.43
692.69	46991.76
693.037	47108.59
693.383	46755.83
693.73	46721.26
694.077	46633.8
694.423	46545.44
694.769	46304.32
695.116	46312.68
695.462	46158.56
695.808	45904.78
696.155	46022.29
696.501	45792.92
696.847	45764.22
697.193	45386.83
697.539	45523.32
697.885	45256.89
698.231	45173.5
698.577	45135.99
698.923	44986.16
699.269	44873.85
699.614	44572.16
699.96	44577.58
700.306	44569.45
700.651	44317.48
700.997	44259.18
701.342	44152.96
701.688	44176.92
702.033	43898.05
702.379	43970.37
702.724	43720.43
703.069	43823.71
703.415	43206.32
703.76	43340.33
704.105	43310.73
704.45	43162.03
704.795	43025.99
705.14	42984.18
705.485	42863.96
705.83	42784.19
706.175	42659.9
706.52	42532.89
706.865	42476.4
707.209	42334.25
707.554	42107.14
707.899	42391.2
708.243	41866.02
708.588	41932
708.932	41767.49
709.277	41793.93
709.621	41743.31
709.966	41343.77
710.31	41436.88
710.654	41171.8
710.998	41323.21
711.342	41316.2
711.687	41072.14
712.031	40935.19
712.375	40797.12
712.719	40763.67
713.063	40746.5
713.407	40793.73
713.75	40496.11
714.094	40579.72
714.438	40377.02
714.782	40346.96
715.125	40125.27
715.469	40050.92
715.812	39836.01
716.156	39800.08
716.499	39767.32
716.843	39790.14
717.186	39477.38
717.53	39560.99
717.873	39597.83
718.216	39487.78
718.559	39388.79
718.902	39149.48
719.246	39085.98
719.589	39038.07
719.932	38876.27
720.275	38982.48
720.617	38963.04
720.96	38807.57
721.303	38618.87
721.646	38639.21
721.989	38555.6
722.331	38528.03
722.674	38281.03
723.016	38320.8
723.359	38174.82
723.701	38178.88
724.044	38066.34
724.386	37821.38
724.729	37962.17
725.071	37771.21
725.413	37879.23
725.755	37746.58
726.097	37634.94
726.439	37387.72
726.782	37410.32
727.124	37554.04
727.465	37348.17
727.807	37292.35
728.149	37177.55
728.491	37018.91
728.833	37062.98
729.175	36996.54
729.516	36789.09
729.858	36840.84
730.199	36760.16
730.541	36699.6
730.882	36638.13
731.224	36717
731.565	36503.67
731.906	36566.5
732.248	36487.18
732.589	36312.94
732.93	36065.72
733.271	36074.31
733.612	36099.39
733.953	36155.89
734.294	35868.66
734.635	35763.81
734.976	35888.32
735.317	35562.68
735.658	35673.86
735.999	35679.51
736.339	35583.25
736.68	35557.94
737.021	35429.58
737.361	35249.69
737.702	35390.03
738.042	35314.55
738.383	35178.28
738.723	35235.68
739.063	35015.12
739.404	35223.03
739.744	34931.51
740.084	34849.03
740.424	34887.44
740.764	34810.38
741.104	34828.91
741.444	34664.4
741.784	34482.03
742.124	34578.98
742.464	34482.48
742.804	34445.87
743.143	34377.18
743.483	34324.75
743.823	34165.88
744.162	34056.96
744.502	34083.4
744.841	33972.67
745.181	34083.62
745.52	33809.28
745.86	33792.78
746.199	33731.99
746.538	33695.84
746.877	33635.5
747.216	33494.49
747.556	33505.11
747.895	33401.16
748.234	33277.54
748.573	33235.74
748.911	33188.73
749.25	33225.79
749.589	32933.15
749.928	33025.57
750.267	32901.51
750.605	32952.35
750.944	32810.21
751.283	32712.36
751.621	32724.11
751.96	32422.88
752.298	32430.33
752.636	32470.78
752.975	32365.25
753.313	32106.05
753.651	32213.16
753.989	32097.46
754.327	32008.88
754.666	31894.3
755.004	31803.68
755.342	31923.23
755.679	31766.62
756.017	31585.38
756.355	31613.41
756.693	31338.39
757.031	31430.13
757.368	31356.24
757.706	31209.57
758.044	31158.5
758.381	31121.44
758.719	31062.23
759.056	31154.66
759.394	30816.59
759.731	30691.4
760.068	30620.21
760.405	30540.21
760.743	30300.67
761.08	30503.38
761.417	30290.73
761.754	30149.49
762.091	30055.25
762.428	29874.69
762.765	29820.68
763.102	29892.55
763.438	29692.55
763.775	29492.56
764.112	29675.15
764.449	29455.5
764.785	29208.95
765.122	29210.31
765.458	29129.4
765.795	28878.34
766.131	28982.97
766.467	28676.76
766.804	28599.47
767.14	28445.81
767.476	28446.26
767.812	28372.59
768.148	28356.77
768.485	28310.67
768.821	27986.83
769.157	27903.9
769.492	27860.96
769.828	27936.89
770.164	27546.85
770.5	27494.19
770.836	27489.22
771.171	27357.25
771.507	27288.1
771.842	27051.49
772.178	27122.45
772.513	26893.76
772.849	26932.17
773.184	26742.8
773.519	26603.82
773.855	26539.87
774.19	26229.14
774.525	26239.31
774.86	26247.67
775.195	26130.61
775.53	26022.14
775.865	25861.24
776.2	25655.82
776.535	25501.48
776.87	25517.3
777.205	25326.34
777.539	25287.7
777.874	25376.51
778.209	25014.48
778.543	25055.16
778.878	24882.74
779.212	24927.25
779.547	24778.56
779.881	24741.95
780.215	24653.59
780.55	24696.98
780.884	24361.39
781.218	24395.06
781.552	24325.69
781.886	24092.47
782.22	24023.78
782.554	23896.09
782.888	23657.68
783.222	23565.71
783.556	23478.7
783.889	23531.81
784.223	23387.18
784.557	23184.25
784.89	23237.58
785.224	23109.45
785.557	22959.17
785.891	22867.65
786.224	22896.57
786.558	22715.56
786.891	22555.11
787.224	22545.4
787.557	22398.51
787.891	22299.07
788.224	22346.76
788.557	22322.8
788.89	22170.26
789.223	22177.72
789.556	21976.82
789.888	21890.05
790.221	21799.43
790.554	21627
790.887	21604.4
791.219	21580.45
791.552	21539.55
791.884	21458.87
792.217	21319.44
792.549	21274.02
792.882	21041.03
793.214	21018.2
793.546	21088.03
793.879	20899.11
794.211	20741.6
794.543	20993.57
794.875	20734.82
795.207	20670.19
795.539	20607.37
795.871	20584.32
796.203	20447.15
796.535	20434.94
796.867	20264.78
797.198	20113.14
797.53	20158.34
797.862	20048.51
798.193	19989.76
798.525	19914.5
798.856	19873.38
799.188	19709.09
799.519	19545.7
799.85	19420.05
800.182	19518.58
800.513	19548.41
800.844	19341.86
801.175	19350.68
801.506	19370.11
801.837	19156.78
802.168	19129.89
802.499	18994.53
802.83	18961.76
803.161	18983.68
803.491	18822.1
803.822	18861.88
804.153	18735.1
804.483	18599.51
804.814	18520.87
805.145	18491.72
805.475	18505.05
805.805	18395
806.136	18468.21
806.466	18384.83
806.796	18277.26
807.126	18137.6
807.457	18020.32
807.787	18071.62
808.117	18043.59
808.447	17966.08
808.777	17948
809.107	17810.61
809.436	17815.12
809.766	17852.86
810.096	17824.16
810.426	17637.05
810.755	17756.82
811.085	17570.84
811.414	17583.49
811.744	17348.7
812.073	17398.41
812.403	17289.49
812.732	17274.35
813.061	17267.79
813.39	17183.05
813.719	17194.8
814.049	17176.05
814.378	17025.99
814.707	17012.43
815.036	16940.35
815.365	16830.52
815.693	16716.62
816.022	16746.68
816.351	16788.71
816.68	16620.81
817.008	16576.74
817.337	16487.93
817.665	16600.92
817.994	16551.88
818.322	16473.69
818.651	16386.91
818.979	16316.63
819.307	16345.33
819.636	16191.21
819.964	16205.68
820.292	16236.64
820.62	16136.07
820.948	16157.54
821.276	16218.1
821.604	16122.97
821.932	16170.42
822.259	16172.23
822.587	16089.52
822.915	16068.28
823.243	16046.58
823.57	15995.51
823.898	16024.66
824.225	16011.56
824.553	15978.79
824.88	15969.07
825.207	15916.19
825.535	15988.28
825.862	16013.14
826.189	15877.1
826.516	16112.8
826.843	16073.02
827.17	16001.84
827.497	15883.42
827.824	15906.25
828.151	16018.11
828.478	15888.17
828.805	15936.98
829.131	15874.84
829.458	15879.36
829.785	15805.01
830.111	15857.89
830.438	15960.03
830.764	15943.76
831.09	15895.63
831.417	15820.6
831.743	15887.27
832.069	15842.07
832.395	15739.93
832.722	15790.09
833.048	15685.92
833.374	15753.26
833.7	15687.27
834.026	15672.36
834.351	15720.94
834.677	15699.93
835.003	15678.46
835.329	15764.78
835.654	15587.84
835.98	15504.9
836.306	15582.64
836.631	15465.36
836.956	15558.23
837.282	15585.58
837.607	15378.13
837.932	15499.93
838.258	15453.6
838.583	15382.65
838.908	15422.19
839.233	15402.08
839.558	15355.08
839.883	15165.48
840.208	15170.67
840.533	15192.82
840.858	15193.27
841.182	15252.71
841.507	15289.54
841.832	15038.93
842.156	15095.2
842.481	15006.84
842.805	14982.43
843.13	14927.74
843.454	14952.15
843.778	14810.68
844.103	14855.88
844.427	14785.15
844.751	14880.74
845.075	14873.96
845.399	14836.45
845.723	14607.3
846.047	14639.84
846.371	14530.92
846.695	14584.25
847.019	14444.14
847.343	14325.27
847.666	14280.53
847.99	14174.54
848.313	14280.3
848.637	14130.48
848.96	14034.43
849.284	14068.78
849.607	14036.24
849.931	13950.14
850.254	13737.49
850.577	13772.52
850.9	13699.75
851.223	13670.83
851.546	13567.1
851.869	13486.88
852.192	13552.86
852.515	13459.99
852.838	13373.43
853.161	13360.33
853.483	13357.61
853.806	13294.79
854.129	13284.4
854.451	13154.23
854.774	13206.66
855.096	13139.54
855.419	13055.93
855.741	13000.56
856.063	12943.16
856.385	12919.66
856.708	12921.69
857.03	12803.28
857.352	12906.55
857.674	12745.88
857.996	12846.44
858.318	12709.72
858.64	12738.2
858.961	12673.79
859.283	12571.65
859.605	12523.74
859.926	12503.4
860.248	12457.3
860.57	12434.48
860.891	12478.99
861.212	12400.8
861.534	12386.34
861.855	12413.46
862.176	12434.02
862.498	12274.93
862.819	12355.61
863.14	12292.56
863.461	12268.15
863.782	12308.38
864.103	12205.78
864.424	12206.46
864.745	12211.43
865.065	12156.97
865.386	12092.79
865.707	12098.44
866.027	12154.93
866.348	12062.51
866.668	12122.17
866.989	11988.16
867.309	11923.53
867.63	11990.19
867.95	11932.12
868.27	11878.78
868.59	11940.03
868.91	11859.35
869.23	11870.42
869.55	11828.84
869.87	11887.37
870.19	11879.24
870.51	11878.78
870.83	11864.09
871.15	11803.31
871.469	11804.89
871.789	11708.62
872.109	11668.62
872.428	11586.14
872.748	11736.41
873.067	11603.76
873.386	11576.87
873.706	11749.75
874.025	11518.12
874.344	11490.77
874.663	11520.83
874.982	11468.4
875.301	11486.48
875.62	11504.1
875.939	11392.92
876.258	11499.36
876.577	11489.19
876.896	11398.34
877.214	11377.78
877.533	11397.67
877.852	11388.18
878.17	11365.35
878.489	11395.41
878.807	11397.89
879.125	11329.65
879.444	11296.65
879.762	11262.53
880.08	11277.9
880.398	11190.67
880.716	11238.12
881.034	11175.75
881.352	11156.77
881.67	11177.11
881.988	11161.51
882.306	11119.26
882.624	11135.75
882.941	11037.68
883.259	11027.51
883.577	11058.01
883.894	10991.58
884.212	11005.59
884.529	11030.22
884.846	10893.27
885.164	10851.24
885.481	10922.42
885.798	10860.28
886.115	10784.12
886.432	10811.02
886.75	10735.08
887.067	10817.34
887.383	10694.86
887.7	10765.59
888.017	10649.89
888.334	10687.4
888.651	10614.64
888.967	10562.43
889.284	10538.25
889.6	10538.48
889.917	10479.05
890.233	10468.2
890.55	10466.84
890.866	10464.58
891.182	10371.7
891.498	10384.81
891.815	10338.26
892.131	10331.03
892.447	10281.31
892.763	10192.05
893.079	10276.79
893.395	10180.98
893.71	10110.24
894.026	10132.61
894.342	10165.83
894.657	10007.87
894.973	10000.64
895.289	10034.09
895.604	10022.56
895.92	10009.23
896.235	9885.16
896.55	9891.27
896.865	9810.82
897.181	9844.49
897.496	9839.74
897.811	9799.29
898.126	9762
898.441	9694.66
898.756	9735.34
899.071	9633.42
899.386	9699.41
899.7	9628.22
900.015	9543.48
900.33	9491.5
900.644	9471.62
900.959	9434.55
901.273	9396.36
901.588	9353.43
901.902	9350.49
902.216	9358.85
902.531	9304.16
902.845	9306.65
903.159	9212.87
903.473	9211.96
903.787	9110.04
904.101	9064.85
904.415	9078.41
904.729	9042.93
905.042	8999.09
905.356	8950.5
905.67	8952.98
905.984	8923.16
906.297	8859.88
906.611	8894.91
906.924	8844.74
907.237	8861.01
907.551	8724.74
907.864	8752.99
908.177	8785.31
908.491	8701.69
908.804	8645.42
909.117	8537.4
909.43	8537.85
909.743	8602.94
910.056	8483.17
910.368	8442.49
910.681	8447.91
910.994	8408.82
911.307	8411.98
911.619	8357.75
911.932	8298.54
912.244	8272.1
912.557	8324.07
912.869	8230.52
913.181	8170.63
913.494	8181.93
913.806	8119.56
914.118	8087.47
914.43	8057.64
914.742	8066
915.054	7964.54
915.366	7994.59
915.678	7919.11
915.99	7880.02
916.302	7835.73
916.613	7811.09
916.925	7776.74
917.236	7741.94
917.548	7691.32
917.859	7713.7
918.171	7595.28
918.482	7602.06
918.794	7593.7
919.105	7572.68
919.416	7473.7
919.727	7494.49
920.038	7501.72
920.349	7378.79
920.66	7386.02
920.971	7385.79
921.282	7356.87
921.593	7238.68
921.903	7335.63
922.214	7208.4
922.525	7247.04
922.835	7223.99
923.146	7154.61
923.456	7102.86
923.767	7124.78
924.077	7073.26
924.387	7085.69
924.697	7012.24
925.008	7003.66
925.318	6942.64
925.628	6925.47
925.938	6924.79
926.248	6775.64
926.558	6865.81
926.867	6748.98
927.177	6775.64
927.487	6744
927.796	6668.75
928.106	6648.86
928.416	6644.57
928.725	6624.23
929.034	6649.77
929.344	6611.8
929.653	6603.44
929.962	6471.92
930.271	6460.17
930.581	6502.43
930.89	6381.53
931.199	6423.56
931.508	6401.41
931.817	6346.73
932.125	6333.84
932.434	6312.83
932.743	6232.15
933.051	6232.6
933.36	6237.8
933.669	6203.9
933.977	6164.58
934.286	6157.13
934.594	6120.07
934.902	6040.07
935.21	6034.87
935.519	6011.14
935.827	6000.07
936.135	5989
936.443	5937.7
936.751	5941.54
937.059	5958.71
937.367	5934.31
937.674	5881.65
937.982	5854.54
938.29	5822.67
938.597	5776.8
938.905	5725.05
939.213	5745.61
939.52	5652.28
939.827	5698.61
940.135	5657.03
940.442	5597.59
940.749	5639.63
941.056	5627.87
941.363	5566.86
941.67	5511.27
941.977	5487.31
942.284	5499.29
942.591	5491.83
942.898	5482.79
943.205	5437.6
943.511	5403.25
943.818	5399.86
944.125	5306.53
944.431	5319.63
944.738	5317.37
945.044	5243.48
945.35	5272.86
945.657	5229.69
945.963	5225.17
946.269	5208
946.575	5206.64
946.881	5136.36
947.187	5102.92
947.493	5081
947.799	5100.88
948.105	5041
948.41	5052.75
948.716	5030.15
949.022	4969.36
949.327	4952.86
949.633	4923.49
949.938	4924.16
950.244	4899.53
950.549	4868.12
950.854	4862.02
951.16	4821.79
951.465	4834.68
951.77	4796.71
952.075	4764.17
952.38	4747.22
952.685	4718.97
952.99	4706.77
953.294	4707.9
953.599	4621.35
953.904	4592.42
954.209	4597.62
954.513	4582.93
954.818	4554.23
955.122	4578.86
955.426	4555.81
955.731	4510.62
956.035	4491.86
956.339	4514.46
956.643	4499.54
956.948	4469.26
957.252	4424.74
957.556	4371.41
957.86	4325.99
958.163	4361.24
958.467	4347
958.771	4329.83
959.075	4316.72
959.378	4288.47
959.682	4294.35
959.985	4249.15
960.289	4240.57
960.592	4206.67
960.896	4205.31
961.199	4209.83
961.502	4201.47
961.805	4135.48
962.108	4167.35
962.411	4121.93
962.714	4053.68
963.017	4075.37
963.32	4079.44
963.623	4085.99
963.926	4069.05
964.228	4010.74
964.531	4010.06
964.833	4003.51
965.136	3938.2
965.438	3966
965.741	3955.6
966.043	3920.8
966.345	3864.76
966.648	3853.46
966.95	3869.95
967.252	3799
967.554	3794.02
967.856	3828.83
968.158	3781.6
968.46	3780.24
968.761	3758.32
969.063	3744.31
969.365	3718.09
969.666	3707.47
969.968	3646.68
970.269	3675.38
970.571	3647.14
970.872	3643.52
971.174	3613.69
971.475	3634.93
971.776	3588.15
972.077	3583.63
972.378	3589.74
972.679	3540.25
972.98	3556.29
973.281	3540.47
973.582	3486.01
973.883	3485.56
974.183	3512.68
974.484	3437.88
974.785	3441.72
975.085	3446.24
975.386	3492.56
975.686	3389.74
975.986	3389.74
976.287	3371.21
976.587	3324.88
976.887	3344.54
977.187	3356.75
977.487	3303.64
977.787	3304.32
978.087	3286.92
978.387	3272.68
978.687	3253.7
978.987	3229.07
979.286	3202.4
979.586	3231.1
979.885	3156.75
980.185	3168.96
980.484	3166.92
980.784	3131.67
981.083	3150.2
981.382	3106.13
981.682	3074.04
981.981	3042.41
982.28	3047.38
982.579	3045.12
982.878	3023.65
983.177	3039.02
983.475	3018.45
983.774	3023.42
984.073	3001.28
984.372	2979.13
984.67	2961.73
984.969	2996.53
985.267	2935.74
985.566	2934.84
985.864	2911.11
986.162	2901.39
986.461	2885.12
986.759	2857.55
987.057	2843.09
987.355	2863.65
987.653	2818.01
987.951	2795.86
988.249	2806.71
988.547	2781.4
988.844	2774.39
989.142	2765.8
989.44	2741.17
989.737	2761.96
990.035	2773.49
990.332	2711.34
990.63	2699.59
990.927	2700.27
991.224	2688.29
991.521	2669.31
991.819	2678.12
992.116	2649.87
992.413	2678.12
992.71	2621.17
993.006	2619.37
993.303	2587.95
993.6	2555.19
993.897	2575.3
994.193	2532.36
994.49	2520.16
994.787	2518.13
995.083	2514.51
995.379	2498.01
995.676	2501.63
995.972	2450.33
996.268	2454.17
996.565	2455.3
996.861	2438.13
997.157	2417.79
997.453	2443.55
997.749	2442.2
998.044	2394.29
998.34	2385.7
998.636	2384.34
998.932	2344.35
999.227	2318.36
999.523	2332.14
999.818	2328.53
1000.114	2276.78
1000.409	2320.84
1000.704	2281.75
1001	2293.27
1001.295	2249.43
1001.59	2246.72
1001.885	2241.07
1002.18	2223.67
1002.475	2180.06
1002.77	2234.29
1003.065	2183.9
1003.359	2185.03
1003.654	2158.14
1003.949	2167.4
1004.243	2138.02
1004.538	2156.1
1004.832	2111.81
1005.127	2128.98
1005.421	2114.29
1005.715	2100.51
1006.009	2083.11
1006.304	2050.79
1006.598	2045.37
1006.892	2015.54
1007.186	2023
1007.48	2034.3
1007.773	1980.29
1008.067	2008.53
1008.361	1955.65
1008.655	1972.15
1008.948	1964.24
1009.242	1955.88
1009.535	1931.02
1009.829	1906.16
1010.122	1902.32
1010.415	1876.56
1010.708	1880.4
1011.001	1885.6
1011.295	1846.51
1011.588	1873.62
1011.881	1833.17
1012.173	1832.95
1012.466	1800.63
1012.759	1816.45
1013.052	1807.18
1013.344	1792.95
1013.637	1780.29
1013.93	1783.46
1014.222	1754.76
1014.514	1746.62
1014.807	1715.89
1015.099	1752.5
1015.391	1740.29
1015.683	1712.5
1015.976	1691.03
1016.268	1686.74
1016.56	1683.12
1016.851	1680.86
1017.143	1663.01
1017.435	1634.53
1017.727	1629.79
1018.018	1623.69
1018.31	1589.79
1018.602	1596.12
1018.893	1602.22
1019.185	1578.49
1019.476	1561.77
1019.767	1548.21
1020.058	1561.77
1020.35	1543.91
1020.641	1542.11
1020.932	1541.2
1021.223	1505.5
1021.514	1515.67
1021.804	1475.89
1022.095	1495.1
1022.386	1451.04
1022.677	1442.67
1022.967	1440.64
1023.258	1421.43
1023.548	1427.31
1023.839	1420.08
1024.129	1418.95
1024.419	1427.53
1024.709	1385.95
1025	1380.75
1025.29	1373.98
1025.58	1362.9
1025.87	1359.74
1026.16	1351.38
1026.449	1310.93
1026.739	1317.03
1027.029	1322.9
1027.319	1323.81
1027.608	1313.64
1027.898	1325.61
1028.187	1273.64
1028.477	1275.22
1028.766	1284.71
1029.055	1263.24
1029.344	1246.97
1029.634	1244.26
1029.923	1225.05
1030.212	1237.48
1030.501	1228.89
1030.79	1216.69
1031.078	1200.87
1031.367	1224.83
1031.656	1165.17
1031.945	1189.8
1032.233	1194.54
1032.522	1185.73
1032.81	1159.07
1033.099	1174.66
1033.387	1159.97
1033.675	1152.51
1033.963	1128.11
1034.251	1113.42
1034.54	1114.32
1034.828	1089.91
1035.116	1092.4
1035.403	1079.07
1035.691	1063.02
1035.979	1090.59
1036.267	1075.68
1036.554	1042.46
1036.842	1063.7
1037.129	1022.35
1037.417	1038.84
1037.704	1007.21
1037.992	1021.67
1038.279	1006.08
1038.566	1015.34
1038.853	1015.34
1039.14	1015.34
