Data from foil_FLMS001491_096.txt Node
Date: Tue Feb 07 11:37:33 GMT 2017
User: dcchb
Spectrometer: FLMS00149
Trigger mode: 0
Integration Time (sec): 2.000000E-2
Scans to average: 10
Electric dark correction enabled: true
Nonlinearity correction enabled: false
Boxcar width: 0
XAxis mode: Wavelengths
Number of Pixels in Spectrum: 2048
>>>>>Begin Spectral Data<<<<<
341.393	-15.31
341.776	-15.31
342.16	-15.31
342.543	-61.86
342.927	-67.51
343.31	-79.72
343.693	-74.29
344.077	-69.77
344.46	-81.75
344.843	-42.2
345.226	-42.43
345.61	-25.03
345.993	-14.86
346.376	-4.01
346.759	18.36
347.142	32.15
347.525	44.8
347.908	68.98
348.291	84.57
348.674	96.1
349.057	89.09
349.44	139.04
349.823	127.51
350.206	153.5
350.588	221.75
350.971	274.63
351.354	259.94
351.737	266.94
352.119	283.44
352.502	316.66
352.884	298.35
353.267	332.48
353.65	342.19
354.032	350.78
354.414	371.57
354.797	356.43
355.179	345.13
355.562	384.91
355.944	382.65
356.326	389.88
356.709	411.12
357.091	398.69
357.473	387.84
357.855	407.28
358.238	388.75
358.62	431.23
359.002	398.92
359.384	395.53
359.766	416.32
360.148	405.24
360.53	424.45
360.912	412.25
361.294	415.86
361.676	413.6
362.057	432.14
362.439	413.38
362.821	420.38
363.203	407.73
363.584	405.92
363.966	404.57
364.348	424.23
364.729	402.53
365.111	390.78
365.493	406.83
365.874	402.76
366.256	453.83
366.637	395.3
367.019	434.17
367.4	431.68
367.781	446.37
368.163	444.56
368.544	426.49
368.925	415.19
369.306	423.32
369.688	451.12
370.069	436.88
370.45	434.17
370.831	425.36
371.212	436.88
371.593	443.21
371.974	455.19
372.355	454.96
372.736	455.64
373.117	482.76
373.498	442.08
373.879	440.27
374.26	445.24
374.641	441.63
375.021	458.8
375.402	479.14
375.783	499.25
376.163	516.43
376.544	513.26
376.925	488.63
377.305	502.87
377.686	520.95
378.066	513.94
378.447	509.65
378.827	531.34
379.208	520.04
379.588	525.92
379.968	525.01
380.349	544.45
380.729	544
381.109	542.42
381.489	555.3
381.87	557.78
382.25	566.6
382.63	541.74
383.01	576.99
383.39	589.65
383.77	568.4
384.15	581.28
384.53	609.76
384.91	614.28
385.29	625.58
385.67	592.81
386.049	616.76
386.429	615.86
386.809	657.89
387.189	638.91
387.568	659.47
387.948	643.43
388.328	671.45
388.707	679.13
389.087	677.33
389.466	697.89
389.846	659.7
390.225	705.57
390.605	678.46
390.984	746.03
391.363	715.52
391.743	710.32
392.122	744.67
392.501	739.92
392.881	772.47
393.26	764.33
393.639	776.76
394.018	770.21
394.397	803.2
394.776	828.51
395.155	794.39
395.534	817.89
395.913	812.24
396.292	826.93
396.671	858.56
397.05	836.19
397.429	839.13
397.808	882.75
398.186	883.88
398.565	880.03
398.944	901.05
399.323	917.77
399.701	912.35
400.08	905.8
400.458	940.82
400.837	945.79
401.215	968.62
401.594	936.98
401.972	969.07
402.351	976.53
402.729	987.38
403.107	989.86
403.486	1002.52
403.864	1021.95
404.242	1006.81
404.62	1074.6
404.999	1043.87
405.377	1089.07
405.755	1066.92
406.133	1082.06
406.511	1096.98
406.889	1109.63
407.267	1121.83
407.645	1166.35
408.023	1173.36
408.401	1168.84
408.779	1168.16
409.156	1233.7
409.534	1244.54
409.912	1249.29
410.29	1240.25
410.667	1267.37
411.045	1282.73
411.422	1294.26
411.8	1335.16
412.178	1376.74
412.555	1357.76
412.933	1395.73
413.31	1423.3
413.687	1411.32
414.065	1440.24
414.442	1467.14
414.819	1474.82
415.197	1506.91
415.574	1517.53
415.951	1519.56
416.328	1541.03
416.705	1537.42
417.082	1589.85
417.46	1582.39
417.837	1616.29
418.214	1622.16
418.591	1610.86
418.967	1651.99
419.344	1655.83
419.721	1686.79
420.098	1719.11
420.475	1742.16
420.852	1733.34
421.228	1764.3
421.605	1765.66
421.982	1796.62
422.358	1829.16
422.735	1839.33
423.111	1827.35
423.488	1907.8
423.864	1905.09
424.241	1932.44
424.617	1943.96
424.994	1943.28
425.37	1976.5
425.746	1979.67
426.123	2009.95
426.499	2013.11
426.875	2058.08
427.251	2079.78
427.627	2174.01
428.003	2167.01
428.379	2189.38
428.756	2197.29
429.132	2233.44
429.507	2297.62
429.883	2283.16
430.259	2332.88
430.635	2371.07
431.011	2384.4
431.387	2411.07
431.763	2469.37
432.138	2485.87
432.514	2533.78
432.89	2538.97
433.265	2614.23
433.641	2643.6
434.016	2629.37
434.392	2691.96
434.767	2731.96
435.143	2737.61
435.518	2798.63
435.894	2830.94
436.269	2865.29
436.644	2935.12
437.02	2909.36
437.395	2932.18
437.77	2983.48
438.145	3018.06
438.52	3035.23
438.895	3091.5
439.271	3097.15
439.646	3161.33
440.021	3204.49
440.395	3203.59
440.77	3153.87
441.145	3236.36
441.52	3293.76
441.895	3299.18
442.27	3290.59
442.645	3318.16
443.019	3384.83
443.394	3378.95
443.769	3440.64
444.143	3418.05
444.518	3465.28
444.892	3430.7
445.267	3483.81
445.641	3483.58
446.016	3587.08
446.39	3592.73
446.764	3565.84
447.139	3613.75
447.513	3665.72
447.887	3615.55
448.262	3710.47
448.636	3715.21
449.01	3776.23
449.384	3833.18
449.758	3873.4
450.132	3911.82
450.506	3869.56
450.88	3900.74
451.254	3958.37
451.628	3993.17
452.002	4038.14
452.376	4109.33
452.75	4122.21
453.123	4114.52
453.497	4200.62
453.871	4247.63
454.244	4362.2
454.618	4379.83
454.992	4432.71
455.365	4382.99
455.739	4536.89
456.112	4542.54
456.486	4675.41
456.859	4694.17
457.232	4801.74
457.606	4750.21
457.979	4865.24
458.352	4976.42
458.725	5005.12
459.099	5047.61
459.472	5159.92
459.845	5176.87
460.218	5239.01
460.591	5255.74
460.964	5326.02
461.337	5459.57
461.71	5526.01
462.083	5621.15
462.456	5606.91
462.829	5647.82
463.201	5732.34
463.574	5774.59
463.947	5845.78
464.32	6000.58
464.692	6015.49
465.065	6131.19
465.438	6169.39
465.81	6263.85
466.183	6327.57
466.555	6463.16
466.928	6511.75
467.3	6522.37
467.672	6603.05
468.045	6754.46
468.417	6770.05
468.789	6792.87
469.161	6970.49
469.534	7042.36
469.906	7246.65
470.278	7256.59
470.65	7306.31
471.022	7483.7
471.394	7665.17
471.766	7706.75
472.138	7819.74
472.51	7972.28
472.882	8122.55
473.253	8160.75
473.625	8351.48
473.997	8493.39
474.369	8533.62
474.74	8647.74
475.112	8775.87
475.484	9009.31
475.855	9099.48
476.227	9198.23
476.598	9455.85
476.97	9546.25
477.341	9772.68
477.713	9894.49
478.084	9934.48
478.455	10250.41
478.827	10291.09
479.198	10532.21
479.569	10550.06
479.94	10964.51
480.311	11032.53
480.682	11262.59
481.053	11562.92
481.424	11637.26
481.795	11786.64
482.166	11976.69
482.537	12203.8
482.908	12384.82
483.279	12526.51
483.65	12773.51
484.021	13051.01
484.391	13053.27
484.762	13295.3
485.133	13421.17
485.503	13674.95
485.874	13975.28
486.244	14049.18
486.615	14286.01
486.985	14507.25
487.356	14777.07
487.726	14834.24
488.097	15221.58
488.467	15206.66
488.837	15558.97
489.207	15696.14
489.578	16039.63
489.948	15994.66
490.318	16323.7
490.688	16445.73
491.058	16663.12
491.428	16853.4
491.798	17032.83
492.168	17399.15
492.538	17416.55
492.908	17680.04
493.278	17823.99
493.648	17967.95
494.017	18249.07
494.387	18334.94
494.757	18496.07
495.126	18649.28
495.496	18732.22
495.866	18903.29
496.235	19166.11
496.605	19416.95
496.974	19510.96
497.344	19557.73
497.713	19699.2
498.082	19919.31
498.452	20108.91
498.821	20164.5
499.19	20184.61
499.559	20530.36
499.928	20502.34
500.298	20742.11
500.667	21041.54
501.036	20901.43
501.405	21137.35
501.774	21289.67
502.143	21534.63
502.512	21485.59
502.88	21785.7
503.249	21789.77
503.618	21875.87
503.987	22024.56
504.356	22209.64
504.724	22373.93
505.093	22472.23
505.462	22608.28
505.83	22810.76
506.199	22964.88
506.567	23277.64
506.936	23190.41
507.304	23551.3
507.672	23500
508.041	23727.79
508.409	23954.68
508.777	24055.24
509.145	24264.5
509.514	24384.5
509.882	24495.46
510.25	24581.33
510.618	24859.06
510.986	24937.25
511.354	25223.35
511.722	25294.31
512.09	25510.35
512.458	25556.67
512.826	25914.63
513.193	25996.66
513.561	26126.15
513.929	26391.23
514.297	26602.97
514.664	26823.98
515.032	26949.18
515.4	27175.39
515.767	27188.72
516.135	27406.57
516.502	27312.33
516.869	27747.12
517.237	27998.87
517.604	27895.59
517.972	28288.35
518.339	28499.87
518.706	28606.54
519.073	28725.18
519.44	28978.28
519.808	29196.8
520.175	29371.71
520.542	29698.71
520.909	29855.54
521.276	29941.19
521.643	30209.21
522.009	30374.85
522.376	30573.26
522.743	30779.59
523.11	31202.85
523.477	31417.54
523.843	31462.05
524.21	31978.2
524.577	32311.75
524.943	32372.54
525.31	32524.85
525.676	32784.28
526.043	33022.47
526.409	33105.63
526.776	33586.29
527.142	33670.13
527.508	33849.56
527.874	34037.35
528.241	34309.21
528.607	34401.64
528.973	34759.82
529.339	34741.06
529.705	35196.42
530.071	35349.41
530.437	35460.82
530.803	35803.63
531.169	35989.39
531.535	35907.13
531.901	36010.18
532.267	36230.97
532.632	36553.22
532.998	36678.87
533.364	36876.38
533.73	36914.34
534.095	37385.97
534.461	37376.93
534.826	37622.12
535.192	37794.99
535.557	38049
535.923	37989.34
536.288	38192.27
536.653	38464.13
537.019	38348.43
537.384	38620.06
537.749	38728.98
538.114	38825.25
538.479	38942.31
538.845	39059.37
539.21	39107.95
539.575	39317.89
539.94	39442.41
540.305	39698.9
540.67	39662.29
541.034	39880.59
541.399	40072.9
541.764	40021.38
542.129	40307.25
542.494	40305.89
542.858	40488.71
543.223	40556.05
543.587	40843.5
543.952	40958.08
544.316	41056.83
544.681	40914.69
545.045	41229.25
545.41	41524.39
545.774	41575.69
546.138	41587.89
546.503	41711.28
546.867	41837.83
547.231	42103.81
547.595	42134.77
547.959	42217.7
548.324	42427.42
548.688	42575.43
549.052	42539.05
549.416	42717.58
549.779	42789.44
550.143	43049.09
550.507	43372.93
550.871	43378.58
551.235	43474.17
551.599	43682.52
551.962	43718.68
552.326	43923.65
552.689	44152.12
553.053	43947.15
553.417	44219.46
553.78	44790.74
554.143	44450.41
554.507	44717.52
554.87	44944.64
555.234	45256.27
555.597	45103.73
555.96	45223.73
556.323	45315.7
556.686	45601.34
557.05	45895.57
557.413	45913.65
557.776	46160.65
558.139	46302.12
558.502	46482.22
558.865	46587.76
559.228	46900.52
559.59	46898.48
559.953	46975.09
560.316	47462.76
560.679	47444.91
561.041	47816.65
561.404	47901.62
561.767	48141.39
562.129	47845.13
562.492	48361.04
562.854	48402.85
563.217	48437.43
563.579	48708.38
563.941	48902.27
564.304	49022.95
564.666	49188.59
565.028	49347.91
565.39	49319.66
565.753	49538.64
566.115	49641.24
566.477	49890.5
566.839	49961
567.201	50089.36
567.563	50280.99
567.925	50514.66
568.287	50476.24
568.648	50578.84
569.01	50784.03
569.372	51078.71
569.734	50914.65
570.095	51106.74
570.457	51317.13
570.819	51425.6
571.18	51466.73
571.542	51597.34
571.903	51673.05
572.265	51753.27
572.626	51864.46
572.987	51948.75
573.349	52056.09
573.71	52171.79
574.071	52203.2
574.432	52347.83
574.794	52505.34
575.155	52615.17
575.516	52373.59
575.877	52665.56
576.238	52618.11
576.599	52694.04
576.96	52722.06
577.32	52679.12
577.681	52858.1
578.042	52938.1
578.403	52954.14
578.763	52998.89
579.124	53073.46
579.485	53236.85
579.845	53208.6
580.206	53188.04
580.566	53200.24
580.927	53214.7
581.287	53353.46
581.648	53229.17
582.008	53418.99
582.368	53227.58
582.728	53386
583.089	53298.99
583.449	53361.59
583.809	53407.47
584.169	53436.84
584.529	53270.75
584.889	53512.55
585.249	53467.35
585.609	53372.44
585.969	53497.18
586.329	53289.5
586.688	53431.87
587.048	53402.04
587.408	53323.85
587.768	53444.3
588.127	53434.13
588.487	53364.76
588.846	53585.54
589.206	53402.72
589.565	53453.34
589.925	53446.11
590.284	53451.31
590.643	53564.52
591.003	53560.23
591.362	53652.88
591.721	53459.44
592.08	53490.4
592.44	53579.89
592.799	53608.14
593.158	53435.94
593.517	53562.72
593.876	53509.38
594.235	53488.82
594.593	53494.24
594.952	53538.08
595.311	53597.97
595.67	53583.73
596.029	53705.99
596.387	53741.92
596.746	53751.41
597.104	53543.51
597.463	53599.78
597.822	53767.23
598.18	53606.33
598.538	53595.71
598.897	53940.79
599.255	53548.25
599.613	53958.86
599.972	53758.64
600.33	53893.78
600.688	53689.72
601.046	53865.31
601.404	53936.94
601.762	53862.14
602.12	54016.04
602.478	53946.21
602.836	54028.01
603.194	53874.35
603.552	53889.04
603.91	53758.19
604.268	54082.25
604.625	53925.19
604.983	54004.96
605.341	53918.64
605.698	54109.14
606.056	54106.43
606.413	54036.38
606.771	54198.18
607.128	54199.31
607.485	54090.39
607.843	54088.35
608.2	54236.82
608.557	54353.43
608.914	54272.3
609.272	54378.74
609.629	54396.37
609.986	54501.22
610.343	54404.95
610.7	54539.87
611.057	54456.03
611.414	54400.89
611.771	54448.12
612.127	54586.42
612.484	54524.95
612.841	54648.79
613.198	54577.38
613.554	54562.01
613.911	54719.07
614.267	54764.27
614.624	54736.92
614.98	54801.78
615.337	54952.28
615.693	54850.82
616.05	54812.4
616.406	54957.48
616.762	54821.44
617.118	54818.28
617.475	54861.21
617.831	54914.32
618.187	54825.96
618.543	54921.55
618.899	55096.69
619.255	55038.84
619.611	54999.97
619.967	55049
620.323	55117.7
620.678	54998.61
621.034	54949.35
621.39	54907.31
621.746	54953.64
622.101	55129.91
622.457	54914.54
622.812	55022.11
623.168	55030.25
623.523	55067.76
623.879	55088.78
624.234	54905.73
624.589	55050.59
624.945	55013.98
625.3	55085.39
625.655	55024.15
626.01	55062.79
626.365	55048.1
626.72	55040.87
627.075	55032.51
627.43	54984.37
627.785	54849.69
628.14	54963.58
628.495	54949.8
628.85	54898.05
629.205	54826.19
629.559	54950.48
629.914	54898.95
630.269	54881.55
630.623	54710.03
630.978	54603.82
631.332	54783.02
631.687	54826.19
632.041	54683.36
632.396	54647.89
632.75	54585.74
633.104	54620.54
633.459	54494.89
633.813	54475.69
634.167	54375.58
634.521	54380.77
634.875	54424.16
635.229	54342.36
635.583	54158.86
635.937	54357.05
636.291	54199.76
636.645	54213.55
636.999	54166.09
637.352	54181.68
637.706	53978.98
638.06	54110.27
638.413	54041.8
638.767	53974.46
639.121	53963.16
639.474	53809.04
639.828	53795.48
640.181	53816.72
640.534	53870.5
640.888	53667.57
641.241	53585.99
641.594	53580.12
641.947	53696.5
642.301	53513.68
642.654	53536.5
643.007	53416.05
643.36	53460.57
643.713	53341.48
644.066	53454.92
644.419	53187.13
644.771	52972.67
645.124	52627.15
645.477	52593.7
645.83	52442.52
646.182	52375.63
646.535	52282.3
646.888	52360.71
647.24	52191.45
647.593	52363.65
647.945	52294.5
648.298	52176.54
648.65	52093.38
649.002	51910.1
649.355	51983.32
649.707	51899.93
650.059	51949.65
650.411	52375.63
650.763	52401.39
651.115	52681.61
651.467	52489.07
651.819	52495.17
652.171	52475.29
652.523	52340.15
652.875	52297.44
653.227	52259.7
653.578	52353.26
653.93	52292.92
654.282	52236.65
654.633	52045.02
654.985	52205.24
655.337	52116.88
655.688	52134.28
656.039	52151.68
656.391	51937.45
656.742	51972.02
657.094	51989.2
657.445	52153.94
657.796	51928.63
658.147	51840.73
658.498	51793.5
658.849	51793.5
659.2	51841.18
659.551	51738.36
659.902	51786.27
660.253	51716.66
660.604	51741.07
660.955	51527.06
661.306	51669.88
661.656	51511.7
662.007	51565.93
662.358	51625.59
662.708	51470.57
663.059	51455.2
663.409	51285.94
663.76	51564.8
664.11	51449.33
664.461	51482.32
664.811	51466.73
665.161	51306.5
665.511	51357.12
665.862	51310.35
666.212	51421.53
666.562	51348.54
666.912	51226.96
667.262	51201.2
667.612	51212.5
667.962	51242.1
668.312	51072.84
668.662	51278.26
669.011	51174.3
669.361	51012.5
669.711	51123.91
670.06	51047.08
670.41	50933.18
670.76	50820.19
671.109	51006.62
671.459	50842.56
671.808	50873.97
672.157	51002.11
672.507	50675.56
672.856	50698.16
673.205	50793.52
673.554	50826.06
673.904	50655
674.253	50819.74
674.602	50672.17
674.951	50231.96
675.3	50075.35
675.649	50499.52
675.998	50400.31
676.346	50476.02
676.695	50568.44
677.044	50193.09
677.393	50377.04
677.741	50438.5
678.09	50242.8
678.438	50142.24
678.787	50205.29
679.135	50274.89
679.484	49990.38
679.832	50078.06
680.181	49875.36
680.529	49962.81
680.877	49877.16
681.225	49870.61
681.573	49965.3
681.922	49633.78
682.27	49459.55
682.618	49639.66
682.966	49384.75
683.314	49604.85
683.661	49325.77
684.009	49140.46
684.357	49029.73
684.705	49029.73
685.053	49070.63
685.4	49062.72
685.748	48768.72
686.095	48865.66
686.443	48687.36
686.79	48587.93
687.138	48682.84
687.485	48570.98
687.832	48403.98
688.18	48450.99
688.527	48098.23
688.874	48279.92
689.221	48215.29
689.568	47951.79
689.915	47888.06
690.262	47915.18
690.609	47685.36
690.956	47551.35
691.303	47598.8
691.65	47287.85
691.997	47337.12
692.344	47132.6
692.69	47002.21
693.037	46970.8
693.383	46670.02
693.73	46930.35
694.077	46503.24
694.423	46546.4
694.769	46358.61
695.116	46229.8
695.462	46272.51
695.808	46029.35
696.155	46030.26
696.501	45912.52
696.847	45925.63
697.193	45570.16
697.539	45481.12
697.885	45325.19
698.231	45249.94
698.577	45105.09
698.923	45079.32
699.269	44936.28
699.614	44659
699.96	44746.9
700.306	44771.08
700.651	44653.35
700.997	44280.02
701.342	44194.37
701.688	44129.97
702.033	44059.01
702.379	44036.19
702.724	43908.28
703.069	43899.69
703.415	43385.58
703.76	43462.87
704.105	43418.58
704.45	43336.77
704.795	43041.41
705.14	43004.12
705.485	42941.75
705.83	42789.44
706.175	42819.95
706.52	42646.39
706.865	42483.69
707.209	42458.83
707.554	42172.05
707.899	42353.75
708.243	42077.59
708.588	42012.29
708.932	41845.06
709.277	41656.14
709.621	41768.68
709.966	41462.24
710.31	41479.19
710.654	41235.58
710.998	41194.45
711.342	41203.49
711.687	41114
712.031	40965.53
712.375	40841.92
712.719	40872.88
713.063	40652.32
713.407	40863.61
713.75	40648.93
714.094	40561.25
714.438	40455.94
714.782	40391.08
715.125	40113.35
715.469	40072.22
715.812	39999.46
716.156	39712.46
716.499	39773.02
716.843	39875.62
717.186	39481.73
717.53	39780.03
717.873	39745.45
718.216	39599.47
718.559	39409.19
718.902	39162.19
719.246	39205.13
719.589	39041.74
719.932	39029.31
720.275	39175.07
720.617	38919.03
720.96	38930.33
721.303	38780.05
721.646	38743.44
721.989	38477.91
722.331	38482.66
722.674	38356.34
723.016	38300.29
723.359	38265.27
723.701	38296.68
724.044	38146.17
724.386	37831.6
724.729	38103.46
725.071	37898.27
725.413	37989.34
725.755	37727.88
726.097	37533.98
726.439	37459.86
726.782	37530.82
727.124	37514.78
727.465	37254.44
727.807	37250.6
728.149	37093.77
728.491	37112.08
728.833	37139.64
729.175	37096.03
729.516	36948.46
729.858	36927.67
730.199	36707.79
730.541	36741.92
730.882	36557.51
731.224	36708.92
731.565	36488.81
731.906	36398.2
732.248	36512.54
732.589	36262.61
732.93	36053.57
733.271	36206.34
733.612	36187.81
733.953	36113.01
734.294	35910.75
734.635	35681.38
734.976	36028.04
735.317	35649.51
735.658	35708.04
735.999	35711.43
736.339	35511.44
736.68	35586.24
737.021	35414.49
737.361	35309.18
737.702	35497.2
738.042	35259.92
738.383	35304.66
738.723	35341.05
739.063	35046.14
739.404	35191
739.744	35035.97
740.084	34858.35
740.424	34863.77
740.764	34822.64
741.104	34890.89
741.444	34657.68
741.784	34646.6
742.124	34660.84
742.464	34548.98
742.804	34558.02
743.143	34350.11
743.483	34386.95
743.823	34114.41
744.162	34124.81
744.502	34109.67
744.841	33991.03
745.181	33996.68
745.52	33904.93
745.86	33948.32
746.199	33720.3
746.538	33620.64
746.877	33688.66
747.216	33592.62
747.556	33485.73
747.895	33514.88
748.234	33333.19
748.573	33379.74
748.911	33188.11
749.25	33251.16
749.589	33173.2
749.928	33022.01
750.267	33016.36
750.605	32907.67
750.944	32771.62
751.283	32749.93
751.621	32714.68
751.96	32546.09
752.298	32549.48
752.636	32556.49
752.975	32360.56
753.313	32203.05
753.651	32342.26
753.989	32099.78
754.327	32098.65
754.666	31866.79
755.004	31890.74
755.342	31943.62
755.679	31732.33
756.017	31551.32
756.355	31605.33
756.693	31537.31
757.031	31368.95
757.368	31271.55
757.706	31267.03
758.044	31172.12
758.381	31218.9
758.719	31030.2
759.056	31081.95
759.394	30868.17
759.731	30660.49
760.068	30789.53
760.405	30575.98
760.743	30398.35
761.08	30487.62
761.417	30147.29
761.754	30296.44
762.091	30161.75
762.428	29999.27
762.765	29935.77
763.102	29791.82
763.438	29759.95
763.775	29605.61
764.112	29570.35
764.449	29488.55
764.785	29385.05
765.122	29168.33
765.458	28998.62
765.795	28936.7
766.131	28816.25
766.467	28884.72
766.804	28715.91
767.14	28489.48
767.476	28573.99
767.812	28326.09
768.148	28482.25
768.485	28300.1
768.821	27981.24
769.157	28021.47
769.492	27827.8
769.828	27835.26
770.164	27481.14
770.5	27611.99
770.836	27496.73
771.171	27413.12
771.507	27237.08
771.842	27016.3
772.178	26977.65
772.513	26956.64
772.849	26893.13
773.184	26720.48
773.519	26655.85
773.855	26569.98
774.19	26381.28
774.525	26353.49
774.86	26323.88
775.195	26229.88
775.53	26103.1
775.865	25915.53
776.2	25704.01
776.535	25530.23
776.87	25560.29
777.205	25486.62
777.539	25372.04
777.874	25310.58
778.209	25089.34
778.543	24972.06
778.878	24889.8
779.212	24975.44
779.547	24760.99
779.881	24855.45
780.215	24568
780.55	24555.12
780.884	24381.79
781.218	24405.52
781.552	24290.04
781.886	24208.01
782.22	24059.54
782.554	23888.47
782.888	23648.47
783.222	23651.41
783.556	23554.24
783.889	23485.09
784.223	23297.75
784.557	23159
784.89	23220.91
785.224	23123.52
785.557	22882.84
785.891	22782.51
786.224	22811.89
786.558	22817.76
786.891	22649.18
787.224	22551.55
787.557	22520.59
787.891	22444.66
788.224	22377.55
788.557	22358.34
788.89	22197.44
789.223	22177.55
789.556	21998.12
789.888	21874.74
790.221	21890.33
790.554	21708.64
790.887	21641.97
791.219	21649.66
791.552	21493.73
791.884	21420.96
792.217	21382.09
792.549	21266.39
792.882	21110.69
793.214	21005.83
793.546	21096
793.879	20906.4
794.211	20896.46
794.543	20853.07
794.875	20700.98
795.207	20793.63
795.539	20661.89
795.871	20697.14
796.203	20384.38
796.535	20335.34
796.867	20343.7
797.198	20283.14
797.53	20169.02
797.862	20001.79
798.193	20066.65
798.525	19825.52
798.856	19962.47
799.188	19646.77
799.519	19612.87
799.85	19558.64
800.182	19625.3
800.513	19535.81
800.844	19318.64
801.175	19451.52
801.506	19291.07
801.837	19242.04
802.168	19149.84
802.499	19107.8
802.83	18973.79
803.161	18909.84
803.491	18956.85
803.822	18936.96
804.153	18710.3
804.483	18596.86
804.814	18472.57
805.145	18483.19
805.475	18640.7
805.805	18511.89
806.136	18468.5
806.466	18367.26
806.796	18321.38
807.126	18203.42
807.457	18160.93
807.787	18165.45
808.117	17992.58
808.447	17949.42
808.777	17851.34
809.107	17819.7
809.436	17935.4
809.766	17892.47
810.096	17795.29
810.426	17690.21
810.755	17716.88
811.085	17581.06
811.414	17596.88
811.744	17426.49
812.073	17344.69
812.403	17396.21
812.732	17294.29
813.061	17382.88
813.39	17161.19
813.719	17154.18
814.049	17122.77
814.378	17032.38
814.707	16966.39
815.036	17034.86
815.365	16831.7
815.693	16718.94
816.022	16680.52
816.351	16756.68
816.68	16618.15
817.008	16659.28
817.337	16538.6
817.665	16502.22
817.994	16459.28
818.322	16480.3
818.651	16357.14
818.979	16312.85
819.307	16290.02
819.636	16272.4
819.964	16152.4
820.292	16247.76
820.62	16144.04
820.948	16178.84
821.276	16163.25
821.604	16164.83
821.932	16100.88
822.259	16112.63
822.587	16051.39
822.915	16043.48
823.243	16051.39
823.57	16052.74
823.898	16015.23
824.225	15903.59
824.553	15945.4
824.88	16025.85
825.207	16018.17
825.535	15978.62
825.862	15989.01
826.189	15985.85
826.516	16011.61
826.843	15973.87
827.17	15937.49
827.497	15987.43
827.824	15942.91
828.151	15963.03
828.478	15939.3
828.805	15948.34
829.131	15883.93
829.458	15825.4
829.785	15802.35
830.111	15804.61
830.438	15883.03
830.764	15788.34
831.09	15940.43
831.417	15765.29
831.743	15793.99
832.069	15850.49
832.395	15716.25
832.722	15729.81
833.048	15675.58
833.374	15721.68
833.7	15662.24
834.026	15755.57
834.351	15709.25
834.677	15699.98
835.003	15721.23
835.329	15661.57
835.654	15669.25
835.98	15570.49
836.306	15660.44
836.631	15556.48
836.956	15526.2
837.282	15505.64
837.607	15510.61
837.932	15439.42
838.258	15417.96
838.583	15450.95
838.908	15311.29
839.233	15361.23
839.558	15276.04
839.883	15275.36
840.208	15167.79
840.533	15189.94
840.858	15260.22
841.182	15332.76
841.507	15216.83
841.832	15136.83
842.156	15079.66
842.481	15097.06
842.805	15078.76
843.13	15028.81
843.454	14910.85
843.778	14929.83
844.103	14801.7
844.427	14812.32
844.751	14838.99
845.075	14815.26
845.399	14730.74
845.723	14646.23
846.047	14697.98
846.371	14525.32
846.695	14658.43
847.019	14471.99
847.343	14439.22
847.666	14246.46
847.99	14270.87
848.313	14215.05
848.637	14016.86
848.96	14138.67
849.284	14034.72
849.607	13958.33
849.931	14000.59
850.254	13822.07
850.577	13727.83
850.9	13675.18
851.223	13672.92
851.546	13552.47
851.869	13507.27
852.192	13537.1
852.515	13497.55
852.838	13446.93
853.161	13359.71
853.483	13366.94
853.806	13266.83
854.129	13249.65
854.451	13255.75
854.774	13182.53
855.096	13147.96
855.419	13109.99
855.741	13087.4
856.063	12919.94
856.385	12981.64
856.708	12856.22
857.03	12853.96
857.352	12841.75
857.674	12821.19
857.996	12813.05
858.318	12745.71
858.64	12752.04
858.961	12598.14
859.283	12613.96
859.605	12430.46
859.926	12637.92
860.248	12501.87
860.57	12405.83
860.891	12514.98
861.212	12509.56
861.534	12483.12
861.855	12362.67
862.176	12357.47
862.498	12372.61
862.819	12391.14
863.14	12261.43
863.461	12172.62
863.782	12270.47
864.103	12194.31
864.424	12195.44
864.745	12170.13
865.065	12101.89
865.386	12110.02
865.707	12117.93
866.027	12069.8
866.348	12117.7
866.668	12113.18
866.989	11952.06
867.309	11952.96
867.63	11956.8
867.95	11949.35
868.27	11892.4
868.59	11934.43
868.91	11935.34
869.23	11894.43
869.55	11777.83
869.87	11894.21
870.19	11884.94
870.51	11832.97
870.83	11879.74
871.15	11770.59
871.469	11821.21
871.789	11755.45
872.109	11758.39
872.428	11619.86
872.748	11678.85
873.067	11671.39
873.386	11694.44
873.706	11668
874.025	11596.59
874.344	11514.78
874.663	11616.25
874.982	11533.54
875.301	11542.58
875.62	11448.8
875.939	11431.85
876.258	11464.61
876.577	11450.15
876.896	11454.9
877.214	11348.23
877.533	11458.06
877.852	11418.29
878.17	11367.22
878.489	11383.03
878.807	11350.94
879.125	11373.09
879.444	11315.92
879.762	11264.39
880.08	11268.46
880.398	11232.08
880.716	11252.87
881.034	11191.17
881.352	11179.42
881.67	11193.43
881.988	11124.74
882.306	11192.08
882.624	11109.37
882.941	11096.94
883.259	11072.76
883.577	11008.35
883.894	10945.53
884.212	10901.92
884.529	10976.94
884.846	10935.14
885.164	10966.32
885.481	10813.56
885.798	10903.05
886.115	10805.42
886.432	10782.6
886.75	10760.45
887.067	10746.89
887.383	10755.03
887.7	10625.77
888.017	10601.13
888.334	10661.47
888.651	10638.87
888.967	10541.02
889.284	10595.71
889.6	10527.01
889.917	10516.39
890.233	10546.9
890.55	10445.43
890.866	10481.81
891.182	10462.83
891.498	10370.86
891.815	10334.02
892.131	10310.29
892.447	10296.73
892.763	10224.65
893.079	10224.19
893.395	10197.3
893.71	10117.76
894.026	10138.55
894.342	10138.32
894.657	10032.11
894.973	10060.36
895.289	10032.56
895.604	9980.13
895.92	9955.27
896.235	9910.3
896.55	9938.33
896.865	9864.2
897.181	9835.05
897.496	9899.91
897.811	9810.87
898.126	9748.73
898.441	9674.15
898.756	9737.43
899.071	9645.45
899.386	9603.65
899.7	9622.63
900.015	9513.48
900.33	9442.75
900.644	9505.8
900.959	9458.34
901.273	9436.19
901.588	9423.54
901.902	9339.7
902.216	9336.99
902.531	9312.13
902.845	9263.54
903.159	9249.08
903.473	9192.58
903.787	9125.24
904.101	9103.09
904.415	9029.65
904.729	9050.44
905.042	8934.74
905.356	8976.54
905.67	8995.98
905.984	8941.29
906.297	8940.61
906.611	8896.77
906.924	8861.07
907.237	8847.51
907.551	8739.26
907.864	8816.32
908.177	8781.29
908.491	8715.99
908.804	8640.73
909.117	8590.57
909.43	8538.14
909.743	8591.92
910.056	8522.32
910.368	8469.89
910.681	8438.48
910.994	8418.14
911.307	8386.73
911.619	8365.94
911.932	8334.3
912.244	8267.86
912.557	8247.52
912.869	8206.39
913.181	8214.08
913.494	8129.11
913.806	8168.88
914.118	8062.9
914.43	8059.51
914.742	8051.14
915.054	7998.04
915.366	7983.58
915.678	7917.14
915.99	7913.75
916.302	7848.89
916.613	7831.49
916.925	7807.99
917.236	7801.21
917.548	7728.67
917.859	7659.97
918.171	7669.69
918.482	7612.06
918.794	7553.3
919.105	7598.27
919.416	7501.55
919.727	7538.62
920.038	7468.11
920.349	7350.6
920.66	7344.27
920.971	7433.08
921.282	7344.27
921.593	7320.54
921.903	7302.46
922.214	7243.03
922.525	7212.52
922.835	7184.95
923.146	7112.86
923.456	7111.73
923.767	7096.59
924.077	7088.68
924.387	7087.33
924.697	7019.08
925.008	6989.48
925.318	6942.92
925.628	6962.81
925.938	6857.5
926.248	6856.83
926.558	6827
926.867	6777.05
927.177	6794.68
927.487	6728.24
927.796	6695.47
928.106	6687.11
928.416	6667
928.725	6656.38
929.034	6601.24
929.344	6584.06
929.653	6573.67
929.962	6500.45
930.271	6486.44
930.581	6458.64
930.89	6443.28
931.199	6442.15
931.508	6394.01
931.817	6404.41
932.125	6398.08
932.434	6289.61
932.743	6243.28
933.051	6247.12
933.36	6264.75
933.669	6204.87
933.977	6228.59
934.286	6132.32
934.594	6133.68
934.902	6087.35
935.21	6008.03
935.519	6027.47
935.827	5996.06
936.135	6015.72
936.443	5898.43
936.751	5900.69
937.059	5920.13
937.367	5879.68
937.674	5905.89
937.982	5827.02
938.29	5803.97
938.597	5788.6
938.905	5701.6
939.213	5769.17
939.52	5671.32
939.827	5764.2
940.135	5617.31
940.442	5611.43
940.749	5632.68
941.056	5641.26
941.363	5561.04
941.67	5578.21
941.977	5492.57
942.284	5421.16
942.591	5461.83
942.898	5433.36
943.205	5448.95
943.511	5397.2
943.818	5426.35
944.125	5352.23
944.431	5319.24
944.738	5311.78
945.044	5344.1
945.35	5211.67
945.657	5241.95
945.963	5229.07
946.269	5177.77
946.575	5231.11
946.881	5110.66
947.187	5076.99
947.493	5061.39
947.799	5051.9
948.105	5047.16
948.41	5034.95
948.716	5034.73
949.022	4976.2
949.327	4963.09
949.633	4950.21
949.938	4920.15
950.244	4909.53
950.549	4894.39
950.854	4864.79
951.16	4871.34
951.465	4843.32
951.77	4813.72
952.075	4779.37
952.38	4708.63
952.685	4714.06
952.99	4630.22
953.294	4710.67
953.599	4642.42
953.904	4635.19
954.209	4634.06
954.513	4605.36
954.818	4602.65
955.122	4572.59
955.426	4530.33
955.731	4498.7
956.035	4529.88
956.339	4491.92
956.643	4470.22
956.948	4474.52
957.252	4413.05
957.556	4408.98
957.86	4386.83
958.163	4337.8
958.467	4290.79
958.771	4303.67
959.075	4323.78
959.378	4276.1
959.682	4272.71
959.985	4224.58
960.289	4241.75
960.592	4215.76
960.896	4239.04
961.199	4165.6
961.502	4170.57
961.805	4159.72
962.108	4103.23
962.411	4095.09
962.714	4078.59
963.017	4093.73
963.32	4100.51
963.623	4031.59
963.926	3977.35
964.228	4011.25
964.531	3978.93
964.833	3974.19
965.136	3958.82
965.438	3933.29
965.741	3861.42
966.043	3911.37
966.345	3904.59
966.648	3854.42
966.95	3835.21
967.252	3819.84
967.554	3826.17
967.856	3775.78
968.158	3773.74
968.46	3789.34
968.761	3754.31
969.063	3730.35
969.365	3713.86
969.666	3724.03
969.968	3685.16
970.269	3678.38
970.571	3699.85
970.872	3672.28
971.174	3616.68
971.475	3624.59
971.776	3592.96
972.077	3557.25
972.378	3573.3
972.679	3553.18
972.98	3562.9
973.281	3482
973.582	3496.91
973.883	3524.94
974.183	3470.25
974.484	3450.81
974.785	3450.59
975.085	3456.24
975.386	3409.68
975.686	3408.55
975.986	3340.31
976.287	3369.69
976.587	3368.33
976.887	3313.87
977.187	3328.78
977.487	3303.47
977.787	3260.54
978.087	3256.92
978.387	3276.35
978.687	3218.95
978.987	3246.07
979.286	3216.47
979.586	3180.09
979.885	3170.37
980.185	3126.3
980.484	3133.76
980.784	3136.92
981.083	3151.84
981.382	3115
981.682	3098.05
981.981	3071.84
982.28	3056.47
982.579	3024.16
982.878	3060.32
983.177	3003.14
983.475	2977.15
983.774	2985.29
984.073	2963.59
984.372	2943.48
984.67	2951.62
984.969	2984.16
985.267	2976.93
985.566	2930.83
985.864	2920.21
986.162	2899.19
986.461	2898.51
986.759	2859.64
987.057	2836.59
987.355	2833.2
987.653	2825.74
987.951	2842.92
988.249	2817.84
988.547	2763.6
988.844	2746.65
989.142	2765.18
989.44	2752.53
989.737	2753.66
990.035	2731.06
990.332	2750.94
990.63	2682.92
990.927	2672.98
991.224	2686.54
991.521	2681.12
991.819	2610.84
992.116	2679.99
992.413	2651.74
992.71	2646.09
993.006	2626.43
993.303	2600.89
993.6	2599.76
993.897	2606.09
994.193	2560.67
994.49	2508.69
994.787	2478.86
995.083	2472.31
995.379	2502.82
995.676	2456.49
995.972	2453.33
996.268	2447.45
996.565	2437.96
996.861	2435.25
997.157	2402.25
997.453	2436.6
997.749	2407.68
998.044	2354.57
998.34	2404.51
998.636	2352.54
998.932	2366.32
999.227	2328.36
999.523	2352.54
999.818	2324.52
1000.114	2277.96
1000.409	2296.27
1000.704	2294.01
1001	2263.5
1001.295	2269.38
1001.59	2254.91
1001.885	2215.82
1002.18	2215.14
1002.475	2216.72
1002.77	2203.39
1003.065	2189.6
1003.359	2149.38
1003.654	2136.72
1003.949	2134.92
1004.243	2148.02
1004.538	2150.06
1004.832	2121.81
1005.127	2109.15
1005.421	2100.11
1005.715	2080
1006.009	2071.19
1006.304	2051.08
1006.598	2006.33
1006.892	2042.94
1007.186	1985.54
1007.48	1978.99
1007.773	2013.56
1008.067	1991.42
1008.361	1965.65
1008.655	1978.54
1008.948	1977.86
1009.242	1935.37
1009.535	1936.73
1009.829	1927.46
1010.122	1871.65
1010.415	1875.04
1010.708	1867.8
1011.001	1881.59
1011.295	1838.88
1011.588	1846.56
1011.881	1863.06
1012.173	1811.08
1012.466	1818.09
1012.759	1824.64
1013.052	1791.87
1013.344	1778.54
1013.637	1793.23
1013.93	1781.25
1014.222	1732.67
1014.514	1743.97
1014.807	1715.27
1015.099	1739.67
1015.391	1718.66
1015.683	1699.67
1015.976	1673.68
1016.268	1650.63
1016.56	1674.81
1016.851	1650.63
1017.143	1649.5
1017.435	1635.04
1017.727	1621.93
1018.018	1611.09
1018.31	1602.95
1018.602	1582.84
1018.893	1574.03
1019.185	1586.23
1019.476	1581.03
1019.767	1557.08
1020.058	1556.17
1020.35	1494.71
1020.641	1527.7
1020.932	1506.23
1021.223	1516.63
1021.514	1488.38
1021.804	1469.17
1022.095	1497.42
1022.386	1467.81
1022.677	1466.68
1022.967	1461.04
1023.258	1472.79
1023.548	1421.94
1023.839	1437.98
1024.129	1415.16
1024.419	1388.27
1024.709	1395.05
1025	1363.18
1025.29	1379.68
1025.58	1363.41
1025.87	1341.26
1026.16	1338.33
1026.449	1338.33
1026.739	1328.16
1027.029	1304.2
1027.319	1293.13
1027.608	1286.35
1027.898	1291.1
1028.187	1269.4
1028.477	1265.56
1028.766	1261.94
1029.055	1259.23
1029.344	1252.9
1029.634	1240.48
1029.923	1230.08
1030.212	1227.82
1030.501	1198.67
1030.79	1196.86
1031.078	1185.34
1031.367	1190.31
1031.656	1202.06
1031.945	1170.42
1032.233	1174.26
1032.522	1162.96
1032.81	1154.83
1033.099	1142.85
1033.387	1141.72
1033.675	1131.55
1033.963	1115.06
1034.251	1122.51
1034.54	1098.33
1034.828	1087.26
1035.116	1121.83
1035.403	1091.1
1035.691	1074.15
1035.979	1059.46
1036.267	1063.53
1036.554	1057.2
1036.842	1037.77
1037.129	1023.31
1037.417	1039.8
1037.704	1016.07
1037.992	1010.65
1038.279	1011.33
1038.566	1018.33
1038.853	1018.33
1039.14	1018.33
