Data from foil_FLMS001491_080.txt Node
Date: Tue Feb 07 11:36:43 GMT 2017
User: dcchb
Spectrometer: FLMS00149
Trigger mode: 0
Integration Time (sec): 2.000000E-2
Scans to average: 10
Electric dark correction enabled: true
Nonlinearity correction enabled: false
Boxcar width: 0
XAxis mode: Wavelengths
Number of Pixels in Spectrum: 2048
>>>>>Begin Spectral Data<<<<<
341.393	-14.18
341.776	-14.18
342.16	-14.18
342.543	-64.57
342.927	-63.44
343.31	-44.46
343.693	-74.29
344.077	-66.83
344.46	-65.03
344.843	-52.82
345.226	-16.89
345.61	-40.62
345.993	-29.77
346.376	-3.33
346.759	25.14
347.142	22.88
347.525	13.39
347.908	44.12
348.291	72.14
348.674	97.68
349.057	118.7
349.44	126.15
349.823	147.85
350.206	196.66
350.588	267.62
350.971	245.93
351.354	287.28
351.737	297.45
352.119	313.27
352.502	327.28
352.884	354.85
353.267	339.48
353.65	358.92
354.032	338.8
354.414	390.33
354.797	372.25
355.179	367.96
355.562	390.55
355.944	401.18
356.326	408.86
356.709	416.09
357.091	401.4
357.473	413.38
357.855	421.74
358.238	431.46
358.62	409.54
359.002	423.77
359.384	423.77
359.766	404.57
360.148	426.94
360.53	418.35
360.912	409.54
361.294	423.32
361.676	426.49
362.057	422.87
362.439	419.48
362.821	443.89
363.203	428.52
363.584	438.92
363.966	432.59
364.348	439.59
364.729	427.62
365.111	425.81
365.493	438.46
365.874	435.07
366.256	434.4
366.637	424.45
367.019	426.26
367.4	449.76
367.781	421.97
368.163	439.59
368.544	438.24
368.925	442.3
369.306	449.99
369.688	452.25
370.069	459.48
370.45	461.97
370.831	449.31
371.212	445.24
371.593	459.25
371.974	456.77
372.355	460.38
372.736	471.46
373.117	464
373.498	450.89
373.879	461.06
374.26	453.83
374.641	477.56
375.021	475.75
375.402	472.36
375.783	497.44
376.163	525.69
376.544	536.09
376.925	494.51
377.305	495.18
377.686	513.26
378.066	510.55
378.447	539.48
378.827	532.47
379.208	537.44
379.588	527.95
379.968	523.66
380.349	518.01
380.729	536.99
381.109	537.22
381.489	555.3
381.87	558.46
382.25	558.01
382.63	550.55
383.01	562.98
383.39	573.15
383.77	575.63
384.15	579.7
384.53	589.87
384.91	585.13
385.29	604.33
385.67	611.11
386.049	615.63
386.429	625.12
386.809	627.16
387.189	626.03
387.568	635.52
387.948	660.83
388.328	675.74
388.707	658.34
389.087	662.41
389.466	667.38
389.846	678.91
390.225	677.55
390.605	704.9
390.984	688.85
391.363	740.6
391.743	726.82
392.122	734.5
392.501	723.88
392.881	745.57
393.26	757.32
393.639	774.27
394.018	752.81
394.397	798.23
394.776	770.43
395.155	767.95
395.534	779.47
395.913	812.92
396.292	800.49
396.671	827.38
397.05	834.38
397.429	831.22
397.808	831.67
398.186	832.58
398.565	865.57
398.944	882.52
399.323	855.4
399.701	863.31
400.08	876.87
400.458	903.31
400.837	922.29
401.215	893.59
401.594	909.41
401.972	911.67
402.351	920.48
402.729	958.68
403.107	949.64
403.486	953.7
403.864	970.43
404.242	982.86
404.62	1002.74
404.999	1022.63
405.377	1009.3
405.755	1023.08
406.133	1044.1
406.511	1042.06
406.889	1070.54
407.267	1078.45
407.645	1081.61
408.023	1094.49
408.401	1101.95
408.779	1123.42
409.156	1147.6
409.534	1163.64
409.912	1156.18
410.29	1193.7
410.667	1192.79
411.045	1184.43
411.422	1208.39
411.8	1251.1
412.178	1244.54
412.555	1270.98
412.933	1253.81
413.31	1294.94
413.687	1323.41
414.065	1328.61
414.442	1361.38
414.819	1383.07
415.197	1389.62
415.574	1395.05
415.951	1402.05
416.328	1452.9
416.705	1438.44
417.082	1461.26
417.46	1478.89
417.837	1497.42
418.214	1509.62
418.591	1496.29
418.967	1491.99
419.344	1544.87
419.721	1565.67
420.098	1543.74
420.475	1560.47
420.852	1602.73
421.228	1608.38
421.605	1602.73
421.982	1602.5
422.358	1666
422.735	1707.36
423.111	1652.67
423.488	1699.22
423.864	1757.75
424.241	1732.67
424.617	1769.73
424.994	1750.74
425.37	1784.19
425.746	1798.88
426.123	1814.25
426.499	1813.57
426.875	1869.39
427.251	1899.89
427.627	1932.89
428.003	1957.07
428.379	1967.91
428.756	1973.79
429.132	2031.42
429.507	2015.6
429.883	2048.82
430.259	2072.32
430.635	2078.65
431.011	2122.94
431.387	2151.64
431.763	2169.04
432.138	2221.47
432.514	2245.65
432.89	2239.32
433.265	2308.24
433.641	2317.51
434.016	2346.66
434.392	2376.94
434.767	2444.06
435.143	2430.05
435.518	2426.66
435.894	2462.59
436.269	2514.57
436.644	2554.57
437.02	2574.45
437.395	2580.33
437.77	2609.25
438.145	2653.32
438.52	2672.98
438.895	2694.67
439.271	2709.82
439.646	2772.41
440.021	2782.58
440.395	2776.25
440.77	2783.03
441.145	2800.43
441.52	2857.16
441.895	2888.34
442.27	2864.61
442.645	2926.31
443.019	2915.91
443.394	2959.98
443.769	3002.69
444.143	2981.45
444.518	3036.59
444.892	3003.59
445.267	3072.52
445.641	3069.35
446.016	3070.48
446.39	3103.7
446.764	3102.57
447.139	3120.2
447.513	3183.93
447.887	3196.13
448.262	3191.39
448.636	3270.7
449.01	3225.28
449.384	3243.36
449.758	3318.16
450.132	3347.99
450.506	3384.15
450.88	3389.57
451.254	3401.32
451.628	3399.52
452.002	3517.03
452.376	3482.68
452.75	3519.06
453.123	3559.51
453.497	3625.27
453.871	3637.47
454.244	3735.78
454.618	3751.14
454.992	3758.6
455.365	3840.63
455.739	3895.1
456.112	3993.85
456.486	3946.62
456.859	4054.87
457.232	4091.25
457.606	4098.25
457.979	4147.52
458.352	4260.74
458.725	4246.27
459.099	4260.96
459.472	4354.52
459.845	4410.56
460.218	4422.31
460.591	4501.41
460.964	4510.67
461.337	4635.19
461.71	4672.48
462.083	4731.46
462.456	4768.97
462.829	4807.16
463.201	4874.28
463.574	4888.74
463.947	4971.68
464.32	5056.19
464.692	5073.37
465.065	5132.12
465.438	5223.87
465.81	5295.74
466.183	5268.39
466.555	5421.61
466.928	5422.29
467.3	5434.72
467.672	5548.39
468.045	5692.56
468.417	5658.44
468.789	5737.53
469.161	5820.47
469.534	5871.77
469.906	6030.63
470.278	6144.98
470.65	6103.17
471.022	6282.15
471.394	6357.18
471.766	6408.25
472.138	6480.56
472.51	6605.53
472.882	6727.56
473.253	6814.57
473.625	6937.95
473.997	7050.94
474.369	7066.99
474.74	7153.31
475.112	7287.32
475.484	7445.06
475.855	7581.33
476.227	7624.94
476.598	7836.91
476.97	7923.92
477.341	8078.26
477.713	8172.72
478.084	8198.26
478.455	8444.35
478.827	8520.28
479.198	8813.38
479.569	8821.07
479.94	9049.08
480.311	9092.02
480.682	9261.73
481.053	9508.96
481.424	9657.43
481.795	9721.83
482.166	9911.21
482.537	10014.26
482.908	10208.6
483.279	10286.11
483.65	10529.5
484.021	10719.1
484.391	10823.95
484.762	10944.18
485.133	11017.85
485.503	11223.94
485.874	11407.89
486.244	11493.31
486.615	11693.53
486.985	11896.47
487.356	11995.9
487.726	12215.78
488.097	12411.26
488.467	12461.2
488.837	12793.17
489.207	12877.46
489.578	13081.52
489.948	13121.29
490.318	13398.8
490.688	13360.16
491.058	13673.6
491.428	13767.83
491.798	13963.76
492.168	14180.02
492.538	14285.1
492.908	14425.89
493.278	14579.79
493.648	14598.32
494.017	14849.16
494.387	14845.54
494.757	15048.93
495.126	15161.01
495.496	15268.58
495.866	15445.07
496.235	15570.49
496.605	15747.89
496.974	15840.54
497.344	15948.11
497.713	16066.98
498.082	16200.53
498.452	16321.44
498.821	16318.72
499.19	16502.45
499.559	16618.38
499.928	16673.97
500.298	16879.16
500.667	16958.25
501.036	16973.62
501.405	17090.23
501.774	17217.46
502.143	17383.55
502.512	17459.26
502.88	17749.42
503.249	17726.37
503.618	17897.21
503.987	17883.43
504.356	18013.37
504.724	18104.44
505.093	18339.24
505.462	18310.08
505.83	18422.4
506.199	18539.23
506.567	18787.59
506.936	18826.91
507.304	19097.63
507.672	19110.74
508.041	19281.58
508.409	19376.27
508.777	19505.31
509.145	19733.55
509.514	19704.62
509.882	19878.4
510.25	19962.24
510.618	20151.39
510.986	20291.27
511.354	20388.67
511.722	20605.84
512.09	20746.63
512.458	20736.01
512.826	20964.93
513.193	21005.15
513.561	21097.35
513.929	21322.43
514.297	21461.19
514.664	21660.05
515.032	21751.12
515.4	21948.41
515.767	22081.51
516.135	22161.51
516.502	22155.86
516.869	22583.19
517.237	22608.5
517.604	22607.82
517.972	22943.63
518.339	23115.61
518.706	23203.06
519.073	23292.55
519.44	23487.8
519.808	23741.81
520.175	23693.44
520.542	24125.52
520.909	24212.3
521.276	24162.36
521.643	24495.23
522.009	24647.77
522.376	24826.75
522.743	24994.88
523.11	25351.25
523.477	25397.58
523.843	25607.52
524.21	25910.11
524.577	25968.87
524.943	26243.66
525.31	26209.31
525.676	26551.9
526.043	26779.01
526.409	26914.83
526.776	27301.26
527.142	27132.68
527.508	27367.92
527.874	27680.91
528.241	27688.14
528.607	27909.61
528.973	28123.38
529.339	28128.13
529.705	28567.67
530.071	28682.24
530.437	28814.89
530.803	29067.77
531.169	29175.33
531.535	29137.14
531.901	29276.12
532.267	29430.7
532.632	29668.2
532.998	29628.2
533.364	30013.05
533.73	30164.46
534.095	30294.4
534.461	30327.62
534.826	30480.84
535.192	30746.37
535.557	30894.61
535.923	30841.51
536.288	30930.54
536.653	31133.25
537.019	31052.12
537.384	31353.81
537.749	31520.81
538.114	31603.75
538.479	31592.9
538.845	31827.02
539.21	31886.45
539.575	32017.07
539.94	31975.03
540.305	32310.85
540.67	32229.04
541.034	32345.19
541.399	32595.81
541.764	32735.69
542.129	32821.57
542.494	32882.13
542.858	32979.75
543.223	33042.13
543.587	33313.08
543.952	33297.03
544.316	33375.45
544.681	33348.56
545.045	33703.8
545.41	33803.01
545.774	33949.45
546.138	33939.05
546.503	34100.63
546.867	34002.33
547.231	34381.07
547.595	34480.96
547.959	34532.93
548.324	34468.98
548.688	34727.96
549.052	34885.69
549.416	34833.04
549.779	35086.37
550.143	35122.97
550.507	35450.88
550.871	35572.68
551.235	35527.94
551.599	35819.23
551.962	35872.79
552.326	36070.07
552.689	36197.52
553.053	36081.59
553.417	36240.23
553.78	36587.12
554.143	36514.35
554.507	36714.57
554.87	36878.86
555.234	37109.82
555.597	37134.45
555.96	37307.78
556.323	37514.1
556.686	37519.97
557.05	37743.24
557.413	37860.3
557.776	38006.51
558.139	38146.17
558.502	38357.69
558.865	38392.95
559.228	38752.26
559.59	38885.14
559.953	39031.57
560.316	39298.91
560.679	39290.55
561.041	39538.68
561.404	39649.64
561.767	39985.67
562.129	39865.22
562.492	40335.27
562.854	40436.51
563.217	40361.48
563.579	40657.74
563.941	40911.75
564.304	41010.96
564.666	41283.72
565.028	41289.37
565.39	41464.95
565.753	41801.9
566.115	41853.42
566.477	42025.62
566.839	42117.59
567.201	42438.94
567.563	42506.28
567.925	42816.78
568.287	42855.43
568.648	42787.86
569.01	43167.96
569.372	43417.9
569.734	43185.14
570.095	43579.02
570.457	43670.55
570.819	43709.19
571.18	43799.36
571.542	44012.91
571.903	44173.36
572.265	44267.14
572.626	44292.45
572.987	44578.77
573.349	44558.43
573.71	44665.1
574.071	44828.03
574.432	45033.45
574.794	45222.82
575.155	45151.86
575.516	45199.32
575.877	45242.48
576.238	45389.15
576.599	45407.9
576.96	45541.68
577.32	45618.74
577.681	45782.13
578.042	45972.63
578.403	45891.51
578.763	45835.69
579.124	45977.6
579.485	46160.2
579.845	46238.16
580.206	46167.2
580.566	46094.21
580.927	46186.19
581.287	46467.54
581.648	46194.1
582.008	46402.45
582.368	46211.5
582.728	46518.83
583.089	46383.92
583.449	46324.94
583.809	46459.85
584.169	46512.96
584.529	46491.49
584.889	46775.55
585.249	46517.93
585.609	46389.12
585.969	46642.9
586.329	46485.16
586.688	46617.14
587.048	46556.8
587.408	46531.71
587.768	46454.43
588.127	46455.33
588.487	46474.99
588.846	46795.44
589.206	46436.8
589.565	46624.59
589.925	46748.21
590.284	46557.48
590.643	46653.75
591.003	46710.47
591.362	46773.29
591.721	46695.33
592.08	46722.9
592.44	46876.56
592.799	46918.6
593.158	46787.75
593.517	46722.44
593.876	46754.53
594.235	46671.37
594.593	46571.49
594.952	46861.2
595.311	46554.99
595.67	46801.31
596.029	46965.15
596.387	47016.67
596.746	47022.55
597.104	46893.51
597.463	46837.02
597.822	46936.22
598.18	46798.15
598.538	46844.02
598.897	47227.74
599.255	46841.76
599.613	47397.45
599.972	47196.1
600.33	47152.26
600.688	47015.09
601.046	47106.16
601.404	47205.37
601.762	47126.73
602.12	47335.76
602.478	47351.81
602.836	47250.11
603.194	47076.78
603.552	47272.03
603.91	47100.06
604.268	47512.48
604.625	47258.47
604.983	47354.74
605.341	47256.67
605.698	47554.74
606.056	47707.05
606.413	47512.03
606.771	47708.41
607.128	47809.42
607.485	47457.79
607.843	47667.73
608.2	47814.62
608.557	47968.74
608.914	47736.43
609.272	47931.45
609.629	47942.07
609.986	48205.12
610.343	47922.19
610.7	48181.16
611.057	48116.98
611.414	48112.69
611.771	48144.55
612.127	48323.53
612.484	48142.75
612.841	48368.95
613.198	48247.15
613.554	48192.24
613.911	48447.6
614.267	48289.63
614.624	48254.38
614.98	48429.07
615.337	48636.29
615.693	48468.61
616.05	48552
616.406	48674.03
616.762	48535.96
617.118	48569.17
617.475	48593.36
617.831	48693.69
618.187	48602.17
618.543	48590.19
618.899	48896.17
619.255	48790.64
619.611	48696.4
619.967	48820.24
620.323	48949.28
620.678	48802.84
621.034	48732.56
621.39	48708.83
621.746	48595.16
622.101	49070.18
622.457	48710.64
622.812	48833.35
623.168	48780.47
623.523	48723.52
623.879	48959.9
624.234	48697.08
624.589	48769.62
624.945	48996.06
625.3	48824.08
625.655	48850.52
626.01	48835.16
626.365	48940.46
626.72	48774.59
627.075	48835.16
627.43	48642.62
627.785	48683.3
628.14	48771.88
628.495	48677.19
628.85	48648.04
629.205	48466.8
629.559	48696.63
629.914	48388.61
630.269	48517.42
630.623	48501.61
630.978	48413.92
631.332	48482.4
631.687	48473.58
632.041	48274.49
632.396	48369.18
632.75	48228.17
633.104	48295.06
633.459	48164.89
633.813	48177.09
634.167	48169.64
634.521	48114.27
634.875	48094.39
635.229	47975.52
635.583	47821.4
635.937	47823.21
636.291	47636.32
636.645	47824.11
636.999	47569.2
637.352	47612.14
637.706	47429.54
638.06	47487.4
638.413	47436.1
638.767	47345.03
639.121	47492.14
639.474	47317.91
639.828	47258.02
640.181	47271.58
640.534	47171.02
640.888	47109.33
641.241	46913.4
641.594	47062.1
641.947	47157.69
642.301	47019.16
642.654	46953.17
643.007	46871.59
643.36	46828.43
643.713	46796.79
644.066	46858.49
644.419	46505.27
644.771	46031.16
645.124	45500.78
645.477	45602.7
645.83	45397.51
646.182	45377.39
646.535	45399.77
646.888	45604.28
647.24	45274.8
647.593	45577.62
647.945	45433.66
648.298	45097.4
648.65	45165.65
649.002	45016.73
649.355	45207.68
649.707	44924.75
650.059	44969.04
650.411	45396.6
650.763	45364.97
651.115	45876.59
651.467	45828.68
651.819	45652.42
652.171	45504.17
652.523	45504.17
652.875	45548.46
653.227	45315.7
653.578	45542.14
653.93	45461.69
654.282	45201.81
654.633	45091.75
654.985	45283.16
655.337	45316.83
655.688	45192.54
656.039	45400.44
656.391	44985.99
656.742	45033.45
657.094	45100.11
657.445	45116.38
657.796	44934.47
658.147	44867.8
658.498	44704.64
658.849	44983.05
659.2	44850.18
659.551	44681.59
659.902	44799.56
660.253	44790.07
660.604	44790.52
660.955	44624.19
661.306	44702.38
661.656	44705.55
662.007	44560.92
662.358	44518.21
662.708	44537.42
663.059	44477.98
663.409	44104.89
663.76	44527.25
664.11	44441.15
664.461	44275.73
664.811	44262.4
665.161	44357.76
665.511	44241.38
665.862	44322.73
666.212	44397.31
666.562	44281.83
666.912	44130.2
667.262	44117.99
667.612	44225.56
667.962	44173.13
668.312	44040.71
668.662	44247.71
669.011	44094.49
669.361	44019.46
669.711	44033.93
670.06	43965.45
670.41	43962.06
670.76	43873.25
671.109	44052.68
671.459	43758
671.808	43671.68
672.157	43798.9
672.507	43448.63
672.856	43538.8
673.205	43605.92
673.554	43727.27
673.904	43417.67
674.253	43719.13
674.602	43435.98
674.951	42865.14
675.3	42729.78
675.649	43374.06
675.998	43247.51
676.346	43305.81
676.695	43400.72
677.044	43041.41
677.393	43248.41
677.741	43219.26
678.09	43124.57
678.438	42878.03
678.787	43107.4
679.135	42946.72
679.484	42694.3
679.832	42895.2
680.181	42601.87
680.529	42706.5
680.877	42726.39
681.225	42568.88
681.573	42820.85
681.922	42534.98
682.27	42362.33
682.618	42428.77
682.966	42365.27
683.314	42466.51
683.661	42259.96
684.009	41966.86
684.357	41987.43
684.705	41873.53
685.053	42092.28
685.4	41781.56
685.748	41656.14
686.095	41583.14
686.443	41537.95
686.79	41406.88
687.138	41523.94
687.485	41348.12
687.832	41061.8
688.18	41331.17
688.527	41088.69
688.874	41041.92
689.221	40871.07
689.568	40772.77
689.915	40543.85
690.262	40558.09
690.609	40392.67
690.956	40366
691.303	40512.44
691.65	40156.29
691.997	40195.84
692.344	39873.13
692.69	39851.66
693.037	39982.28
693.383	39587.04
693.73	39575.51
694.077	39307.27
694.423	39408.74
694.769	39243.54
695.116	39211.45
695.462	39153.38
695.808	39000.16
696.155	39041.97
696.501	38754.52
696.847	38665.03
697.193	38348.65
697.539	38570.12
697.885	38168.54
698.231	38086.51
698.577	38065.5
698.923	38115.44
699.269	37857.82
699.614	37727.43
699.96	37776.69
700.306	37799.97
700.651	37549.35
700.997	37366.08
701.342	37268.91
701.688	37383.03
702.033	37094.67
702.379	37087.89
702.724	37041.57
703.069	37061.45
703.415	36607
703.76	36564.74
704.105	36589.38
704.45	36461.02
704.795	36251.98
705.14	36218.99
705.485	36203.85
705.83	36067.13
706.175	36019.9
706.52	35748.72
706.865	35706.91
707.209	35646.8
707.554	35616.75
707.899	35549.18
708.243	35503.08
708.588	35377.21
708.932	35126.59
709.277	35008.18
709.621	35155.29
709.966	34850.21
710.31	35004.33
710.654	34828.97
710.998	34755.98
711.342	34751.46
711.687	34673.95
712.031	34447.29
712.375	34329.32
712.719	34404.12
713.063	34270.57
713.407	34340.17
713.75	34170.01
714.094	34079.84
714.438	33828.09
714.782	33988.32
715.125	33816.34
715.469	33817.25
715.812	33543.36
716.156	33496.8
716.499	33561.43
716.843	33513.98
717.186	33306.53
717.53	33438.73
717.873	33445.05
718.216	33326.86
718.559	33115.57
718.902	32941.56
719.246	33147.43
719.589	32933.65
719.932	32739.31
720.275	32737.95
720.617	32687.33
720.96	32694.11
721.303	32516.94
721.646	32608.24
721.989	32352.43
722.331	32436.94
722.674	32416.15
723.016	32288.7
723.359	32243.28
723.701	32189.27
724.044	32071.76
724.386	31834.93
724.729	32104.75
725.071	31825.66
725.413	31886.68
725.755	31748.15
726.097	31723.29
726.439	31626.57
726.782	31575.05
727.124	31712.22
727.465	31461.38
727.807	31423.64
728.149	31340.48
728.491	31308.84
728.833	31265.45
729.175	31160.59
729.516	31238.33
729.858	31074.27
730.199	31056.64
730.541	30923.31
730.882	30993.59
731.224	30923.76
731.565	30700.04
731.906	30684.45
732.248	30719.47
732.589	30519.03
732.93	30496.88
733.271	30548.63
733.612	30615.3
733.953	30534.85
734.294	30424.34
734.635	30346.38
734.976	30402.87
735.317	30130.56
735.658	30107.74
735.999	30086.5
736.339	29941.19
736.68	30298.69
737.021	30078.14
737.361	29887.86
737.702	30155.42
738.042	29834.53
738.383	29789.56
738.723	29925.37
739.063	29604.93
739.404	29713.85
739.744	29678.6
740.084	29512.05
740.424	29491.94
740.764	29472.95
741.104	29530.35
741.444	29370.36
741.784	29232.96
742.124	29196.8
742.464	29148.44
742.804	28904.38
743.143	29123.13
743.483	29065.73
743.823	28870.03
744.162	28858.96
744.502	28830.94
744.841	28702.35
745.181	28704.16
745.52	28731.73
745.86	28738.74
746.199	28607.89
746.538	28544.62
746.877	28649.7
747.216	28472.75
747.556	28395.24
747.895	28367.45
748.234	28174
748.573	28156.15
748.911	28029.83
749.25	28089.49
749.589	27981.47
749.928	27941.24
750.267	27971.52
750.605	27867.12
750.944	27849.04
751.283	27751.87
751.621	27754.81
751.96	27685.66
752.298	27629.84
752.636	27486.34
752.975	27340.35
753.313	27347.13
753.651	27423.74
753.989	27125.9
754.327	27187.82
754.666	26996.63
755.004	27048.38
755.342	27056.07
755.679	26942.85
756.017	26853.36
756.355	26930.2
756.693	26692.01
757.031	26838.67
757.368	26672.12
757.706	26613.37
758.044	26449.3
758.381	26549.19
758.719	26395.97
759.056	26294.51
759.394	26223.1
759.731	25994.18
760.068	25973.38
760.405	25920.96
760.743	25767.97
761.08	25752.6
761.417	25772.94
761.754	25564.58
762.091	25596.9
762.428	25497.69
762.765	25348.54
763.102	25400.29
763.438	25230.58
763.775	25188.09
764.112	25106.97
764.449	25080.53
764.785	24915.79
765.122	24653.19
765.458	24624.95
765.795	24563.25
766.131	24502.69
766.467	24537.72
766.804	24364.61
767.14	24282.58
767.476	24306.31
767.812	24148.12
768.148	24172.98
768.485	24027
768.821	23903.16
769.157	23894.34
769.492	23762.14
769.828	23741.58
770.164	23549.04
770.5	23531.42
770.836	23452.77
771.171	23277.41
771.507	23258.88
771.842	23133.69
772.178	23023.63
772.513	23093.46
772.849	22950.19
773.184	22781.15
773.519	22736.86
773.855	22677.65
774.19	22516.98
774.525	22425.91
774.86	22484.21
775.195	22372.12
775.53	22249.87
775.865	22178.23
776.2	22035.86
776.535	21878.35
776.87	21842.87
777.205	21679.49
777.539	21641.75
777.874	21669.54
778.209	21458.7
778.543	21505.71
778.878	21349.33
779.212	21370.57
779.547	21178.71
779.881	21168.54
780.215	21060.07
780.55	21041.31
780.884	20876.12
781.218	20792.96
781.552	20886.74
781.886	20654.65
782.22	20625.73
782.554	20424.38
782.888	20434.77
783.222	20216.7
783.556	20188.23
783.889	20079.75
784.223	19934.67
784.557	19901.91
784.89	19987.78
785.224	19802.47
785.557	19673.21
785.891	19747.11
786.224	19594.12
786.558	19632.76
786.891	19340.56
787.224	19384.18
787.557	19122.94
787.891	19216.5
788.224	19193.45
788.557	19049.27
788.89	18970.18
789.223	19066.9
789.556	18930.86
789.888	18687.7
790.221	18753.91
790.554	18606.8
790.887	18654.03
791.219	18457.88
791.552	18445.45
791.884	18429.4
792.217	18254.04
792.549	18290.65
792.882	18015.18
793.214	18070.54
793.546	18088.39
793.879	17908.74
794.211	17847.72
794.543	17907.38
794.875	17864.22
795.207	17935.86
795.539	17709.65
795.871	17660.38
796.203	17511.69
796.535	17400.5
796.867	17387.85
797.198	17413.16
797.53	17321.18
797.862	17238.25
798.193	17308.53
798.525	17231.92
798.856	17226.95
799.188	16995.54
799.519	16985.6
799.85	16869.22
800.182	16887.75
800.513	16809.78
800.844	16643.23
801.175	16676.23
801.506	16717.13
801.837	16523.46
802.168	16509.9
802.499	16440.53
802.83	16408.66
803.161	16362.34
803.491	16440.75
803.822	16370.02
804.153	16278.72
804.483	16131.84
804.814	16038.96
805.145	16017.04
805.475	16041.22
805.805	15950.82
806.136	15976.81
806.466	15885.29
806.796	15946.08
807.126	15687.78
807.457	15666.54
807.787	15589.48
808.117	15559.65
808.447	15476.03
808.777	15628.8
809.107	15463.83
809.436	15391.97
809.766	15359.88
810.096	15339.09
810.426	15288.69
810.755	15351.52
811.085	15335.7
811.414	15124.4
811.744	15027.91
812.073	15056.84
812.403	14907.91
812.732	14886.44
813.061	14936.39
813.39	14893
813.719	14751.53
814.049	14895.03
814.378	14765.77
814.707	14688.71
815.036	14746.11
815.365	14676.73
815.693	14538.88
816.022	14544.53
816.351	14494.36
816.68	14394.48
817.008	14452.78
817.337	14424.31
817.665	14289.4
817.994	14338.66
818.322	14362.16
818.651	14287.14
818.979	14278.33
819.307	14276.97
819.636	14144.54
819.964	14008.95
820.292	14081.95
820.62	14057.31
820.948	14055.28
821.276	14033.59
821.604	14021.83
821.932	14000.82
822.259	14062.06
822.587	13935.74
822.915	13964.44
823.243	13955.62
823.57	13962.63
823.898	13916.98
824.225	13887.37
824.553	13885.12
824.88	13947.26
825.207	13954.94
825.535	13915.17
825.862	13877.88
826.189	13833.82
826.516	13919.69
826.843	13879.01
827.17	13910.43
827.497	13968.5
827.824	13869.75
828.151	13918.79
828.478	13791.56
828.805	13881.73
829.131	13869.07
829.458	13818.22
829.785	13730.77
830.111	13841.5
830.438	13877.66
830.764	13837.88
831.09	13891.44
831.417	13749.07
831.743	13804.44
832.069	13805.12
832.395	13681.05
832.722	13804.89
833.048	13671.11
833.374	13756.3
833.7	13681.28
834.026	13707.27
834.351	13799.47
834.677	13770.32
835.003	13683.76
835.329	13682.86
835.654	13639.02
835.98	13624.56
836.306	13586.37
836.631	13506.82
836.956	13603.09
837.282	13684.44
837.607	13512.02
837.932	13482.41
838.258	13468.63
838.583	13482.19
838.908	13428.18
839.233	13453.04
839.558	13408.52
839.883	13345.47
840.208	13310.89
840.533	13282.42
840.858	13293.27
841.182	13304.34
841.507	13317.67
841.832	13336.88
842.156	13231.12
842.481	13161.07
842.805	13177.56
843.13	13135.76
843.454	13179.37
843.778	13008.08
844.103	13059.6
844.427	13061.18
844.751	13037.91
845.075	12895.76
845.399	12848.53
845.723	12778.25
846.047	12850.11
846.371	12699.38
846.695	12708.2
847.019	12677.46
847.343	12626.62
847.666	12513.4
847.99	12452.16
848.313	12431.82
848.637	12331.71
848.96	12338.26
849.284	12380.07
849.607	12217.59
849.931	12197.25
850.254	12096.24
850.577	12045.84
850.9	11998.61
851.223	12018.27
851.546	11892.17
851.869	11898.27
852.192	11913.87
852.515	11790.03
852.838	11781.44
853.161	11755.45
853.483	11660.99
853.806	11700.31
854.129	11704.83
854.451	11561.11
854.774	11462.58
855.096	11484.5
855.419	11473.43
855.741	11349.14
856.063	11336.93
856.385	11337.61
856.708	11344.84
857.03	11272.3
857.352	11316.14
857.674	11121.35
857.996	11229.14
858.318	11138.75
858.64	11170.16
858.961	11087.9
859.283	10941.92
859.605	10991.18
859.926	11020.33
860.248	11037.05
860.57	10967.45
860.891	10970.16
861.212	10869.6
861.534	10917.96
861.855	10881.35
862.176	10886.55
862.498	10837.51
862.819	10831.64
863.14	10877.51
863.461	10813.78
863.782	10765.42
864.103	10852.88
864.424	10771.75
864.745	10760
865.065	10735.14
865.386	10672.32
865.707	10711.41
866.027	10691.3
866.348	10614.92
866.668	10674.35
866.989	10547.58
867.309	10553.9
867.63	10491.53
867.95	10469.61
868.27	10471.19
868.59	10491.98
868.91	10470.74
869.23	10474.36
869.55	10486.79
869.87	10491.31
870.19	10418.99
870.51	10411.08
870.83	10380.35
871.15	10365.43
871.469	10325.43
871.789	10326.79
872.109	10251.54
872.428	10187.13
872.748	10296.28
873.067	10381.48
873.386	10286.11
873.706	10282.5
874.025	10240.47
874.344	10212.9
874.663	10261.48
874.982	10191.43
875.301	10148.72
875.62	10131.54
875.939	10131.32
876.258	10066.91
876.577	10061.26
876.896	10034.14
877.214	10060.36
877.533	10099.23
877.852	10065.33
878.17	10058.1
878.489	10036.4
878.807	10016.97
879.125	9966.57
879.444	9965.22
879.762	9986.23
880.08	9925.22
880.398	9914.15
880.716	9927.48
881.034	9950.76
881.352	9940.81
881.67	9899.01
881.988	9820.36
882.306	9806.13
882.624	9821.72
882.941	9748.73
883.259	9759.57
883.577	9698.78
883.894	9688.16
884.212	9698.33
884.529	9739.69
884.846	9670.54
885.164	9638.9
885.481	9663.76
885.798	9650.2
886.115	9560.94
886.432	9548.28
886.75	9535.4
887.067	9469.64
887.383	9454.5
887.7	9487.04
888.017	9447.94
888.334	9443.2
888.651	9385.8
888.967	9371.56
889.284	9355.97
889.6	9375.4
889.917	9265.8
890.233	9306.25
890.55	9286.37
890.866	9188.29
891.182	9267.16
891.498	9183.54
891.815	9166.14
892.131	9143.77
892.447	9148.06
892.763	9030.55
893.079	9099.48
893.395	9040.72
893.71	8883.21
894.026	9014.28
894.342	8962.53
894.657	8935.64
894.973	8861.52
895.289	8906.71
895.604	8839.37
895.92	8782.42
896.235	8842.08
896.55	8794.18
896.865	8806.38
897.181	8728.64
897.496	8767.96
897.811	8638.47
898.126	8589.66
898.441	8548.53
898.756	8532.49
899.071	8569.55
899.386	8590.11
899.7	8460.62
900.015	8483.68
900.33	8457.24
900.644	8325.04
900.959	8342.89
901.273	8365.71
901.588	8283.45
901.902	8283.45
902.216	8275.55
902.531	8291.59
902.845	8253.62
903.159	8218.82
903.473	8083.23
903.787	8080.52
904.101	8128.43
904.415	8081.43
904.729	8077.13
905.042	7991.71
905.356	7984.93
905.67	7951.03
905.984	7961.88
906.297	7920.07
906.611	7856.35
906.924	7889.79
907.237	7829.68
907.551	7766.86
907.864	7724.6
908.177	7779.74
908.491	7702.23
908.804	7664.94
909.117	7620.2
909.43	7587.88
909.743	7523.7
910.056	7588.56
910.368	7509.24
910.681	7494.77
910.994	7486.64
911.307	7429.24
911.619	7400.99
911.932	7363.03
912.244	7315.12
912.557	7355.12
912.869	7278.28
913.181	7170.04
913.494	7229.7
913.806	7200.32
914.118	7184.27
914.43	7106.08
914.742	7096.82
915.054	7110.83
915.366	7038.74
915.678	7043.71
915.99	7010.72
916.302	6978.63
916.613	6948.57
916.925	6909.48
917.236	6892.76
917.548	6835.81
917.859	6857.28
918.171	6819.09
918.482	6758.75
918.794	6737.96
919.105	6727.56
919.416	6718.52
919.727	6705.87
920.038	6661.8
920.349	6601.92
920.66	6602.37
920.971	6572.09
921.282	6533.67
921.593	6479.66
921.903	6464.97
922.214	6483.73
922.525	6391.75
922.835	6421.13
923.146	6285.77
923.456	6292.77
923.767	6318.31
924.077	6258.65
924.387	6263.85
924.697	6218.2
925.008	6185.43
925.318	6201.02
925.628	6106.34
925.938	6139.56
926.248	6088.26
926.558	6087.35
926.867	6020.69
927.177	6035.38
927.487	5976.62
927.796	5999.9
928.106	5950.41
928.416	5930.3
928.725	5915.16
929.034	5874.7
929.344	5863.86
929.653	5833.8
929.962	5777.31
930.271	5735.72
930.581	5766.23
930.89	5715.84
931.199	5715.39
931.508	5674.48
931.817	5647.14
932.125	5654.82
932.434	5650.53
932.743	5571.89
933.051	5526.69
933.36	5529.63
933.669	5516.07
933.977	5521.95
934.286	5427.94
934.594	5483.98
934.902	5382.74
935.21	5391.55
935.519	5392.46
935.827	5399.69
936.135	5343.87
936.443	5287.38
936.751	5300.71
937.059	5273.14
937.367	5254.16
937.674	5229.52
937.982	5232.24
938.29	5154.5
938.597	5178
938.905	5098.45
939.213	5097.55
939.52	5096.87
939.827	5130.32
940.135	5053.48
940.442	5002.41
940.749	4959.93
941.056	5016.65
941.363	4970.55
941.67	4919.02
941.977	4911.57
942.284	4901.62
942.591	4829.76
942.898	4818.91
943.205	4819.82
943.511	4764.9
943.818	4778.24
944.125	4788.18
944.431	4751.57
944.738	4766.94
945.044	4731.23
945.35	4706.15
945.657	4710.67
945.963	4667.28
946.269	4637.22
946.575	4596.09
946.881	4604.68
947.187	4585.02
947.493	4577.34
947.799	4554.96
948.105	4522.42
948.41	4480.39
948.716	4477.68
949.022	4494.4
949.327	4472.71
949.633	4440.84
949.938	4378.92
950.244	4408.98
950.549	4368.08
950.854	4338.25
951.16	4363.33
951.465	4327.85
951.77	4310.68
952.075	4289.21
952.38	4274.29
952.685	4250.79
952.99	4205.14
953.294	4175.31
953.599	4164.01
953.904	4123.79
954.209	4126.5
954.513	4125.37
954.818	4171.25
955.122	4056
955.426	4105.03
955.731	4074.3
956.035	4025.49
956.339	4019.84
956.643	4037.46
956.948	3978.03
957.252	3954.08
957.556	3974.87
957.86	3931.03
958.163	3927.41
958.467	3910.69
958.771	3863.68
959.075	3875.66
959.378	3863.91
959.682	3843.8
959.985	3830.69
960.289	3816.23
960.592	3790.01
960.896	3784.59
961.199	3752.27
961.502	3764.7
961.805	3730.81
962.108	3708.66
962.411	3704.82
962.714	3648.77
963.017	3665.5
963.32	3651.03
963.623	3606.97
963.926	3643.35
964.228	3574.65
964.531	3563.58
964.833	3603.8
965.136	3578.04
965.438	3561.77
965.741	3538.49
966.043	3505.05
966.345	3517.93
966.648	3492.39
966.95	3479.29
967.252	3464.15
967.554	3418.95
967.856	3412.4
968.158	3384.6
968.46	3361.55
968.761	3359.52
969.063	3320.2
969.365	3338.27
969.666	3325.17
969.968	3324.94
970.269	3260.99
970.571	3250.37
970.872	3249.01
971.174	3216.47
971.475	3226.19
971.776	3202.68
972.077	3198.39
972.378	3221.21
972.679	3203.59
972.98	3219.63
973.281	3124.27
973.582	3162.23
973.883	3127.43
974.183	3120.88
974.484	3146.87
974.785	3065.51
975.085	3079.07
975.386	3046.98
975.686	3049.47
975.986	3033.65
976.287	3055.57
976.587	3017.83
976.887	3004.95
977.187	3006.08
977.487	2974.67
977.787	2960.88
978.087	2917.04
978.387	2908.45
978.687	2924.95
978.987	2893.77
979.286	2866.2
979.586	2862.58
979.885	2863.71
980.185	2834.33
980.484	2821
980.784	2813.09
981.083	2817.38
981.382	2834.11
981.682	2780.55
981.981	2759.08
982.28	2762.02
982.579	2752.53
982.878	2740.1
983.177	2727.89
983.475	2712.3
983.774	2717.73
984.073	2681.12
984.372	2676.14
984.67	2690.83
984.969	2686.09
985.267	2641.34
985.566	2648.57
985.864	2632.3
986.162	2632.08
986.461	2569.03
986.759	2592.08
987.057	2563.38
987.355	2581.91
987.653	2563.6
987.951	2535.36
988.249	2526.32
988.547	2532.65
988.844	2512.98
989.142	2477.05
989.44	2483.38
989.737	2480.44
990.035	2440.9
990.332	2465.08
990.63	2469.14
990.927	2441.35
991.224	2423.5
991.521	2435.02
991.819	2373.55
992.116	2378.3
992.413	2351.41
992.71	2343.05
993.006	2384.85
993.303	2368.13
993.6	2316.15
993.897	2308.7
994.193	2311.18
994.49	2294.01
994.787	2280
995.083	2298.3
995.379	2235.93
995.676	2264.18
995.972	2252.43
996.268	2204.07
996.565	2218.98
996.861	2197.51
997.157	2190.96
997.453	2186.44
997.749	2161.58
998.044	2158.64
998.34	2168.81
998.636	2170.62
998.932	2122.71
999.227	2127.91
999.523	2135.59
999.818	2086.56
1000.114	2110.74
1000.409	2078.65
1000.704	2050.4
1001	2080.23
1001.295	2043.39
1001.59	2032.09
1001.885	2017.63
1002.18	1994.35
1002.475	1997.74
1002.77	1985.09
1003.065	1953.68
1003.359	1975.6
1003.654	1966.33
1003.949	1961.36
1004.243	1912.32
1004.538	1931.76
1004.832	1896.28
1005.127	1882.27
1005.421	1924.98
1005.715	1881.14
1006.009	1886.11
1006.304	1878.65
1006.598	1856.5
1006.892	1853.34
1007.186	1843.85
1007.48	1821.93
1007.773	1799.56
1008.067	1791.65
1008.361	1821.48
1008.655	1785.32
1008.948	1776.96
1009.242	1756.17
1009.535	1757.52
1009.829	1724.53
1010.122	1722.95
1010.415	1709.16
1010.708	1718.2
1011.001	1705.32
1011.295	1736.73
1011.588	1710.75
1011.881	1690.18
1012.173	1664.19
1012.466	1668.26
1012.759	1657.87
1013.052	1661.48
1013.344	1649.28
1013.637	1626.91
1013.93	1614.03
1014.222	1584.42
1014.514	1581.94
1014.807	1589.39
1015.099	1596.85
1015.391	1580.13
1015.683	1577.42
1015.976	1570.64
1016.268	1561.82
1016.56	1540.35
1016.851	1494.93
1017.143	1497.64
1017.435	1482.28
1017.727	1498.55
1018.018	1479.79
1018.31	1474.82
1018.602	1481.15
1018.893	1484.09
1019.185	1437.31
1019.476	1420.81
1019.767	1403.18
1020.058	1386.69
1020.35	1395.5
1020.641	1404.31
1020.932	1384.43
1021.223	1374.48
1021.514	1339.68
1021.804	1349.4
1022.095	1349.17
1022.386	1336.29
1022.677	1314.82
1022.967	1318.67
1023.258	1311.21
1023.548	1284.77
1023.839	1294.03
1024.129	1281.6
1024.419	1266.01
1024.709	1255.16
1025	1250.65
1025.29	1280.47
1025.58	1250.87
1025.87	1259.68
1026.16	1231.44
1026.449	1219.69
1026.739	1231.89
1027.029	1199.12
1027.319	1174.04
1027.608	1190.53
1027.898	1188.5
1028.187	1161.61
1028.477	1177.2
1028.766	1140.82
1029.055	1148.05
1029.344	1123.19
1029.634	1155.28
1029.923	1166.13
1030.212	1116.86
1030.501	1115.51
1030.79	1099.69
1031.078	1093.59
1031.367	1104.66
1031.656	1076.41
1031.945	1064.89
1032.233	1070.08
1032.522	1068.05
1032.81	1052.01
1033.099	1054.04
1033.387	1041.39
1033.675	1053.36
1033.963	1007.49
1034.251	1056.3
1034.54	1013.82
1034.828	999.8
1035.116	991.22
1035.403	1004.1
1035.691	993.02
1035.979	979.69
1036.267	1005
1036.554	996.41
1036.842	995.96
1037.129	953.93
1037.417	961.39
1037.704	969.75
1037.992	963.2
1038.279	937.43
1038.566	935.17
1038.853	935.17
1039.14	935.17
