Data from foil_FLMS001491_024.txt Node
Date: Tue Feb 07 11:25:40 GMT 2017
User: dcchb
Spectrometer: FLMS00149
Trigger mode: 0
Integration Time (sec): 2.000000E-2
Scans to average: 10
Electric dark correction enabled: true
Nonlinearity correction enabled: false
Boxcar width: 0
XAxis mode: Wavelengths
Number of Pixels in Spectrum: 2048
>>>>>Begin Spectral Data<<<<<
341.393	-7.94
341.776	-7.94
342.16	-7.94
342.543	-51.55
342.927	-59.69
343.31	-85.9
343.693	-82.51
344.077	-55.39
344.46	-61.72
344.843	-46.58
345.226	-42.06
345.61	-20.37
345.993	-21.04
346.376	-10.88
346.759	21.44
347.142	24.38
347.525	33.64
347.908	66.86
348.291	82.91
348.674	91.04
349.057	106.18
349.44	128.78
349.823	154.09
350.206	171.94
350.588	259.63
350.971	267.31
351.354	288.55
351.737	309.34
352.119	302.11
352.502	347.76
352.884	331.49
353.267	374.43
353.65	359.51
354.032	375.78
354.414	397.48
354.797	375.56
355.179	391.15
355.562	419.17
355.944	411.94
356.326	409.23
356.709	417.36
357.091	422.11
357.473	432.95
357.855	436.8
358.238	440.86
358.62	439.51
359.002	436.34
359.384	425.5
359.766	459.17
360.148	457.81
360.53	473.63
360.912	456.91
361.294	433.86
361.676	447.42
362.057	447.87
362.439	432.95
362.821	433.41
363.203	442.67
363.584	458.26
363.966	428.89
364.348	450.81
364.729	451.03
365.111	446.06
365.493	460.3
365.874	464.37
366.256	450.58
366.637	440.86
367.019	463.01
367.4	466.85
367.781	441.09
368.163	484.7
368.544	453.52
368.925	472.05
369.306	480.86
369.688	484.03
370.069	484.93
370.45	474.54
370.831	474.99
371.212	502.11
371.593	480.64
371.974	498.49
372.355	509.34
372.736	498.94
373.117	508.88
373.498	500.3
373.879	521.99
374.26	508.21
374.641	507.53
375.021	500.75
375.402	512.05
375.783	536.45
376.163	552.5
376.544	555.89
376.925	538.49
377.305	569.67
377.686	575.1
378.066	584.14
378.447	585.49
378.827	588.43
379.208	574.42
379.588	577.13
379.968	569.67
380.349	593.85
380.729	624.59
381.109	608.09
381.489	594.76
381.87	626.4
382.25	607.41
382.63	637.02
383.01	645.38
383.39	661.65
383.77	653.74
384.15	652.16
384.53	658.71
384.91	693.29
385.29	694.87
385.67	698.71
386.049	675.89
386.429	722.21
386.809	722.66
387.189	740.97
387.568	738.71
387.948	729.67
388.328	727.41
388.707	745.26
389.087	772.38
389.466	769.67
389.846	785.94
390.225	790.91
390.605	827.75
390.984	807.86
391.363	847.41
391.743	859.61
392.122	839.72
392.501	837.46
392.881	844.92
393.26	845.37
393.639	870.68
394.018	884.69
394.397	908.65
394.776	923.11
395.155	902.55
395.534	934.18
395.913	914.98
396.292	923.56
396.671	942.32
397.05	970.12
397.429	971.92
397.808	971.92
398.186	973.51
398.565	1004.24
398.944	1019.83
399.323	1014.41
399.701	1031.36
400.08	1042.43
400.458	1052.37
400.837	1070.23
401.215	1076.78
401.594	1087.17
401.972	1113.39
402.351	1077.91
402.729	1120.39
403.107	1145.7
403.486	1155.87
403.864	1153.16
404.242	1183.67
404.62	1173.95
404.999	1183.22
405.377	1205.36
405.755	1216.21
406.133	1235.42
406.511	1264.35
406.889	1263.44
407.267	1282.65
407.645	1304.57
408.023	1331.46
408.401	1318.81
408.779	1384.34
409.156	1354.06
409.534	1404.68
409.912	1413.72
410.29	1455.98
410.667	1429.31
411.045	1463.21
411.422	1495.3
411.8	1475.41
412.178	1536.88
412.555	1562.42
412.933	1573.72
413.31	1580.72
413.687	1612.58
414.065	1635.86
414.442	1644.45
414.819	1702.3
415.197	1699.59
415.574	1723.09
415.951	1721.51
416.328	1766.48
416.705	1722.41
417.082	1768.74
417.46	1792.02
417.837	1804.67
418.214	1840.83
418.591	1855.52
418.967	1852.8
419.344	1879.02
419.721	1896.87
420.098	1895.97
420.475	1935.29
420.852	1972.58
421.228	1947.72
421.605	1966.47
421.982	2031.1
422.358	2049.41
422.735	2092.57
423.111	2062.06
423.488	2100.71
423.864	2096.64
424.241	2145.23
424.617	2188.39
424.994	2194.49
425.37	2192.23
425.746	2200.37
426.123	2273.81
426.499	2280.36
426.875	2306.13
427.251	2347.71
427.627	2407.82
428.003	2430.87
428.379	2438.1
428.756	2473.81
429.132	2485.56
429.507	2554.25
429.883	2548.15
430.259	2594.93
430.635	2614.59
431.011	2667.47
431.387	2681.71
431.763	2798.77
432.138	2723.52
432.514	2783.63
432.89	2820.69
433.265	2865.21
433.641	2901.14
434.016	2947.46
434.392	2976.39
434.767	3078.76
435.143	3069.72
435.518	3091.19
435.894	3108.59
436.269	3140.68
436.644	3156.05
437.02	3218.87
437.395	3218.42
437.77	3264.07
438.145	3302.26
438.52	3325.53
438.895	3399.43
439.271	3408.24
439.646	3487.79
440.021	3497.05
440.395	3514.46
440.77	3504.29
441.145	3525.53
441.52	3573.44
441.895	3622.93
442.27	3617.73
442.645	3629.71
443.019	3725.98
443.394	3681.46
443.769	3736.82
444.143	3713.32
444.518	3775.69
444.892	3742.02
445.267	3858.85
445.641	3843.03
446.016	3924.84
446.39	3867.21
446.764	3909.93
447.139	3937.27
447.513	3952.64
447.887	3985.86
448.262	3967.33
448.636	4067.21
449.01	4118.51
449.384	4101.11
449.758	4160.09
450.132	4201.22
450.506	4189.24
450.88	4203.48
451.254	4250.26
451.628	4308.11
452.002	4346.98
452.376	4388.1
452.75	4480.98
453.123	4476.46
453.497	4544.03
453.871	4584.26
454.244	4653.63
454.618	4633.75
454.992	4755.1
455.365	4763.01
455.739	4928.66
456.112	4940.86
456.486	4977.69
456.859	5038.26
457.232	5115.09
457.606	5136.56
457.979	5189.67
458.352	5348.53
458.725	5405.03
459.099	5429.89
459.472	5451.35
459.845	5591.24
460.218	5593.72
460.591	5631.01
460.964	5652.48
461.337	5803.89
461.71	5876.88
462.083	5966.14
462.456	5977.22
462.829	5998.68
463.201	6112.35
463.574	6166.14
463.947	6225.57
464.32	6322.97
464.692	6387.6
465.065	6491.33
465.438	6574.04
465.81	6636.86
466.183	6674.15
466.555	6855.61
466.928	6890.19
467.3	6869.62
467.672	7031.43
468.045	7103.97
468.417	7223.96
468.789	7246.56
469.161	7331.53
469.534	7522.49
469.906	7648.13
470.278	7687
470.65	7725.64
471.022	7864.4
471.394	8089.02
471.766	8166.99
472.138	8291.28
472.51	8450.37
472.882	8529.01
473.253	8646.98
473.625	8689.23
473.997	8927.42
474.369	8972.17
474.74	9110.24
475.112	9198.6
475.484	9401.98
475.855	9506.61
476.227	9618.7
476.598	9882.65
476.97	9954.06
477.341	10247.16
477.713	10347.04
478.084	10394.05
478.455	10738.9
478.827	10785.45
479.198	11123.97
479.569	11143.86
479.94	11436.28
480.311	11501.82
480.682	11751.3
481.053	11965.76
481.424	12233.77
481.795	12307.22
482.166	12534.56
482.537	12687.32
482.908	12954.89
483.279	13111.04
483.65	13277.36
484.021	13588.77
484.391	13713.28
484.762	13825.37
485.133	14033.95
485.503	14240.73
485.874	14562.53
486.244	14648.4
486.615	14891.33
486.985	15077.99
487.356	15313.92
487.726	15475.72
488.097	15859.44
488.467	15788.94
488.837	16150.51
489.207	16284.06
489.578	16596.82
489.948	16701
490.318	16958.85
490.688	16921.79
491.058	17220.31
491.428	17532.84
491.798	17666.63
492.168	17986.62
492.538	18034.98
492.908	18330.56
493.278	18549.09
493.648	18622.76
494.017	18861.85
494.387	18926.71
494.757	19194.72
495.126	19342.06
495.496	19356.07
495.866	19549.74
496.235	19758.1
496.605	19999.45
496.974	20116.5
497.344	20347.69
497.713	20386.1
498.082	20559.43
498.452	20753.78
498.821	20947.67
499.19	20977.95
499.559	21156.93
499.928	21332.74
500.298	21389.47
500.667	21665.39
501.036	21616.13
501.405	22014.53
501.774	21874.88
502.143	22019.96
502.512	22191.25
502.88	22438.93
503.249	22538.36
503.618	22675.08
503.987	22761.63
504.356	22975.41
504.724	23106.03
505.093	23265.8
505.462	23337.44
505.83	23593.25
506.199	23744.43
506.567	24019
506.936	23998.21
507.304	24357.75
507.672	24458.09
508.041	24479.78
508.409	24664.86
508.777	24914.57
509.145	25174
509.514	25190.72
509.882	25378.51
510.25	25429.59
510.618	25752.97
510.986	25748.9
511.354	25934.66
511.722	26210.58
512.09	26520.86
512.458	26482.89
512.826	26685.15
513.193	27054.85
513.561	27046.04
513.929	27366.94
514.297	27559.02
514.664	27684.67
515.032	27898.45
515.4	28064.77
515.767	28187.93
516.135	28399.45
516.502	28254.82
516.869	28911.3
517.237	29134.12
517.604	29031.75
517.972	29352.65
518.339	29505.41
518.706	29655.69
519.073	29836.7
519.44	30088.9
519.808	30238.5
520.175	30438.04
520.542	30837.13
520.909	30932.94
521.276	31174.97
521.643	31374.51
522.009	31744
522.376	32040.49
522.743	32095.85
523.11	32310.53
523.477	32710.98
523.843	33034.36
524.21	33299.66
524.577	33539.2
524.943	33798.63
525.31	33913.88
525.676	34314.55
526.043	34446.75
526.409	34524.94
526.776	34905.95
527.142	35100.97
527.508	35265.03
527.874	35512.03
528.241	35688.75
528.607	35848.75
528.973	36231.56
529.339	36328.28
529.705	36753.81
530.071	37032.9
530.437	37094.14
530.803	37331.87
531.169	37667.91
531.535	37569.83
531.901	37632.65
532.267	37902.48
532.632	38200.32
532.998	38490.26
533.364	38743.36
533.73	38790.14
534.095	39211.6
534.461	39258.15
534.826	39550.34
535.192	39581.53
535.557	39898.36
535.923	39818.59
536.288	40130.22
536.653	40160.95
537.019	40283.66
537.384	40375.41
537.749	40695.62
538.114	40710.31
538.479	40881.83
538.845	41020.36
539.21	41164.09
539.575	41312.11
539.94	41510.07
540.305	41803.62
540.67	41810.85
541.034	42066.89
541.399	42240.44
541.764	42382.59
542.129	42675.46
542.494	42724.72
542.858	42683.14
543.223	42963.14
543.587	43087.43
543.952	43079.29
544.316	43295.56
544.681	43308.21
545.045	43675.66
545.41	43857.12
545.774	43870.46
546.138	43945.03
546.503	44105.7
546.867	44082.2
547.231	44529.42
547.595	44607.61
547.959	44745.24
548.324	44767.61
548.688	44963.99
549.052	45142.29
549.416	45287.59
549.779	45368.72
550.143	45474.71
550.507	45855.72
550.871	46018.2
551.235	45923.51
551.599	46371.41
551.962	46400.79
552.326	46336.61
552.689	46744.28
553.053	46721.68
553.417	46731.17
553.78	47350.14
554.143	47230.37
554.507	47463.13
554.87	47653.63
555.234	47991.93
555.597	47801.88
555.96	48101.76
556.323	48188.54
556.686	48321.64
557.05	48527.28
557.413	48559.82
557.776	48836.88
558.139	49075.52
558.502	49222.18
558.865	49385.34
559.228	49506.01
559.59	49687.25
559.953	49861.03
560.316	50227.35
560.679	50229.16
561.041	50354.35
561.404	50699.2
561.767	50854.45
562.129	50722.48
562.492	51124.28
562.854	51111.62
563.217	51152.98
563.579	51359.3
563.941	51542.8
564.304	51768.1
564.666	51970.58
565.028	52037.25
565.39	52183.23
565.753	52398.59
566.115	52455.99
566.477	52542.55
566.839	52744.12
567.201	52886.49
567.563	52935.08
567.925	53205.13
568.287	53153.38
568.648	53234.73
569.01	53352.92
569.372	53554.72
569.734	53543.2
570.095	53859.57
570.457	53973.47
570.819	53961.04
571.18	54061.6
571.542	54134.14
571.903	54168.49
572.265	54354.25
572.626	54419.56
572.987	54423.85
573.349	54561.02
573.71	54684.18
574.071	54679.89
574.432	54854.12
574.794	55085.75
575.155	55101.12
575.516	54953.78
575.877	55118.07
576.238	55183.38
576.599	55269.93
576.96	55204.85
577.32	55232.87
577.681	55277.39
578.042	55493.65
578.403	55550.38
578.763	55553.09
579.124	55645.97
579.485	55678.28
579.845	55737.72
580.206	55744.27
580.566	55727.55
580.927	55750.37
581.287	55856.36
581.648	55851.84
582.008	55938.61
582.368	55872.17
582.728	55874.43
583.089	55888.22
583.449	55920.54
583.809	55946.75
584.169	56012.96
584.529	55963.47
584.889	56138.16
585.249	55876.69
585.609	55827.43
585.969	56026.97
586.329	55967.54
586.688	56102
587.048	56070.81
587.408	55989.91
587.768	56038.05
588.127	55968.44
588.487	55913.53
588.846	56175.67
589.206	55922.12
589.565	55953.75
589.925	56152.39
590.284	56067.2
590.643	56062.23
591.003	56165.95
591.362	56249.34
591.721	56097.48
592.08	56136.8
592.44	56175.22
592.799	56174.09
593.158	56094.54
593.517	56170.7
593.876	56193.75
594.235	56207.76
594.593	56137.48
594.952	56190.58
595.311	56108.55
595.67	56195.33
596.029	56330.92
596.387	56323.01
596.746	56316.91
597.104	56220.64
597.463	56241.66
597.822	56369.79
598.18	56251.6
598.538	56251.15
598.897	56512.38
599.255	56193.75
599.613	56626.73
599.972	56386.51
600.33	56528.65
600.688	56472.84
601.046	56553.29
601.404	56607.3
601.762	56527.52
602.12	56635.54
602.478	56660.4
602.836	56621.76
603.194	56533.4
603.552	56559.84
603.91	56496.34
604.268	56690.68
604.625	56533.63
604.983	56737.46
605.341	56640.74
605.698	56790.34
606.056	56833.05
606.413	56697.69
606.771	56894.52
607.128	56807.97
607.485	56765.48
607.843	56733.17
608.2	56824.69
608.557	57002.09
608.914	56915.09
609.272	57054.74
609.629	57056.55
609.986	57134.74
610.343	57075.76
610.7	57200.95
611.057	57155.08
611.414	57072.14
611.771	57159.37
612.127	57220.61
612.484	57226.94
612.841	57274.62
613.198	57184.23
613.554	57239.14
613.911	57439.14
614.267	57396.43
614.624	57386.26
614.98	57368.18
615.337	57512.58
615.693	57431.23
616.05	57431.68
616.406	57551.68
616.762	57543.09
617.118	57481.85
617.475	57531.34
617.831	57501.28
618.187	57554.39
618.543	57602.75
618.899	57751.67
619.255	57676.65
619.611	57614.28
619.967	57706.03
620.323	57665.57
620.678	57648.17
621.034	57582.41
621.39	57613.37
621.746	57608.4
622.101	57845.46
622.457	57609.08
622.812	57687.04
623.168	57758.45
623.523	57759.13
623.879	57847.72
624.234	57633.03
624.589	57745.12
624.945	57747.15
625.3	57803.65
625.655	57785.8
626.01	57791.22
626.365	57782.86
626.72	57798.68
627.075	57816.53
627.43	57760.03
627.785	57687.95
628.14	57726.14
628.495	57757.55
628.85	57705.8
629.205	57585.12
629.559	57780.6
629.914	57557.33
630.269	57565.24
630.623	57506.71
630.978	57413.38
631.332	57583.99
631.687	57604.56
632.041	57471.68
632.396	57478.69
632.75	57468.97
633.104	57432.36
633.459	57374.28
633.813	57298.58
634.167	57226.49
634.521	57314.4
634.875	57276.21
635.229	57254.29
635.583	57052.93
635.937	57047.06
636.291	57071.24
636.645	57062.65
636.999	57007.29
637.352	57045.7
637.706	56866.05
638.06	57054.29
638.413	56940.4
638.767	56951.92
639.121	56937.91
639.474	56890.45
639.828	56819.72
640.181	56911.02
640.534	56849.1
640.888	56780.85
641.241	56692.72
641.594	56689.1
641.947	56675.77
642.301	56543.8
642.654	56640.06
643.007	56541.08
643.36	56444.82
643.713	56495.21
644.066	56602.33
644.419	56406.85
644.771	56029.23
645.124	55788.56
645.477	55659.07
645.83	55437.16
646.182	55448.01
646.535	55465.63
646.888	55674.21
647.24	55673.76
647.593	55797.15
647.945	55737.49
648.298	55648.9
648.65	55545.18
649.002	55387.44
649.355	55328.69
649.707	55215.47
650.059	55214.11
650.411	55563.48
650.763	55599.87
651.115	55885.96
651.467	55893.42
651.819	55894.32
652.171	55748.11
652.523	55695.23
652.875	55670.6
653.227	55551.73
653.578	55782.01
653.93	55693.65
654.282	55557.83
654.633	55503.82
654.985	55472.19
655.337	55498.4
655.688	55569.13
656.039	55673.54
656.391	55275.58
656.742	55370.95
657.094	55393.09
657.445	55475.35
657.796	55416.14
658.147	55353.32
658.498	55270.61
658.849	55254.34
659.2	55208.46
659.551	55171.63
659.902	55230.16
660.253	55139.54
660.604	55231.97
660.955	55010.28
661.306	55052.54
661.656	55004.18
662.007	55080.33
662.358	55157.17
662.708	55062.93
663.059	54947.45
663.409	54866.1
663.76	55023.84
664.11	54992.88
664.461	55034.23
664.811	54940.67
665.161	54963.95
665.511	54824.29
665.862	54862.71
666.212	54856.83
666.562	54919.66
666.912	54896.83
667.262	54837.4
667.612	54771.19
667.962	54859.77
668.312	54787.01
668.662	54919.88
669.011	54776.61
669.361	54722.6
669.711	54733.9
670.06	54721.02
670.41	54632.66
670.76	54561.25
671.109	54638.08
671.459	54645.99
671.808	54520.8
672.157	54661.59
672.507	54423.4
672.856	54334.36
673.205	54427.24
673.554	54582.72
673.904	54450.07
674.253	54669.27
674.602	54499.56
674.951	54017.53
675.3	53917.88
675.649	54342.5
675.998	54255.49
676.346	54307.7
676.695	54382.72
677.044	54100.02
677.393	54257.75
677.741	54253.46
678.09	54226.79
678.438	54028.83
678.787	54097.31
679.135	54133.46
679.484	54040.36
679.832	54021.15
680.181	53811.21
680.529	53954.49
680.877	53818.44
681.225	53855.05
681.573	53980.02
681.922	53747.03
682.27	53630.2
682.618	53621.61
682.966	53613.25
683.314	53744.32
683.661	53564.44
684.009	53368.74
684.357	53269.98
684.705	53237.44
685.053	53250.32
685.4	53288.51
685.748	53105.69
686.095	53031.57
686.443	52966.94
686.79	53011.23
687.138	52966.04
687.485	52877.9
687.832	52794.06
688.18	52783.67
688.527	52685.37
688.874	52615.54
689.221	52545.71
689.568	52429.78
689.915	52373.96
690.262	52373.74
690.609	52226.4
690.956	52191.37
691.303	52127.19
691.65	51981.88
691.997	51943.69
692.344	51726.75
692.69	51734.66
693.037	51741.89
693.383	51463.7
693.73	51553.42
694.077	51394.1
694.423	51405.63
694.769	51330.15
695.116	51143.94
695.462	51258.51
695.808	51012.19
696.155	51066.2
696.501	50851.06
696.847	50913.66
697.193	50483.39
697.539	50729.71
697.885	50387.57
698.231	50110.29
698.577	50291.08
698.923	50204.53
699.269	50132.44
699.614	49984.19
699.96	49876.17
700.306	49787.14
700.651	49655.39
700.997	49416.53
701.342	49365.45
701.688	49406.36
702.033	49285.68
702.379	49192.35
702.724	49028.06
703.069	49065.57
703.415	48749.65
703.76	48733.61
704.105	48748.29
704.45	48608.86
704.795	48428.75
705.14	48228.08
705.485	48288.87
705.83	48125.49
706.175	48148.54
706.52	48073.74
706.865	47833.74
707.209	47831.03
707.554	47703.8
707.899	47747.87
708.243	47523.47
708.588	47422.91
708.932	47219.97
709.277	47168.45
709.621	47213.87
709.966	46831.28
710.31	47026.98
710.654	46692.53
710.998	46637.62
711.342	46707.67
711.687	46577.28
712.031	46384.06
712.375	46385.42
712.719	46266.78
713.063	46177.29
713.407	46255.93
713.75	46129.38
714.094	46034.47
714.438	45771.2
714.782	45922.61
715.125	45845.77
715.469	45669.73
715.812	45455.27
716.156	45242.4
716.499	45216.41
716.843	45230.65
717.186	44991.56
717.53	45148.62
717.873	45208.73
718.216	45069.3
718.559	44747.95
718.902	44537.33
719.246	44810.54
719.589	44588.63
719.932	44283.55
720.275	44600.83
720.617	44453.27
720.96	44195.65
721.303	44422.76
721.646	44392.02
721.989	44052.82
722.331	44172.6
722.674	43834.07
723.016	43855.32
723.359	43757.92
723.701	43876.78
724.044	43637.69
724.386	43522.9
724.729	43708.2
725.071	43527.41
725.413	43488.32
725.755	43439.73
726.097	43082.45
726.439	42996.13
726.782	43100.99
727.124	43090.14
727.465	42769.24
727.807	42763.59
728.149	42696.02
728.491	42725.85
728.833	42735.57
729.175	42424.84
729.516	42433.21
729.858	42278.86
730.199	42294.68
730.541	42064.4
730.882	42224.17
731.224	42292.42
731.565	42034.35
731.906	42068.92
732.248	42041.35
732.589	41730.85
732.93	41748.7
733.271	41744.41
733.612	41819.66
733.953	41749.38
734.294	41544.87
734.635	41481.82
734.976	41477.75
735.317	41362.73
735.658	41272.11
735.999	41204.76
736.339	41022.62
736.68	41208.83
737.021	41196.4
737.361	40993.02
737.702	41065.11
738.042	40952.57
738.383	40801.61
738.723	40873.47
739.063	40656.76
739.404	40732.23
739.744	40547.38
740.084	40423.09
740.424	40414.05
740.764	40383.54
741.104	40583.99
741.444	40109.43
741.784	40081.4
742.124	40068.75
742.464	40019.71
742.804	39932.03
743.143	39770.23
743.483	39813.61
743.823	39650.68
744.162	39729.55
744.502	39690.91
744.841	39482.1
745.181	39514.41
745.52	39266.06
745.86	39318.94
746.199	39321.42
746.538	39286.85
746.877	39097.02
747.216	39336.11
747.556	38986.52
747.895	38996.91
748.234	38784.26
748.573	38916.01
748.911	38704.04
749.25	38787.88
749.589	38615
749.928	38636.47
750.267	38644.61
750.605	38340.43
750.944	38374.1
751.283	38314.22
751.621	38212.75
751.96	37875.81
752.298	37887.79
752.636	37964.17
752.975	37818.19
753.313	37447.57
753.651	37806.89
753.989	37542.94
754.327	37512.21
754.666	37315.37
755.004	37274.25
755.342	37326.22
755.679	37249.61
756.017	36939.57
756.355	37011.88
756.693	36913.35
757.031	36897.98
757.368	36603.98
757.706	36576.19
758.044	36585.45
758.381	36672.23
758.719	36348.39
759.056	36319.24
759.394	36024.56
759.731	35964.9
760.068	35849.88
760.405	35747.51
760.743	35596.32
761.08	35701.63
761.417	35508.64
761.754	35359.95
762.091	35418.02
762.428	35192.49
762.765	35051.03
763.102	35046.96
763.438	34819.17
763.775	34757.25
764.112	34782.79
764.449	34951.37
764.785	34674.99
765.122	34301.44
765.458	34162.92
765.795	34170.37
766.131	34069.13
766.467	33940.32
766.804	33740.55
767.14	33539.65
767.476	33531.97
767.812	33443.61
768.148	33367.46
768.485	33223.5
768.821	33076.39
769.157	32975.83
769.492	32970.63
769.828	32892.44
770.164	32590.98
770.5	32425.79
770.836	32554.14
771.171	32161.39
771.507	32232.57
771.842	31979.47
772.178	31972.01
772.513	31888.4
772.849	31793.71
773.184	31541.06
773.519	31602.76
773.855	31407.73
774.19	31330.22
774.525	31202.99
774.86	31103.56
775.195	30923
775.53	30845.71
775.865	30746.06
776.2	30546.29
776.535	30348.78
776.87	30360.53
777.205	30248.22
777.539	30032.85
777.874	30042.8
778.209	29995.34
778.543	29778.85
778.878	29684.39
779.212	29602.58
779.547	29417.05
779.881	29407.33
780.215	29353.78
780.55	29273.1
780.884	29031.98
781.218	28996.72
781.552	28916.05
781.886	28723.96
782.22	28573.23
782.554	28494.59
782.888	28295.5
783.222	28171.43
783.556	27975.06
783.889	28069.06
784.223	27859.58
784.557	27783.42
784.89	27786.81
785.224	27456.42
785.557	27418.69
785.891	27347.95
786.224	27213.72
786.558	27294.17
786.891	27063.89
787.224	26870.23
787.557	26996.55
787.891	26889.89
788.224	26736.67
788.557	26662.32
788.89	26733.73
789.223	26623.68
789.556	26414.64
789.888	26278.83
790.221	26097.82
790.554	25903.92
790.887	26048.78
791.219	25886.75
791.552	25729.46
791.884	25805.39
792.217	25616.25
792.549	25558.62
792.882	25251.74
793.214	25253.09
793.546	25283.37
793.879	25182.36
794.211	25039.99
794.543	25051.06
794.875	25011.07
795.207	25071.4
795.539	24873.67
795.871	24663.96
796.203	24551.42
796.535	24394.81
796.867	24514.13
797.198	24354.36
797.53	24321.37
797.862	24211.31
798.193	24301.71
798.525	24036.4
798.856	24112.33
799.188	23792.57
799.519	23765
799.85	23772.45
800.182	23756.18
800.513	23649.29
800.844	23400.94
801.175	23489.75
801.506	23391.22
801.837	23193.94
802.168	23093.15
802.499	23162.07
802.83	23029.2
803.161	22956.2
803.491	22790.56
803.822	22799.15
804.153	22703.33
804.483	22526.84
804.814	22528.42
805.145	22386.73
805.475	22408.2
805.805	22311.02
806.136	22235.77
806.466	22404.13
806.796	22250.46
807.126	22068.54
807.457	22107.19
807.787	22040.52
808.117	22034.65
808.447	21814.77
808.777	21923.46
809.107	21753.07
809.436	21748.78
809.766	21689.34
810.096	21657.93
810.426	21556.92
810.755	21603.47
811.085	21387.88
811.414	21353.31
811.744	21219.53
812.073	21252.75
812.403	21106.99
812.732	20958.74
813.061	20962.58
813.39	20851.4
813.719	20817.96
814.049	20924.17
814.378	20813.44
814.707	20702.7
815.036	20708.35
815.365	20690.05
815.693	20577.96
816.022	20482.15
816.351	20330.74
816.68	20191.08
817.008	20445.08
817.337	19983.85
817.665	20106.79
817.994	20072.66
818.322	20109.5
818.651	19896.62
818.979	19994.25
819.307	19956.06
819.636	19944.31
819.964	19760.36
820.292	19772.56
820.62	19777.76
820.948	19731.66
821.276	19827.7
821.604	19788.83
821.932	19705.22
822.259	19798.55
822.587	19623.41
822.915	19622.05
823.243	19671.54
823.57	19536.18
823.898	19610.76
824.225	19607.59
824.553	19643.07
824.88	19599.68
825.207	19645.1
825.535	19568.72
825.862	19565.56
826.189	19554.49
826.516	19537.31
826.843	19675.61
827.17	19646.69
827.497	19655.5
827.824	19571.21
828.151	19601.49
828.478	19534.83
828.805	19553.13
829.131	19537.76
829.458	19516.97
829.785	19537.09
830.111	19595.39
830.438	19650.98
830.764	19653.69
831.09	19597.65
831.417	19425.22
831.743	19604.65
832.069	19443.3
832.395	19411.89
832.722	19436.07
833.048	19476.75
833.374	19486.24
833.7	19465
834.026	19407.6
834.351	19443.53
834.677	19353.81
835.003	19254.15
835.329	19278.56
835.654	19240.14
835.98	19123.54
836.306	19228.39
836.631	19014.84
836.956	19075.4
837.282	19113.37
837.607	19077.21
837.932	19076.08
838.258	18976.65
838.583	18997.66
838.908	18783.88
839.233	19007.16
839.558	18981.39
839.883	18924.22
840.208	18826.6
840.533	18821.4
840.858	18870.89
841.182	18823.88
841.507	18833.6
841.832	18822.53
842.156	18837.67
842.481	18705.02
842.805	18650.1
843.13	18549.54
843.454	18454.18
843.778	18397.91
844.103	18469.32
844.427	18279.49
844.751	18370.56
845.075	18291.24
845.399	18242.43
845.723	18188.87
846.047	18214.41
846.371	18113.17
846.695	18155.88
847.019	17948.65
847.343	17941.42
847.666	17759.96
847.99	17634.31
848.313	17751.82
848.637	17469.34
848.96	17623.46
849.284	17505.27
849.607	17339.4
849.931	17265.28
850.254	17114.78
850.577	17039.52
850.9	16978.51
851.223	17009.92
851.546	16890.15
851.869	16807.89
852.192	16833.88
852.515	16692.87
852.838	16711.85
853.161	16607.9
853.483	16583.04
853.806	16580.33
854.129	16502.14
854.451	16454.23
854.774	16348.47
855.096	16330.62
855.419	16270.5
855.741	16234.12
856.063	16202.48
856.385	16105.54
856.708	16096.5
857.03	15951.42
857.352	15939.44
857.674	15913.45
857.996	15970.4
858.318	15915.03
858.64	15842.04
858.961	15821.25
859.283	15783.74
859.605	15701.93
859.926	15756.62
860.248	15734.25
860.57	15641.59
860.891	15706.23
861.212	15505.55
861.534	15538.09
861.855	15526.8
862.176	15539.22
862.498	15418.55
862.819	15460.36
863.14	15400.47
863.461	15352.34
863.782	15305.56
864.103	15339
864.424	15231.44
864.745	15257.42
865.065	15197.76
865.386	15249.74
865.707	15158.44
866.027	15185.56
866.348	15104.43
866.668	15158.9
866.989	15104.21
867.309	14927.71
867.63	14986.02
867.95	14938.11
868.27	14870.99
868.59	14909.86
868.91	14921.16
869.23	14893.37
869.55	14813.37
869.87	14963.19
870.19	14927.49
870.51	14967.49
870.83	14896.08
871.15	14808.62
871.469	14779.92
871.789	14788.06
872.109	14859.02
872.428	14854.5
872.748	14854.72
873.067	14850.65
873.386	14807.04
873.706	14742.63
874.025	14626.48
874.344	14452.93
874.663	14668.74
874.982	14563.43
875.301	14552.13
875.62	14586.03
875.939	14403.89
876.258	14563.43
876.577	14533.15
876.896	14453.83
877.214	14369.09
877.533	14308.3
877.852	14340.61
878.17	14416.32
878.489	14362.08
878.807	14297.9
879.125	14392.59
879.444	14398.69
879.762	14275.08
880.08	14274.62
880.398	14266.72
880.716	14241.41
881.034	14207.06
881.352	14222.65
881.67	14182.42
881.988	14233.95
882.306	14100.62
882.624	14091.35
882.941	14040.73
883.259	14037.57
883.577	14010.45
883.894	13937.91
884.212	13875.77
884.529	13973.16
884.846	13865.14
885.164	13895.43
885.481	13728.88
885.798	13851.13
886.115	13767.07
886.432	13723.9
886.75	13792.38
887.067	13748.76
887.383	13610.46
887.7	13578.15
888.017	13518.03
888.334	13521.65
888.651	13457.02
888.967	13403.69
889.284	13378.6
889.6	13315.1
889.917	13334.54
890.233	13394.65
890.55	13219.06
890.866	13309.68
891.182	13261.09
891.498	13309.23
891.815	13133.64
892.131	13088.67
892.447	13133.86
892.763	13080.76
893.079	13102.9
893.395	13067.65
893.71	12984.04
894.026	12941.78
894.342	12975
894.657	12862.01
894.973	12867.66
895.289	12807.54
895.604	12831.72
895.92	12778.39
896.235	12812.06
896.55	12693.88
896.865	12668.11
897.181	12650.71
897.496	12610.04
897.811	12513.54
898.126	12338.86
898.441	12495.69
898.756	12383.15
899.071	12279.65
899.386	12279.42
899.7	12207.11
900.015	12201.46
900.33	12196.49
900.644	12132.99
900.959	12080.78
901.273	12025.87
901.588	11911.97
901.902	11937.74
902.216	11888.25
902.531	11940
902.845	11918.53
903.159	11898.42
903.473	11901.13
903.787	11846.89
904.101	11793.56
904.415	11728.7
904.729	11652.09
905.042	11557.63
905.356	11512.44
905.67	11570.06
905.984	11452.33
906.297	11521.7
906.611	11367.58
906.924	11389.95
907.237	11354.48
907.551	11334.81
907.864	11317.19
908.177	11181.37
908.491	11127.81
908.804	11044.43
909.117	10989.74
909.43	10933.92
909.743	10898.89
910.056	10944.09
910.368	10922.17
910.681	10885.79
910.994	10796.52
911.307	10760.14
911.619	10749.97
911.932	10672.23
912.244	10623.2
912.557	10655.28
912.869	10599.02
913.181	10599.69
913.494	10518.11
913.806	10457.55
914.118	10411.9
914.43	10410.32
914.742	10375.29
915.054	10401.51
915.366	10274.5
915.678	10296.42
915.99	10145.24
916.302	10105.92
916.613	10073.38
916.925	10154.28
917.236	10076.54
917.548	9934.17
917.859	9964.68
918.171	9925.36
918.482	9870.22
918.794	9814.4
919.105	9842.88
919.416	9713.84
919.727	9716.33
920.038	9710
920.349	9576.44
920.66	9595.2
920.971	9622.54
921.282	9540.29
921.593	9422.1
921.903	9430.23
922.214	9369.89
922.525	9391.14
922.835	9358.82
923.146	9329.44
923.456	9291.25
923.767	9219.62
924.077	9246.28
924.387	9137.81
924.697	9092.84
925.008	9070.24
925.318	9006.06
925.628	9049.45
925.938	8998.38
926.248	8875.67
926.558	8841.77
926.867	8862.11
927.177	8834.09
927.487	8763.58
927.796	8717.71
928.106	8749.57
928.416	8703.47
928.725	8624.6
929.034	8559.75
929.344	8567.2
929.653	8527.21
929.962	8486.75
930.271	8447.66
930.581	8447.66
930.89	8379.86
931.199	8301.9
931.508	8325.85
931.817	8306.42
932.125	8319.53
932.434	8247.44
932.743	8157.05
933.051	8043.38
933.36	8075.92
933.669	7990.04
933.977	7998.86
934.286	7959.08
934.594	7953.43
934.902	7875.02
935.21	7850.16
935.519	7819.43
935.827	7849.71
936.135	7792.54
936.443	7705.31
936.751	7700.79
937.059	7670.96
937.367	7628.7
937.674	7656.04
937.982	7655.59
938.29	7555.25
938.597	7550.73
938.905	7491.75
939.213	7510.06
939.52	7408.82
939.827	7472.32
940.135	7376.73
940.442	7293.11
940.749	7271.87
941.056	7365.88
941.363	7222.38
941.67	7238.2
941.977	7177.64
942.284	7190.97
942.591	7130.63
942.898	7110.52
943.205	7090.63
943.511	7072.55
943.818	7020.8
944.125	7000.24
944.431	6990.97
944.738	6924.99
945.044	6879.56
945.35	6819.68
945.657	6813.13
945.963	6787.59
946.269	6805.22
946.575	6764.99
946.881	6745.56
947.187	6654.71
947.493	6649.97
947.799	6578.78
948.105	6585.34
948.41	6507.15
948.716	6482.74
949.022	6501.72
949.327	6551.21
949.633	6421.27
949.938	6517.77
950.244	6419.01
950.549	6346.7
950.854	6359.13
951.16	6351.22
951.465	6288.17
951.77	6218.11
952.075	6228.51
952.38	6224.67
952.685	6198
952.99	6117.33
953.294	6122.97
953.599	6049.98
953.904	6066.25
954.209	6045.24
954.513	6040.94
954.818	6021.73
955.122	6002.53
955.426	5895.18
955.731	5929.76
956.035	5924.11
956.339	5908.52
956.643	5878.91
956.948	5806.15
957.252	5746.71
957.556	5754.85
957.86	5751.23
958.163	5684.57
958.467	5664.46
958.771	5639.82
959.075	5619.94
959.378	5603.21
959.682	5597.56
959.985	5596.21
960.289	5558.92
960.592	5537.91
960.896	5526.61
961.199	5523.44
961.502	5488.42
961.805	5441.86
962.108	5425.59
962.411	5426.5
962.714	5370
963.017	5371.36
963.32	5321.64
963.623	5280.74
963.926	5327.29
964.228	5239.38
964.531	5277.35
964.833	5193.73
965.136	5188.54
965.438	5175.65
965.741	5082.78
966.043	5155.32
966.345	5105.6
966.648	5084.36
966.95	5052.04
967.252	5036.68
967.554	4969.78
967.856	5003.46
968.158	4975.43
968.46	4923.01
968.761	4901.76
969.063	4863.57
969.365	4879.84
969.666	4867.19
969.968	4784.48
970.269	4819.96
970.571	4810.47
970.872	4758.72
971.174	4758.49
971.475	4706.06
971.776	4691.6
972.077	4644.82
972.378	4660.41
972.679	4669
972.98	4664.71
973.281	4590.81
973.582	4672.62
973.883	4574.54
974.183	4540.64
974.484	4528.89
974.785	4518.95
975.085	4500.87
975.386	4508.33
975.686	4521.21
975.986	4443.02
976.287	4424.49
976.587	4383.59
976.887	4369.8
977.187	4365.73
977.487	4296.36
977.787	4337.03
978.087	4244.38
978.387	4249.58
978.687	4266.75
978.987	4238.96
979.286	4200.54
979.586	4243.02
979.885	4169.81
980.185	4171.16
980.484	4129.81
980.784	4110.15
981.083	4110.15
981.382	4057.72
981.682	4068.57
981.981	4056.59
982.28	4013.88
982.579	4012.97
982.878	4020.88
983.177	3988.79
983.475	3975.91
983.774	3916.25
984.073	3935.69
984.372	3939.08
984.67	3870.38
984.969	3911.51
985.267	3845.07
985.566	3823.15
985.864	3794.9
986.162	3775.01
986.461	3796.03
986.759	3742.7
987.057	3707.22
987.355	3732.75
987.653	3691.17
987.951	3716.26
988.249	3662.7
988.547	3625.87
988.844	3636.94
989.142	3635.13
989.44	3603.94
989.737	3585.19
990.035	3540.22
990.332	3549.03
990.63	3544.96
990.927	3530.5
991.224	3504.74
991.521	3491.63
991.819	3471.52
992.116	3466.32
992.413	3426.32
992.71	3432.2
993.006	3413.67
993.303	3351.52
993.6	3343.16
993.897	3368.92
994.193	3360.79
994.49	3323.73
994.787	3293.44
995.083	3266.1
995.379	3309.04
995.676	3287.12
995.972	3243.5
996.268	3219.55
996.565	3205.31
996.861	3178.42
997.157	3151.53
997.453	3160.79
997.749	3170.06
998.044	3133
998.34	3140.45
998.636	3125.31
998.932	3100.68
999.227	3044.86
999.523	3045.99
999.818	3011.19
1000.114	3038.08
1000.409	2981.59
1000.704	2983.62
1001	2970.29
1001.295	2916.51
1001.59	2956.96
1001.885	2951.98
1002.18	2922.38
1002.475	2921.02
1002.77	2859.56
1003.065	2834.7
1003.359	2843.29
1003.654	2844.87
1003.949	2812.78
1004.243	2801.93
1004.538	2822.04
1004.832	2786.34
1005.127	2753.8
1005.421	2737.75
1005.715	2708.83
1006.009	2684.42
1006.304	2667.92
1006.598	2658.43
1006.892	2659.56
1007.186	2628.6
1007.48	2641.71
1007.773	2561.26
1008.067	2585.21
1008.361	2566.46
1008.655	2543.18
1008.948	2493.69
1009.242	2502.28
1009.535	2485.33
1009.829	2492.11
1010.122	2474.26
1010.415	2484.65
1010.708	2438.55
1011.001	2430.87
1011.295	2420.47
1011.588	2420.47
1011.881	2373.02
1012.173	2359.46
1012.466	2387.93
1012.759	2355.39
1013.052	2354.03
1013.344	2345.22
1013.637	2312.68
1013.93	2276.52
1014.222	2279.46
1014.514	2288.73
1014.807	2265.45
1015.099	2240.36
1015.391	2218.9
1015.683	2203.76
1015.976	2236.3
1016.268	2190.87
1016.56	2168.5
1016.851	2173.25
1017.143	2119.46
1017.435	2114.27
1017.727	2093.48
1018.018	2102.97
1018.31	2063.19
1018.602	2092.12
1018.893	2070.88
1019.185	2029.3
1019.476	2034.72
1019.767	2007.38
1020.058	1982.07
1020.35	1974.38
1020.641	1971.67
1020.932	1924.44
1021.223	1949.98
1021.514	1886.25
1021.804	1889.87
1022.095	1879.02
1022.386	1885.12
1022.677	1886.48
1022.967	1883.31
1023.258	1803.99
1023.548	1811
1023.839	1839.47
1024.129	1809.87
1024.419	1807.16
1024.709	1779.36
1025	1728.29
1025.29	1729.64
1025.58	1737.33
1025.87	1700.72
1026.16	1707.27
1026.449	1742.52
1026.739	1685.58
1027.029	1688.06
1027.319	1672.02
1027.608	1659.14
1027.898	1638.35
1028.187	1639.48
1028.477	1603.09
1028.766	1637.22
1029.055	1579.37
1029.344	1593.83
1029.634	1551.34
1029.923	1541.63
1030.212	1544.79
1030.501	1568.29
1030.79	1521.06
1031.078	1500.95
1031.367	1500.72
1031.656	1499.37
1031.945	1471.57
1032.233	1500.5
1032.522	1440.61
1032.81	1443.78
1033.099	1454.17
1033.387	1407.62
1033.675	1417.79
1033.963	1418.47
1034.251	1407.84
1034.54	1401.97
1034.828	1371.24
1035.116	1372.37
1035.403	1333.72
1035.691	1362.87
1035.979	1362.65
1036.267	1320.84
1036.554	1318.13
1036.842	1310.9
1037.129	1306.83
1037.417	1296.21
1037.704	1303.67
1037.992	1292.59
1038.279	1280.84
1038.566	1242.65
1038.853	1242.65
1039.14	1242.65
