Data from foil_FLMS001491_069.txt Node
Date: Tue Feb 07 11:36:27 GMT 2017
User: dcchb
Spectrometer: FLMS00149
Trigger mode: 0
Integration Time (sec): 2.000000E-2
Scans to average: 10
Electric dark correction enabled: true
Nonlinearity correction enabled: false
Boxcar width: 0
XAxis mode: Wavelengths
Number of Pixels in Spectrum: 2048
>>>>>Begin Spectral Data<<<<<
341.393	-4.83
341.776	-4.83
342.16	-4.83
342.543	-69.01
342.927	-65.62
343.31	-75.11
343.693	-69.91
344.077	-50.93
344.46	-72.85
344.843	-46.64
345.226	-29.91
345.61	-45.28
345.993	-5.28
346.376	-5.51
346.759	35.17
347.142	19.58
347.525	34.26
347.908	44.66
348.291	84.21
348.674	69.07
349.057	114.49
349.44	106.35
349.823	171.66
350.206	170.76
350.588	257.99
350.971	294.82
351.354	275.84
351.737	326.91
352.119	350.41
352.502	338.44
352.884	354.03
353.267	355.61
353.65	389.96
354.032	378.89
354.414	391.32
354.797	407.36
355.179	410.98
355.562	425.44
355.944	432.67
356.326	396.51
356.709	431.32
357.091	442.62
357.473	429.28
357.855	435.84
358.238	446.68
358.62	432.45
359.002	438.32
359.384	446.91
359.766	470.41
360.148	458.21
360.53	442.62
360.912	436.06
361.294	448.04
361.676	432.9
362.057	445.33
362.439	429.06
362.821	445.78
363.203	466.34
363.584	433.12
363.966	437.42
364.348	447.14
364.729	449.85
365.111	451.2
365.493	450.75
365.874	457.76
366.256	441.71
366.637	451.65
367.019	476.51
367.4	473.58
367.781	455.95
368.163	455.72
368.544	468.83
368.925	464.54
369.306	485.55
369.688	488.94
370.069	476.74
370.45	487.13
370.831	492.33
371.212	490.75
371.593	499.79
371.974	503.18
372.355	481.71
372.736	485.33
373.117	521.71
373.498	494.82
373.879	520.81
374.26	521.94
374.641	452.56
375.021	510.86
375.402	536.85
375.783	532.33
376.163	584.31
376.544	557.87
376.925	551.31
377.305	559.67
377.686	558.32
378.066	577.53
378.447	570.52
378.827	573.91
379.208	577.98
379.588	572.78
379.968	582.72
380.349	594.02
380.729	605.32
381.109	595.83
381.489	623.4
381.87	619.33
382.25	618.66
382.63	618.66
383.01	636.73
383.39	640.12
383.77	646.9
384.15	638.09
384.53	649.39
384.91	657.07
385.29	651.42
385.67	708.15
386.049	698.88
386.429	688.48
386.809	702.5
387.189	699.56
387.568	696.17
387.948	709.73
388.328	734.81
388.707	754.7
389.087	733.23
389.466	756.28
389.846	768.93
390.225	755.83
390.605	773.68
390.984	788.14
391.363	795.37
391.743	795.83
392.122	795.83
392.501	803.28
392.881	858.65
393.26	861.81
393.639	866.33
394.018	839.89
394.397	851.42
394.776	856.16
395.155	870.85
395.534	884.86
395.913	894.58
396.292	922.15
396.671	937.52
397.05	937.74
397.429	956.5
397.808	956.27
398.186	943.62
398.565	965.54
398.944	966.67
399.323	971.19
399.701	989.72
400.08	1032.43
400.458	1008.93
400.837	1010.06
401.215	1032.88
401.594	1030.62
401.972	1067.46
402.351	1071.98
402.729	1071.75
403.107	1086.89
403.486	1084.18
403.864	1105.65
404.242	1153.11
404.62	1121.24
404.999	1157.4
405.377	1158.3
405.755	1176.61
406.133	1161.01
406.511	1211.41
406.889	1229.04
407.267	1266.1
407.645	1270.16
408.023	1287.11
408.401	1282.14
408.779	1297.96
409.156	1319.88
409.534	1332.54
409.912	1324.4
410.29	1371.86
410.667	1437.17
411.045	1429.26
411.422	1456.83
411.8	1433.78
412.178	1510.16
412.555	1527.56
412.933	1520.1
413.31	1513.1
413.687	1562.36
414.065	1577.27
414.442	1574.34
414.819	1617.05
415.197	1644.39
415.574	1648.69
415.951	1664.28
416.328	1699.76
416.705	1693.88
417.082	1668.57
417.46	1701.11
417.837	1719.64
418.214	1776.59
418.591	1772.75
418.967	1799.19
419.344	1828.79
419.721	1824.27
420.098	1872.86
420.475	1874.44
420.852	1905.85
421.228	1916.48
421.605	1913.09
421.982	1963.48
422.358	1979.07
422.735	2011.61
423.111	2009.58
423.488	2049.13
423.864	2046.42
424.241	2075.34
424.617	2096.58
424.994	2103.59
425.37	2148.11
425.746	2157.82
426.123	2189.01
426.499	2217.03
426.875	2215.9
427.251	2273.08
427.627	2342.9
428.003	2344.03
428.379	2382.9
428.756	2414.09
429.132	2408.44
429.507	2448.66
429.883	2482.56
430.259	2524.14
430.635	2559.85
431.011	2550.13
431.387	2629.22
431.763	2683.46
432.138	2682.1
432.514	2749.67
432.89	2755.32
433.265	2810.24
433.641	2832.61
434.016	2851.37
434.392	2929.78
434.767	2974.3
435.143	2949.89
435.518	3002.55
435.894	3027.63
436.269	3071.92
436.644	3142.21
437.02	3145.6
437.395	3160.06
437.77	3208.87
438.145	3255.42
438.52	3299.94
438.895	3340.17
439.271	3328.19
439.646	3412.71
440.021	3414.06
440.395	3411.58
440.77	3431.24
441.145	3466.26
441.52	3549.2
441.895	3559.14
442.27	3574.51
442.645	3559.14
443.019	3618.35
443.394	3661.51
443.769	3693.6
444.143	3645.7
444.518	3714.39
444.892	3736.99
445.267	3789.42
445.641	3807.95
446.016	3821.74
446.39	3863.09
446.764	3861.96
447.139	3870.1
447.513	3915.52
447.887	3921.62
448.262	3975.4
448.636	3947.83
449.01	4036.65
449.384	4077.1
449.758	4087.49
450.132	4202.52
450.506	4178.34
450.88	4210.65
451.254	4234.61
451.628	4295.85
452.002	4371.33
452.376	4375.85
452.75	4450.19
453.123	4468.27
453.497	4516.63
453.871	4555.5
454.244	4661.04
454.618	4659
454.992	4764.08
455.365	4784.2
455.739	4889.5
456.112	4916.17
456.486	4939.67
456.859	5020.8
457.232	5135.6
457.606	5071.19
457.979	5195.94
458.352	5313.45
458.725	5352.77
459.099	5361.58
459.472	5496.95
459.845	5565.64
460.218	5549.6
460.591	5663.04
460.964	5631.41
461.337	5816.71
461.71	5928.8
462.083	5968.8
462.456	5979.87
462.829	5990.49
463.201	6096.93
463.574	6123.6
463.947	6253.54
464.32	6374.44
464.692	6391.84
465.065	6483.81
465.438	6581.89
465.81	6617.82
466.183	6687.65
466.555	6887.87
466.928	6901.65
467.3	6884.71
467.672	7084.25
468.045	7215.32
468.417	7248.31
468.789	7309.1
469.161	7372.38
469.534	7578.25
469.906	7707.96
470.278	7758.81
470.65	7880.61
471.022	7978.91
471.394	8120.38
471.766	8249.42
472.138	8340.71
472.51	8418
472.882	8563.76
473.253	8636.52
473.625	8729.86
473.997	9003.29
474.369	9042.62
474.74	9177.3
475.112	9311.99
475.484	9451.19
475.855	9667.01
476.227	9699.77
476.598	10050.72
476.97	10096.82
477.341	10367.1
477.713	10492.97
478.084	10507.66
478.455	10811.16
478.827	10866.3
479.198	11239.85
479.569	11295.66
479.94	11508.09
480.311	11581.08
480.682	11967.06
481.053	12133.83
481.424	12358.01
481.795	12557.55
482.166	12737.66
482.537	12839.8
482.908	13140.13
483.279	13298.77
483.65	13543.29
484.021	13795.26
484.391	13894.92
484.762	13993.67
485.133	14164.29
485.503	14395.47
485.874	14686.53
486.244	14858.06
486.615	15215.33
486.985	15278.38
487.356	15517.47
487.726	15748.43
488.097	16065.71
488.467	16079.27
488.837	16468.18
489.207	16584.79
489.578	16836.76
489.948	17061.61
490.318	17345.22
490.688	17310.87
491.058	17597.87
491.428	17848.49
491.798	17982.27
492.168	18376.38
492.538	18260
492.908	18610.95
493.278	18863.6
493.648	18948.57
494.017	19131.39
494.387	19369.58
494.757	19487.99
495.126	19645.5
495.496	19753.75
495.866	19971.82
496.235	20119.39
496.605	20328.19
496.974	20460.85
497.344	20621.29
497.713	20810.44
498.082	20949.65
498.452	21065.58
498.821	21378.56
499.19	21339.02
499.559	21560.48
499.928	21689.29
500.298	21788.27
500.667	22048.15
501.036	22052.44
501.405	22330.4
501.774	22342.38
502.143	22524.07
502.512	22685.42
502.88	22936.71
503.249	22824.17
503.618	23101
503.987	23169.93
504.356	23420.77
504.724	23504.16
505.093	23563.36
505.462	23723.13
505.83	24012.17
506.199	24144.82
506.567	24345.72
506.936	24295.55
507.304	24669.55
507.672	24786.83
508.041	24886.49
508.409	25120.84
508.777	25273.6
509.145	25553.14
509.514	25518.34
509.882	25716.98
510.25	25925.56
510.618	26147.02
510.986	26271.09
511.354	26447.81
511.722	26673.11
512.09	26985.19
512.458	26853.67
512.826	27159.65
513.193	27294.11
513.561	27388.35
513.929	27711.95
514.297	27927.32
514.664	28087.76
515.032	28124.15
515.4	28394.42
515.767	28655.21
516.135	28706.05
516.502	28699.27
516.869	29287.51
517.237	29360.73
517.604	29238.47
517.972	29644.56
518.339	29963.2
518.706	29979.92
519.073	30139.46
519.44	30403.18
519.808	30804.75
520.175	30727.47
520.542	31324.97
520.909	31362.71
521.276	31324.74
521.643	31729.93
522.009	31942.8
522.376	32230.71
522.743	32328.56
523.11	32776.23
523.477	32992.04
523.843	33126.73
524.21	33506.83
524.577	33825.47
524.943	33916.99
525.31	34226.81
525.676	34363.08
526.043	34567.82
526.409	34795.61
526.776	35133.91
527.142	35287.35
527.508	35496.84
527.874	35642.59
528.241	36062.92
528.607	36012.08
528.973	36402.12
529.339	36370.03
529.705	36932.96
530.071	37148.77
530.437	37195.77
530.803	37604.35
531.169	37645.25
531.535	37711.47
531.901	37929.99
532.267	37969.99
532.632	38288.85
532.998	38539.92
533.364	38673.02
533.73	38768.16
534.095	39096.97
534.461	39326.34
534.826	39373.8
535.192	39599.1
535.557	39885.87
535.923	39909.83
536.288	40078.18
536.653	40127.9
537.019	40256.03
537.384	40565.63
537.749	40676.36
538.114	40648.56
538.479	40972.62
538.845	40999.06
539.21	40889.69
539.575	41132.62
539.94	41298.72
540.305	41642.21
540.67	41450.12
541.034	41777.8
541.399	41808.53
541.764	41985.7
542.129	42201.74
542.494	42276.32
542.858	42486.71
543.223	42576.65
543.587	42776.87
543.952	42799.92
544.316	43135.73
544.681	42999.01
545.045	43373.46
545.41	43511.54
545.774	43482.16
546.138	43693.23
546.503	43780.46
546.867	43860.68
547.231	44156.49
547.595	44140.45
547.959	44356.49
548.324	44373.21
548.688	44431.29
549.052	44652.98
549.416	44842.8
549.779	44936.36
550.143	45014.55
550.507	45321.89
550.871	45498.38
551.235	45541.77
551.599	45862.21
551.962	45900.86
552.326	46025.15
552.689	46287.06
553.053	46233.5
553.417	46401.86
553.78	46843.2
554.143	46611.57
554.507	46816.09
554.87	47085.23
555.234	47414.49
555.597	47274.15
555.96	47426.69
556.323	47605.9
556.686	47713.91
557.05	48047.24
557.413	48120.01
557.776	48197.52
558.139	48322.94
558.502	48570.16
558.865	48615.59
559.228	48884.51
559.59	49114.1
559.953	49201.79
560.316	49599.52
560.679	49501.21
561.041	49804.48
561.404	49995.89
561.767	50276.56
562.129	50131.03
562.492	50507.51
562.854	50469.55
563.217	50531.47
563.579	50696.89
563.941	50926.49
564.304	51069.31
564.666	51226.36
565.028	51284.67
565.39	51448.96
565.753	51681.49
566.115	51770.53
566.477	51908.38
566.839	52035.38
567.201	52209.16
567.563	52301.82
567.925	52552.43
568.287	52538.42
568.648	52537.74
569.01	52835.59
569.372	52969.6
569.734	52914.23
570.095	53199.42
570.457	53287.78
570.819	53455.46
571.18	53361.9
571.542	53572.07
571.903	53606.42
572.265	53637.15
572.626	53820.87
572.987	53869.23
573.349	53985.61
573.71	54098.15
574.071	54091.83
574.432	54236.68
574.794	54477.35
575.155	54417.47
575.516	54288.66
575.877	54476.9
576.238	54502.89
576.599	54701.98
576.96	54681.87
577.32	54746.27
577.681	54803.67
578.042	54920.28
578.403	54892.71
578.763	54983.33
579.124	54983.78
579.485	55110.1
579.845	55200.5
580.206	55132.7
580.566	55107.62
580.927	55214.73
581.287	55331.57
581.648	55173.61
582.008	55329.53
582.368	55210.67
582.728	55329.31
583.089	55229.65
583.449	55287.28
583.809	55323.88
584.169	55348.74
584.529	55380.61
584.889	55573.6
585.249	55406.37
585.609	55335.64
585.969	55509.87
586.329	55398.46
586.688	55499.47
587.048	55410.89
587.408	55372.24
587.768	55445.24
588.127	55406.37
588.487	55365.24
588.846	55551
589.206	55389.87
589.565	55453.15
589.925	55553.03
590.284	55468.74
590.643	55565.91
591.003	55592.8
591.362	55635.51
591.721	55635.29
592.08	55581.73
592.44	55661.73
592.799	55658.11
593.158	55613.37
593.517	55546.03
593.876	55657.89
594.235	55507.16
594.593	55593.48
594.952	55608.17
595.311	55479.81
595.67	55628.96
596.029	55755.06
596.387	55729.52
596.746	55783.53
597.104	55659.02
597.463	55665.8
597.822	55758
598.18	55679.36
598.538	55621.05
598.897	55870.31
599.255	55670.54
599.613	56022.85
599.972	55958.22
600.33	55973.36
600.688	55861.05
601.046	55982.4
601.404	56062.85
601.762	55909.86
602.12	56087.25
602.478	56080.02
602.836	56026.69
603.194	55855.17
603.552	55937.88
603.91	55911.44
604.268	56142.62
604.625	55996.86
604.983	56129.96
605.341	55918.67
605.698	56125.9
606.056	56189.4
606.413	56215.16
606.771	56303.52
607.128	56318.89
607.485	56169.96
607.843	56250.64
608.2	56390.97
608.557	56480.46
608.914	56352.33
609.272	56492.22
609.629	56496.28
609.986	56619.67
610.343	56528.37
610.7	56687.24
611.057	56637.97
611.414	56581.03
611.771	56624.19
612.127	56696.05
612.484	56693.11
612.841	56764.52
613.198	56664.64
613.554	56703.06
613.911	56885.65
614.267	56829.83
614.624	56805.88
614.98	56961.58
615.337	56987.57
615.693	56892.2
616.05	56935.37
616.406	57098.3
616.762	56912.09
617.118	56947.8
617.475	56972.2
617.831	57102.14
618.187	57002.03
618.543	57104.85
618.899	57154.57
619.255	57116.61
619.611	57096.27
619.967	57242.7
620.323	57229.82
620.678	57155.47
621.034	56999.09
621.39	57037.29
621.746	57044.52
622.101	57381.46
622.457	57114.35
622.812	57177.39
623.168	57229.37
623.523	57225.76
623.879	57234.34
624.234	57067.12
624.589	57201.8
624.945	57194.8
625.3	57229.37
625.655	57263.49
626.01	57324.74
626.365	57281.57
626.72	57176.49
627.075	57204.74
627.43	57155.7
627.785	57038.64
628.14	57198.41
628.495	57208.58
628.85	57083.39
629.205	57056.72
629.559	57194.8
629.914	57102.82
630.269	57022.14
630.623	56911.19
630.978	56937.63
631.332	57074.57
631.687	56997.96
632.041	56804.98
632.396	56901.7
632.75	56831.42
633.104	56845.2
633.459	56713.45
633.813	56704.41
634.167	56712.1
634.521	56777.18
634.875	56737.86
635.229	56642.04
635.583	56494.47
635.937	56539.22
636.291	56523.85
636.645	56530.18
636.999	56477.98
637.352	56609.05
637.706	56367.92
638.06	56466.68
638.413	56354.14
638.767	56275.5
639.121	56293.35
639.474	56268.94
639.828	56263.29
640.181	56171.09
640.534	56206.35
640.888	56138.78
641.241	56001.15
641.594	56076.41
641.947	56122.73
642.301	56041.15
642.654	56126.58
643.007	56029.4
643.36	55990.31
643.713	55922.51
644.066	56073.02
644.419	55680.94
644.771	55445.24
645.124	55087.73
645.477	55069.88
645.83	54954.63
646.182	54989.88
646.535	54890.68
646.888	55095.87
647.24	54941.75
647.593	55117.34
647.945	54905.14
648.298	54758.7
648.65	54710.79
649.002	54785.59
649.355	54779.04
649.707	54708.08
650.059	54694.07
650.411	54989.88
650.763	55003.21
651.115	55278.46
651.467	55272.59
651.819	55230.1
652.171	55078.69
652.523	55082.99
652.875	55094.29
653.227	54988.07
653.578	55156.88
653.93	55050.67
654.282	54882.54
654.633	54871.24
654.985	54943.1
655.337	54996.44
655.688	54854.29
656.039	54966.83
656.391	54696.78
656.742	54792.15
657.094	54786.5
657.445	54851.13
657.796	54741.98
658.147	54676.9
658.498	54678.93
658.849	54675.77
659.2	54646.16
659.551	54579.95
659.902	54652.26
660.253	54636.67
660.604	54595.09
660.955	54432.38
661.306	54578.37
661.656	54527.3
662.007	54428.77
662.358	54504.02
662.708	54463.79
663.059	54431.25
663.409	54224.93
663.76	54446.85
664.11	54404.59
664.461	54450.01
664.811	54386.96
665.161	54395.32
665.511	54267.19
665.862	54333.85
666.212	54316.91
666.562	54421.54
666.912	54288.88
667.262	54226.96
667.612	54184.03
667.962	54269
668.312	54102.9
668.662	54286.4
669.011	54136.12
669.361	54128.44
669.711	54052.96
670.06	54094.76
670.41	54009.34
670.76	54028.33
671.109	54116.46
671.459	54028.78
671.808	53913.3
672.157	53977.48
672.507	53800.08
672.856	53784.72
673.205	53800.99
673.554	53906.75
673.904	53812.29
674.253	53879.63
674.602	53792.85
674.951	53452.75
675.3	53262.7
675.649	53766.86
675.998	53584.5
676.346	53701.55
676.695	53796.69
677.044	53501.33
677.393	53571.39
677.741	53629.69
678.09	53440.77
678.438	53547.43
678.787	53522.8
679.135	53554.89
679.484	53333.65
679.832	53457.49
680.181	53246.65
680.529	53295.24
680.877	53198.97
681.225	53176.14
681.573	53333.43
681.922	53127.78
682.27	53021.12
682.618	53093.21
682.966	53031.52
683.314	52971.18
683.661	52997.39
684.009	52674.91
684.357	52709.26
684.705	52601.7
685.053	52634.24
685.4	52544.52
685.748	52507.24
686.095	52295.26
686.443	52276.96
686.79	52182.05
687.138	52278.54
687.485	52212.78
687.832	52072.44
688.18	52140.69
688.527	51920.13
688.874	51946.8
689.221	51777.54
689.568	51731.89
689.915	51690.08
690.262	51567.82
690.609	51519.24
690.956	51475.17
691.303	51449.64
691.65	51181.17
691.997	51199.92
692.344	51036.31
692.69	51051.91
693.037	51046.71
693.383	50678.58
693.73	50802.42
694.077	50618.02
694.423	50670.22
694.769	50451.7
695.116	50493.73
695.462	50381.87
695.808	50218.48
696.155	50323.11
696.501	49964.93
696.847	49956.12
697.193	49709.79
697.539	49874.54
697.885	49578.05
698.231	49472.06
698.577	49609.46
698.923	49401.1
699.269	49221.9
699.614	48935.35
699.96	48923.83
700.306	49030.26
700.651	48754.57
700.997	48579.43
701.342	48538.53
701.688	48523.39
702.033	48422.14
702.379	48419.66
702.724	48198.65
703.069	48242.94
703.415	47745.78
703.76	47953.91
704.105	47827.36
704.45	47647.48
704.795	47465.56
705.14	47388.73
705.485	47396.18
705.83	47157.32
706.175	47275.06
706.52	47127.72
706.865	46916.65
707.209	46868.74
707.554	46743.77
707.899	46854.5
708.243	46476.21
708.588	46642.08
708.932	46299.04
709.277	46242.32
709.621	46270.11
709.966	45902.66
710.31	46191.7
710.654	45757.81
710.998	45793.29
711.342	45797.58
711.687	45580.19
712.031	45369.57
712.375	45412.96
712.719	45325.28
713.063	45320.08
713.407	45306.07
713.75	45077.6
714.094	45052.06
714.438	44931.16
714.782	44967.55
715.125	44703.82
715.469	44842.13
715.812	44553.77
716.156	44440.1
716.499	44335.7
716.843	44462.02
717.186	44172.54
717.53	44263.84
717.873	44254.34
718.216	44184.06
718.559	43879.21
718.902	43707.47
719.246	43674.02
719.589	43665.21
719.932	43466.57
720.275	43410.53
720.617	43441.03
720.96	43287.82
721.303	43445.78
721.646	43314.26
721.989	42988.16
722.331	43133.7
722.674	42881.5
723.016	42903.87
723.359	42914.49
723.701	42802.86
724.044	42656.87
724.386	42396.77
724.729	42461.4
725.071	42525.58
725.413	42484.22
725.755	42346.37
726.097	42147.73
726.439	41895.08
726.782	41957.23
727.124	42165.13
727.465	41929.43
727.807	41927.63
728.149	41893.73
728.491	41752.94
728.833	41801.53
729.175	41495.77
729.516	41634.75
729.858	41441.54
730.199	41358.83
730.541	41481.31
730.882	41213.97
731.224	41484.25
731.565	41111.15
731.906	41045.16
732.248	41097.59
732.589	40820.08
732.93	40707.55
733.271	40697.15
733.612	40832.51
733.953	40775.34
734.294	40652.63
734.635	40636.13
734.976	40489.47
735.317	40378.51
735.658	40183.27
735.999	40243.38
736.339	40104.4
736.68	40331.51
737.021	40076.15
737.361	39939.2
737.702	40040.67
738.042	39935.14
738.383	39805.87
738.723	39841.58
739.063	39773.56
739.404	39809.04
739.744	39705.09
740.084	39563.39
740.424	39419.22
740.764	39365.43
741.104	39461.02
741.444	39162.95
741.784	39038.44
742.124	39277.07
742.464	39073.69
742.804	38933.58
743.143	38927.93
743.483	38853.13
743.823	38696.75
744.162	38690.2
744.502	38681.61
744.841	38514.16
745.181	38537.21
745.52	38489.07
745.86	38403.65
746.199	38362.3
746.538	38233.49
746.877	38246.82
747.216	38342.18
747.556	38204.79
747.895	38260.15
748.234	37964.57
748.573	37873.27
748.911	37749.66
749.25	37760.73
749.589	37559.83
749.928	37626.04
750.267	37563
750.605	37418.14
750.944	37346.96
751.283	37228.99
751.621	37293.17
751.96	36943.58
752.298	37023.8
752.636	37019.05
752.975	36916.68
753.313	36751.94
753.651	36880.53
753.989	36557.15
754.327	36494.55
754.666	36373.65
755.004	36460.88
755.342	36426.98
755.679	36255.23
756.017	36033.32
756.355	36102.02
756.693	35955.35
757.031	35951.51
757.368	35765.75
757.706	35663.61
758.044	35575.03
758.381	35537.51
758.719	35300.91
759.056	35410.96
759.394	35273.11
759.731	35156.73
760.068	34893.46
760.405	34802.62
760.743	34675.61
761.08	34820.24
761.417	34621.83
761.754	34571.66
762.091	34380.03
762.428	34274.95
762.765	34057.32
763.102	34211.22
763.438	34038.57
763.775	33757.9
764.112	33842.64
764.449	33831.57
764.785	33662.98
765.122	33423.22
765.458	33319.04
765.795	33314.07
766.131	33097.35
766.467	33043.79
766.804	32782.56
767.14	32804.25
767.476	32736.46
767.812	32482
768.148	32459.17
768.485	32290.82
768.821	32280.42
769.157	32112.74
769.492	32140.31
769.828	32022.12
770.164	31788.68
770.5	31668.69
770.836	31674.79
771.171	31463.95
771.507	31337.4
771.842	31221.02
772.178	31204.74
772.513	31072.32
772.849	31158.19
773.184	30785.32
773.519	30765.43
773.855	30624.42
774.19	30490.64
774.525	30299.23
774.86	30303.98
775.195	30198.22
775.53	30141.95
775.865	29954.16
776.2	29768.4
776.535	29601.85
776.87	29504
777.205	29348.75
777.539	29217.45
777.874	29340.61
778.209	29017.46
778.543	29034.18
778.878	28822.43
779.212	28808.88
779.547	28575.44
779.881	28704.7
780.215	28501.54
780.55	28426.96
780.884	28191.49
781.218	28125.5
781.552	28132.73
781.886	27964.83
782.22	27909.01
782.554	27697.04
782.888	27471.51
783.222	27534.33
783.556	27309.25
783.889	27349.93
784.223	27022.71
784.557	27027.45
784.89	27064.06
785.224	26816.84
785.557	26578.88
785.891	26523.06
786.224	26586.33
786.558	26405.55
786.891	26259.34
787.224	26109.06
787.557	26197.42
787.891	26070.64
788.224	26021.83
788.557	25967.82
788.89	25834.49
789.223	25800.82
789.556	25622.52
789.888	25581.39
790.221	25380.04
790.554	25213.94
790.887	25359.93
791.219	25160.61
791.552	25185.02
791.884	25089.88
792.217	24907.28
792.549	24778.92
792.882	24699.38
793.214	24585.71
793.546	24629.1
793.879	24500.97
794.211	24293.97
794.543	24339.39
794.875	24153.86
795.207	24168.32
795.539	23999.96
795.871	24074.08
796.203	23890.81
796.535	23818.72
796.867	23707.09
797.198	23637.49
797.53	23575.11
797.862	23406.53
798.193	23435.91
798.525	23278.4
798.856	23225.75
799.188	23073.66
799.519	22921.8
799.85	22904.62
800.182	22874.12
800.513	22843.16
800.844	22588.25
801.175	22675.7
801.506	22594.58
801.837	22524.75
802.168	22412.21
802.499	22453.34
802.83	22278.43
803.161	22177.41
803.491	22184.42
803.822	22116.62
804.153	22005.89
804.483	21880.47
804.814	21821.49
805.145	21808.83
805.475	21716.63
805.805	21489.97
806.136	21647.48
806.466	21547.37
806.796	21634.37
807.126	21487.26
807.457	21282.07
807.787	21312.58
808.117	21204.1
808.447	21144.44
808.777	21161.62
809.107	21080.04
809.436	20997.1
809.766	20975.18
810.096	20924.34
810.426	20946.26
810.755	20835.75
811.085	20740.84
811.414	20775.87
811.744	20591.46
812.073	20528.42
812.403	20543.33
812.732	20360.96
813.061	20201.42
813.39	20183.57
813.719	20125.94
814.049	20308.08
814.378	20099.27
814.707	20041.2
815.036	19927.3
815.365	19854.76
815.693	19664.03
816.022	19755.1
816.351	19699.74
816.68	19614.09
817.008	19732.28
817.337	19604.37
817.665	19512.17
817.994	19617.93
818.322	19476.24
818.651	19338.84
818.979	19368.45
819.307	19406.64
819.636	19248.22
819.964	19117.83
820.292	19100.43
820.62	19184.27
820.948	19125.51
821.276	19104.72
821.604	19058.85
821.932	19082.8
822.259	19118.06
822.587	19049.58
822.915	19039.87
823.243	19095.68
823.57	18933.88
823.898	18973.88
824.225	18869.02
824.553	18933.88
824.88	18933.2
825.207	19013.43
825.535	18837.39
825.862	18920.1
826.189	18937.5
826.516	19052.3
826.843	19025.4
827.17	18932.75
827.497	18891.62
827.824	19030.38
828.151	18874.67
828.478	18872.64
828.805	18984.73
829.131	18847.33
829.458	18866.31
829.785	18774.56
830.111	18845.75
830.438	18987.44
830.764	18873.77
831.09	18824.05
831.417	18689.59
831.743	18856.14
832.069	18780.21
832.395	18721.68
832.722	18740.21
833.048	18701.57
833.374	18736.82
833.7	18707.67
834.026	18710.16
834.351	18741.12
834.677	18662.93
835.003	18646.43
835.329	18648.01
835.654	18581.8
835.98	18480.11
836.306	18568.92
836.631	18530.28
836.956	18631.52
837.282	18570.73
837.607	18517.17
837.932	18496.6
838.258	18436.72
838.583	18405.53
838.908	18260.45
839.233	18281.69
839.558	18313.33
839.883	18255.25
840.208	18120.34
840.533	18282.82
840.858	18155.14
841.182	18229.27
841.507	18149.95
841.832	18018.65
842.156	18020.91
842.481	17958.54
842.805	17977.75
843.13	17882.61
843.454	17902.04
843.778	17770.97
844.103	17789.5
844.427	17759.67
844.751	17762.84
845.075	17688.04
845.399	17603.97
845.723	17510.19
846.047	17517.65
846.371	17468.16
846.695	17348.39
847.019	17201.72
847.343	17170.76
847.666	17074.72
847.99	16950.43
848.313	16992.24
848.637	16912.69
848.96	16918.57
849.284	16811
849.607	16727.61
849.931	16682.87
850.254	16571
850.577	16523.1
850.9	16468.63
851.223	16425.92
851.546	16336.43
851.869	16218.02
852.192	16300.5
852.515	16142.77
852.838	16083.33
853.161	16137.12
853.483	16023.45
853.806	15862.77
854.129	15824.36
854.451	15853.74
854.774	15787.97
855.096	15640.86
855.419	15668.88
855.741	15658.71
856.063	15556.57
856.385	15514.76
856.708	15478.83
857.03	15398.38
857.352	15350.25
857.674	15379.85
857.996	15219.18
858.318	15183.47
858.64	15226.41
858.961	15072.97
859.283	15061.67
859.605	14998.84
859.926	15074.1
860.248	15114.09
860.57	15013.53
860.891	14998.62
861.212	14867.09
861.534	14828.45
861.855	14799.53
862.176	14788
862.498	14877.04
862.819	14834.55
863.14	14776.48
863.461	14722.47
863.782	14705.74
864.103	14693.99
864.424	14709.36
864.745	14658.29
865.065	14543.71
865.386	14495.58
865.707	14471.4
866.027	14555.92
866.348	14535.58
866.668	14404.96
866.989	14439.76
867.309	14368.13
867.63	14332.65
867.95	14415.58
868.27	14327.67
868.59	14352.08
868.91	14379.2
869.23	14338.3
869.55	14155.02
869.87	14302.82
870.19	14277.05
870.51	14179.2
870.83	14220.33
871.15	14177.62
871.469	14143.5
871.789	14113.67
872.109	14127.45
872.428	14120
872.748	14099.43
873.067	14056.27
873.386	14130.17
873.706	13992.09
874.025	13872.77
874.344	13905.09
874.663	14040
874.982	13952.09
875.301	13977.4
875.62	13904.41
875.939	13811.98
876.258	13852.21
876.577	13765.2
876.896	13861.47
877.214	13727.01
877.533	13830.51
877.852	13823.73
878.17	13772.43
878.489	13649.05
878.807	13663.51
879.125	13550.97
879.444	13613.79
879.762	13481.14
880.08	13571.99
880.398	13590.97
880.716	13569.28
881.034	13425.78
881.352	13501.71
881.67	13461.03
881.988	13473.91
882.306	13416.74
882.624	13384.2
882.941	13325.44
883.259	13287.02
883.577	13217.42
883.894	13256.52
884.212	13193.01
884.529	13234.82
884.846	13231.21
885.164	13149.85
885.481	13161.15
885.798	13123.64
886.115	13060.14
886.432	13079.12
886.75	13053.58
887.067	13006.58
887.383	12971.78
887.7	12919.58
888.017	12920.71
888.334	12930.2
888.651	12812.23
888.967	12756.19
889.284	12781.27
889.6	12739.24
889.917	12569.08
890.233	12679.13
890.55	12534.5
890.866	12593.93
891.182	12572.01
891.498	12513.48
891.815	12508.29
892.131	12397.78
892.447	12405.24
892.763	12343.32
893.079	12358.01
893.395	12266.26
893.71	12319.82
894.026	12192.59
894.342	12202.53
894.657	12119.37
894.973	12026.49
895.289	12093.38
895.604	12049.32
895.92	11996.21
896.235	11930
896.55	11929.09
896.865	11933.84
897.181	11915.31
897.496	11861.52
897.811	11851.13
898.126	11682.55
898.441	11616.78
898.756	11741.08
899.071	11672.83
899.386	11727.52
899.7	11519.39
900.015	11528.43
900.33	11433.29
900.644	11425.83
900.959	11390.58
901.273	11339.05
901.588	11328.88
901.902	11308.09
902.216	11271.03
902.531	11248.21
902.845	11194.88
903.159	11105.61
903.473	11079.17
903.787	11016.35
904.101	10943.36
904.415	10922.57
904.729	10965.73
905.042	10874.43
905.356	10847.54
905.67	10904.94
905.984	10761.21
906.297	10743.36
906.611	10602.57
906.924	10688.45
907.237	10653.42
907.551	10646.64
907.864	10532.29
908.177	10453.43
908.491	10483.71
908.804	10420.43
909.117	10346.76
909.43	10231.96
909.743	10260.44
910.056	10252.08
910.368	10175.69
910.681	10146.77
910.994	10130.95
911.307	10040.33
911.619	10035.58
911.932	10041.23
912.244	9965.08
912.557	9981.12
912.869	9900.22
913.181	9900.22
913.494	9800.11
913.806	9760.79
914.118	9740.9
914.43	9704.52
914.742	9684.18
915.054	9623.17
915.366	9617.74
915.678	9521.47
915.99	9423.62
916.302	9477.41
916.613	9416.84
916.925	9415.26
917.236	9402.15
917.548	9303.63
917.859	9322.38
918.171	9190.18
918.482	9154.25
918.794	9087.59
919.105	9082.61
919.416	9028.38
919.727	8995.16
920.038	8970.53
920.349	8941.15
920.66	8827.25
920.971	8856.18
921.282	8852.56
921.593	8795.16
921.903	8754.94
922.214	8766.01
922.525	8710.87
922.835	8676.3
923.146	8601.27
923.456	8597.2
923.767	8526.7
924.077	8541.16
924.387	8418.68
924.697	8400.15
925.008	8517.43
925.318	8432.69
925.628	8322.86
925.938	8273.37
926.248	8243.77
926.558	8227.04
926.867	8160.83
927.177	8269.3
927.487	8107.72
927.796	8033.83
928.106	8075.41
928.416	8032.92
928.725	8004.9
929.034	7922.87
929.344	7907.5
929.653	7870.22
929.962	7804.46
930.271	7797.22
930.581	7764
930.89	7685.36
931.199	7671.8
931.508	7661.41
931.817	7672.03
932.125	7645.59
932.434	7554.29
932.743	7540.73
933.051	7472.49
933.36	7472.49
933.669	7439.95
933.977	7341.64
934.286	7372.6
934.594	7350.46
934.902	7308.88
935.21	7274.75
935.519	7280.4
935.827	7227.3
936.135	7171.7
936.443	7133.96
936.751	7091.93
937.059	7071.59
937.367	6979.39
937.674	7005.38
937.982	7007.19
938.29	6903.46
938.597	6972.39
938.905	6827.98
939.213	6864.14
939.52	6833.18
939.827	6814.88
940.135	6757.03
940.442	6761.09
940.749	6714.31
941.056	6692.39
941.363	6602
941.67	6660.08
941.977	6549.8
942.284	6497.15
942.591	6523.59
942.898	6436.58
943.205	6454.66
943.511	6390.26
943.818	6416.92
944.125	6345.29
944.431	6363.59
944.738	6345.51
945.044	6280.2
945.35	6237.72
945.657	6264.61
945.963	6240.88
946.269	6204.27
946.575	6175.8
946.881	6129.25
947.187	6127.66
947.493	6083.37
947.799	6013.09
948.105	6040.21
948.41	5936.71
948.716	6014.22
949.022	5890.16
949.327	5935.8
949.633	5898.52
949.938	5834.11
950.244	5855.35
950.549	5750.27
950.854	5733.78
951.16	5784.85
951.465	5736.94
951.77	5678.64
952.075	5670.27
952.38	5630.28
952.685	5635.25
952.99	5629.37
953.294	5600.67
953.599	5515.02
953.904	5519.77
954.209	5478.19
954.513	5489.71
954.818	5487.68
955.122	5402.71
955.426	5394.58
955.731	5440
956.035	5410.17
956.339	5345.99
956.643	5331.98
956.948	5331.07
957.252	5280.45
957.556	5268.25
957.86	5200.91
958.163	5204.3
958.467	5166.11
958.771	5197.52
959.075	5145.77
959.378	5110.52
959.682	5107.58
959.985	5015.38
960.289	5005.21
960.592	4980.58
960.896	4989.84
961.199	4952.33
961.502	4936.06
961.805	4920.24
962.108	4932.67
962.411	4861.26
962.714	4854.93
963.017	4798.89
963.32	4867.36
963.623	4800.92
963.926	4776.06
964.228	4731.77
964.531	4742.62
964.833	4743.75
965.136	4709.62
965.438	4661.49
965.741	4611.32
966.043	4617.87
966.345	4589.4
966.648	4575.16
966.95	4545.56
967.252	4550.08
967.554	4505.11
967.856	4495.39
968.158	4461.72
968.46	4478.22
968.761	4430.08
969.063	4414.26
969.365	4433.25
969.666	4394.6
969.968	4347.82
970.269	4392.12
970.571	4330.2
970.872	4313.25
971.174	4282.97
971.475	4240.71
971.776	4246.81
972.077	4253.36
972.378	4189.86
972.679	4157.77
972.98	4190.99
973.281	4122.52
973.582	4146.02
973.883	4108.06
974.183	4102.18
974.484	4062.86
974.785	4057.21
975.085	3997.55
975.386	4077.55
975.686	4017.21
975.986	3971.79
976.287	3974.95
976.587	4003.65
976.887	3923.65
977.187	3913.03
977.487	3929.76
977.787	3871.9
978.087	3844.11
978.387	3807.5
978.687	3846.59
978.987	3822.19
979.286	3776.31
979.586	3784.9
979.885	3737.9
980.185	3736.99
980.484	3673.49
980.784	3693.6
981.083	3716.65
981.382	3640.5
981.682	3661.74
981.981	3607.05
982.28	3612.02
982.579	3551.69
982.878	3592.36
983.177	3562.08
983.475	3560.05
983.774	3530.44
984.073	3529.77
984.372	3519.37
984.67	3470.56
984.969	3466.94
985.267	3456.32
985.566	3447.06
985.864	3405.7
986.162	3406.83
986.461	3393.72
986.759	3373.16
987.057	3344.91
987.355	3345.59
987.653	3322.99
987.951	3281.41
988.249	3274.41
988.547	3298.81
988.844	3195.54
989.142	3314.18
989.44	3198.93
989.737	3225.14
990.035	3208.42
990.332	3171.13
990.63	3171.81
990.927	3150.34
991.224	3172.71
991.521	3108.31
991.819	3117.57
992.116	3125.93
992.413	3114.86
992.71	3057.91
993.006	3057.69
993.303	3060.4
993.6	3027.41
993.897	3008.2
994.193	2981.31
994.49	2988.76
994.787	2959.84
995.083	2920.97
995.379	2946.5
995.676	2883.68
995.972	2872.38
996.268	2857.24
996.565	2841.2
996.861	2890.69
997.157	2806.4
997.453	2832.38
997.749	2798.03
998.044	2769.56
998.34	2766.4
998.636	2755.55
998.932	2750.58
999.227	2708.32
999.523	2707.41
999.818	2704.48
1000.114	2672.39
1000.409	2683.23
1000.704	2658.6
1001	2662.44
1001.295	2612.05
1001.59	2641.65
1001.885	2606.85
1002.18	2580.64
1002.475	2587.87
1002.77	2532.28
1003.065	2517.14
1003.359	2547.19
1003.654	2527.76
1003.949	2464.03
1004.243	2509.45
1004.538	2429.68
1004.832	2449.34
1005.127	2435.78
1005.421	2420.42
1005.715	2408.44
1006.009	2422.9
1006.304	2409.12
1006.598	2370.93
1006.892	2381.77
1007.186	2314.43
1007.48	2322.79
1007.773	2330.25
1008.067	2281.89
1008.361	2289.35
1008.655	2269.69
1008.948	2249.57
1009.242	2259.97
1009.535	2217.71
1009.829	2203.47
1010.122	2166.86
1010.415	2212.74
1010.708	2196.02
1011.001	2155.11
1011.295	2159.41
1011.588	2176.81
1011.881	2121.44
1012.173	2111.95
1012.466	2088.9
1012.759	2090.93
1013.052	2085.51
1013.344	2065.62
1013.637	2064.04
1013.93	2048.22
1014.222	2048.45
1014.514	2030.82
1014.807	2016.81
1015.099	2007.77
1015.391	1958.73
1015.683	1982.46
1015.976	1973.87
1016.268	1945.85
1016.56	1921.9
1016.851	1892.97
1017.143	1885.06
1017.435	1879.87
1017.727	1899.75
1018.018	1845.29
1018.31	1857.95
1018.602	1885.74
1018.893	1826.76
1019.185	1824.5
1019.476	1812.75
1019.767	1800.55
1020.058	1782.92
1020.35	1761.22
1020.641	1733.43
1020.932	1731.4
1021.223	1727.78
1021.514	1709.47
1021.804	1690.27
1022.095	1685.97
1022.386	1679.65
1022.677	1645.97
1022.967	1650.27
1023.258	1643.04
1023.548	1621.12
1023.839	1620.44
1024.129	1607.33
1024.419	1598.29
1024.709	1594.9
1025	1570.72
1025.29	1555.35
1025.58	1559.42
1025.87	1527.11
1026.16	1518.29
1026.449	1526.88
1026.739	1536.37
1027.029	1518.52
1027.319	1493.44
1027.608	1511.97
1027.898	1472.64
1028.187	1457.73
1028.477	1427.22
1028.766	1435.13
1029.055	1435.13
1029.344	1421.12
1029.634	1411.18
1029.923	1395.81
1030.212	1412.99
1030.501	1386.32
1030.79	1360.78
1031.078	1360.33
1031.367	1351.97
1031.656	1345.19
1031.945	1335.47
1032.233	1337.28
1032.522	1311.75
1032.81	1316.26
1033.099	1290.73
1033.387	1280.33
1033.675	1282.82
1033.963	1250.73
1034.251	1244.18
1034.54	1242.59
1034.828	1270.39
1035.116	1234.01
1035.403	1220
1035.691	1233.33
1035.979	1191.97
1036.267	1163.05
1036.554	1194.23
1036.842	1184.29
1037.129	1194.91
1037.417	1177.74
1037.704	1163.95
1037.992	1164.63
1038.279	1159.43
1038.566	1141.58
1038.853	1141.58
1039.14	1141.58
