Data from foil_FLMS001491_048.txt Node
Date: Tue Feb 07 11:26:57 GMT 2017
User: dcchb
Spectrometer: FLMS00149
Trigger mode: 0
Integration Time (sec): 2.000000E-2
Scans to average: 10
Electric dark correction enabled: true
Nonlinearity correction enabled: false
Boxcar width: 0
XAxis mode: Wavelengths
Number of Pixels in Spectrum: 2048
>>>>>Begin Spectral Data<<<<<
341.393	-22.71
341.776	-22.71
342.16	-22.71
342.543	-66.78
342.927	-51.41
343.31	-67.68
343.693	-76.72
344.077	-59.55
344.46	-67.23
344.843	-67.68
345.226	-24.97
345.61	-41.02
345.993	-21.36
346.376	11.64
346.759	17.97
347.142	11.19
347.525	31.3
347.908	50.06
348.291	74.69
348.674	109.94
349.057	119.43
349.44	129.83
349.823	140.9
350.206	175.7
350.588	229.71
350.971	245.08
351.354	282.14
351.737	299.54
352.119	324.4
352.502	321.69
352.884	347.45
353.267	303.61
353.65	334.12
354.032	344.28
354.414	363.95
354.797	361.91
355.179	415.47
355.562	395.36
355.944	388.8
356.326	398.52
356.709	376.15
357.091	413.44
357.473	408.24
357.855	397.16
358.238	391.06
358.62	413.66
359.002	404.85
359.384	426.32
359.766	421.34
360.148	424.06
360.53	419.09
360.912	411.85
361.294	417.05
361.676	408.01
362.057	398.29
362.439	444.62
362.821	405.53
363.203	423.15
363.584	403.27
363.966	432.64
364.348	395.13
364.729	415.02
365.111	426.32
365.493	435.36
365.874	430.84
366.256	418.18
366.637	438.07
367.019	443.72
367.4	423.83
367.781	448.24
368.163	424.73
368.544	432.19
368.925	433.32
369.306	452.76
369.688	451.63
370.069	452.53
370.45	441.01
370.831	443.27
371.212	462.47
371.593	462.25
371.974	444.85
372.355	454.11
372.736	475.35
373.117	450.95
373.498	459.99
373.879	459.99
374.26	469.48
374.641	438.75
375.021	465.86
375.402	497.28
375.783	490.04
376.163	521.23
376.544	533.21
376.925	504.05
377.305	515.13
377.686	532.3
378.066	523.72
378.447	509.03
378.827	533.66
379.208	516.26
379.588	512.42
379.968	509.25
380.349	525.75
380.729	558.74
381.109	534.56
381.489	555.13
381.87	548.57
382.25	593.77
382.63	544.05
383.01	576.14
383.39	596.48
383.77	565.97
384.15	590.38
384.53	563.26
384.91	597.61
385.29	609.59
385.67	609.81
386.049	597.84
386.429	598.52
386.809	633.77
387.189	615.01
387.568	649.14
387.948	643.71
388.328	633.09
388.707	650.27
389.087	658.17
389.466	685.07
389.846	692.3
390.225	696.14
390.605	701.34
390.984	695.69
391.363	699.98
391.743	718.06
392.122	727.33
392.501	728.68
392.881	763.03
393.26	747.89
393.639	764.39
394.018	756.48
394.397	768.91
394.776	785.63
395.155	790.83
395.534	784.05
395.913	786.31
396.292	826.53
396.671	796.25
397.05	830.83
397.429	836.02
397.808	834.22
398.186	848.68
398.565	840.99
398.944	879.86
399.323	857.94
399.701	869.24
400.08	921.9
400.458	898.39
400.837	920.31
401.215	894.1
401.594	956.92
401.972	934.55
402.351	929.81
402.729	960.54
403.107	983.36
403.486	988.34
403.864	985.4
404.242	980.88
404.62	1002.8
404.999	1002.8
405.377	1012.97
405.755	1025.85
406.133	1055.68
406.511	1064.94
406.889	1096.36
407.267	1105.85
407.645	1119.18
408.023	1124.6
408.401	1121.67
408.779	1141.78
409.156	1178.61
409.534	1193.75
409.912	1188.78
410.29	1226.3
410.667	1250.48
411.045	1242.79
411.422	1274.43
411.8	1247.99
412.178	1290.7
412.555	1289.12
412.933	1317.37
413.31	1336.12
413.687	1337.25
414.065	1351.72
414.442	1394.2
414.819	1390.58
415.197	1419.96
415.574	1426.74
415.951	1425.39
416.328	1487.08
416.705	1438.49
417.082	1485.05
417.46	1484.37
417.837	1509.68
418.214	1509
418.591	1552.61
418.967	1536.34
419.344	1570.24
419.721	1607.3
420.098	1614.53
420.475	1641.43
420.852	1645.72
421.228	1658.37
421.605	1649.79
421.982	1717.13
422.358	1684.36
422.735	1703.12
423.111	1706.06
423.488	1777.92
423.864	1770.69
424.241	1819.5
424.617	1806.17
424.994	1825.38
425.37	1834.87
425.746	1835.77
426.123	1870.8
426.499	1887.75
426.875	1918.03
427.251	1974.52
427.627	1990.12
428.003	2008.42
428.379	2054.97
428.756	2060.62
429.132	2084.8
429.507	2101.53
429.883	2138.81
430.259	2166.61
430.635	2193.95
431.011	2190.56
431.387	2249.55
431.763	2305.82
432.138	2299.26
432.514	2357.79
432.89	2351.24
433.265	2424.23
433.641	2475.3
434.016	2508.52
434.392	2509.88
434.767	2537.67
435.143	2568.86
435.518	2560.95
435.894	2568.18
436.269	2645.69
436.644	2679.14
437.02	2687.27
437.395	2680.95
437.77	2788.51
438.145	2786.25
438.52	2806.59
438.895	2837.55
439.271	2841.17
439.646	2908.06
440.021	2925.69
440.395	2942.86
440.77	2904.9
441.145	2953.71
441.52	2996.64
441.895	3031.22
442.27	3047.04
442.645	3098.34
443.019	3122.52
443.394	3140.37
443.769	3166.81
444.143	3133.14
444.518	3208.84
444.892	3174.27
445.267	3231.67
445.641	3268.95
446.016	3302.4
446.39	3310.53
446.764	3343.53
447.139	3320.7
447.513	3371.32
447.887	3425.11
448.262	3411.32
448.636	3437.99
449.01	3534.26
449.384	3560.02
449.758	3532
450.132	3621.26
450.506	3605.44
450.88	3616.06
451.254	3638.21
451.628	3719.79
452.002	3788.04
452.376	3764.53
452.75	3815.15
453.123	3802.95
453.497	3858.77
453.871	3933.34
454.244	4030.29
454.618	4060.12
454.992	4072.1
455.365	4056.05
455.739	4157.29
456.112	4235.48
456.486	4275.71
456.859	4297.85
457.232	4368.81
457.606	4388.02
457.979	4396.61
458.352	4469.6
458.725	4541.01
459.099	4544.85
459.472	4663.49
459.845	4715.7
460.218	4739.42
460.591	4782.36
460.964	4782.59
461.337	4938.97
461.71	5003.37
462.083	5056.7
462.456	5046.08
462.829	5057.61
463.201	5173.08
463.574	5167.21
463.947	5298.73
464.32	5372.63
464.692	5414.43
465.065	5479.06
465.438	5531.04
465.81	5572.85
466.183	5681.32
466.555	5760.19
466.928	5801.54
467.3	5846.96
467.672	5907.08
468.045	6024.81
468.417	6059.61
468.789	6184.58
469.161	6160.63
469.534	6295.99
469.906	6430.45
470.278	6470.45
470.65	6511.35
471.022	6672.25
471.394	6788.64
471.766	6845.36
472.138	6956.31
472.51	7087.84
472.882	7183.43
473.253	7249.87
473.625	7310.2
473.997	7485.57
474.369	7547.49
474.74	7649.86
475.112	7766.01
475.484	7888.27
475.855	8025.44
476.227	8117.19
476.598	8316.28
476.97	8344.98
477.341	8608.25
477.713	8644.63
478.084	8777.51
478.455	8928.69
478.827	9058.86
479.198	9316.7
479.569	9365.52
479.94	9632.18
480.311	9728.67
480.682	9812.06
481.053	10109.45
481.424	10285.04
481.795	10390.12
482.166	10532.72
482.537	10706.72
482.908	10840.96
483.279	11027.17
483.65	11168.86
484.021	11397.1
484.391	11499.25
484.762	11675.06
485.133	11794.38
485.503	11925.22
485.874	12196.4
486.244	12182.17
486.615	12511.65
486.985	12670.51
487.356	12849.27
487.726	13004.06
488.097	13280.22
488.467	13270.72
488.837	13618.96
489.207	13693.09
489.578	13909.58
489.948	14105.28
490.318	14286.74
490.688	14340.3
491.058	14562.44
491.428	14746.62
491.798	14805.6
492.168	15159.94
492.538	15281.52
492.908	15450.33
493.278	15660.49
493.648	15625.01
494.017	15837.89
494.387	16022.06
494.757	16148.39
495.126	16320.81
495.496	16332.56
495.866	16559.68
496.235	16667.92
496.605	16933.45
496.974	16891.87
497.344	17125.09
497.713	17194.24
498.082	17313.33
498.452	17579.76
498.821	17675.81
499.19	17709.93
499.559	17772.75
499.928	18046.64
500.298	18145.85
500.667	18196.7
501.036	18321.44
501.405	18539.74
501.774	18459.06
502.143	18687.53
502.512	18859.5
502.88	19048.88
503.249	19034.64
503.618	19098.14
503.987	19287.97
504.356	19432.14
504.724	19601.86
505.093	19637.34
505.462	19807.95
505.83	19956.88
506.199	20125.23
506.567	20259.69
506.936	20325.91
507.304	20518.9
507.672	20647.93
508.041	20747.14
508.409	20902.16
508.777	21123.4
509.145	21356.61
509.514	21270.51
509.882	21479.77
510.25	21515.25
510.618	21740.56
510.986	21872.31
511.354	22055.35
511.722	22332.86
512.09	22361.33
512.458	22421.67
512.826	22642.23
513.193	22854.43
513.561	22856.01
513.929	23183.23
514.297	23234.3
514.664	23567.85
515.032	23536.22
515.4	23783.22
515.767	23805.81
516.135	24053.94
516.502	23954.06
516.869	24512.24
517.237	24567.6
517.604	24582.29
517.972	24873.58
518.339	25008.95
518.706	25098.44
519.073	25340.92
519.44	25390.86
519.808	25736.84
520.175	25732.09
520.542	26065.42
520.909	26205.53
521.276	26255.02
521.643	26608.45
522.009	26768.45
522.376	26995.11
522.743	27130.02
523.11	27414.31
523.477	27786.5
523.843	27805.48
524.21	28153.5
524.577	28414.96
524.943	28459.25
525.31	28511.45
525.676	29044.55
526.043	29181.27
526.409	29292
526.776	29642.5
527.142	29707.58
527.508	29896.95
527.874	30098.76
528.241	30341.46
528.607	30464.4
528.973	30663.94
529.339	30717.27
529.705	31043.82
530.071	31289.69
530.437	31397.71
530.803	31613.07
531.169	31751.37
531.535	31784.81
531.901	32031.81
532.267	32288.08
532.632	32461.18
532.998	32579.6
533.364	32903.88
533.73	32941.39
534.095	33104.33
534.461	33094.61
534.826	33370.76
535.192	33572.11
535.557	33781.37
535.923	33848.71
536.288	33883.06
536.653	34143.85
537.019	34112.21
537.384	34373.9
537.749	34530.05
538.114	34516.27
538.479	34692.08
538.845	34769.37
539.21	34791.06
539.575	35063.15
539.94	35219.98
540.305	35365.51
540.67	35374.55
541.034	35586.3
541.399	35657.93
541.764	36034.87
542.129	35998.49
542.494	36122.78
542.858	36322.1
543.223	36459.04
543.587	36559.6
543.952	36621.52
544.316	36765.93
544.681	36788.52
545.045	37068.29
545.41	37213.82
545.774	37087.5
546.138	37177.67
546.503	37541.5
546.867	37436.87
547.231	37780.14
547.595	37746.69
547.959	37967.25
548.324	38090.64
548.688	38234.36
549.052	38449.72
549.416	38453.11
549.779	38553
550.143	38806.55
550.507	39040.44
550.871	39182.36
551.235	39203.38
551.599	39437.27
551.962	39498.28
552.326	39506.64
552.689	39953.86
553.053	39893.3
553.417	40063.47
553.78	40410.8
554.143	40336.45
554.507	40383.46
554.87	40594.98
555.234	41002.2
555.597	40845.37
555.96	41171.46
556.323	41447.38
556.686	41365.58
557.05	41774.38
557.413	41827.94
557.776	41973.92
558.139	42285.1
558.502	42298.66
558.865	42519.22
559.228	42765.77
559.59	42919.44
559.953	42840.34
560.316	43338.86
560.679	43447.33
561.041	43723.48
561.404	43916.47
561.767	44119.86
562.129	44047.32
562.492	44547.42
562.854	44626.28
563.217	44779.73
563.579	44789.22
563.941	45034.41
564.304	45252.93
564.666	45605.92
565.028	45463.1
565.39	45832.81
565.753	46034.83
566.115	46161.84
566.477	46464.88
566.839	46435.95
567.201	46676.85
567.563	46755.95
567.925	47033
568.287	47120
568.648	47097.86
569.01	47394.8
569.372	47692.19
569.734	47700.78
570.095	48011.96
570.457	48088.57
570.819	48246.98
571.18	48268.67
571.542	48459.18
571.903	48420.76
572.265	48624.6
572.626	48762.9
572.987	48778.94
573.349	48945.49
573.71	49085.15
574.071	49218.48
574.432	49325.37
574.794	49531.92
575.155	49439.27
575.516	49427.29
575.877	49592.71
576.238	49796.32
576.599	49911.57
576.96	49878.12
577.32	49965.13
577.681	50097.55
578.042	50151.56
578.403	50123.77
578.763	50241.96
579.124	50278.79
579.485	50374.61
579.845	50481.5
580.206	50436.75
580.566	50433.82
580.927	50541.16
581.287	50524.21
581.648	50552.68
582.008	50755.84
582.368	50574.6
582.728	50657.76
583.089	50680.36
583.449	50706.12
583.809	50779.34
584.169	50768.72
584.529	50688.5
584.889	51071.76
585.249	50811.88
585.609	50735.5
585.969	50949.51
586.329	50780.47
586.688	50907.7
587.048	50931.2
587.408	50787.7
587.768	50879.91
588.127	50837.65
588.487	50817.08
588.846	51067.47
589.206	50778.89
589.565	50788.16
589.925	50940.02
590.284	50914.93
590.643	51067.24
591.003	51056.17
591.362	51137.98
591.721	50976.63
592.08	51044.19
592.44	51151.08
592.799	51163.74
593.158	50992.67
593.517	50995.61
593.876	50977.3
594.235	51018.88
594.593	51059.79
594.952	51145.89
595.311	51026.34
595.67	51069.5
596.029	51322.38
596.387	51361.25
596.746	51338.2
597.104	51234.25
597.463	51225.66
597.822	51298.88
598.18	51266.34
598.538	51227.24
598.897	51452.55
599.255	51115.61
599.613	51647.57
599.972	51367.8
600.33	51495.03
600.688	51329.61
601.046	51514.01
601.404	51655.93
601.762	51518.31
602.12	51664.07
602.478	51584.52
602.836	51622.03
603.194	51439.66
603.552	51569.38
603.91	51461.36
604.268	51687.12
604.625	51625.42
604.983	51730.5
605.341	51608.02
605.698	51755.36
606.056	51847.56
606.413	51795.81
606.771	51961.46
607.128	51910.61
607.485	51814.57
607.843	51824.29
608.2	52019.54
608.557	52088.69
608.914	51996.94
609.272	52078.07
609.629	52163.71
609.986	52245.29
610.343	52230.38
610.7	52442.12
611.057	52379.75
611.414	52331.84
611.771	52351.73
612.127	52444.38
612.484	52472.18
612.841	52511.27
613.198	52357.38
613.554	52431.28
613.911	52528.68
614.267	52537.94
614.624	52525.51
614.98	52671.27
615.337	52776.58
615.693	52701.1
616.05	52711.72
616.406	52955.1
616.762	52721.66
617.118	52773.41
617.475	52739.74
617.831	52974.54
618.187	52865.84
618.543	52860.87
618.899	53100.64
619.255	52934.31
619.611	52887.54
619.967	52885.28
620.323	52966.86
620.678	52976.57
621.034	52873.75
621.39	52937.48
621.746	52739.52
622.101	53296.79
622.457	52963.69
622.812	53114.2
623.168	53033.07
623.523	52987.65
623.879	53106.06
624.234	52866.75
624.589	52971.38
624.945	52986.74
625.3	53089.79
625.655	53085.27
626.01	53061.77
626.365	53061.09
626.72	52932.28
627.075	53038.72
627.43	52929.12
627.785	52867.88
628.14	52910.59
628.495	52925.5
628.85	52908.55
629.205	52839.18
629.559	52984.48
629.914	52703.59
630.269	52809.8
630.623	52616.36
630.978	52521.67
631.332	52751.95
631.687	52809.35
632.041	52671.04
632.396	52708.11
632.75	52540.88
633.104	52556.92
633.459	52478.06
633.813	52528.22
634.167	52519.41
634.521	52366.19
634.875	52466.3
635.229	52385.4
635.583	52173.2
635.937	52292.07
636.291	52121.91
636.645	52205.52
636.999	52074
637.352	52174.56
637.706	52041.23
638.06	52052.3
638.413	51884.85
638.767	52000.55
639.121	51981.8
639.474	51766.66
639.828	51675.59
640.181	51804.63
640.534	51826.77
640.888	51705.42
641.241	51541.58
641.594	51587.68
641.947	51667.68
642.301	51537.74
642.654	51609.83
643.007	51495.71
643.36	51497.74
643.713	51400.34
644.066	51550.17
644.419	51132.33
644.771	50888.27
645.124	50353.59
645.477	50298.45
645.83	50276.53
646.182	50217.78
646.535	50144.11
646.888	50407.15
647.24	50275.85
647.593	50549.97
647.945	50338.45
648.298	50215.52
648.65	50159.02
649.002	49990.44
649.355	50061.85
649.707	49889.42
650.059	49918.35
650.411	50267.94
650.763	50459.35
651.115	50797.87
651.467	50609.4
651.819	50593.13
652.171	50532.57
652.523	50415.28
652.875	50373.93
653.227	50218.23
653.578	50449.41
653.93	50421.84
654.282	50158.79
654.633	50184.78
654.985	50224.78
655.337	50160.83
655.688	50158.57
656.039	50213.93
656.391	49898.69
656.742	49997.22
657.094	49936.2
657.445	50091.9
657.796	49859.59
658.147	49881.97
658.498	49803.32
658.849	49867.95
659.2	49782.76
659.551	49728.75
659.902	49844.45
660.253	49728.52
660.604	49684.91
660.955	49655.3
661.306	49760.16
661.656	49750.9
662.007	49667.06
662.358	49629.99
662.708	49561.97
663.059	49563.1
663.409	49416.89
663.76	49665.93
664.11	49527.62
664.461	49577.34
664.811	49639.94
665.161	49532.82
665.511	49492.6
665.862	49392.03
666.212	49503.9
666.562	49511.13
666.912	49262.09
667.262	49321.08
667.612	49243.34
667.962	49317.91
668.312	49284.47
668.662	49371.92
669.011	49170.12
669.361	49179.61
669.711	49092.38
670.06	48938.71
670.41	48924.25
670.76	48846.06
671.109	49072.27
671.459	48945.04
671.808	48993.18
672.157	49065.26
672.507	48693.97
672.856	48724.71
673.205	48739.17
673.554	48940.3
673.904	48795.89
674.253	48900.75
674.602	48882.9
674.951	48264.61
675.3	47982.58
675.649	48570.14
675.998	48512.06
676.346	48620.3
676.695	48732.62
677.044	48377.37
677.393	48556.58
677.741	48516.13
678.09	48406.75
678.438	48314.1
678.787	48391.61
679.135	48429.8
679.484	47997.95
679.832	48381.67
680.181	47954.11
680.529	48164.5
680.877	47926.54
681.225	47891.06
681.573	48111.39
681.922	47803.15
682.27	47700.33
682.618	47757.5
682.966	47639.09
683.314	47769.93
683.661	47611.52
684.009	47354.57
684.357	47297.4
684.705	47249.27
685.053	47352.31
685.4	47165.65
685.748	47029.61
686.095	47006.79
686.443	46675.95
686.79	46766.57
687.138	46775.83
687.485	46706
687.832	46613.58
688.18	46669.17
688.527	46395.5
688.874	46270.53
689.221	46246.13
689.568	46065.12
689.915	45987.83
690.262	45920.49
690.609	45899.25
690.956	45809.3
691.303	45760.94
691.65	45623.32
691.997	45497.22
692.344	45242.77
692.69	45174.74
693.037	45297.45
693.383	45107.85
693.73	45217
694.077	44900.63
694.423	44698.82
694.769	44718.26
695.116	44588.77
695.462	44468.55
695.808	44314.65
696.155	44352.17
696.501	44066.07
696.847	44086.41
697.193	43716.7
697.539	43987.2
697.885	43673.99
698.231	43657.04
698.577	43560.32
698.923	43483.94
699.269	43254.12
699.614	43005.99
699.96	43017.29
700.306	43009.15
700.651	42794.69
700.997	42727.13
701.342	42715.83
701.688	42479.67
702.033	42392.44
702.379	42427.02
702.724	42239.23
703.069	42377.3
703.415	41762.86
703.76	41878.79
704.105	41791.1
704.45	41719.02
704.795	41439.25
705.14	41444.9
705.485	41389.31
705.83	41186.15
706.175	41451.23
706.52	41187.73
706.865	40779.61
707.209	40966.27
707.554	40736.67
707.899	40886.5
708.243	40620.97
708.588	40621.19
708.932	40267.3
709.277	40241.54
709.621	40289.22
709.966	39866.41
710.31	40123.13
710.654	39732.4
710.998	39781.21
711.342	39892.4
711.687	39632.74
712.031	39445.63
712.375	39406.08
712.719	39384.61
713.063	39321.56
713.407	39392.3
713.75	39097.16
714.094	39124.73
714.438	38947.79
714.782	39052.87
715.125	38644.75
715.469	38884.97
715.812	38573.79
716.156	38470.51
716.499	38371.31
716.843	38468.71
717.186	38120.24
717.53	38518.65
717.873	38472.55
718.216	38212.67
718.559	38083.63
718.902	37906.01
719.246	37973.8
719.589	37733.81
719.932	37646.81
720.275	37727.26
720.617	37572.01
720.96	37505.12
721.303	37505.79
721.646	37515.96
721.989	37103.77
722.331	37463.76
722.674	37155.97
723.016	37204.78
723.359	36999.14
723.701	37106.48
724.044	36871.46
724.386	36716.44
724.729	36825.59
725.071	36787.17
725.413	36602.54
725.755	36585.37
726.097	36382.43
726.439	36309.67
726.782	36363
727.124	36483.9
727.465	36223.79
727.807	36161.87
728.149	36200.07
728.491	36074.19
728.833	36170.69
729.175	35978.15
729.516	35911.71
729.858	35830.36
730.199	35828.78
730.541	35780.87
730.882	35686.18
731.224	35738.83
731.565	35349.69
731.906	35406.64
732.248	35500.65
732.589	35220.43
732.93	35153.31
733.271	35230.37
733.612	35182.46
733.953	35145.18
734.294	35067.89
734.635	34956.48
734.976	35079.64
735.317	35021.79
735.658	34883.94
735.999	34916.48
736.339	34726.43
736.68	34832.87
737.021	34597.17
737.361	34485.31
737.702	34764.85
738.042	34457.06
738.383	34366.44
738.723	34466.33
739.063	34249.83
739.404	34441.24
739.744	34212.77
740.084	34147.69
740.424	34296.16
740.764	34013.91
741.104	34061.82
741.444	33929.84
741.784	33793.57
742.124	33788.83
742.464	33644.2
742.804	33686.68
743.143	33661.6
743.483	33565.56
743.823	33398.1
744.162	33429.52
744.502	33481.72
744.841	33254.83
745.181	33332.12
745.52	33067.49
745.86	33310.2
746.199	33057.77
746.538	32980.94
746.877	33071.79
747.216	33043.09
747.556	32854.16
747.895	32827.05
748.234	32775.52
748.573	32585.7
748.911	32505.92
749.25	32453.5
749.589	32450.11
749.928	32373.27
750.267	32400.62
750.605	32171.02
750.944	32225.48
751.283	32033.17
751.621	32017.8
751.96	31989.33
752.298	31890.12
752.636	31942.78
752.975	31848.32
753.313	31739.84
753.651	31849.45
753.989	31493.52
754.327	31326.75
754.666	31344.37
755.004	31364.71
755.342	31332.62
755.679	31334.2
756.017	31075.23
756.355	31146.86
756.693	30972.86
757.031	30961.78
757.368	30835.01
757.706	30741.23
758.044	30725.63
758.381	30752.07
758.719	30633.66
759.056	30569.03
759.394	30311.63
759.731	30181.47
760.068	30245.42
760.405	30178.98
760.743	30019.21
761.08	30118.19
761.417	29924.07
761.754	29824.64
762.091	29742.61
762.428	29506.46
762.765	29383.07
763.102	29436.63
763.438	29193.02
763.775	29150.76
764.112	29174.04
764.449	29128.16
764.785	29050.87
765.122	28841.39
765.458	28761.84
765.795	28672.81
766.131	28635.97
766.467	28597.33
766.804	28453.6
767.14	28231.69
767.476	28257.22
767.812	28060.84
768.148	28111.69
768.485	27896.78
768.821	27828.31
769.157	27668.99
769.492	27591.93
769.828	27598.26
770.164	27483.01
770.5	27375.44
770.836	27312.39
771.171	27077.14
771.507	27008.89
771.842	26904.26
772.178	26897.26
772.513	26830.82
772.849	26724.38
773.184	26579.3
773.519	26548.12
773.855	26432.64
774.19	26376.59
774.525	26142.25
774.86	26116.94
775.195	25981.58
775.53	26017.51
775.865	25732.77
776.2	25669.95
776.535	25334.14
776.87	25436.73
777.205	25328.03
777.539	25225.66
777.874	25234.48
778.209	25065.67
778.543	24854.37
778.878	24930.76
779.212	24859.35
779.547	24683.98
779.881	24721.5
780.215	24496.42
780.55	24567.15
780.884	24346.14
781.218	24319.93
781.552	24267.95
781.886	24219.36
782.22	24086.26
782.554	23893.95
782.888	23790.9
783.222	23672.94
783.556	23557.91
783.889	23400.4
784.223	23321.31
784.557	23190.46
784.89	23423
785.224	23233.85
785.557	23006.97
785.891	22948.66
786.224	22950.7
786.558	22993.41
786.891	22763.58
787.224	22553.87
787.557	22472.97
787.891	22470.93
788.224	22406.76
788.557	22366.08
788.89	22295.35
789.223	22270.71
789.556	22119.08
789.888	22017.61
790.221	21859.2
790.554	21867.56
790.887	21663.27
791.219	21614.23
791.552	21544.18
791.884	21492.2
792.217	21375.14
792.549	21298.54
792.882	21155.94
793.214	21136.28
793.546	21104.64
793.879	20994.59
794.211	20933.8
794.543	20992.78
794.875	20875.04
795.207	20953.23
795.539	20785.1
795.871	20810.87
796.203	20593.02
796.535	20407.03
796.867	20442.06
797.198	20307.83
797.53	20256.3
797.862	20189.86
798.193	20280.94
798.525	20121.39
798.856	20126.14
799.188	19877.56
799.519	19936.09
799.85	19792.13
800.182	19790.55
800.513	19800.27
800.844	19484.12
801.175	19516.66
801.506	19631.01
801.837	19490.22
802.168	19360.06
802.499	19304.69
802.83	19207.29
803.161	19232.38
803.491	19170.46
803.822	19189.66
804.153	19002.78
804.483	18846.85
804.814	18811.37
805.145	18730.69
805.475	18681.66
805.805	18595.33
806.136	18658.83
806.466	18627.87
806.796	18554.43
807.126	18436.46
807.457	18425.84
807.787	18337.71
808.117	18250.93
808.447	18204.61
808.777	18200.31
809.107	18127.09
809.436	18007.78
809.766	18048.68
810.096	18101.11
810.426	17967.55
810.755	17913.09
811.085	17809.14
811.414	17875.58
811.744	17714.68
812.073	17594
812.403	17620.67
812.732	17534.57
813.061	17555.13
813.39	17428.13
813.719	17381.12
814.049	17465.87
814.378	17408.69
814.707	17375.25
815.036	17267.46
815.365	17080.34
815.693	17049.61
816.022	17067.01
816.351	16948.14
816.68	16863.4
817.008	17014.35
817.337	16824.98
817.665	16761.03
817.994	16888.03
818.322	16782.72
818.651	16718.77
818.979	16570.75
819.307	16727.13
819.636	16623.63
819.964	16481.04
820.292	16535.05
820.62	16575.27
820.948	16465.22
821.276	16589.06
821.604	16421.6
821.932	16512.45
822.259	16469.51
822.587	16421.83
822.915	16388.83
823.243	16443.07
823.57	16326.46
823.898	16385.44
824.225	16432.68
824.553	16328.27
824.88	16390.19
825.207	16410.98
825.535	16273.58
825.862	16332.34
826.189	16279.68
826.516	16396.29
826.843	16387.48
827.17	16380.7
827.497	16307.71
827.824	16301.38
828.151	16366.46
828.478	16236.52
828.805	16358.78
829.131	16277.65
829.458	16231.55
829.785	16189.07
830.111	16265
830.438	16316.07
830.764	16274.71
831.09	16274.49
831.417	16217.77
831.743	16242.62
832.069	16254.15
832.395	16207.37
832.722	16257.99
833.048	16053.7
833.374	16178.22
833.7	16072.91
834.026	16115.62
834.351	16169.63
834.677	16159.01
835.003	16154.26
835.329	16120.82
835.654	16098.22
835.98	15991.78
836.306	16047.15
836.631	15953.82
836.956	16083.76
837.282	16067.26
837.607	15927.6
837.932	15919.69
838.258	16013.48
838.583	15884.89
838.908	15782.07
839.233	15751.79
839.558	15703.43
839.883	15674.5
840.208	15644.9
840.533	15782.3
840.858	15715.41
841.182	15640.61
841.507	15771.22
841.832	15581.62
842.156	15517.45
842.481	15584.56
842.805	15455.53
843.13	15510.67
843.454	15396.54
843.778	15485.81
844.103	15419.37
844.427	15310.44
844.751	15258.69
845.075	15301.63
845.399	15225.25
845.723	15164.91
846.047	15172.6
846.371	15058.47
846.695	14997.68
847.019	15001.98
847.343	14907.29
847.666	14822.77
847.99	14835.88
848.313	14787.97
848.637	14687.18
848.96	14680.18
849.284	14618.49
849.607	14559.5
849.931	14514.76
850.254	14418.94
850.577	14309.12
850.9	14227.76
851.223	14260.75
851.546	14223.02
851.869	14056.69
852.192	14056.24
852.515	13998.84
852.838	13909.35
853.161	13945.96
853.483	13891.5
853.806	13793.42
854.129	13831.16
854.451	13768.79
854.774	13652.41
855.096	13607.89
855.419	13584.61
855.741	13571.06
856.063	13522.02
856.385	13470.72
856.708	13526.54
857.03	13429.14
857.352	13427.56
857.674	13329.25
857.996	13284.96
858.318	13193.66
858.64	13205.64
858.961	13166.77
859.283	13156.38
859.605	13116.38
859.926	13030.96
860.248	13157.06
860.57	13001.81
860.891	13058.3
861.212	13024.18
861.534	12967.91
861.855	12886.33
862.176	12945.99
862.498	12968.81
862.819	12919.32
863.14	12859.21
863.461	12840.23
863.782	12790.29
864.103	12768.59
864.424	12719.78
864.745	12709.38
865.065	12635.04
865.386	12590.52
865.707	12606.34
866.027	12637.52
866.348	12674.13
866.668	12618.09
866.989	12508.71
867.309	12474.81
867.63	12479.78
867.95	12472.55
868.27	12435.27
868.59	12451.09
868.91	12404.31
869.23	12461.48
869.55	12367.92
869.87	12406.79
870.19	12427.58
870.51	12418.32
870.83	12418.32
871.15	12405.66
871.469	12327.92
871.789	12305.55
872.109	12303.97
872.428	12293.35
872.748	12282.95
873.067	12214.48
873.386	12297.42
873.706	12263.52
874.025	12167.7
874.344	12067.82
874.663	12203.86
874.982	12140.58
875.301	12157.08
875.62	12034.15
875.939	12096.29
876.258	12108.95
876.577	12113.92
876.896	12096.07
877.214	11978.78
877.533	12071.21
877.852	12028.72
878.17	11995.73
878.489	11955.73
878.807	11912.12
879.125	11901.04
879.444	11961.38
879.762	11879.8
880.08	11906.92
880.398	11781.72
880.716	11827.37
881.034	11735.4
881.352	11754.15
881.67	11811.1
881.988	11762.74
882.306	11693.82
882.624	11671.67
882.941	11760.03
883.259	11664.89
883.577	11664.44
883.894	11597.55
884.212	11569.75
884.529	11583.54
884.846	11461.28
885.164	11557.78
885.481	11470.55
885.798	11472.13
886.115	11437.1
886.432	11383.32
886.75	11351.68
887.067	11331.57
887.383	11231.91
887.7	11293.15
888.017	11122.53
888.334	11278.23
888.651	11182.87
888.967	11142.87
889.284	11126.6
889.6	11133.38
889.917	11019.26
890.233	11107.39
890.55	11033.72
890.866	11058.35
891.182	11083.66
891.498	10988.98
891.815	10968.41
892.131	10831.92
892.447	10907.17
892.763	10923.89
893.079	10776.1
893.395	10775.65
893.71	10718.02
894.026	10732.94
894.342	10639.16
894.657	10639.38
894.973	10633.05
895.289	10591.92
895.604	10551.93
895.92	10508.09
896.235	10480.29
896.55	10495.66
896.865	10443.23
897.181	10403.91
897.496	10436.45
897.811	10304.93
898.126	10253.85
898.441	10232.84
898.756	10234.19
899.071	10179.96
899.386	10120.3
899.7	10195.1
900.015	10116.01
900.33	10104.93
900.644	10006.18
900.959	10069
901.273	9969.34
901.588	10043.01
901.902	10010.47
902.216	9927.54
902.531	9871.04
902.845	9824.49
903.159	9756.92
903.473	9829.46
903.787	9782.91
904.101	9605.96
904.415	9713.98
904.729	9631.27
905.042	9454.55
905.356	9524.38
905.67	9537.49
905.984	9508.56
906.297	9493.87
906.611	9368.91
906.924	9326.87
907.237	9395.8
907.551	9340.21
907.864	9263.37
908.177	9238.06
908.491	9179.98
908.804	9139.76
909.117	9159.19
909.43	9056.6
909.743	9015.92
910.056	8993.77
910.368	9004.85
910.681	8933.89
910.994	8911.74
911.307	8873.55
911.619	8810.73
911.932	8788.81
912.244	8814.34
912.557	8784.51
912.869	8722.14
913.181	8730.28
913.494	8663.61
913.806	8682.6
914.118	8619.77
914.43	8526.89
914.742	8597.85
915.054	8480.12
915.366	8412.1
915.678	8394.02
915.99	8393.56
916.302	8276.73
916.613	8309.73
916.925	8336.84
917.236	8331.19
917.548	8242.16
917.859	8197.41
918.171	8149.96
918.482	8207.81
918.794	8062.05
919.105	8049.39
919.416	7986.12
919.727	8034.7
920.038	7954.48
920.349	7913.13
920.66	7796.97
920.971	7870.64
921.282	7775.73
921.593	7774.37
921.903	7700.48
922.214	7718.55
922.525	7700.93
922.835	7619.35
923.146	7549.29
923.456	7553.81
923.767	7529.86
924.077	7562.4
924.387	7425.45
924.697	7452.12
925.008	7406.25
925.318	7361.05
925.628	7301.16
925.938	7289.86
926.248	7245.57
926.558	7161.51
926.867	7212.35
927.177	7220.26
927.487	7121.96
927.796	7105.46
928.106	7059.14
928.416	7076.76
928.725	7026.82
929.034	7002.41
929.344	6980.72
929.653	6963.55
929.962	6902.53
930.271	6873.15
930.581	6848.07
930.89	6817.79
931.199	6814.17
931.508	6773.95
931.817	6808.07
932.125	6714.96
932.434	6751.8
932.743	6657.11
933.051	6622.31
933.36	6622.99
933.669	6564.46
933.977	6574.63
934.286	6592.03
934.594	6492.6
934.902	6455.08
935.21	6443.56
935.519	6393.39
935.827	6410.34
936.135	6390.45
936.443	6359.49
936.751	6333.73
937.059	6335.99
937.367	6298.25
937.674	6262.1
937.982	6192.04
938.29	6191.81
938.597	6228.65
938.905	6097.13
939.213	6132.61
939.52	6068.43
939.827	6047.64
940.135	5972.16
940.442	5954.98
940.749	5955.66
941.056	5957.02
941.363	5849.22
941.67	5867.98
941.977	5831.37
942.284	5822.78
942.591	5792.28
942.898	5740.98
943.205	5785.5
943.511	5747.31
943.818	5634.32
944.125	5640.19
944.431	5642.45
944.738	5620.76
945.044	5614.88
945.35	5553.64
945.657	5586.63
945.963	5524.26
946.269	5515.9
946.575	5494.66
946.881	5453.3
947.187	5452.4
947.493	5387.99
947.799	5410.59
948.105	5415.79
948.41	5344.38
948.716	5349.35
949.022	5317.04
949.327	5276.81
949.633	5238.62
949.938	5234.78
950.244	5271.39
950.549	5145.06
950.854	5183.25
951.16	5153.65
951.465	5112.07
951.77	5085.85
952.075	5101.45
952.38	5080.66
952.685	5085.18
952.99	4995.69
953.294	4988.46
953.599	4991.85
953.904	4967.67
954.209	4939.42
954.513	4934.22
954.818	4847.22
955.122	4903.03
955.426	4892.19
955.731	4809.03
956.035	4801.79
956.339	4798.86
956.643	4790.72
956.948	4713.89
957.252	4723.83
957.556	4692.19
957.86	4662.59
958.163	4656.94
958.467	4635.92
958.771	4623.27
959.075	4594.34
959.378	4554.12
959.682	4552.08
959.985	4573.33
960.289	4498.07
960.592	4496.04
960.896	4513.44
961.199	4465.53
961.502	4429.38
961.805	4412.2
962.108	4388.47
962.411	4377.4
962.714	4344.63
963.017	4338.53
963.32	4345.31
963.623	4364.74
963.926	4308.93
964.228	4239.78
964.531	4209.72
964.833	4197.29
965.136	4196.61
965.438	4218.99
965.741	4163.17
966.043	4162.49
966.345	4142.83
966.648	4096.73
966.95	4119.55
967.252	4044.98
967.554	4070.06
967.856	4083.4
968.158	3990.06
968.46	4023.74
968.761	4023.51
969.063	3957.75
969.365	3936.73
969.666	3926.79
969.968	3924.3
970.269	3875.72
970.571	3883.4
970.872	3894.25
971.174	3841.59
971.475	3858.77
971.776	3826.91
972.077	3793.01
972.378	3842.27
972.679	3772.67
972.98	3745.55
973.281	3739.9
973.582	3741.26
973.883	3716.63
974.183	3682.05
974.484	3647.7
974.785	3635.27
975.085	3644.31
975.386	3619.45
975.686	3570.64
975.986	3570.19
976.287	3608.83
976.587	3522.51
976.887	3565.44
977.187	3557.31
977.487	3507.82
977.787	3497.42
978.087	3449.97
978.387	3456.52
978.687	3454.49
978.987	3443.64
979.286	3400.48
979.586	3425.33
979.885	3433.24
980.185	3360.02
980.484	3307.82
980.784	3341.72
981.083	3318.67
981.382	3319.12
981.682	3321.61
981.981	3271.44
982.28	3318.67
982.579	3245.9
982.878	3266.92
983.177	3252.46
983.475	3216.3
983.774	3153.7
984.073	3190.09
984.372	3190.99
984.67	3196.87
984.969	3168.84
985.267	3149.63
985.566	3107.15
985.864	3112.12
986.162	3088.39
986.461	3061.95
986.759	3017.43
987.057	3028.96
987.355	3011.56
987.653	3031.45
987.951	3005.01
988.249	2957.78
988.547	3000.71
988.844	2952.58
989.142	2962.29
989.44	2899.7
989.737	2941.05
990.035	2912.58
990.332	2890.43
990.63	2901.51
990.927	2850.89
991.224	2849.3
991.521	2862.18
991.819	2806.82
992.116	2850.21
992.413	2794.16
992.71	2767.5
993.006	2748.29
993.303	2781.96
993.6	2744
993.897	2754.39
994.193	2697.67
994.49	2685.47
994.787	2676.88
995.083	2674.17
995.379	2681.85
995.676	2651.12
995.972	2628.29
996.268	2634.62
996.565	2616.32
996.861	2586.71
997.157	2582.19
997.453	2565.47
997.749	2566.15
998.044	2540.39
998.34	2552.81
998.636	2535.41
998.932	2504.91
999.227	2468.97
999.523	2479.14
999.818	2448.18
1000.114	2445.47
1000.409	2429.43
1000.704	2403.67
1001	2416.32
1001.295	2404.12
1001.59	2417
1001.885	2397.56
1002.18	2369.54
1002.475	2347.62
1002.77	2319.15
1003.065	2317.57
1003.359	2329.77
1003.654	2304.01
1003.949	2279.38
1004.243	2264.46
1004.538	2231.01
1004.832	2260.17
1005.127	2249.77
1005.421	2212.48
1005.715	2214.29
1006.009	2170.45
1006.304	2169.55
1006.598	2160.28
1006.892	2150.79
1007.186	2130.68
1007.48	2133.84
1007.773	2099.72
1008.067	2071.02
1008.361	2079.61
1008.655	2055.65
1008.948	2087.74
1009.242	2030.34
1009.535	2059.49
1009.829	2036.22
1010.122	2035.77
1010.415	2022.66
1010.708	1992.38
1011.001	1999.61
1011.295	1957.12
1011.588	1960.74
1011.881	1949.67
1012.173	1938.59
1012.466	1945.82
1012.759	1917.12
1013.052	1895.66
1013.344	1911.02
1013.637	1884.13
1013.93	1835.09
1014.222	1869.67
1014.514	1853.85
1014.807	1839.84
1015.099	1835.54
1015.391	1820.86
1015.683	1801.87
1015.976	1778.15
1016.268	1772.95
1016.56	1786.51
1016.851	1756
1017.143	1739.5
1017.435	1744.47
1017.727	1733.63
1018.018	1703.8
1018.31	1690.92
1018.602	1716
1018.893	1658.15
1019.185	1656.79
1019.476	1636.45
1019.767	1627.41
1020.058	1616.57
1020.35	1617.02
1020.641	1608.21
1020.932	1612.05
1021.223	1558.94
1021.514	1586.06
1021.804	1556
1022.095	1521.65
1022.386	1528.89
1022.677	1528.43
1022.967	1541.99
1023.258	1550.58
1023.548	1481.88
1023.839	1476.91
1024.129	1484.82
1024.419	1470.58
1024.709	1478.94
1025	1482.79
1025.29	1441.66
1025.58	1398.49
1025.87	1438.04
1026.16	1429.45
1026.449	1403.24
1026.739	1381.09
1027.029	1366.86
1027.319	1389.23
1027.608	1337.93
1027.898	1327.76
1028.187	1366.63
1028.477	1373.18
1028.766	1353.75
1029.055	1309.23
1029.344	1311.49
1029.634	1306.07
1029.923	1290.7
1030.212	1279.85
1030.501	1279.18
1030.79	1266.29
1031.078	1249.8
1031.367	1234.88
1031.656	1229.23
1031.945	1228.78
1032.233	1220.19
1032.522	1234.2
1032.81	1181.1
1033.099	1211.61
1033.387	1186.52
1033.675	1196.69
1033.963	1173.42
1034.251	1153.08
1034.54	1151.04
1034.828	1144.26
1035.116	1139.07
1035.403	1117.15
1035.691	1102.91
1035.979	1129.57
1036.267	1093.19
1036.554	1115.34
1036.842	1094.77
1037.129	1061.55
1037.417	1062.23
1037.704	1080.99
1037.992	1109.46
1038.279	1063.59
1038.566	1050.03
1038.853	1050.03
1039.14	1050.03
