Data from foil_FLMS001491_066.txt Node
Date: Tue Feb 07 11:36:27 GMT 2017
User: dcchb
Spectrometer: FLMS00149
Trigger mode: 0
Integration Time (sec): 2.000000E-2
Scans to average: 10
Electric dark correction enabled: true
Nonlinearity correction enabled: false
Boxcar width: 0
XAxis mode: Wavelengths
Number of Pixels in Spectrum: 2048
>>>>>Begin Spectral Data<<<<<
341.393	-12.81
341.776	-12.81
342.16	-12.81
342.543	-83.77
342.927	-59.81
343.31	-82.87
343.693	-85.12
344.077	-63.66
344.46	-53.49
344.843	-59.59
345.226	-39.48
345.61	-24.56
345.993	-15.52
346.376	5.04
346.759	22.44
347.142	26.51
347.525	35.32
347.908	67.87
348.291	71.48
348.674	81.88
349.057	113.74
349.44	104.7
349.823	147.86
350.206	146.96
350.588	285.03
350.971	259.72
351.354	300.63
351.737	312.15
352.119	337.01
352.502	347.63
352.884	355.09
353.267	353.96
353.65	378.37
354.032	382.21
354.414	405.03
354.797	377.46
355.179	395.77
355.562	404.35
355.944	425.14
356.326	416.78
356.709	414.97
357.091	424.24
357.473	424.47
357.855	448.42
358.238	426.05
358.62	458.36
359.002	446.39
359.384	441.64
359.766	449.1
360.148	439.16
360.53	447.29
360.912	440.96
361.294	440.51
361.676	447.52
362.057	446.84
362.439	453.17
362.821	441.87
363.203	427.86
363.584	446.84
363.966	452.49
364.348	436.67
364.729	450.23
365.111	444.8
365.493	455.43
365.874	461.75
366.256	476.22
366.637	430.12
367.019	438.7
367.4	468.76
367.781	472.37
368.163	471.02
368.544	466.73
368.925	457.91
369.306	494.29
369.688	469.44
370.069	474.63
370.45	468.98
370.831	476.22
371.212	487.29
371.593	494.75
371.974	489.32
372.355	481.41
372.736	501.3
373.117	479.61
373.498	506.5
373.879	503.56
374.26	488.65
374.641	475.99
375.021	525.03
375.402	522.77
375.783	533.39
376.163	556.44
376.544	566.84
376.925	541.98
377.305	542.66
377.686	542.43
378.066	532.71
378.447	555.31
378.827	549.43
379.208	555.76
379.588	554.86
379.968	591.92
380.349	590.56
380.729	610.9
381.109	596.67
381.489	593.5
381.87	595.31
382.25	639.83
382.63	634.86
383.01	638.25
383.39	618.81
383.77	638.7
384.15	640.28
384.53	664.91
384.91	656.32
385.29	651.13
385.67	650
386.049	691.35
386.429	698.81
386.809	699.04
387.189	695.65
387.568	705.36
387.948	717.57
388.328	740.62
388.707	731.58
389.087	744.23
389.466	759.37
389.846	737.68
390.225	763.89
390.605	762.54
390.984	790.11
391.363	760.05
391.743	790.56
392.122	806.83
392.501	823.55
392.881	864.91
393.26	851.8
393.639	841.86
394.018	855.42
394.397	861.52
394.776	855.64
395.155	875.98
395.534	873.27
395.913	907.17
396.292	908.75
396.671	925.24
397.05	931.8
397.429	925.92
397.808	947.84
398.186	943.77
398.565	974.96
398.944	926.37
399.323	994.17
399.701	982.19
400.08	999.59
400.458	999.59
400.837	998.01
401.215	1021.51
401.594	1048.63
401.972	1057.22
402.351	1071
402.729	1070.78
403.107	1111.45
403.486	1107.39
403.864	1111.68
404.242	1129.31
404.62	1124.56
404.999	1152.81
405.377	1182.41
405.755	1164.11
406.133	1204.78
406.511	1203.65
406.889	1225.35
407.267	1265.57
407.645	1248.4
408.023	1293.37
408.401	1309.64
408.779	1285.23
409.156	1359.36
409.534	1329.3
409.912	1366.81
410.29	1391.45
410.667	1375.85
411.045	1403.65
411.422	1444.78
411.8	1449.98
412.178	1496.98
412.555	1493.36
412.933	1514.83
413.31	1550.99
413.687	1572.46
414.065	1558
414.442	1587.6
414.819	1622.4
415.197	1617.2
415.574	1661.5
415.951	1671.67
416.328	1662.4
416.705	1725.67
417.082	1718.44
417.46	1700.14
417.837	1739.23
418.214	1763.64
418.591	1777.43
418.967	1785.11
419.344	1825.56
419.721	1845.22
420.098	1829.85
420.475	1877.08
420.852	1877.99
421.228	1926.8
421.605	1906.01
421.982	1909.4
422.358	1992.33
422.735	2000.24
423.111	2002.28
423.488	1997.08
423.864	2074.14
424.241	2097.87
424.617	2090.64
424.994	2089.73
425.37	2127.02
425.746	2169.96
426.123	2164.31
426.499	2202.72
426.875	2209.96
427.251	2284.76
427.627	2303.96
428.003	2328.37
428.379	2361.82
428.756	2395.26
429.132	2432.55
429.507	2437.07
429.883	2498.31
430.259	2524.3
430.635	2530.4
431.011	2571.75
431.387	2625.09
431.763	2666.22
432.138	2696.04
432.514	2740.34
432.89	2717.51
433.265	2798.19
433.641	2855.14
434.016	2846.55
434.392	2872.09
434.767	2953.67
435.143	2930.16
435.518	3004.29
435.894	3040.22
436.269	3096.26
436.644	3131.74
437.02	3174.45
437.395	3169.25
437.77	3221.68
438.145	3259.42
438.52	3290.15
438.895	3311.62
439.271	3322.92
439.646	3422.58
440.021	3416.03
440.395	3430.71
440.77	3424.39
441.145	3467.1
441.52	3551.39
441.895	3491.73
442.27	3557.04
442.645	3574.67
443.019	3616.92
443.394	3625.06
443.769	3634.33
444.143	3622.57
444.518	3749.58
444.892	3736.7
445.267	3757.94
445.641	3820.08
446.016	3804.04
446.39	3837.03
446.764	3870.25
447.139	3887.2
447.513	3964.26
447.887	3954.99
448.262	3929.23
448.636	4013.07
449.01	4040.87
449.384	4072.05
449.758	4110.02
450.132	4173.29
450.506	4192.73
450.88	4211.94
451.254	4228.89
451.628	4299.62
452.002	4312.05
452.376	4368.77
452.75	4396.79
453.123	4480.4
453.497	4559.95
453.871	4552.49
454.244	4661.42
454.618	4714.75
454.992	4735.09
455.365	4700.74
455.739	4896.21
456.112	4934.18
456.486	4919.49
456.859	5005.36
457.232	5126.94
457.606	5138.24
457.979	5214.4
458.352	5270.67
458.725	5348.86
459.099	5386.14
459.472	5518.8
459.845	5519.02
460.218	5576.87
460.591	5560.6
460.964	5645.35
461.337	5806.92
461.71	5903.87
462.083	5937.54
462.456	5945.68
462.829	6009.86
463.201	6140.7
463.574	6191.32
463.947	6237.19
464.32	6342.5
464.692	6383.86
465.065	6514.7
465.438	6538.66
465.81	6664.08
466.183	6727.58
466.555	6868.82
466.928	6902.71
467.3	6914.01
467.672	7025.2
468.045	7252.76
468.417	7284.17
468.789	7333.66
469.161	7378.41
469.534	7566.65
469.906	7584.5
470.278	7779.75
470.65	7822.46
471.022	7996.7
471.394	8195.11
471.766	8233.53
472.138	8318.27
472.51	8476.23
472.882	8618.38
473.253	8719.62
473.625	8781.99
473.997	9033.73
474.369	9022.43
474.74	9203.9
475.112	9335.64
475.484	9499.03
475.855	9699.02
476.227	9765.24
476.598	10050.65
476.97	10077.55
477.341	10318.22
477.713	10472.34
478.084	10494.03
478.455	10821.26
478.827	10866.9
479.198	11253.79
479.569	11235.26
479.94	11592.99
480.311	11644.06
480.682	11989.13
481.053	12244.27
481.424	12447.43
481.795	12466.18
482.166	12701.43
482.537	12878.15
482.908	13164.02
483.279	13237.46
483.65	13507.06
484.021	13758.8
484.391	13834.28
484.762	13982.98
485.133	14172.81
485.503	14325.12
485.874	14697.76
486.244	14879.23
486.615	15152.89
486.985	15293.45
487.356	15571.41
487.726	15733.67
488.097	16029.48
488.467	16109.03
488.837	16496.59
489.207	16610.03
489.578	16915.33
489.948	17090.24
490.318	17303.57
490.688	17281.65
491.058	17626.5
491.428	17858.36
491.798	17920.05
492.168	18338.8
492.538	18527.04
492.908	18670.99
493.278	18921.38
493.648	18866.24
494.017	19190.98
494.387	19370.63
494.757	19478.43
495.126	19759.78
495.496	19709.83
495.866	19932.88
496.235	20128.81
496.605	20306.88
496.974	20409.7
497.344	20669.81
497.713	20814.21
498.082	20922.46
498.452	21094.21
498.821	21215.78
499.19	21393.86
499.559	21525.38
499.928	21634.76
500.298	21856.45
500.667	22078.59
501.036	22042.88
501.405	22296.21
501.774	22342.53
502.143	22474.96
502.512	22675.41
502.88	22855.51
503.249	22944.55
503.618	23142.96
503.987	23309.29
504.356	23402.85
504.724	23611.88
505.093	23669.73
505.462	23786.79
505.83	23918.54
506.199	24177.06
506.567	24502.7
506.936	24464.96
507.304	24683.04
507.672	24909.47
508.041	25006.64
508.409	25146.53
508.777	25348.33
509.145	25498.38
509.514	25533.18
509.882	25855.89
510.25	25796.23
510.618	26034.87
510.986	26190.79
511.354	26460.62
511.722	26676.43
512.09	26947.84
512.458	26970.89
512.826	27154.16
513.193	27282.97
513.561	27448.39
513.929	27726.35
514.297	27956.4
514.664	28211.98
515.032	28244.07
515.4	28407.46
515.767	28632.31
516.135	28849.48
516.502	28770.39
516.869	29195.46
517.237	29411.05
517.604	29350.26
517.972	29786.63
518.339	29972.84
518.706	30085.83
519.073	30316.79
519.44	30392.72
519.808	30826.83
520.175	30857.34
520.542	31316.54
520.909	31485.57
521.276	31353.37
521.643	31813.02
522.009	31935.73
522.376	32148.15
522.743	32306.11
523.11	32635.14
523.477	33011.41
523.843	33272.19
524.21	33529.58
524.577	33820.88
524.943	33898.61
525.31	34042.57
525.676	34239.4
526.043	34554.87
526.409	34795.77
526.776	35301.74
527.142	35350.33
527.508	35605.69
527.874	35827.83
528.241	35981.27
528.607	36141.27
528.973	36453.8
529.339	36376.06
529.705	36819.89
530.071	37018.53
530.437	37288.58
530.803	37471.4
531.169	37768.12
531.535	37689.7
531.901	37953.42
532.267	38183.7
532.632	38202.68
532.998	38467.08
533.364	38754.98
533.73	38833.17
534.095	39226.84
534.461	39254.63
534.826	39486.49
535.192	39581.63
535.557	39851.9
535.923	39883.99
536.288	40095.97
536.653	40349.07
537.019	40217.54
537.384	40627.25
537.749	40642.62
538.114	40624.99
538.479	40815.95
538.845	40929.16
539.21	40979.33
539.575	41140.68
539.94	41213.9
540.305	41626.55
540.67	41640.78
541.034	41885.97
541.399	42048
541.764	42043.48
542.129	42312.86
542.494	42268.34
542.858	42464.94
543.223	42650.47
543.587	42957.13
543.952	42817.93
544.316	42981.31
544.681	43127.75
545.045	43329.33
545.41	43432.15
545.774	43623.33
546.138	43554.63
546.503	43845.7
546.867	43856.77
547.231	44124.79
547.595	44114.16
547.959	44288.85
548.324	44474.16
548.688	44538.11
549.052	44677.09
549.416	44959.79
549.779	44996.18
550.143	45113.91
550.507	45366.56
550.871	45527.91
551.235	45488.82
551.599	45762.26
551.962	45967
552.326	46132.42
552.689	46322.47
553.053	46267.78
553.417	46431.39
553.78	46927.2
554.143	46709.35
554.507	46783.7
554.87	47052.39
555.234	47378.26
555.597	47235.66
555.96	47410.58
556.323	47623.45
556.686	47724.24
557.05	47966.49
557.413	48110.9
557.776	48276.77
558.139	48569.64
558.502	48645.35
558.865	48734.61
559.228	49084.43
559.59	49041.49
559.953	49153.58
560.316	49530.29
560.679	49573.91
561.041	49895.71
561.404	49922.37
561.767	50213.67
562.129	50087.12
562.492	50511.28
562.854	50558.06
563.217	50507.9
563.579	50676.03
563.941	50901.78
564.304	51120.99
564.666	51263.58
565.028	51263.58
565.39	51542.67
565.753	51693.17
566.115	51809.78
566.477	51903.79
566.839	52022.43
567.201	52276.44
567.563	52257.68
567.925	52545.36
568.287	52535.64
568.648	52619.48
569.01	52854.5
569.372	53072.57
569.734	53086.58
570.095	53286.35
570.457	53332.68
570.819	53403.19
571.18	53442.06
571.542	53611.32
571.903	53625.78
572.265	53722.95
572.626	53822.16
572.987	53885.21
573.349	54023.28
573.71	54133.79
574.071	54160
574.432	54242.03
574.794	54519.32
575.155	54457.4
575.516	54423.27
575.877	54528.58
576.238	54503.95
576.599	54658.07
576.96	54707.11
577.32	54707.56
577.681	54875.46
578.042	54987.55
578.403	54908.01
578.763	54863.26
579.124	55035.01
579.485	55117.72
579.845	55148
580.206	55234.78
580.566	55094.67
580.927	55191.61
581.287	55257.83
581.648	55148.45
582.008	55355.23
582.368	55308.67
582.728	55337.6
583.089	55254.44
583.449	55319.97
583.809	55347.77
584.169	55412.62
584.529	55356.36
584.889	55530.59
585.249	55402.46
585.609	55405.39
585.969	55519.97
586.329	55439.06
586.688	55475.45
587.048	55501.66
587.408	55397.71
587.768	55451.95
588.127	55431.61
588.487	55387.77
588.846	55539.4
589.206	55364.72
589.565	55396.81
589.925	55541.44
590.284	55505.5
590.643	55598.61
591.003	55636.8
591.362	55719.06
591.721	55581.43
592.08	55566.29
592.44	55748.21
592.799	55631.6
593.158	55670.02
593.517	55646.52
593.876	55613.52
594.235	55597.48
594.593	55578.95
594.952	55723.8
595.311	55526.29
595.67	55652.17
596.029	55825.72
596.387	55774.2
596.746	55784.82
597.104	55676.57
597.463	55711.83
597.822	55821.43
598.18	55644.26
598.538	55761.77
598.897	55922.89
599.255	55676.8
599.613	56123.11
599.972	55884.02
600.33	56002.67
600.688	55887.64
601.046	55989.11
601.404	56056.22
601.762	55939.62
602.12	56052.38
602.478	56101.19
602.836	56030.91
603.194	55966.06
603.552	55981.65
603.91	56004.02
604.268	56167.18
604.625	56060.52
604.983	56129.44
605.341	56022.33
605.698	56185.03
606.056	56195.66
606.413	56169.89
606.771	56253.51
607.128	56310.68
607.485	56225.03
607.843	56303.45
608.2	56399.27
608.557	56424.12
608.914	56399.04
609.272	56486.72
609.629	56541.63
609.986	56650.56
610.343	56490.79
610.7	56741.4
611.057	56584.12
611.414	56598.81
611.771	56629.09
612.127	56815.07
612.484	56705.02
612.841	56770.1
613.198	56733.95
613.554	56758.8
613.911	56839.25
614.267	56922.87
614.624	56853.72
614.98	56902.98
615.337	56952.47
615.693	56916.99
616.05	56995.41
616.406	57079.25
616.762	56970.78
617.118	57032.7
617.475	57044.67
617.831	57140.26
618.187	57133.71
618.543	57134.61
618.899	57225.91
619.255	57194.72
619.611	57104.56
619.967	57296.42
620.323	57274.72
620.678	57137.78
621.034	57038.12
621.39	57140.94
621.746	57063.2
622.101	57366.92
622.457	57106.59
622.812	57173.03
623.168	57246.02
623.523	57238.11
623.879	57265.91
624.234	57161.51
624.589	57252.58
624.945	57288.51
625.3	57310.2
625.655	57206.48
626.01	57263.65
626.365	57281.5
626.72	57136.65
627.075	57203.76
627.43	57203.99
627.785	57118.79
628.14	57134.16
628.495	57206.25
628.85	57159.25
629.205	57078.57
629.559	57263.88
629.914	57104.11
630.269	57031.57
630.623	57026.14
630.978	56929.2
631.332	57042.86
631.687	57015.07
632.041	56932.58
632.396	56906.37
632.75	56811.01
633.104	56897.33
633.459	56772.14
633.813	56773.04
634.167	56723.1
634.521	56773.27
634.875	56761.06
635.229	56731.23
635.583	56577.11
635.937	56621.18
636.291	56517.68
636.645	56607.85
636.999	56483.33
637.352	56567.62
637.706	56420.51
638.06	56459.38
638.413	56371.24
638.767	56311.58
639.121	56378.93
639.474	56246.73
639.828	56281.53
640.181	56271.36
640.534	56229.1
640.888	56159.72
641.241	56024.59
641.594	56087.41
641.947	56117.92
642.301	56060.07
642.654	56126.05
643.007	56122.21
643.36	55978.49
643.713	55965.6
644.066	56056.45
644.419	55710.47
644.771	55377.37
645.124	55074.78
645.477	55015.57
645.83	55070.49
646.182	55021.9
646.535	54951.62
646.888	55131.05
647.24	54971.28
647.593	55101.45
647.945	54974.22
648.298	54818.29
648.65	54737.61
649.002	54698.07
649.355	54815.8
649.707	54769.7
650.059	54735.35
650.411	55018.28
650.763	54997.95
651.115	55328.33
651.467	55278.39
651.819	55264.61
652.171	55161.78
652.523	55105.06
652.875	55210.6
653.227	54988
653.578	55184.38
653.93	55117.94
654.282	54985.74
654.633	54875.69
654.985	55050.15
655.337	54954.56
655.688	54891.51
656.039	55005.63
656.391	54718.86
656.742	54714.79
657.094	54748.91
657.445	54846.31
657.796	54767.44
658.147	54738.29
658.498	54723.83
658.849	54708.91
659.2	54750.27
659.551	54589.14
659.902	54683.83
660.253	54595.7
660.604	54658.07
660.955	54437.51
661.306	54631.85
661.656	54503.27
662.007	54544.85
662.358	54519.54
662.708	54465.76
663.059	54428.7
663.409	54289.94
663.76	54517.51
664.11	54398.64
664.461	54397.96
664.811	54419.66
665.161	54342.82
665.511	54353.44
665.862	54380.11
666.212	54400.22
666.562	54405.87
666.912	54371.52
667.262	54242.03
667.612	54284.74
667.962	54210.85
668.312	54100.79
668.662	54287.23
669.011	54140.79
669.361	54145.09
669.711	54204.3
670.06	54010.4
670.41	54080.23
670.76	53998.42
671.109	54080.68
671.459	54096.28
671.808	53903.29
672.157	53960.91
672.507	53895.15
672.856	53821.03
673.205	53796.62
673.554	54007.69
673.904	53826.23
674.253	54033.68
674.602	53814.02
674.951	53380.59
675.3	53286.58
675.649	53793.01
675.998	53703.07
676.346	53632.11
676.695	53796.85
677.044	53469.17
677.393	53705.33
677.741	53625.78
678.09	53601.37
678.438	53428.72
678.787	53552.11
679.135	53555.72
679.484	53251.55
679.832	53455.61
680.181	53278.9
680.529	53282.51
680.877	53182.85
681.225	53126.58
681.573	53305.79
681.922	53069.41
682.27	53056.75
682.618	53051.56
682.966	52985.12
683.314	53044.1
683.661	52789.19
684.009	52784.22
684.357	52718.23
684.705	52688.4
685.053	52689.08
685.4	52579.93
685.748	52468.75
686.095	52394.4
686.443	52332.48
686.79	52248.87
687.138	52279.15
687.485	52217.45
687.832	52102.66
688.18	52165.03
688.527	51923.23
688.874	52040.51
689.221	51901.53
689.568	51771.59
689.915	51646.62
690.262	51608.21
690.609	51544.48
690.956	51526.63
691.303	51469.9
691.65	51283.24
691.997	51162.79
692.344	51066.98
692.69	51062.23
693.037	51059.75
693.383	50667.89
693.73	50982.01
694.077	50720.54
694.423	50664.5
694.769	50461.34
695.116	50281.69
695.462	50310.61
695.808	50234.68
696.155	50183.38
696.501	50005.08
696.847	50015.7
697.193	49817.52
697.539	49963.05
697.885	49668.14
698.231	49423.4
698.577	49569.84
698.923	49451.2
699.269	49363.07
699.614	49106.8
699.96	49042.85
700.306	48917.88
700.651	48862.74
700.997	48723.99
701.342	48674.05
701.688	48443.54
702.033	48452.58
702.379	48521.96
702.724	48210.55
703.069	48272.47
703.415	47851.02
703.76	47861.41
704.105	47792.03
704.45	47730.34
704.795	47617.8
705.14	47361.76
705.485	47430.01
705.83	47280.86
706.175	47401.08
706.52	47163.35
706.865	47007.2
707.209	46966.97
707.554	46777.6
707.899	46802.23
708.243	46550.49
708.588	46586.87
708.932	46363.15
709.277	46336.93
709.621	46371.73
709.966	46041.8
710.31	46118.18
710.654	45882.71
710.998	45883.16
711.342	45929.71
711.687	45660.56
712.031	45577.4
712.375	45363.62
712.719	45411.08
713.063	45352.55
713.407	45333.12
713.75	45135.83
714.094	45084.76
714.438	44797.54
714.782	45024.42
715.125	44722.06
715.469	44852.22
715.812	44568.39
716.156	44342.63
716.499	44434.61
716.843	44552.57
717.186	44259.02
717.53	44354.38
717.873	44331.79
718.216	44148.74
718.559	43892.48
718.902	43727.06
719.246	43809.54
719.589	43791.46
719.932	43616.1
720.275	43608.19
720.617	43497.23
720.96	43416.33
721.303	43412.49
721.646	43391.92
721.989	43064.48
722.331	43092.27
722.674	43029.9
723.016	43160.74
723.359	42983.12
723.701	42910.58
724.044	42570.48
724.386	42470.59
724.729	42644.6
725.071	42542.23
725.413	42530.48
725.755	42457.03
726.097	42099.98
726.439	41902.92
726.782	42063.6
727.124	42154.89
727.465	41926.2
727.807	42024.73
728.149	41834.22
728.491	41883.04
728.833	41736.6
729.175	41683.27
729.516	41543.39
729.858	41421.81
730.199	41544.06
730.541	41330.28
730.882	41287.57
731.224	41423.39
731.565	41077.63
731.906	40985.43
732.248	41218.87
732.589	40929.16
732.93	40732.11
733.271	40768.49
733.612	40700.92
733.953	40719.9
734.294	40583.86
734.635	40568.5
734.976	40674.71
735.317	40308.84
735.658	40399.46
735.999	40303.19
736.339	40147.26
736.68	40276.75
737.021	40121.05
737.361	40006.7
737.702	40123.99
738.042	39893.26
738.383	39764.22
738.723	40044.44
739.063	39642.19
739.404	39796.54
739.744	39588.18
740.084	39599.93
740.424	39427.28
740.764	39406.04
741.104	39660.27
741.444	39222.32
741.784	39160.62
742.124	39181.19
742.464	39042.43
742.804	39113.17
743.143	38860.29
743.483	38911.82
743.823	38643.12
744.162	38729.45
744.502	38667.75
744.841	38404.26
745.181	38668.21
745.52	38309.35
745.86	38550.92
746.199	38338.27
746.538	38211.95
746.877	38236.81
747.216	38202.46
747.556	38096.24
747.895	38096.92
748.234	37931.95
748.573	37985.51
748.911	37802.01
749.25	37711.4
749.589	37648.57
749.928	37633.66
750.267	37586.2
750.605	37511.17
750.944	37410.84
751.283	37234.57
751.621	37289.94
751.96	37065.08
752.298	37103.73
752.636	37040
752.975	36873.45
753.313	36843.85
753.651	36891.53
753.989	36644.53
754.327	36593.68
754.666	36276.63
755.004	36458.1
755.342	36338.55
755.679	36280.7
756.017	36157.09
756.355	36197.99
756.693	35999.35
757.031	36048.39
757.368	35841.84
757.706	35621.05
758.044	35600.72
758.381	35647.27
758.719	35388.74
759.056	35413.38
759.394	35338.12
759.731	35026.49
760.068	34976.55
760.405	34864.92
760.743	34863.11
761.08	34818.14
761.417	34702.89
761.754	34499.95
762.091	34470.58
762.428	34305.61
762.765	34145.16
763.102	34173.86
763.438	34043.7
763.775	33877.82
764.112	33836.47
764.449	33815.68
764.785	33592.63
765.122	33374.33
765.458	33321.68
765.795	33278.29
766.131	33147.45
766.467	33032.87
766.804	32944.97
767.14	32784.75
767.476	32903.16
767.812	32629.5
768.148	32680.34
768.485	32346.79
768.821	32224.76
769.157	32178.66
769.492	32053.24
769.828	32121.03
770.164	31705.23
770.5	31643.53
770.836	31781.38
771.171	31456.87
771.507	31423.88
771.842	31136.88
772.178	31288.06
772.513	30977.79
772.849	30902.53
773.184	30760.39
773.519	30761.97
773.855	30697.79
774.19	30503.22
774.525	30313.85
774.86	30400.4
775.195	30277.92
775.53	30151.82
775.865	29968.32
776.2	29784.15
776.535	29661.44
776.87	29576.24
777.205	29531.95
777.539	29345.29
777.874	29404.04
778.209	29074.56
778.543	29092.64
778.878	28956.37
779.212	28911.17
779.547	28627.11
779.881	28704.17
780.215	28494.69
780.55	28500.11
780.884	28248.37
781.218	28167.24
781.552	28220.57
781.886	27983.52
782.22	27803.41
782.554	27697.87
782.888	27521.15
783.222	27534.04
783.556	27290.2
783.889	27271.44
784.223	27048.85
784.557	27007.04
784.89	27038.91
785.224	26856.09
785.557	26648.64
785.891	26651.35
786.224	26482.99
786.558	26515.98
786.891	26165.03
787.224	26182.66
787.557	26121.87
787.891	26029.89
788.224	26033.28
788.557	25899.95
788.89	25996.22
789.223	25829.67
789.556	25591.04
789.888	25548.33
790.221	25370.03
790.554	25271.95
790.887	25367.31
791.219	25178.17
791.552	25118.05
791.884	25066.53
792.217	24918.74
792.549	24912.86
792.882	24717.39
793.214	24591.51
793.546	24666.99
793.879	24489.37
794.211	24182.71
794.543	24264.74
794.875	24203.05
795.207	24190.4
795.539	24081.25
795.871	24098.65
796.203	23964.19
796.535	23834.47
796.867	23693.01
797.198	23688.26
797.53	23525.55
797.862	23356.97
798.193	23424.99
798.525	23223.41
798.856	23311.55
799.188	23041.27
799.519	22957.89
799.85	22893.25
800.182	22815.29
800.513	22909.98
800.844	22574.62
801.175	22682.41
801.506	22601.06
801.837	22406.04
802.168	22458.69
802.499	22353.61
802.83	22232.48
803.161	22108.19
803.491	22192.48
803.822	22178.7
804.153	21958.36
804.483	21864.81
804.814	21804.24
805.145	21752.72
805.475	21688.09
805.805	21597.24
806.136	21608.99
806.466	21630.91
806.796	21578.26
807.126	21417.36
807.457	21405.38
807.787	21218.27
808.117	21237.25
808.447	21195.67
808.777	21151.6
809.107	21018.5
809.436	20970.59
809.766	20943.7
810.096	20924.49
810.426	20873.65
810.755	20771.5
811.085	20682.24
811.414	20721.33
811.744	20547.55
812.073	20551.39
812.403	20487.89
812.732	20367.22
813.061	20420.1
813.39	20250.16
813.719	20157.73
814.049	20265.53
814.378	20125.87
814.707	20100.56
815.036	20074.12
815.365	19822.37
815.693	19642.27
816.022	19700.34
816.351	19785.54
816.68	19677.07
817.008	19707.8
817.337	19624.19
817.665	19482.04
817.994	19481.37
818.322	19504.87
818.651	19330.41
818.979	19236.17
819.307	19413.8
819.636	19283.18
819.964	19150.08
820.292	19270.07
820.62	19126.57
820.948	19067.59
821.276	19199.79
821.604	19157.31
821.932	19123.64
822.259	19148.49
822.587	19020.14
822.915	19104.43
823.243	18995.96
823.57	18977.2
823.898	18885.68
824.225	18895.84
824.553	18897.43
824.88	18879.57
825.207	19015.84
825.535	18884.77
825.862	18971.78
826.189	18941.04
826.516	18948.72
826.843	18987.14
827.17	19067.59
827.497	18934.49
827.824	18960.02
828.151	19011.55
828.478	18856.07
828.805	18949.85
829.131	18836.41
829.458	18894.04
829.785	18730.43
830.111	18877.31
830.438	18941.95
830.764	18801.61
831.09	18863.53
831.417	18770.65
831.743	18799.12
832.069	18752.57
832.395	18741.27
832.722	18785.34
833.048	18746.02
833.374	18720.03
833.7	18661.27
834.026	18648.39
834.351	18732.46
834.677	18687.94
835.003	18773.14
835.329	18698.56
835.654	18662.63
835.98	18571.33
836.306	18697.88
836.631	18476.19
836.956	18576.76
837.282	18639.13
837.607	18473.03
837.932	18368.4
838.258	18371.56
838.583	18336.54
838.908	18269.42
839.233	18336.31
839.558	18245.69
839.883	18181.74
840.208	18246.82
840.533	18182.42
840.858	18254.96
841.182	18215.86
841.507	18174.51
841.832	18049.99
842.156	17975.87
842.481	18031.01
842.805	17972.25
843.13	17926.83
843.454	17863.56
843.778	17859.49
844.103	17828.08
844.427	17747.63
844.751	17833.5
845.075	17588.53
845.399	17651.36
845.723	17541.53
846.047	17526.62
846.371	17467.41
846.695	17413.62
847.019	17238.26
847.343	17254.08
847.666	17121.2
847.99	17070.13
848.313	16914.88
848.637	16855.22
848.96	16894.54
849.284	16805.73
849.607	16663.59
849.931	16678.28
850.254	16643.7
850.577	16493.2
850.9	16477.38
851.223	16473.76
851.546	16416.36
851.869	16259.53
852.192	16361
852.515	16195.58
852.838	16061.34
853.161	16081.68
853.483	15998.52
853.806	15975.92
854.129	15984.06
854.451	15852.99
854.774	15794.68
855.096	15740.45
855.419	15652.54
855.741	15672.43
856.063	15612.77
856.385	15525.09
856.708	15434.02
857.03	15347.01
857.352	15408.93
857.674	15276.73
857.996	15205.55
858.318	15260.46
858.64	15191.31
858.961	15219.33
859.283	15084.87
859.605	15103.85
859.926	15040.13
860.248	15068.37
860.57	15011.88
860.891	14982.95
861.212	14879.91
861.534	14880.81
861.855	14892.11
862.176	14894.37
862.498	14937.08
862.819	14872
863.14	14874.26
863.461	14823.41
863.782	14792.45
864.103	14774.15
864.424	14638.56
864.745	14653.47
865.065	14579.8
865.386	14508.62
865.707	14585.68
866.027	14539.8
866.348	14505.9
866.668	14451.22
866.989	14415.51
867.309	14436.75
867.63	14447.6
867.95	14435.4
868.27	14314.5
868.59	14364.21
868.91	14316.3
869.23	14385
869.55	14212.13
869.87	14335.06
870.19	14243.31
870.51	14203.99
870.83	14219.13
871.15	14113.6
871.469	14187.95
871.789	14193.6
872.109	14153.6
872.428	14016.43
872.748	14100.26
873.067	14081.51
873.386	14008.06
873.706	14131.68
874.025	13985.92
874.344	13934.85
874.663	13987.27
874.982	13922.64
875.301	13924.68
875.62	13874.96
875.939	13850.55
876.258	13860.27
876.577	13806.26
876.896	13862.3
877.214	13714.06
877.533	13809.2
877.852	13809.43
878.17	13723.33
878.489	13642.2
878.807	13608.75
879.125	13621.86
879.444	13640.39
879.762	13611.01
880.08	13572.14
880.398	13495.76
880.716	13545.03
881.034	13495.31
881.352	13457.57
881.67	13504.8
881.988	13531.24
882.306	13463.67
882.624	13382.77
882.941	13304.13
883.259	13279.72
883.577	13262.32
883.894	13259.16
884.212	13286.05
884.529	13272.04
884.846	13206.73
885.164	13164.92
885.481	13129.22
885.798	13202.66
886.115	13048.32
886.432	13128.09
886.75	13021.42
887.067	13025.49
887.383	12896.23
887.7	12996.57
888.017	12871.82
888.334	12855.78
888.651	12833.41
888.967	12766.74
889.284	12830.02
889.6	12737.14
889.917	12660.08
890.233	12644.94
890.55	12563.81
890.866	12623.92
891.182	12616.91
891.498	12562
891.815	12491.27
892.131	12444.72
892.447	12310.93
892.763	12286.08
893.079	12337.6
893.395	12392.06
893.71	12323.59
894.026	12349.58
894.342	12136.47
894.657	12179.86
894.973	12105.29
895.289	12091.5
895.604	12152.75
895.92	12039.53
896.235	11986.42
896.55	11973.32
896.865	11995.46
897.181	11915.69
897.496	11832.98
897.811	11839.08
898.126	11816.03
898.441	11760.44
898.756	11701.91
899.071	11682.25
899.386	11625.08
899.7	11595.92
900.015	11553.44
900.33	11415.82
900.644	11387.57
900.959	11398.64
901.273	11346.66
901.588	11286.33
901.902	11340.34
902.216	11352.54
902.531	11264.63
902.845	11266.22
903.159	11229.61
903.473	11073.45
903.787	11036.62
904.101	10959.78
904.415	10987.8
904.729	10963.62
905.042	10868.94
905.356	10897.86
905.67	10960.69
905.984	10882.72
906.297	10785.78
906.611	10704.42
906.924	10581.71
907.237	10566.8
907.551	10540.13
907.864	10541.71
908.177	10510.75
908.491	10484.99
908.804	10415.39
909.117	10366.58
909.43	10292
909.743	10254.94
910.056	10251.78
910.368	10245
910.681	10157.32
910.994	10146.02
911.307	10120.48
911.619	10082.52
911.932	10007.72
912.244	10003.2
912.557	9989.41
912.869	9922.07
913.181	9839.13
913.494	9911.45
913.806	9768.63
914.118	9727.27
914.43	9729.98
914.742	9700.61
915.054	9607.73
915.366	9601.4
915.678	9492.25
915.99	9467.62
916.302	9471.23
916.613	9407.05
916.925	9414.74
917.236	9402.08
917.548	9300.39
917.859	9291.35
918.171	9246.83
918.482	9195.76
918.794	9149.89
919.105	9127.06
919.416	9013.39
919.727	9066.95
920.038	8989.89
920.349	8892.04
920.66	8913.28
920.971	8892.49
921.282	8909.67
921.593	8819.73
921.903	8739.28
922.214	8695.44
922.525	8703.34
922.835	8662.67
923.146	8585.38
923.456	8588.77
923.767	8568.66
924.077	8565.5
924.387	8487.76
924.697	8469.68
925.008	8430.13
925.318	8359.62
925.628	8370.25
925.938	8298.38
926.248	8292.28
926.558	8252.06
926.867	8205.96
927.177	8128.67
927.487	8107.2
927.796	8033.31
928.106	7978.39
928.416	8042.12
928.725	8001.89
929.034	7873.54
929.344	7900.88
929.653	7896.81
929.962	7863.82
930.271	7833.54
930.581	7724.84
930.89	7747.89
931.199	7623.37
931.508	7669.25
931.817	7645.07
932.125	7564.62
932.434	7589.7
932.743	7498.63
933.051	7446.43
933.36	7490.95
933.669	7439.42
933.977	7401.23
934.286	7350.39
934.594	7286.88
934.902	7251.41
935.21	7264.74
935.519	7240.11
935.827	7271.07
936.135	7181.8
936.443	7185.42
936.751	7100.45
937.059	7093.44
937.367	7043.95
937.674	6996.04
937.982	6966.44
938.29	6937.97
938.597	6906.1
938.905	6904.07
939.213	6829.95
939.52	6850.29
939.827	6836.95
940.135	6756.05
940.442	6716.5
940.749	6611.65
941.056	6702.95
941.363	6641.25
941.67	6641.7
941.977	6586.56
942.284	6506.57
942.591	6524.64
942.898	6487.58
943.205	6509.96
943.511	6402.61
943.818	6464.99
944.125	6290.75
944.431	6348.15
944.738	6378.43
945.044	6280.13
945.35	6238.78
945.657	6246.91
945.963	6251.88
946.269	6164.88
946.575	6214.14
946.881	6068.61
947.187	6079.23
947.493	6066.8
947.799	6106.12
948.105	5992.68
948.41	6003.53
948.716	6022.06
949.022	5951.33
949.327	5945
949.633	5857.77
949.938	5917.2
950.244	5855.51
950.549	5796.3
950.854	5814.38
951.16	5740.03
951.465	5776.19
951.77	5714.27
952.075	5724.89
952.38	5700.03
952.685	5665.01
952.99	5608.06
953.294	5636.98
953.599	5553.37
953.904	5555.63
954.209	5450.1
954.513	5478.57
954.818	5516.31
955.122	5465.92
955.426	5404.9
955.731	5406.48
956.035	5372.58
956.339	5312.02
956.643	5275.86
956.948	5262.53
957.252	5270.21
957.556	5288.07
957.86	5154.29
958.163	5187.28
958.467	5179.6
958.771	5150.67
959.075	5119.48
959.378	5128.75
959.682	5084.23
959.985	5064.8
960.289	5026.61
960.592	4994.52
960.896	4990.22
961.199	4939.6
961.502	4872.48
961.805	4910.45
962.108	4877.91
962.411	4891.92
962.714	4864.12
963.017	4813.5
963.32	4842.66
963.623	4777.8
963.926	4770.11
964.228	4748.19
964.531	4705.48
964.833	4688.31
965.136	4696.22
965.438	4668.65
965.741	4651.47
966.043	4632.72
966.345	4590.46
966.648	4528.09
966.95	4582.32
967.252	4542.78
967.554	4581.42
967.856	4529.22
968.158	4500.97
968.46	4457.35
968.761	4420.29
969.063	4426.39
969.365	4460.52
969.666	4371.03
969.968	4372.61
970.269	4351.82
970.571	4331.48
970.872	4305.72
971.174	4252.84
971.475	4252.84
971.776	4224.37
972.077	4213.29
972.378	4222.33
972.679	4172.62
972.98	4148.44
973.281	4124.03
973.582	4126.97
973.883	4137.36
974.183	4054.43
974.484	4055.56
974.785	3999.06
975.085	4052.39
975.386	4035.44
975.686	3998.84
975.986	3979.85
976.287	3958.61
976.587	3926.97
976.887	3938.5
977.187	3888.33
977.487	3863.25
977.787	3879.06
978.087	3887.2
978.387	3808.56
978.687	3832.74
978.987	3814.66
979.286	3747.77
979.586	3794.77
979.885	3745.51
980.185	3742.57
980.484	3700.31
980.784	3712.74
981.083	3672.52
981.382	3644.04
981.682	3681.78
981.981	3610.82
982.28	3613.08
982.579	3585.06
982.878	3597.94
983.177	3558.17
983.475	3515.46
983.774	3531.28
984.073	3507.55
984.372	3455.35
984.67	3505.52
984.969	3479.98
985.267	3449.47
985.566	3445.86
985.864	3425.07
986.162	3411.28
986.461	3404.95
986.759	3366.31
987.057	3323.15
987.355	3342.81
987.653	3346.2
987.951	3295.35
988.249	3277.27
988.547	3282.7
988.844	3265.97
989.142	3205.64
989.44	3214.9
989.737	3183.72
990.035	3211.51
990.332	3192.76
990.63	3186.2
990.927	3169.03
991.224	3120.67
991.521	3143.72
991.819	3106.2
992.116	3070.5
992.413	3090.61
992.71	3065.3
993.006	3028.69
993.303	3052.42
993.6	3043.38
993.897	3007.45
994.193	2991.63
994.49	2971.29
994.787	2943.95
995.083	2912.54
995.379	2919.99
995.676	2931.97
995.972	2893.78
996.268	2884.29
996.565	2846.78
996.861	2857.17
997.157	2833.89
997.453	2834.57
997.749	2831.63
998.044	2780.79
998.34	2764.52
998.636	2768.59
998.932	2766.1
999.227	2717.74
999.523	2743.05
999.818	2693.33
1000.114	2676.61
1000.409	2657.85
1000.704	2650.85
1001	2656.72
1001.295	2650.85
1001.59	2635.26
1001.885	2607.91
1002.18	2576.73
1002.475	2595.26
1002.77	2534.92
1003.065	2534.24
1003.359	2556.61
1003.654	2514.35
1003.949	2492.89
1004.243	2478.65
1004.538	2465.54
1004.832	2481.59
1005.127	2457.41
1005.421	2404.08
1005.715	2405.43
1006.009	2389.61
1006.304	2388.03
1006.598	2365.88
1006.892	2351.65
1007.186	2346.45
1007.48	2331.08
1007.773	2291.54
1008.067	2310.07
1008.361	2280.91
1008.655	2276.85
1008.948	2275.72
1009.242	2251.31
1009.535	2247.02
1009.829	2220.58
1010.122	2206.57
1010.415	2182.61
1010.708	2188.94
1011.001	2153.46
1011.295	2134.48
1011.588	2156.17
1011.881	2121.82
1012.173	2138.77
1012.466	2123.18
1012.759	2088.15
1013.052	2089.96
1013.344	2095.61
1013.637	2066.68
1013.93	2071.2
1014.222	2033.24
1014.514	1998.66
1014.807	2022.39
1015.099	1989.62
1015.391	1975.39
1015.683	1950.75
1015.976	1952.34
1016.268	1946.46
1016.56	1907.14
1016.851	1900.13
1017.143	1916.18
1017.435	1876.18
1017.727	1868.5
1018.018	1865.78
1018.31	1876.86
1018.602	1849.06
1018.893	1842.96
1019.185	1809.74
1019.476	1808.61
1019.767	1786.46
1020.058	1765.9
1020.35	1754.15
1020.641	1757.09
1020.932	1725.67
1021.223	1717.31
1021.514	1731.55
1021.804	1680.03
1022.095	1681.38
1022.386	1664.21
1022.677	1645.45
1022.967	1641.16
1023.258	1645.23
1023.548	1623.76
1023.839	1613.14
1024.129	1626.92
1024.419	1618.56
1024.709	1580.14
1025	1586.7
1025.29	1567.94
1025.58	1543.53
1025.87	1509.18
1026.16	1533.82
1026.449	1515.29
1026.739	1524.55
1027.029	1493.14
1027.319	1482.29
1027.608	1492.46
1027.898	1464.89
1028.187	1454.72
1028.477	1443.65
1028.766	1449.75
1029.055	1408.85
1029.344	1418.56
1029.634	1393.71
1029.923	1390.09
1030.212	1364.78
1030.501	1388.51
1030.79	1361.39
1031.078	1358
1031.367	1352.58
1031.656	1338.57
1031.945	1333.59
1032.233	1339.24
1032.522	1308.06
1032.81	1275.97
1033.099	1282.07
1033.387	1300.15
1033.675	1258.12
1033.963	1239.59
1034.251	1261.96
1034.54	1256.31
1034.828	1247.27
1035.116	1197.78
1035.403	1219.93
1035.691	1217.67
1035.979	1187.16
1036.267	1236.65
1036.554	1228.29
1036.842	1174.28
1037.129	1169.31
1037.417	1172.24
1037.704	1150.32
1037.992	1172.92
1038.279	1151.45
1038.566	1128.63
1038.853	1128.63
1039.14	1128.63
