Data from foil_FLMS001491_035.txt Node
Date: Tue Feb 07 11:26:15 GMT 2017
User: dcchb
Spectrometer: FLMS00149
Trigger mode: 0
Integration Time (sec): 2.000000E-2
Scans to average: 10
Electric dark correction enabled: true
Nonlinearity correction enabled: false
Boxcar width: 0
XAxis mode: Wavelengths
Number of Pixels in Spectrum: 2048
>>>>>Begin Spectral Data<<<<<
341.393	-7.68
341.776	-7.68
342.16	-7.68
342.543	-47.91
342.927	-65.76
343.31	-59.21
343.693	-85.65
344.077	-78.87
344.46	-68.7
344.843	-64.41
345.226	-48.13
345.61	-22.82
345.993	-9.72
346.376	10.4
346.759	8.14
347.142	36.16
347.525	55.37
347.908	61.02
348.291	91.07
348.674	71.18
349.057	104.18
349.44	127.91
349.823	148.47
350.206	192.99
350.588	264.63
350.971	294.91
351.354	300.33
351.737	311.63
352.119	355.24
352.502	342.82
352.884	365.41
353.267	370.84
353.65	376.71
354.032	378.3
354.414	395.7
354.797	415.81
355.179	396.37
355.562	426.66
355.944	418.97
356.326	435.92
356.709	418.52
357.091	437.28
357.473	456.49
357.855	443.83
358.238	440.44
358.62	442.47
359.002	447.9
359.384	453.55
359.766	425.3
360.148	456.71
360.53	447.45
360.912	438.18
361.294	430.95
361.676	465.52
362.057	455.81
362.439	448.8
362.821	429.14
363.203	454.68
363.584	459.42
363.966	485.86
364.348	450.38
364.729	449.71
365.111	455.81
365.493	484.06
365.874	470.95
366.256	490.61
366.637	457.16
367.019	476.6
367.4	471.63
367.781	446.77
368.163	475.24
368.544	480.89
368.925	484.51
369.306	490.83
369.688	504.17
370.069	492.42
370.45	494.22
370.831	478.63
371.212	515.24
371.593	499.42
371.974	501.68
372.355	503.49
372.736	537.39
373.117	518.4
373.498	527.44
373.879	501.23
374.26	505.98
374.641	508.69
375.021	524.28
375.402	544.62
375.783	569.7
376.163	591.85
376.544	592.75
376.925	599.31
377.305	569.48
377.686	567.22
378.066	561.79
378.447	585.3
378.827	597.95
379.208	579.87
379.588	586.2
379.968	616.03
380.349	595.01
380.729	604.05
381.109	605.41
381.489	608.12
381.87	636.59
382.25	644.28
382.63	625.97
383.01	656.25
383.39	652.86
383.77	683.37
384.15	680.89
384.53	672.52
384.91	673.88
385.29	693.77
385.67	701
386.049	727.66
386.429	708
386.809	726.99
387.189	721.11
387.568	739.19
387.948	762.69
388.328	768.12
388.707	788.23
389.087	776.02
389.466	769.25
389.846	794.78
390.225	792.97
390.605	812.86
390.984	860.09
391.363	827.55
391.743	830.94
392.122	861.22
392.501	892.18
392.881	910.71
393.26	876.14
393.639	925.17
394.018	918.17
394.397	922.24
394.776	943.25
395.155	925.17
395.534	947.77
395.913	959.75
396.292	966.53
396.671	976.47
397.05	997.49
397.429	1050.82
397.808	1015.57
398.186	1011.05
398.565	1037.71
398.944	1008.34
399.323	1035.45
399.701	1067.54
400.08	1061.89
400.458	1106.86
400.837	1110.25
401.215	1107.77
401.594	1106.19
401.972	1142.79
402.351	1147.99
402.729	1153.64
403.107	1195.22
403.486	1194.09
403.864	1204.49
404.242	1203.58
404.62	1220.76
404.999	1250.59
405.377	1272.73
405.755	1285.84
406.133	1270.48
406.511	1273.86
406.889	1351.15
407.267	1332.62
407.645	1354.77
408.023	1410.81
408.401	1408.78
408.779	1417.14
409.156	1446.29
409.534	1440.41
409.912	1446.74
410.29	1500.75
410.667	1541.43
411.045	1521.54
411.422	1560.41
411.8	1577.13
412.178	1596.79
412.555	1606.74
412.933	1680.63
413.31	1690.58
413.687	1700.97
414.065	1701.88
414.442	1712.72
414.819	1741.42
415.197	1747.3
415.574	1780.74
415.951	1792.27
416.328	1814.87
416.705	1837.69
417.082	1872.72
417.46	1900.97
417.837	1904.81
418.214	1912.27
418.591	1947.52
418.967	1927.18
419.344	1994.98
419.721	2019.61
420.098	1994.75
420.475	2013.05
420.852	2052.38
421.228	2040.4
421.605	2128.31
421.982	2119.72
422.358	2158.36
422.735	2176.89
423.111	2187.97
423.488	2239.49
423.864	2228.19
424.241	2316.32
424.617	2300.5
424.994	2322.88
425.37	2326.49
425.746	2359.26
426.123	2413.5
426.499	2388.19
426.875	2460.27
427.251	2481.74
427.627	2544.34
428.003	2567.16
428.379	2595.19
428.756	2615.3
429.132	2664.34
429.507	2645.58
429.883	2730.1
430.259	2737.78
430.635	2789.76
431.011	2804.9
431.387	2884.67
431.763	2950.43
432.138	2945.91
432.514	3004.44
432.89	2992.69
433.265	3089.64
433.641	3132.12
434.016	3142.74
434.392	3200.37
434.767	3269.07
435.143	3260.03
435.518	3297.31
435.894	3335.05
436.269	3394.71
436.644	3402.62
437.02	3445.56
437.395	3488.04
437.77	3546.57
438.145	3565.33
438.52	3659.11
438.895	3622.73
439.271	3692.11
439.646	3715.38
440.021	3765.32
440.395	3786.34
440.77	3776.85
441.145	3815.94
441.52	3909.28
441.895	3904.53
442.27	3902.5
442.645	3933.23
443.019	3983.85
443.394	4006.67
443.769	4050.06
444.143	4029.95
444.518	4109.04
444.892	4119.89
445.267	4138.65
445.641	4146.78
446.016	4254.35
446.39	4223.39
446.764	4220.91
447.139	4294.12
447.513	4302.26
447.887	4354.69
448.262	4336.16
448.636	4397.17
449.01	4475.59
449.384	4443.5
449.758	4533.89
450.132	4584.29
450.506	4616.83
450.88	4625.64
451.254	4680.1
451.628	4717.62
452.002	4786.31
452.376	4801.46
452.75	4863.15
453.123	4889.36
453.497	4956.71
453.871	4996.93
454.244	5161.9
454.618	5140.2
454.992	5227.66
455.365	5239.41
455.739	5368.45
456.112	5344.72
456.486	5442.79
456.859	5527.31
457.232	5620.19
457.606	5611.6
457.979	5707.42
458.352	5803.24
458.725	5949.67
459.099	5919.62
459.472	6029.45
459.845	6103.57
460.218	6143.12
460.591	6198.26
460.964	6184.02
461.337	6382.88
461.71	6487.51
462.083	6555.99
462.456	6607.06
462.829	6640.5
463.201	6786.26
463.574	6771.8
463.947	6841.18
464.32	7004.79
464.692	7068.06
465.065	7100.38
465.438	7263.09
465.81	7349.41
466.183	7397.77
466.555	7623.98
466.928	7628.05
467.3	7640.48
467.672	7824.43
468.045	7955.5
468.417	7993.01
468.789	8033.69
469.161	8207.47
469.534	8360.91
469.906	8481.81
470.278	8573.56
470.65	8705.53
471.022	8803.38
471.394	8963.83
471.766	9065.07
472.138	9116.82
472.51	9342.58
472.882	9534.66
473.253	9625.51
473.625	9746.18
473.997	9897.14
474.369	10040.64
474.74	10077.02
475.112	10235.66
475.484	10523.79
475.855	10626.61
476.227	10763.11
476.598	11091.01
476.97	11143.44
477.341	11427.95
477.713	11574.61
478.084	11689.18
478.455	12010.31
478.827	12118.55
479.198	12402.39
479.569	12490.97
479.94	12797.4
480.311	12980.45
480.682	13239.2
481.053	13509.48
481.424	13792.18
481.795	13818.17
482.166	14005.28
482.537	14226.52
482.908	14518.26
483.279	14714.87
483.65	15014.07
484.021	15272.14
484.391	15377.9
484.762	15570.89
485.133	15750.55
485.503	15956.42
485.874	16219.91
486.244	16434.37
486.615	16825.77
486.985	16967.24
487.356	17287.46
487.726	17428.24
488.097	17801.79
488.467	17857.84
488.837	18111.16
489.207	18360.65
489.578	18687.64
489.948	18874.76
490.318	19145.94
490.688	19191.13
491.058	19500.28
491.428	19806.71
491.798	19944.79
492.168	20292.57
492.538	20435.85
492.908	20544.77
493.278	20912.44
493.648	20994.02
494.017	21242.15
494.387	21498.87
494.757	21587.68
495.126	21812.31
495.496	21921.68
495.866	22115.8
496.235	22442.35
496.605	22552.85
496.974	22683.47
497.344	22823.35
497.713	23042.33
498.082	23186.28
498.452	23445.26
498.821	23582.88
499.19	23651.13
499.559	23906.94
499.928	24059.48
500.298	24164.56
500.667	24504.89
501.036	24468.96
501.405	24835.51
501.774	24769.74
502.143	25041.38
502.512	25089.06
502.88	25251.31
503.249	25439.78
503.618	25786.44
503.987	25751.64
504.356	25978.75
504.724	26183.72
505.093	26256.71
505.462	26362.47
505.83	26602.01
506.199	26776.7
506.567	27175.56
506.936	26980.76
507.304	27464.59
507.672	27547.75
508.041	27778.25
508.409	27984.57
508.777	28096.66
509.145	28376.88
509.514	28290.78
509.882	28710.43
510.25	28769.87
510.618	29072.46
510.986	29154.49
511.354	29538.66
511.722	29566.91
512.09	29992.66
512.458	29879.89
512.826	30209.15
513.193	30378.41
513.561	30505.64
513.929	30913.09
514.297	31193.3
514.664	31288.44
515.032	31422.22
515.4	31715.1
515.767	31935.88
516.135	32034.86
516.502	32087.29
516.869	32674.4
517.237	32707.39
517.604	32644.11
517.972	33171.33
518.339	33322.51
518.706	33437.76
519.073	33694.48
519.44	33847.02
519.808	34319.32
520.175	34370.62
520.542	34856.71
520.909	35002.7
521.276	35110.94
521.643	35515.45
522.009	35755.9
522.376	35948.66
522.743	36125.38
523.11	36504.8
523.477	36780.5
523.843	37086.93
524.21	37419.13
524.577	37676.75
524.943	37836.97
525.31	38043.52
525.676	38410.97
526.043	38754.24
526.409	38854.8
526.776	39256.59
527.142	39438.96
527.508	39679.86
527.874	40090.7
528.241	40155.1
528.607	40429.45
528.973	40840.73
529.339	40920.28
529.705	41217
530.071	41640.49
530.437	41687.94
530.803	41849.75
531.169	42039.35
531.535	42032.34
531.901	42280.92
532.267	42493.57
532.632	42817.63
532.998	42946.22
533.364	43121.58
533.73	43417.62
534.095	43761.56
534.461	43802.46
534.826	44083.59
535.192	44191.61
535.557	44543.46
535.923	44638.37
536.288	44848.09
536.653	45034.3
537.019	44994.52
537.384	45045.37
537.749	45227.74
538.114	45491.69
538.479	45521.51
538.845	45774.84
539.21	45788.63
539.575	46147.26
539.94	46286.47
540.305	46602.39
540.67	46481.94
541.034	46681.48
541.399	46865.66
541.764	47035.15
542.129	47222.94
542.494	47233.56
542.858	47491.63
543.223	47409.83
543.587	47870.38
543.952	47704.96
544.316	47933.2
544.681	47920.77
545.045	48155.34
545.41	48271.27
545.774	48462.68
546.138	48651.15
546.503	48797.36
546.867	48732.73
547.231	49211.14
547.595	49204.58
547.959	49339.04
548.324	49417.46
548.688	49537.68
549.052	49720.05
549.416	49835.07
549.779	49817.22
550.143	50008.85
550.507	50192.35
550.871	50437.77
551.235	50536.98
551.599	50756.86
551.962	50798.89
552.326	50976.96
552.689	51211.31
553.053	51088.37
553.417	51186.22
553.78	51618.3
554.143	51558.19
554.507	51752.09
554.87	51781.69
555.234	52043.6
555.597	51805.42
555.96	52109.82
556.323	52274.33
556.686	52292.64
557.05	52660.99
557.413	52720.65
557.776	52839.74
558.139	53056.91
558.502	53088.32
558.865	53182.1
559.228	53508.65
559.59	53546.39
559.953	53510.68
560.316	53935.31
560.679	53982.76
561.041	54045.13
561.404	54304.33
561.767	54417.1
562.129	54423.88
562.492	54693.03
562.854	54754.27
563.217	54724.21
563.579	54903.64
563.941	55140.47
564.304	55208.04
564.666	55472.67
565.028	55452.1
565.39	55573.23
565.753	55787.46
566.115	55855.48
566.477	55993.56
566.839	56086.21
567.201	56277.84
567.563	56238.97
567.925	56376.14
568.287	56466.54
568.648	56540.43
569.01	56720.77
569.372	56906.98
569.734	56842.57
570.095	57029.23
570.457	57107.88
570.819	57180.19
571.18	57199.85
571.542	57360.07
571.903	57446.63
572.265	57484.14
572.626	57627.64
572.987	57620.18
573.349	57765.49
573.71	57837.12
574.071	57958.25
574.432	58032.6
574.794	58137.45
575.155	58104.23
575.516	58054.29
575.877	58281.86
576.238	58287.73
576.599	58386.94
576.96	58370.44
577.32	58407.5
577.681	58542.19
578.042	58577.44
578.403	58520.95
578.763	58540.16
579.124	58591.91
579.485	58711.9
579.845	58853.14
580.206	58811.79
580.566	58774.73
580.927	58791
581.287	58910.09
581.648	58867.6
582.008	59031.44
582.368	58911.22
582.728	58910.54
583.089	58985.79
583.449	58951.44
583.809	59002.29
584.169	59053.59
584.529	59006.13
584.889	59159.8
585.249	59017.43
585.609	58952.57
585.969	59070.31
586.329	59031.89
586.688	59081.84
587.048	59036.87
587.408	58980.6
587.768	59023.53
588.127	59058.33
588.487	59040.48
588.846	59281.15
589.206	59029.41
589.565	59099.01
589.925	59193.7
590.284	59111.67
590.643	59124.1
591.003	59240.7
591.362	59222.62
591.721	59231.21
592.08	59218.1
592.44	59285.9
592.799	59233.7
593.158	59172.91
593.517	59182.62
593.876	59223.98
594.235	59144.89
594.593	59204.09
594.952	59222.62
595.311	59160.48
595.67	59228.95
596.029	59317.76
596.387	59392.79
596.746	59378.55
597.104	59316.63
597.463	59317.76
597.822	59448.38
598.18	59393.92
598.538	59345.78
598.897	59513.24
599.255	59332.68
599.613	59727.92
599.972	59528.15
600.33	59573.8
600.688	59450.19
601.046	59547.13
601.404	59590.75
601.762	59528.38
602.12	59722.05
602.478	59674.82
602.836	59643.86
603.194	59597.53
603.552	59599.56
603.91	59605.66
604.268	59677.3
604.625	59611.77
604.983	59686.57
605.341	59612.22
605.698	59756.62
606.056	59798.88
606.413	59846.34
606.771	59814.92
607.128	59906.67
607.485	59832.1
607.843	59885.66
608.2	59927.46
608.557	60042.26
608.914	59908.71
609.272	60003.39
609.629	60137.4
609.986	60155.03
610.343	60111.19
610.7	60248.36
611.057	60217.17
611.414	60143.05
611.771	60230.28
612.127	60365.87
612.484	60217.85
612.841	60353.89
613.198	60269.83
613.554	60327
613.911	60422.82
614.267	60428.02
614.624	60426.21
614.98	60421.46
615.337	60525.87
615.693	60481.57
616.05	60495.36
616.406	60628.24
616.762	60528.8
617.118	60554.11
617.475	60556.15
617.831	60624.17
618.187	60648.8
618.543	60620.78
618.899	60741.45
619.255	60673.66
619.611	60668.46
619.967	60748.01
620.323	60834.56
620.678	60731.96
621.034	60712.98
621.39	60672.75
621.746	60671.85
622.101	60902.13
622.457	60705.3
622.812	60743.04
623.168	60789.81
623.523	60853.09
623.879	60932.64
624.234	60696.26
624.589	60810.6
624.945	60838.4
625.3	60850.38
625.655	60766.54
626.01	60856.7
626.365	60916.14
626.72	60755.46
627.075	60766.09
627.43	60689.48
627.785	60682.25
628.14	60715.92
628.495	60769.02
628.85	60664.17
629.205	60649.48
629.559	60748.01
629.914	60614
630.269	60692.87
630.623	60610.38
630.978	60544.4
631.332	60729.02
631.687	60678.18
632.041	60592.08
632.396	60617.84
632.75	60463.95
633.104	60569.48
633.459	60485.19
633.813	60333.33
634.167	60355.48
634.521	60360.9
634.875	60443.61
635.229	60289.94
635.583	60201.58
635.937	60174.91
636.291	60129.72
636.645	60136.95
636.999	60133.79
637.352	60138.08
637.706	59965.2
638.06	60046.56
638.413	59985.77
638.767	59942.15
639.121	60096.27
639.474	59887.92
639.828	59935.15
640.181	60018.53
640.534	59964.3
640.888	59858.99
641.241	59774.7
641.594	59813.34
641.947	59904.87
642.301	59783.06
642.654	59783.96
643.007	59832.33
643.36	59764.76
643.713	59727.7
644.066	59790.97
644.419	59565.67
644.771	59320.25
645.124	58971.1
645.477	58877.32
645.83	58722.3
646.182	58778.34
646.535	58817.66
646.888	58883.2
647.24	58832.8
647.593	59003.65
647.945	58989.86
648.298	58831.22
648.65	58690.89
649.002	58573.38
649.355	58631.9
649.707	58473.94
650.059	58497.44
650.411	58831.67
650.763	58838.68
651.115	59130.65
651.467	59093.14
651.819	59090.42
652.171	58933.14
652.523	58897.43
652.875	58924.33
653.227	58809.98
653.578	58994.38
653.93	58871.22
654.282	58765.23
654.633	58779.7
654.985	58797.55
655.337	58814.27
655.688	58825.35
656.039	58816.98
656.391	58610.66
656.742	58682.3
657.094	58692.92
657.445	58724.11
657.796	58654.5
658.147	58631.45
658.498	58612.02
658.849	58571.34
659.2	58614.96
659.551	58554.62
659.902	58593.94
660.253	58506.26
660.604	58581.96
660.955	58451.8
661.306	58552.13
661.656	58447.73
662.007	58450.21
662.358	58462.87
662.708	58451.12
663.059	58464.9
663.409	58268.07
663.76	58495.41
664.11	58420.16
664.461	58479.82
664.811	58334.29
665.161	58388.75
665.511	58277.34
665.862	58295.19
666.212	58305.59
666.562	58304.23
666.912	58274.17
667.262	58204.8
667.612	58211.12
667.962	58222.2
668.312	58224.01
668.662	58310.33
669.011	58194.18
669.361	58167.28
669.711	58165.7
670.06	58120.05
670.41	58083.44
670.76	58145.82
671.109	58224.68
671.459	58086.83
671.808	58033.5
672.157	58063.56
672.507	57873.28
672.856	57872.38
673.205	57948.98
673.554	58094.29
673.904	57947.63
674.253	58119.15
674.602	58034.18
674.951	57635.32
675.3	57444.59
675.649	57840.97
675.998	57898.14
676.346	57802.77
676.695	57856.78
677.044	57687.07
677.393	57804.81
677.741	57744.7
678.09	57641.42
678.438	57522.33
678.787	57578.6
679.135	57675.77
679.484	57494.99
679.832	57539.73
680.181	57400.98
680.529	57494.99
680.877	57357.14
681.225	57278.72
681.573	57484.14
681.922	57268.55
682.27	57172.96
682.618	57186.52
682.966	57211.6
683.314	57193.52
683.661	57035.79
684.009	56866.3
684.357	56950.59
684.705	56851.16
685.053	56972.97
685.4	56875.57
685.748	56735.46
686.095	56633.77
686.443	56624.5
686.79	56567.33
687.138	56689.13
687.485	56663.59
687.832	56436.26
688.18	56532.98
688.527	56319.2
688.874	56286.88
689.221	56346.77
689.568	56273.1
689.915	56199.88
690.262	56142.7
690.609	56081.01
690.956	56017.96
691.303	56041.46
691.65	55833.33
691.997	55838.53
692.344	55596.73
692.69	55600.12
693.037	55564.87
693.383	55352.89
693.73	55328.26
694.077	55193.13
694.423	55233.58
694.769	55155.61
695.116	55126.23
695.462	55049.17
695.808	54963.07
696.155	54915.39
696.501	54750.2
696.847	54721.05
697.193	54513.59
697.539	54577.1
697.885	54415.29
698.231	54316.09
698.577	54375.97
698.923	54236.54
699.269	54113.61
699.614	53978.47
699.96	53893.05
700.306	53965.36
700.651	53679.94
700.997	53724.69
701.342	53739.15
701.688	53692.6
702.033	53637.69
702.379	53559.5
702.724	53469.1
703.069	53489.89
703.415	53097.59
703.76	53208.09
704.105	53192.27
704.45	53127.19
704.795	52962.45
705.14	52780.31
705.485	52853.3
705.83	52588.67
706.175	52673.19
706.52	52553.65
706.865	52417.83
707.209	52264.39
707.554	52242.92
707.899	52377.61
708.243	52138.74
708.588	51988.69
708.932	51793.44
709.277	51872.31
709.621	51898.3
709.966	51584.18
710.31	51637.96
710.654	51368.82
710.998	51576.27
711.342	51439.1
711.687	51306.67
712.031	51112.78
712.375	50963.18
712.719	51070.3
713.063	51017.19
713.407	51136.96
713.75	50986.46
714.094	50794.82
714.438	50783.98
714.782	50765.67
715.125	50575.39
715.469	50523.64
715.812	50343.76
716.156	50168.62
716.499	50373.36
716.843	50316.87
717.186	49989.42
717.53	50240.71
717.873	50212.01
718.216	50060.15
718.559	49892.02
718.902	49710.56
719.246	49760.5
719.589	49622.2
719.932	49528.42
720.275	49480.96
720.617	49420.17
720.96	49307.63
721.303	49442.77
721.646	49412.26
721.989	49131.59
722.331	49177.46
722.674	49044.59
723.016	49007.75
723.359	48925.72
723.701	48998.71
724.044	48613.86
724.386	48630.13
724.729	48775.67
725.071	48678.04
725.413	48506.52
725.755	48490.93
726.097	48183.14
726.439	48111.73
726.782	48186.08
727.124	48284.15
727.465	47886.88
727.807	47870.83
728.149	47802.36
728.491	47780.89
728.833	47721.68
729.175	47591.52
729.516	47565.75
729.858	47504.51
730.199	47458.19
730.541	47276.27
730.882	47311.52
731.224	47434.68
731.565	47050.06
731.906	47218.87
732.248	47223.17
732.589	47013.68
732.93	47022.04
733.271	46867.24
733.612	46914.7
733.953	46840.8
734.294	46696.17
734.635	46613.01
734.976	46639.23
735.317	46479.68
735.658	46644.42
735.999	46581.83
736.339	46238.11
736.68	46410.98
737.021	46223.19
737.361	45991.56
737.702	46193.81
738.042	46013.71
738.383	45961.96
738.723	45851.22
739.063	45664.34
739.404	45914.5
739.744	45707.95
740.084	45437.45
740.424	45667.5
740.764	45528.75
741.104	45584.56
741.444	45254.18
741.784	45357.9
742.124	45308.64
742.464	45188.19
742.804	45086.95
743.143	45026.61
743.483	45032.26
743.823	44891.93
744.162	44759.05
744.502	44884.24
744.841	44535.33
745.181	44743.68
745.52	44505.5
745.86	44603.12
746.199	44472.28
746.538	44174.88
746.877	44338.5
747.216	44406.74
747.556	44131.04
747.895	44118.61
748.234	43860.99
748.573	43965.4
748.911	43712.3
749.25	43695.8
749.589	43686.99
749.928	43654.22
750.267	43704.16
750.605	43541.68
750.944	43268.24
751.283	43355.24
751.621	43398.86
751.96	43060.56
752.298	43004.29
752.636	43100.11
752.975	42866.9
753.313	42515.72
753.651	42745.54
753.989	42679.56
754.327	42460.35
754.666	42339.45
755.004	42353.01
755.342	42299.45
755.679	42080.7
756.017	42082.96
756.355	42135.16
756.693	41762.07
757.031	41915.06
757.368	41640.04
757.706	41497.21
758.044	41297.9
758.381	41304.45
758.719	41187.39
759.056	41143.55
759.394	41074.63
759.731	40822.43
760.068	40783.79
760.405	40692.72
760.743	40524.36
761.08	40529.56
761.417	40452.72
761.754	40353.74
762.091	40186.97
762.428	40034.2
762.765	39814.32
763.102	39845.73
763.438	39547.43
763.775	39311.51
764.112	39404.84
764.449	39328.23
764.785	39172.3
765.122	38950.16
765.458	38826.55
765.795	38613.22
766.131	38597.86
766.467	38532.32
766.804	38206.45
767.14	38294.13
767.476	38241.93
767.812	37956.29
768.148	38017.53
768.485	37730.08
768.821	37505.68
769.157	37434.5
769.492	37403.99
769.828	37444.67
770.164	37088.74
770.5	37015.3
770.836	36972.81
771.171	36719.49
771.507	36722.65
771.842	36380.74
772.178	36504.58
772.513	36393.85
772.849	36308.88
773.184	36010.13
773.519	36000.86
773.855	35833.41
774.19	35530.14
774.525	35493.98
774.86	35384.38
775.195	35283.14
775.53	35187.1
775.865	35084.73
776.2	34848.12
776.535	34484.29
776.87	34441.58
777.205	34418.76
777.539	34136.28
777.874	34332.43
778.209	33882.72
778.543	33850.18
778.878	33642.96
779.212	33667.59
779.547	33451.32
779.881	33572.45
780.215	33174.49
780.55	33239.13
780.884	33028.74
781.218	32902.41
781.552	32929.08
781.886	32767.5
782.22	32460.16
782.554	32359.83
782.888	32120.96
783.222	32176.1
783.556	32117.57
783.889	31935.66
784.223	31599.85
784.557	31579.06
784.89	31663.12
785.224	31418.83
785.557	31155.56
785.891	31260.87
786.224	31111.05
786.558	31005.96
786.891	30791.96
787.224	30615.92
787.557	30454.57
787.891	30536.6
788.224	30381.8
788.557	30523.72
788.89	30310.39
789.223	30289.15
789.556	30190.39
789.888	30033.56
790.221	29876.73
790.554	29626.79
790.887	29701.14
791.219	29487.81
791.552	29448.04
791.884	29261.15
792.217	29254.6
792.549	29040.59
792.882	28905.68
793.214	28754.72
793.546	28770.99
793.879	28599.25
794.211	28360.84
794.543	28669.53
794.875	28515.63
795.207	28408.52
795.539	28166.72
795.871	28250.33
796.203	27928.76
796.535	27787.97
796.867	27714.98
797.198	27616.45
797.53	27757.01
797.862	27614.87
798.193	27550.01
798.525	27295.1
798.856	27374.65
799.188	27059.18
799.519	26989.35
799.85	26761.78
800.182	26873.87
800.513	26813.08
800.844	26604.95
801.175	26721.33
801.506	26487.89
801.837	26439.08
802.168	26384.17
802.499	26283.6
802.83	26153.89
803.161	25985.98
803.491	25969.94
803.822	26034.34
804.153	25833.45
804.483	25604.52
804.814	25613.34
805.145	25534.7
805.475	25535.83
805.805	25433.23
806.136	25405.89
806.466	25299
806.796	25366.56
807.126	25148.49
807.457	25123.18
807.787	25030.08
808.117	24997.99
808.447	24785.79
808.777	24842.74
809.107	24709.63
809.436	24589.41
809.766	24673.02
810.096	24612.46
810.426	24408.17
810.755	24382.41
811.085	24339.25
811.414	24326.59
811.744	23981.74
812.073	24154.39
812.403	23993.72
812.732	23898.35
813.061	23927.05
813.39	23709.43
813.719	23647.97
814.049	23844.34
814.378	23758.47
814.707	23504.69
815.036	23505.82
815.365	23412.49
815.693	23190.8
816.022	23303.34
816.351	23064.48
816.68	23014.08
817.008	23156
817.337	22905.39
817.665	22864.71
817.994	23032.39
818.322	22970.24
818.651	22810.25
818.979	22831.49
819.307	22843.02
819.636	22745.62
819.964	22466.75
820.292	22578.62
820.62	22500.88
820.948	22528.9
821.276	22550.59
821.604	22436.92
821.932	22513.08
822.259	22518.5
822.587	22475.79
822.915	22388.11
823.243	22374.33
823.57	22350.37
823.898	22345.4
824.225	22275.35
824.553	22458.84
824.88	22351.5
825.207	22322.12
825.535	22215.46
825.862	22329.36
826.189	22379.07
826.516	22438.73
826.843	22400.54
827.17	22262.24
827.497	22518.96
827.824	22375.91
828.151	22334.78
828.478	22311.5
828.805	22297.27
829.131	22241.9
829.458	22220.66
829.785	22104.5
830.111	22083.49
830.438	22160.1
830.764	22232.64
831.09	22319.41
831.417	22053.43
831.743	22170.04
832.069	22169.81
832.395	22085.75
832.722	22170.72
833.048	22048.46
833.374	22092.75
833.7	21932.3
834.026	21970.5
834.351	21952.42
834.677	22012.08
835.003	21947.45
835.329	21979.99
835.654	21932.76
835.98	21864.51
836.306	21879.2
836.631	21836.04
836.956	21850.27
837.282	21832.19
837.607	21736.15
837.932	21718.3
838.258	21793.55
838.583	21740.22
838.908	21611.64
839.233	21618.19
839.558	21589.49
839.883	21478.76
840.208	21565.08
840.533	21461.58
840.858	21385.65
841.182	21420
841.507	21485.99
841.832	21273.56
842.156	21325.77
842.481	21182.49
842.805	21164.19
843.13	21116.73
843.454	21067.24
843.778	20904.54
844.103	20964.42
844.427	20886.91
844.751	21013.46
845.075	20976.85
845.399	20878.55
845.723	20660.93
846.047	20680.36
846.371	20450.76
846.695	20522.4
847.019	20316.98
847.343	20266.13
847.666	20217.55
847.99	20158.34
848.313	20052.13
848.637	19912.47
848.96	19943.2
849.284	19961.06
849.607	19669.54
849.931	19665.7
850.254	19544.34
850.577	19518.81
850.9	19326.05
851.223	19441.07
851.546	19337.12
851.869	19174.86
852.192	19295.31
852.515	19068.88
852.838	18935.32
853.161	19088.09
853.483	18867.3
853.806	18870.46
854.129	18792.05
854.451	18771.94
854.774	18658.49
855.096	18597.25
855.419	18503.92
855.741	18504.15
856.063	18379.86
856.385	18418.05
856.708	18267.54
857.03	18339.18
857.352	18419.18
857.674	18314.55
857.996	18102.57
858.318	17999.98
858.64	17982.13
858.961	17949.81
859.283	17976.48
859.605	17916.82
859.926	17903.48
860.248	17869.36
860.57	17745.75
860.891	17695.81
861.212	17666.2
861.534	17630.04
861.855	17539.65
862.176	17608.8
862.498	17578.52
862.819	17644.28
863.14	17522.03
863.461	17553.21
863.782	17448.58
864.103	17336.72
864.424	17328.36
864.745	17336.72
865.065	17214.91
865.386	17257.4
865.707	17197.74
866.027	17217.4
866.348	17179.44
866.668	17281.81
866.989	17183.73
867.309	17033
867.63	17069.83
867.95	16957.29
868.27	16931.08
868.59	16985.09
868.91	16937.41
869.23	17013.56
869.55	17014.02
869.87	17085.65
870.19	16980.12
870.51	16916.84
870.83	16854.02
871.15	16701.71
871.469	16802.27
871.789	16842.04
872.109	16815.38
872.428	16700.8
872.748	16719.11
873.067	16697.87
873.386	16624.2
873.706	16596.4
874.025	16584.87
874.344	16485.22
874.663	16602.28
874.982	16549.4
875.301	16516.63
875.62	16503.52
875.939	16448.16
876.258	16449.74
876.577	16418.78
876.896	16418.78
877.214	16333.36
877.533	16381.72
877.852	16310.08
878.17	16280.02
878.489	16190.31
878.807	16216.97
879.125	16165.9
879.444	16137.43
879.762	16110.08
880.08	16119.12
880.398	15998.68
880.716	16217.88
881.034	16075.74
881.352	16191.66
881.67	16090.2
881.988	16110.31
882.306	16014.04
882.624	15948.51
882.941	15944.67
883.259	15859.7
883.577	15816.08
883.894	15811.79
884.212	15823.76
884.529	15733.6
884.846	15739.25
885.164	15682.98
885.481	15593.71
885.798	15738.12
886.115	15582.42
886.432	15650.44
886.75	15526.82
887.067	15533.6
887.383	15476.88
887.7	15425.13
888.017	15407.28
888.334	15540.16
888.651	15376.77
888.967	15360.05
889.284	15207.96
889.6	15238.92
889.917	15080.28
890.233	15109.21
890.55	15011.81
890.866	15107.17
891.182	14943.34
891.498	14975.88
891.815	14945.14
892.131	14820.4
892.447	14842.55
892.763	14796
893.079	14640.97
893.395	14761.65
893.71	14697.47
894.026	14784.92
894.342	14729.78
894.657	14472.61
894.973	14451.6
895.289	14464.93
895.604	14440.07
895.92	14375.22
896.235	14348.32
896.55	14368.21
896.865	14224.94
897.181	14385.16
897.496	14292.96
897.811	14292.96
898.126	14108.33
898.441	14063.36
898.756	13985.17
899.071	13952.4
899.386	13919.86
899.7	13833.99
900.015	13819.07
900.33	13751.28
900.644	13735.46
900.959	13797.15
901.273	13580.21
901.588	13531.85
901.902	13539.53
902.216	13464.28
902.531	13436.71
902.845	13358.07
903.159	13365.3
903.473	13285.75
903.787	13264.74
904.101	13141.8
904.415	13084.85
904.729	13138.64
905.042	13051.86
905.356	13013.22
905.67	12999.21
905.984	13069.71
906.297	12958.3
906.611	12842.15
906.924	12868.14
907.237	12753.34
907.551	12706.33
907.864	12652.32
908.177	12638.76
908.491	12650.97
908.804	12435.15
909.117	12480.58
909.43	12282.16
909.743	12373.91
910.056	12408.94
910.368	12298.66
910.681	12184.54
910.994	12139.79
911.307	12091.43
911.619	12043.3
911.932	12079.46
912.244	11943.19
912.557	12007.82
912.869	11945
913.181	11818.45
913.494	11785
913.806	11686.7
914.118	11743.87
914.43	11667.94
914.742	11663.42
915.054	11543.2
915.366	11498.91
915.678	11508.85
915.99	11464.33
916.302	11356.31
916.613	11353.37
916.925	11362.87
917.236	11368.74
917.548	11211.23
917.859	11175.75
918.171	11119.26
918.482	11027.96
918.794	10980.5
919.105	10897.11
919.416	10860.73
919.727	10874.29
920.038	10798.59
920.349	10772.82
920.66	10591.81
920.971	10678.82
921.282	10624.58
921.593	10633.39
921.903	10561.76
922.214	10558.59
922.525	10537.35
922.835	10467.97
923.146	10493.28
923.456	10453.74
923.767	10448.09
924.077	10317.92
924.387	10221.65
924.697	10153.18
925.008	10147.76
925.318	10081.99
925.628	10055.55
925.938	10003.35
926.248	9883.81
926.558	9946.63
926.867	9858.95
927.177	9847.42
927.487	9762.68
927.796	9781.66
928.106	9703.47
928.416	9672.74
928.725	9702.12
929.034	9606.75
929.344	9495.8
929.653	9438.85
929.962	9512.97
930.271	9381.22
930.581	9347.32
930.89	9383.03
931.199	9254.9
931.508	9315.91
931.817	9245.41
932.125	9213.09
932.434	9108.69
932.743	9036.15
933.051	9094
933.36	9095.13
933.669	8972.42
933.977	8952.08
934.286	8953.21
934.594	8900.33
934.902	8800.22
935.21	8777.4
935.519	8760.22
935.827	8739.88
936.135	8631.19
936.443	8684.52
936.751	8645.2
937.059	8622.15
937.367	8566.55
937.674	8557.97
937.982	8484.3
938.29	8397.97
938.597	8499.21
938.905	8354.13
939.213	8313.45
939.52	8263.06
939.827	8298.54
940.135	8200.24
940.442	8105.32
940.749	8123.85
941.056	8195.26
941.363	8074.36
941.67	8060.58
941.977	8003.63
942.284	7930.41
942.591	7920.7
942.898	7820.81
943.205	7833.47
943.511	7788.27
943.818	7840.02
944.125	7750.98
944.431	7754.6
944.738	7716.18
945.044	7671.89
945.35	7679.57
945.657	7531.33
945.963	7549.41
946.269	7512.57
946.575	7482.06
946.881	7425.79
947.187	7515.96
947.493	7348.96
947.799	7300.82
948.105	7266.7
948.41	7244.33
948.716	7288.62
949.022	7268.51
949.327	7249.53
949.633	7094.95
949.938	7132.02
950.244	7138.12
950.549	7011.79
950.854	7000.95
951.16	7022.19
951.465	6963.66
951.77	6918.01
952.075	6856.09
952.38	6843.44
952.685	6842.08
952.99	6854.51
953.294	6799.14
953.599	6715.76
953.904	6706.72
954.209	6724.34
954.513	6714.85
954.818	6610.45
955.122	6644.35
955.426	6607.06
955.731	6549.66
956.035	6551.24
956.339	6495.65
956.643	6479.6
956.948	6441.86
957.252	6414.52
957.556	6334.07
957.86	6271.93
958.163	6300.85
958.467	6260.17
958.771	6208.65
959.075	6265.37
959.378	6244.13
959.682	6239.84
959.985	6119.39
960.289	6044.13
960.592	6087.75
960.896	6048.2
961.199	5991.48
961.502	6029.45
961.805	6042.55
962.108	5954.65
962.411	5975.89
962.714	5887.98
963.017	5847.98
963.32	5852.73
963.623	5793.07
963.926	5783.8
964.228	5798.94
964.531	5775.89
964.833	5746.74
965.136	5712.39
965.438	5686.4
965.741	5633.75
966.043	5594.43
966.345	5567.99
966.648	5572.51
966.95	5597.14
967.252	5522.11
967.554	5519.85
967.856	5483.7
968.158	5456.35
968.46	5418.61
968.761	5413.19
969.063	5344.94
969.365	5384.94
969.666	5362.34
969.968	5260.88
970.269	5317.6
970.571	5288.22
970.872	5235.34
971.174	5226.3
971.475	5233.53
971.776	5222.91
972.077	5156.25
972.378	5128.68
972.679	5120.09
972.98	5111.05
973.281	5076.02
973.582	5029.7
973.883	5017.72
974.183	4958.97
974.484	4945.18
974.785	4953.54
975.085	4950.15
975.386	4913.09
975.686	4911.51
975.986	4870.83
976.287	4854.56
976.587	4796.48
976.887	4768.46
977.187	4784.28
977.487	4759.2
977.787	4768.46
978.087	4692.08
978.387	4619.09
978.687	4672.65
978.987	4572.31
979.286	4593.78
979.586	4561.46
979.885	4596.04
980.185	4581.8
980.484	4498.41
980.784	4510.39
981.083	4520.33
981.382	4466.1
981.682	4482.14
981.981	4474.23
982.28	4446.66
982.579	4398.08
982.878	4389.94
983.177	4379.09
983.475	4299.55
983.774	4292.32
984.073	4272.88
984.372	4231.53
984.67	4259.1
984.969	4207.57
985.267	4167.35
985.566	4161.92
985.864	4159.21
986.162	4128.48
986.461	4112.43
986.759	4060.46
987.057	4038.31
987.355	4069.95
987.653	4087.35
987.951	4024.3
988.249	4033.34
988.547	4023.62
988.844	3975.26
989.142	3934.13
989.44	3918.99
989.737	3869.28
990.035	3885.77
990.332	3893.46
990.63	3823.4
990.927	3813.23
991.224	3854.81
991.521	3792.44
991.819	3775.49
992.116	3768.71
992.413	3747.47
992.71	3726.68
993.006	3715.61
993.303	3698.43
993.6	3654.14
993.897	3700.02
994.193	3644.65
994.49	3609.17
994.787	3579.79
995.083	3588.83
995.379	3586.8
995.676	3574.6
995.972	3530.75
996.268	3530.3
996.565	3522.85
996.861	3481.94
997.157	3412.79
997.453	3434.03
997.749	3399.68
998.044	3368.95
998.34	3394.71
998.636	3339.57
998.932	3324.66
999.227	3343.87
999.523	3320.59
999.818	3325.56
1000.114	3205.34
1000.409	3253.25
1000.704	3252.12
1001	3222.06
1001.295	3191.1
1001.59	3184.1
1001.885	3160.59
1002.18	3107.26
1002.475	3133.02
1002.77	3084.89
1003.065	3086.92
1003.359	3066.36
1003.654	3032.46
1003.949	3002.86
1004.243	3021.16
1004.538	2976.87
1004.832	2934.39
1005.127	2926.25
1005.421	2926.7
1005.715	2908.4
1006.009	2919.02
1006.304	2905.01
1006.598	2879.92
1006.892	2870.21
1007.186	2825.69
1007.48	2825.91
1007.773	2826.59
1008.067	2773.71
1008.361	2748.63
1008.655	2736.2
1008.948	2736.88
1009.242	2721.28
1009.535	2694.39
1009.829	2644.45
1010.122	2636.09
1010.415	2650.1
1010.708	2619.82
1011.001	2605.36
1011.295	2594.28
1011.588	2581.4
1011.881	2556.09
1012.173	2522.42
1012.466	2542.53
1012.759	2526.26
1013.052	2512.7
1013.344	2511.8
1013.637	2485.81
1013.93	2457.34
1014.222	2424.8
1014.514	2408.3
1014.807	2442.2
1015.099	2392.03
1015.391	2361.07
1015.683	2318.13
1015.976	2357.9
1016.268	2353.38
1016.56	2337.57
1016.851	2305.25
1017.143	2278.81
1017.435	2294.85
1017.727	2267.06
1018.018	2220.73
1018.31	2209.43
1018.602	2218.02
1018.893	2220.28
1019.185	2157.46
1019.476	2168.08
1019.767	2156.55
1020.058	2134.63
1020.35	2136.44
1020.641	2103.9
1020.932	2071.81
1021.223	2058.7
1021.514	2085.82
1021.804	2007.18
1022.095	2039.27
1022.386	2003.11
1022.677	2010.12
1022.967	2003.34
1023.258	1955.65
1023.548	1931.02
1023.839	1927.63
1024.129	1890.12
1024.419	1915.43
1024.709	1881.76
1025	1863.45
1025.29	1867.75
1025.58	1870.46
1025.87	1827.75
1026.16	1817.13
1026.449	1826.39
1026.739	1821.65
1027.029	1791.59
1027.319	1755.66
1027.608	1751.14
1027.898	1732.61
1028.187	1730.8
1028.477	1748.88
1028.766	1699.16
1029.055	1698.94
1029.344	1668.66
1029.634	1686.96
1029.923	1606.51
1030.212	1642.89
1030.501	1640.41
1030.79	1631.14
1031.078	1615.32
1031.367	1581.65
1031.656	1580.98
1031.945	1591.6
1032.233	1541.43
1032.522	1561.31
1032.81	1543.91
1033.099	1564.25
1033.387	1485.16
1033.675	1504.59
1033.963	1484.93
1034.251	1496.01
1034.54	1475.89
1034.828	1453.75
1035.116	1475.44
1035.403	1473.41
1035.691	1458.94
1035.979	1410.81
1036.267	1410.13
1036.554	1404.48
1036.842	1397.7
1037.129	1361.32
1037.417	1342.11
1037.704	1345.73
1037.992	1336.69
1038.279	1347.76
1038.566	1331.72
1038.853	1331.72
1039.14	1331.72
