Data from foil_FLMS001491_074.txt Node
Date: Tue Feb 07 11:36:42 GMT 2017
User: dcchb
Spectrometer: FLMS00149
Trigger mode: 0
Integration Time (sec): 2.000000E-2
Scans to average: 10
Electric dark correction enabled: true
Nonlinearity correction enabled: false
Boxcar width: 0
XAxis mode: Wavelengths
Number of Pixels in Spectrum: 2048
>>>>>Begin Spectral Data<<<<<
341.393	-9.11
341.776	-9.11
342.16	-9.11
342.543	-71.48
342.927	-75.32
343.31	-64.7
343.693	-68.54
344.077	-50.46
344.46	-69.45
344.843	-45.72
345.226	-50.46
345.61	-35.1
345.993	-12.95
346.376	-3.91
346.759	20.27
347.142	15.07
347.525	56.43
347.908	39.02
348.291	61.4
348.674	86.03
349.057	123.09
349.44	123.99
349.823	143.65
350.206	163.77
350.588	247.38
350.971	256.65
351.354	265.46
351.737	286.7
352.119	301.16
352.502	299.13
352.884	331.45
353.267	329.64
353.65	371.9
354.032	355.63
354.414	359.92
354.797	368.73
355.179	398.79
355.562	389.52
355.944	373.48
356.326	395.63
356.709	406.47
357.091	396.98
357.473	406.25
357.855	415.96
358.238	426.36
358.62	408.51
359.002	412.57
359.384	408.96
359.766	408.05
360.148	442.86
360.53	416.87
360.912	404.21
361.294	411.22
361.676	429.3
362.057	426.58
362.439	405.57
362.821	410.31
363.203	384.55
363.584	425.91
363.966	428.17
364.348	419.13
364.729	423.87
365.111	423.2
365.493	424.33
365.874	425.45
366.256	414.83
366.637	446.47
367.019	404.44
367.4	442.63
367.781	443.53
368.163	429.75
368.544	439.69
368.925	427.26
369.306	443.08
369.688	427.04
370.069	450.31
370.45	434.49
370.831	451.67
371.212	443.31
371.593	450.54
371.974	447.83
372.355	453.02
372.736	465.68
373.117	451.67
373.498	447.38
373.879	459.35
374.26	466.13
374.641	437.66
375.021	459.13
375.402	495.96
375.783	507.26
376.163	515.4
376.544	520.14
376.925	495.06
377.305	498.45
377.686	495.96
378.066	502.52
378.447	520.59
378.827	530.08
379.208	538.9
379.588	523.53
379.968	518.56
380.349	546.13
380.729	528.96
381.109	538.9
381.489	568.73
381.87	510.88
382.25	553.14
382.63	560.37
383.01	570.54
383.39	582.74
383.77	593.36
384.15	588.84
384.53	611.21
384.91	585.45
385.29	612.34
385.67	606.24
386.049	608.95
386.429	613.02
386.809	619.12
387.189	616.18
387.568	639.69
387.948	632.46
388.328	673.58
388.707	667.93
389.087	648.95
389.466	671.55
389.846	681.49
390.225	713.13
390.605	676.75
390.984	701.15
391.363	703.64
391.743	721.04
392.122	711.78
392.501	749.97
392.881	744.77
393.26	771.21
393.639	738.44
394.018	767.82
394.397	766.46
394.776	777.54
395.155	787.03
395.534	783.64
395.913	799
396.292	803.75
396.671	828.83
397.05	810.53
397.429	834.48
397.808	821.38
398.186	842.85
398.565	837.42
398.944	830.42
399.323	855.73
399.701	877.19
400.08	874.03
400.458	876.52
400.837	878.32
401.215	892.79
401.594	930.3
401.972	913.58
402.351	942.73
402.729	934.82
403.107	970.07
403.486	953.35
403.864	993.35
404.242	958.77
404.62	987.93
404.999	1000.58
405.377	1027.92
405.755	993.8
406.133	1031.09
406.511	1043.29
406.889	1055.49
407.267	1070.64
407.645	1054.14
408.023	1100.47
408.401	1117.41
408.779	1100.47
409.156	1127.36
409.534	1129.62
409.912	1128.49
410.29	1141.14
410.667	1199.67
411.045	1213
411.422	1223.4
411.8	1232.67
412.178	1246.68
412.555	1298.43
412.933	1276.05
413.31	1289.39
413.687	1306.56
414.065	1335.04
414.442	1320.8
414.819	1374.36
415.197	1393.11
415.574	1368.71
415.951	1431.3
416.328	1441.47
416.705	1438.76
417.082	1433.79
417.46	1457.29
417.837	1448.03
418.214	1477.86
418.591	1487.12
418.967	1516.27
419.344	1513.56
419.721	1546.1
420.098	1554.24
420.475	1596.5
420.852	1593.56
421.228	1608.93
421.605	1590.62
421.982	1624.29
422.358	1650.28
422.735	1670.17
423.111	1679.43
423.488	1722.6
423.864	1744.52
424.241	1751.3
424.617	1733.67
424.994	1748.58
425.37	1781.35
425.746	1795.59
426.123	1804.4
426.499	1824.74
426.875	1853.89
427.251	1907.68
427.627	1947.45
428.003	1964.4
428.379	1968.24
428.756	1982.48
429.132	2021.12
429.507	2036.03
429.883	2063.15
430.259	2087.56
430.635	2088.24
431.011	2124.62
431.387	2185.63
431.763	2192.41
432.138	2182.24
432.514	2241.68
432.89	2241.45
433.265	2307.21
433.641	2328.68
434.016	2380.88
434.392	2429.92
434.767	2458.17
435.143	2410.71
435.518	2452.97
435.894	2509.47
436.269	2512.63
436.644	2549.01
437.02	2587.66
437.395	2601.67
437.77	2646.64
438.145	2644.61
438.52	2661.1
438.895	2690.25
439.271	2705.85
439.646	2768.22
440.021	2813.64
440.395	2814.54
440.77	2798.95
441.145	2796.92
441.52	2849.35
441.895	2873.3
442.27	2937.48
442.645	2913.53
443.019	2913.07
443.394	2941.77
443.769	2970.25
444.143	2976.8
444.518	3051.37
444.892	3052.73
445.267	3037.14
445.641	3108.55
446.016	3088.66
446.39	3119.85
446.764	3138.15
447.139	3147.64
447.513	3158.49
447.887	3234.19
448.262	3240.07
448.636	3223.12
449.01	3306.51
449.384	3308.77
449.758	3328.2
450.132	3378.15
450.506	3390.12
450.88	3385.6
451.254	3399.16
451.628	3452.27
452.002	3503.79
452.376	3515.77
452.75	3581.98
453.123	3641.19
453.497	3666.05
453.871	3645.71
454.244	3756.44
454.618	3765.25
454.992	3829.21
455.365	3826.04
455.739	3939.03
456.112	3951.69
456.486	3978.81
456.859	3985.81
457.232	4117.34
457.606	4129.54
457.979	4160.95
458.352	4224.68
458.725	4257.9
459.099	4339.7
459.472	4383.32
459.845	4439.81
460.218	4522.52
460.591	4513.26
460.964	4533.14
461.337	4602.29
461.71	4725.91
462.083	4766.81
462.456	4789.41
462.829	4818.56
463.201	4868.5
463.574	4935.84
463.947	4968.16
464.32	5083.19
464.692	5101.72
465.065	5143.07
465.438	5205.44
465.81	5245.22
466.183	5293.12
466.555	5470.75
466.928	5535.15
467.3	5499.22
467.672	5569.05
468.045	5745.09
468.417	5770.85
468.789	5802.49
469.161	5840
469.534	5921.36
469.906	6048.81
470.278	6113.21
470.65	6169.26
471.022	6296.26
471.394	6444.96
471.766	6465.75
472.138	6560.66
472.51	6677.27
472.882	6758.17
473.253	6824.61
473.625	6914.32
473.997	7065.73
474.369	7085.39
474.74	7172.62
475.112	7348.21
475.484	7489.45
475.855	7626.17
476.227	7643.8
476.598	7890.34
476.97	7926.73
477.341	8165.59
477.713	8248.75
478.084	8317
478.455	8504.34
478.827	8610.1
479.198	8846.48
479.569	8815.06
479.94	9093.93
480.311	9172.12
480.682	9390.87
481.053	9528.72
481.424	9656.62
481.795	9771.65
482.166	9952.44
482.537	10087.8
482.908	10243.05
483.279	10368.47
483.65	10542.93
484.021	10812.07
484.391	10936.59
484.762	10965.06
485.133	11149.92
485.503	11321.44
485.874	11447.31
486.244	11625.16
486.615	11753.07
486.985	11920.29
487.356	12183.34
487.726	12255.65
488.097	12494.29
488.467	12508.75
488.837	12856.09
489.207	12908.52
489.578	13078.91
489.948	13175.85
490.318	13427.15
490.688	13445
491.058	13709.85
491.428	13854.71
491.798	14017.19
492.168	14204.3
492.538	14373.34
492.908	14568.13
493.278	14627.12
493.648	14674.57
494.017	15009.25
494.387	15004.05
494.757	15171.96
495.126	15343.03
495.496	15401.11
495.866	15501.89
496.235	15593.19
496.605	15679.52
496.974	15883.58
497.344	16149.34
497.713	16187.75
498.082	16301.65
498.452	16463
498.821	16512.94
499.19	16584.13
499.559	16727.63
499.928	16889.43
500.298	16879.49
500.667	17131
501.036	17108.18
501.405	17335.29
501.774	17357.44
502.143	17485.57
502.512	17606.7
502.88	17807.6
503.249	17866.35
503.618	18026.8
503.987	18127.81
504.356	18119.9
504.724	18255.72
505.093	18397.41
505.462	18411.42
505.83	18491.87
506.199	18814.35
506.567	18964.85
506.936	19008.02
507.304	19275.81
507.672	19265.64
508.041	19410.94
508.409	19453.2
508.777	19668.34
509.145	19831.72
509.514	19828.79
509.882	19967.77
510.25	20073.53
510.618	20138.83
510.986	20372.73
511.354	20489.56
511.722	20676.22
512.09	20913.96
512.458	20869.44
512.826	21091.58
513.193	21149.88
513.561	21245.92
513.929	21383.55
514.297	21746.02
514.664	21785.8
515.032	21894.49
515.4	22125
515.767	22218.78
516.135	22271.21
516.502	22331.77
516.869	22753.23
517.237	22805.66
517.604	22763.17
517.972	23086.1
518.339	23253.1
518.706	23313.21
519.073	23435.7
519.44	23732.41
519.808	23865.97
520.175	23870.71
520.542	24194.32
520.909	24256.47
521.276	24427.31
521.643	24685.38
522.009	24764.02
522.376	24906.85
522.743	25077.46
523.11	25448.53
523.477	25653.27
523.843	25722.64
524.21	25975.07
524.577	26175.29
524.943	26308.62
525.31	26568.5
525.676	26813.01
526.043	26908.83
526.409	27060.46
526.776	27354.24
527.142	27490.05
527.508	27565.53
527.874	27729.37
528.241	27947.44
528.607	28059.76
528.973	28306.98
529.339	28416.58
529.705	28696.35
530.071	28873.29
530.437	28923.91
530.803	29189.44
531.169	29376.11
531.535	29248.2
531.901	29589.89
532.267	29530.45
532.632	29830.11
532.998	29925.7
533.364	30168.63
533.73	30245.46
534.095	30483.65
534.461	30593.7
534.826	30813.81
535.192	30790.08
535.557	31023.52
535.923	31058.1
536.288	31180.58
536.653	31397.3
537.019	31289.5
537.384	31592.32
537.749	31691.98
538.114	31905.53
538.479	31848.81
538.845	31993.66
539.21	31955.47
539.575	32176.94
539.94	32277.05
540.305	32515.01
540.67	32462.58
541.034	32722.68
541.399	32712.29
541.764	32914.32
542.129	33083.13
542.494	33238.15
542.858	33163.13
543.223	33307.98
543.587	33556.56
543.952	33445.15
544.316	33708.87
544.681	33640.17
545.045	33891.92
545.41	34052.37
545.774	34149.09
546.138	34226.83
546.503	34395.18
546.867	34277.22
547.231	34777.55
547.595	34640.37
547.959	34771.44
548.324	34756.98
548.688	34985.22
549.052	35087.37
549.416	35161.26
549.779	35235.39
550.143	35387.7
550.507	35633.57
550.871	35689.16
551.235	35703.17
551.599	36153.33
551.962	36097.96
552.326	36299.99
552.689	36424.28
553.053	36250.5
553.417	36504.73
553.78	36982.01
554.143	36796.25
554.507	36965.51
554.87	37121.89
555.234	37398.49
555.597	37161.21
555.96	37449.11
556.323	37843.23
556.686	37916.67
557.05	38131.36
557.413	38136.55
557.776	38334.97
558.139	38576.32
558.502	38634.39
558.865	38615.41
559.228	38809.3
559.59	39126.58
559.953	39426.46
560.316	39539.91
560.679	39516.4
561.041	39818.32
561.404	39922.04
561.767	40242.49
562.129	40282.03
562.492	40708.24
562.854	40638.63
563.217	40612.42
563.579	40839.08
563.941	41149.13
564.304	41375.56
564.666	41700.3
565.028	41517.71
565.39	41805.38
565.753	42099.39
566.115	42206.96
566.477	42328.08
566.839	42431.58
567.201	42612.37
567.563	42831.8
567.925	43053.94
568.287	43156.53
568.648	43120.38
569.01	43407.15
569.372	43713.81
569.734	43500.03
570.095	43747.93
570.457	43975.95
570.819	44111.54
571.18	43930.98
571.542	44276.05
571.903	44410.74
572.265	44577.51
572.626	44662.48
572.987	44715.82
573.349	44919.88
573.71	44930.73
574.071	45086.65
574.432	45174.56
574.794	45405.29
575.155	45469.02
575.516	45402.35
575.877	45815.22
576.238	45811.61
576.599	45751.27
576.96	45946.52
577.32	45977.93
577.681	46107.64
578.042	46108.55
578.403	46231.48
578.763	46011.83
579.124	46227.41
579.485	46408.65
579.845	46526.62
580.206	46335.21
580.566	46506.73
580.927	46606.61
581.287	46641.64
581.648	46558.03
582.008	46728.87
582.368	46614.97
582.728	46703.33
583.089	46826.27
583.449	46569.55
583.809	46744.91
584.169	46850.22
584.529	46697.91
584.889	47015.42
585.249	46767.51
585.609	46719.38
585.969	46790.34
586.329	46713.73
586.688	46885.48
587.048	46795.99
587.408	46829.88
587.768	46815.42
588.127	46836.44
588.487	46723.22
588.846	47136.77
589.206	46725.48
589.565	46803.44
589.925	47015.42
590.284	46810
590.643	46943.1
591.003	47004.57
591.362	47224.68
591.721	46880.5
592.08	47056.32
592.44	47082.53
592.799	47074.17
593.158	46963.21
593.517	46929.54
593.876	47049.09
594.235	46995.76
594.593	47029.88
594.952	47152.81
595.311	46993.95
595.67	47139.93
596.029	47295.63
596.387	47260.61
596.746	47287.73
597.104	47019.94
597.463	47114.85
597.822	47214.28
598.18	47069.43
598.538	47159.82
598.897	47460.83
599.255	47116.66
599.613	47725
599.972	47358.01
600.33	47558.23
600.688	47353.03
601.046	47450.89
601.404	47562.75
601.762	47386.48
602.12	47616.76
602.478	47576.98
602.836	47584.44
603.194	47450.89
603.552	47537.44
603.91	47535.4
604.268	47672.8
604.625	47630.32
604.983	47750.09
605.341	47538.34
605.698	47790.99
606.056	47841.61
606.413	47801.84
606.771	47893.59
607.128	47960.93
607.485	47859.24
607.843	47838.45
608.2	48141.49
608.557	48226.46
608.914	47979.01
609.272	48206.12
609.629	48207.48
609.986	48380.58
610.343	48173.8
610.7	48489.95
611.057	48317.75
611.414	48253.8
611.771	48409.28
612.127	48568.6
612.484	48370.86
612.841	48522.04
613.198	48370.86
613.554	48430.52
613.911	48807.46
614.267	48725.88
614.624	48566.34
614.98	48571.76
615.337	48903.5
615.693	48757.07
616.05	48850.4
616.406	48928.59
616.762	48818.08
617.118	48877.29
617.475	48855.59
617.831	48940.79
618.187	48925.42
618.543	48903.05
618.899	49205.87
619.255	49133.1
619.611	49064.18
619.967	49062.14
620.323	49158.86
620.678	49007.68
621.034	49034.8
621.39	48903.5
621.746	48982.37
622.101	49287.9
622.457	48921.81
622.812	49012.65
623.168	49044.97
623.523	49064.85
623.879	49253.55
624.234	48937.17
624.589	49096.49
624.945	49170.39
625.3	49095.36
625.655	49103.05
626.01	49011.75
626.365	49053.1
626.72	49048.36
627.075	49050.17
627.43	48978.3
627.785	48909.83
628.14	49091.07
628.495	49145.3
628.85	48896.04
629.205	48746.67
629.559	48962.71
629.914	48758.87
630.269	48821.02
630.623	48731.3
630.978	48543.96
631.332	48788.03
631.687	48796.84
632.041	48777.18
632.396	48724.07
632.75	48573.57
633.104	48630.06
633.459	48419.67
633.813	48484.98
634.167	48276.4
634.521	48313.24
634.875	48406.79
635.229	48339.68
635.583	48098.33
635.937	48097.42
636.291	48116.86
636.645	48030.98
636.999	47882.96
637.352	47822.85
637.706	47768.39
638.06	47927.48
638.413	47669.64
638.767	47735.4
639.121	47863.98
639.474	47513.71
639.828	47472.58
640.181	47542.41
640.534	47622.63
640.888	47421.28
641.241	47260.83
641.594	47181.06
641.947	47290.66
642.301	47178.12
642.654	47230.78
643.007	47222.19
643.36	47206.15
643.713	47104
644.066	47107.39
644.419	46833.5
644.771	46436.45
645.124	45979.51
645.477	45852.74
645.83	45696.13
646.182	45661.55
646.535	45545.85
646.888	45777.93
647.24	45523.7
647.593	45723.25
647.945	45630.59
648.298	45574.78
648.65	45487.77
649.002	45252.52
649.355	45263.82
649.707	45164.39
650.059	45215.01
650.411	45595.57
650.763	45838.95
651.115	46080.07
651.467	46077.59
651.819	45930.02
652.171	45871.49
652.523	45715.79
652.875	45857.48
653.227	45530.94
653.578	45891.6
653.93	45860.64
654.282	45702.23
654.633	45560.77
654.985	45655.23
655.337	45612.97
655.688	45528.68
656.039	45708.11
656.391	45306.31
656.742	45410.03
657.094	45377.27
657.445	45420.43
657.796	45362.35
658.147	45098.4
658.498	45089.14
658.849	45313.54
659.2	45209.36
659.551	45180.44
659.902	45051.63
660.253	45144.28
660.604	45075.58
660.955	44891.63
661.306	44957.39
661.656	44777.96
662.007	44862.03
662.358	44703.39
662.708	44761.46
663.059	44805.76
663.409	44529.83
663.76	44842.59
664.11	44775.02
664.461	44802.14
664.811	44636.5
665.161	44634.91
665.511	44436.5
665.862	44667.23
666.212	44694.35
666.562	44664.97
666.912	44558.53
667.262	44462.94
667.612	44520.11
667.962	44667.68
668.312	44400.12
668.662	44651.86
669.011	44293.23
669.361	44480.34
669.711	44276.05
670.06	44301.14
670.41	44153.12
670.76	44254.36
671.109	44283.51
671.459	44204.19
671.808	44037.19
672.157	44196.96
672.507	43766.01
672.856	43800.81
673.205	43861.83
673.554	44041.71
673.904	43933.46
674.253	44060.47
674.602	43891.43
674.951	43284.22
675.3	43110.89
675.649	43700.25
675.998	43546.36
676.346	43612.57
676.695	43748.61
677.044	43411.44
677.393	43507.71
677.741	43511.78
678.09	43321.73
678.438	43287.83
678.787	43324.89
679.135	43319.92
679.484	43005.13
679.832	43151.56
680.181	42863.66
680.529	43048.74
680.877	42984.79
681.225	42991.34
681.573	43241.96
681.922	42848.29
682.27	42622.76
682.618	42737.11
682.966	42547.96
683.314	42561.07
683.661	42561.97
684.009	42366.73
684.357	42365.82
684.705	42269.78
685.053	42336.44
685.4	42034.53
685.748	42119.27
686.095	42042.89
686.443	41823.24
686.79	41606.07
687.138	41762.22
687.485	41720.64
687.832	41557.48
688.18	41571.49
688.527	41217.83
688.874	41280.88
689.221	41212.18
689.568	41126.08
689.915	40876.37
690.262	40852.19
690.609	40798.63
690.956	40714.57
691.303	40637.28
691.65	40403.39
691.997	40434.12
692.344	40119.78
692.69	40189.61
693.037	40237.52
693.383	39883.17
693.73	39901.03
694.077	39785.78
694.423	39703.52
694.769	39639.11
695.116	39439.34
695.462	39381.72
695.808	39245.9
696.155	39302.62
696.501	38913.26
696.847	38962.52
697.193	38683.66
697.539	38962.97
697.885	38600.27
698.231	38522.53
698.577	38529.54
698.923	38277.12
699.269	38292.48
699.614	37991.02
699.96	37777.02
700.306	38024.24
700.651	37805.04
700.997	37564.82
701.342	37693.18
701.688	37535.89
702.033	37393.97
702.379	37419.74
702.724	37208.67
703.069	37326.41
703.415	36793.54
703.76	36821.79
704.105	36836.7
704.45	36732.52
704.795	36447.11
705.14	36576.59
705.485	36421.34
705.83	36413.21
706.175	36288.69
706.52	36089.38
706.865	35962.83
707.209	35994.24
707.554	35869.04
707.899	36013.22
708.243	35589.73
708.588	35523.29
708.932	35347.93
709.277	35422.5
709.621	35474.25
709.966	35050.31
710.31	35186.35
710.654	35002.17
710.998	34994.04
711.342	34994.72
711.687	34941.16
712.031	34700.03
712.375	34464.56
712.719	34666.81
713.063	34549.76
713.407	34651.22
713.75	34456.42
714.094	34368.52
714.438	34171.01
714.782	34204.91
715.125	33881.3
715.469	34109.54
715.812	33844.01
716.156	33764.92
716.499	33855.76
716.843	33775.31
717.186	33582.1
717.53	33635.43
717.873	33726.27
718.216	33615.09
718.559	33391.82
718.902	33263.24
719.246	33295.78
719.589	33151.37
719.932	33081.55
720.275	33009.68
720.617	33014.43
720.96	32894.43
721.303	32891.49
721.646	32812.17
721.989	32633.42
722.331	32699.41
722.674	32672.06
723.016	32774.66
723.359	32515.01
723.701	32561.11
724.044	32333.77
724.386	32075.92
724.729	32372.19
725.071	32113.66
725.413	32134.9
725.755	32177.16
726.097	31907.79
726.439	31738.53
726.782	31769.72
727.124	31948.02
727.465	31833.67
727.807	31673.22
728.149	31712.99
728.491	31423.28
728.833	31578.53
729.175	31353.46
729.516	31382.38
729.858	31193.69
730.199	31315.72
730.541	31155.49
730.882	31200.46
731.224	31250.86
731.565	30955.27
731.906	31002.28
732.248	30895.84
732.589	30868.27
732.93	30800.25
733.271	30710.76
733.612	30790.31
733.953	30852
734.294	30669.18
734.635	30547.37
734.976	30561.16
735.317	30571.1
735.658	30419.47
735.999	30461.95
736.339	30250.66
736.68	30343.31
737.021	30266.93
737.361	30142.19
737.702	30319.81
738.042	30123.43
738.383	29978.35
738.723	30003.89
739.063	29953.49
739.404	29991.68
739.744	29932.48
740.084	29767.96
740.424	29778.58
740.764	29615.65
741.104	29744.91
741.444	29546.95
741.784	29439.61
742.124	29536.55
742.464	29395.09
742.804	29274.64
743.143	29243.45
743.483	29331.36
743.823	29153.51
744.162	28954.42
744.502	29228.77
744.841	28957.81
745.181	29148.09
745.52	28958.04
745.86	28975.21
746.199	28718.72
746.538	28826.29
746.877	28818.38
747.216	28693.41
747.556	28614.09
747.895	28516.92
748.234	28500.87
748.573	28481.89
748.911	28421.55
749.25	28326.19
749.589	28115.35
749.928	28138.4
750.267	28186.31
750.605	27961.91
750.944	28075.58
751.283	27994.67
751.621	27983.15
751.96	27874.9
752.298	27870.38
752.636	27709.71
752.975	27588.36
753.313	27499.55
753.651	27691.86
753.989	27420.9
754.327	27479.43
754.666	27309.49
755.004	27390.17
755.342	27172.55
755.679	27214.13
756.017	27016.85
756.355	27096.62
756.693	26908.83
757.031	26988.15
757.368	26938.2
757.706	26711.32
758.044	26598.33
758.381	26725.55
758.719	26464.77
759.056	26491.89
759.394	26401.5
759.731	26312.01
760.068	26270.88
760.405	26102.29
760.743	25960.6
761.08	26046.48
761.417	25843.54
761.754	25760.83
762.091	25719.03
762.428	25761.96
762.765	25478.13
763.102	25620.05
763.438	25422.09
763.775	25283.33
764.112	25368.98
764.449	25176.89
764.785	25172.37
765.122	24915.88
765.458	24837.02
765.795	24866.85
766.131	24736.23
766.467	24558.61
766.804	24652.39
767.14	24408.78
767.476	24380.76
767.812	24284.49
768.148	24348.89
768.485	24014.44
768.821	24100.76
769.157	24067.09
769.492	23996.36
769.828	23893.76
770.164	23707.1
770.5	23627.78
770.836	23626.88
771.171	23473.21
771.507	23349.6
771.842	23184.18
772.178	23232.99
772.513	23215.36
772.849	23148.25
773.184	23063.28
773.519	22903.51
773.855	22813.79
774.19	22644.53
774.525	22679.79
774.86	22605.66
775.195	22649.73
775.53	22463.29
775.865	22260.36
776.2	22152.34
776.535	22026.24
776.87	22001.61
777.205	21927.04
777.539	21766.36
777.874	21850.43
778.209	21741.5
778.543	21700.38
778.878	21452.25
779.212	21468.07
779.547	21333.83
779.881	21406.37
780.215	21213.16
780.55	21268.75
780.884	21066.49
781.218	21023.11
781.552	21021.07
781.886	20791.7
782.22	20821.75
782.554	20716.9
782.888	20568.88
783.222	20429.22
783.556	20377.02
783.889	20261.09
784.223	20086.41
784.557	19965.28
784.89	20076.69
785.224	19888.9
785.557	19873.98
785.891	19866.98
786.224	19688.45
786.558	19639.64
786.891	19602.58
787.224	19536.36
787.557	19388.35
787.891	19386.54
788.224	19394.22
788.557	19266.99
788.89	19236.49
789.223	19150.61
789.556	19037.85
789.888	19072.42
790.221	18877.17
790.554	18740.45
790.887	18769.61
791.219	18733.45
791.552	18683.96
791.884	18499.78
792.217	18453.23
792.549	18324.42
792.882	18198.77
793.214	18179.34
793.546	18203.97
793.879	18096.4
794.211	18004.43
794.543	17984.32
794.875	17951.1
795.207	17976.86
795.539	17835.17
795.871	17896.63
796.203	17696.19
796.535	17609.86
796.867	17533.03
797.198	17520.37
797.53	17448.51
797.862	17373.94
798.193	17400.15
798.525	17296.2
798.856	17312.02
799.188	17154.28
799.519	17119.93
799.85	17012.14
800.182	17093.72
800.513	17001.06
800.844	16777.57
801.175	16881.52
801.506	16854.18
801.837	16704.12
802.168	16726.95
802.499	16654.86
802.83	16608.31
803.161	16467.07
803.491	16543.68
803.822	16434.98
804.153	16346.39
804.483	16221.42
804.814	16145.49
805.145	16146.85
805.475	16194.31
805.805	16013.97
806.136	16083.57
806.466	16048.32
806.796	15971.94
807.126	15770.14
807.457	15773.98
807.787	15805.62
808.117	15653.3
808.447	15630.03
808.777	15642
809.107	15583.02
809.436	15393.87
809.766	15480.2
810.096	15535.79
810.426	15469.35
810.755	15377.15
811.085	15406.76
811.414	15376.7
811.744	15196.37
812.073	15181.68
812.403	15164.5
812.732	15025.52
813.061	15059.87
813.39	14899.88
813.719	14930.16
814.049	15030.04
814.378	14898.75
814.707	14855.13
815.036	14818.07
815.365	14679.54
815.693	14649.26
816.022	14688.36
816.351	14564.29
816.68	14597.74
817.008	14649.04
817.337	14496.5
817.665	14430.74
817.994	14483.16
818.322	14462.6
818.651	14373.79
818.979	14285.66
819.307	14404.52
819.636	14312.55
819.964	14116.17
820.292	14167.92
820.62	14201.82
820.948	14075.04
821.276	14152.33
821.604	14114.13
821.932	14139.67
822.259	14101.25
822.587	14147.81
822.915	14045.44
823.243	14058.77
823.57	14109.84
823.898	14092.67
824.225	14048.37
824.553	14039.33
824.88	14021.48
825.207	14022.16
825.535	14013.57
825.862	14008.6
826.189	13920.02
826.516	13985.78
826.843	14109.16
827.17	13998.66
827.497	13996.62
827.824	13934.03
828.151	13976.51
828.478	13929.28
828.805	13910.98
829.131	14045.66
829.458	13976.51
829.785	13906.23
830.111	13995.27
830.438	14063.74
830.764	13971.54
831.09	13994.36
831.417	13959.79
831.743	13914.59
832.069	13878.21
832.395	13891.09
832.722	13912.78
833.048	13800.02
833.374	13854.93
833.7	13793.69
834.026	13805.89
834.351	13837.31
834.677	13808.38
835.003	13808.61
835.329	13830.07
835.654	13726.57
835.98	13746.91
836.306	13779.91
836.631	13683.41
836.956	13809.06
837.282	13728.61
837.607	13669.17
837.932	13574.04
838.258	13561.15
838.583	13590.98
838.908	13605.9
839.233	13582.85
839.558	13506.01
839.883	13488.39
840.208	13412.46
840.533	13416.53
840.858	13397.32
841.182	13434.6
841.507	13430.99
841.832	13302.4
842.156	13352.8
842.481	13337.43
842.805	13278.68
843.13	13282.07
843.454	13231.67
843.778	13198
844.103	13119.81
844.427	13121.62
844.751	13069.64
845.075	13027.84
845.399	12956.2
845.723	12967.72
846.047	12925.47
846.371	12826.71
846.695	12850.66
847.019	12743.1
847.343	12696.09
847.666	12528.87
847.99	12589.65
848.313	12569.54
848.637	12456.55
848.96	12520.28
849.284	12407.74
849.607	12334.52
849.931	12325.26
850.254	12234.86
850.577	12264.01
850.9	12122.32
851.223	12098.59
851.546	12039.16
851.869	11948.99
852.192	11981.31
852.515	11877.13
852.838	11929.79
853.161	11880.97
853.483	11796.46
853.806	11804.82
854.129	11739.51
854.451	11671.03
854.774	11575.67
855.096	11556.46
855.419	11511.04
855.741	11523.24
856.063	11408.67
856.385	11490.25
856.708	11399.86
857.03	11451.15
857.352	11387.88
857.674	11270.59
857.996	11269.24
858.318	11121.67
858.64	11246.41
858.961	11166.87
859.283	11152.4
859.605	11123.03
859.926	11078.73
860.248	11107.89
860.57	11034.89
860.891	11076.47
861.212	10989.92
861.534	10990.15
861.855	10968.23
862.176	11012.97
862.498	10980.88
862.819	10935.24
863.14	10935.69
863.461	10889.59
863.782	10920.32
864.103	10832.19
864.424	10799.87
864.745	10766.2
865.065	10761.45
865.386	10831.73
865.707	10789.93
866.027	10776.82
866.348	10802.81
866.668	10737.27
866.989	10619.76
867.309	10569.82
867.63	10611.63
867.95	10615.24
868.27	10579.54
868.59	10576.37
868.91	10568.01
869.23	10517.62
869.55	10535.47
869.87	10570.05
870.19	10511.74
870.51	10456.6
870.83	10496.83
871.15	10399.2
871.469	10409.37
871.789	10456.6
872.109	10368.24
872.428	10319.88
872.748	10334.8
873.067	10326.44
873.386	10346.32
873.706	10343.39
874.025	10262.48
874.344	10321.24
874.663	10279.89
874.982	10261.81
875.301	10257.06
875.62	10222.94
875.939	10191.53
876.258	10191.3
876.577	10141.81
876.896	10173.9
877.214	10177.29
877.533	10140.91
877.852	10175.03
878.17	10193.56
878.489	10071.75
878.807	10083.28
879.125	10064.98
879.444	10034.47
879.762	10038.31
880.08	10065.88
880.398	9972.32
880.716	9991.98
881.034	9955.15
881.352	9926.22
881.67	9951.98
881.988	9973.23
882.306	9937.75
882.624	9877.64
882.941	9841.7
883.259	9820.91
883.577	9714.25
883.894	9813
884.212	9798.09
884.529	9738.88
884.846	9768.49
885.164	9748.37
885.481	9705.44
885.798	9736.62
886.115	9652.33
886.432	9670.86
886.75	9636.51
887.067	9675.61
887.383	9565.1
887.7	9577.76
888.017	9570.3
888.334	9538.21
888.651	9484.2
888.967	9485.33
889.284	9454.82
889.6	9453.47
889.917	9366.46
890.233	9403.75
890.55	9346.8
890.866	9279.91
891.182	9343.64
891.498	9272.23
891.815	9226.58
892.131	9222.29
892.447	9168.5
892.763	9127.15
893.079	9174.6
893.395	9130.31
893.71	9102.74
894.026	9057.09
894.342	9016.64
894.657	8919.47
894.973	8931.22
895.289	8953.14
895.604	8931.22
895.92	8895.06
896.235	8869.07
896.55	8876.53
896.865	8853.03
897.181	8862.07
897.496	8774.39
897.811	8725.35
898.126	8695.75
898.441	8646.93
898.756	8605.8
899.071	8659.36
899.386	8630.44
899.7	8580.04
900.015	8544.56
900.33	8499.82
900.644	8444.45
900.959	8469.76
901.273	8416.21
901.588	8437
901.902	8346.6
902.216	8313.16
902.531	8298.02
902.845	8330.56
903.159	8296.66
903.473	8268.19
903.787	8157.91
904.101	8150.45
904.415	8113.16
904.729	8115.65
905.042	8121.75
905.356	8072.94
905.67	7994.52
905.984	8018.93
906.297	7990.45
906.611	7923.34
906.924	7903.45
907.237	7917.01
907.551	7877.69
907.864	7853.06
908.177	7770.12
908.491	7828.2
908.804	7746.39
909.117	7664.36
909.43	7635.21
909.743	7587.75
910.056	7604.48
910.368	7531.03
910.681	7525.61
910.994	7566.51
911.307	7448.32
911.619	7410.58
911.932	7466.63
912.244	7416.68
912.557	7368.78
912.869	7337.36
913.181	7285.84
913.494	7292.62
913.806	7236.12
914.118	7237.93
914.43	7155.9
914.742	7147.99
915.054	7100.31
915.366	7138.05
915.678	7027.99
915.99	7068.67
916.302	7089.01
916.613	6994.1
916.925	6992.06
917.236	6918.84
917.548	6874.1
917.859	6910.03
918.171	6856.7
918.482	6832.07
918.794	6768.11
919.105	6820.99
919.416	6724.05
919.727	6679.08
920.038	6716.81
920.349	6644.5
920.66	6630.26
920.971	6632.07
921.282	6567.67
921.593	6543.94
921.903	6528.8
922.214	6470.49
922.525	6498.97
922.835	6454
923.146	6301.91
923.456	6352.76
923.767	6311.4
924.077	6316.37
924.387	6312.76
924.697	6262.14
925.008	6245.87
925.318	6214.91
925.628	6182.82
925.938	6158.41
926.248	6164.29
926.558	6130.84
926.867	6075.02
927.177	6095.59
927.487	6088.81
927.796	5980.56
928.106	5954.58
928.416	5929.27
928.725	5937.17
929.034	5956.83
929.344	5960.68
929.653	5910.06
929.962	5920.68
930.271	5863.96
930.581	5816.95
930.89	5810.4
931.199	5768.59
931.508	5744.86
931.817	5740.8
932.125	5734.24
932.434	5711.64
932.743	5611.31
933.051	5595.71
933.36	5541.48
933.669	5534.47
933.977	5538.31
934.286	5529.73
934.594	5502.61
934.902	5480.92
935.21	5443.4
935.519	5402.27
935.827	5389.62
936.135	5346.91
936.443	5343.52
936.751	5310.52
937.059	5314.59
937.367	5222.84
937.674	5284.76
937.982	5286.57
938.29	5210.87
938.597	5229.62
938.905	5161.83
939.213	5086.12
939.52	5093.35
939.827	5124.09
940.135	5027.37
940.442	5072.34
940.749	5031.66
941.056	5029.4
941.363	4950.53
941.67	4940.36
941.977	4948.5
942.284	4874.83
942.591	4920.48
942.898	4839.8
943.205	4861.72
943.511	4821.05
943.818	4838.9
944.125	4802.06
944.431	4768.62
944.738	4776.3
945.044	4757.09
945.35	4741.5
945.657	4700.82
945.963	4686.36
946.269	4676.64
946.575	4694.72
946.881	4628.51
947.187	4626.02
947.493	4581.28
947.799	4546.48
948.105	4552.35
948.41	4519.13
948.716	4511
949.022	4459.25
949.327	4467.16
949.633	4471.9
949.938	4459.47
950.244	4375.86
950.549	4423.77
950.854	4349.65
951.16	4377.67
951.465	4307.84
951.77	4282.53
952.075	4276.88
952.38	4281.4
952.685	4248.63
952.99	4212.47
953.294	4257.67
953.599	4195.07
953.904	4199.14
954.209	4180.16
954.513	4162.31
954.818	4113.72
955.122	4099.03
955.426	4120.27
955.731	4101.06
956.035	4064.46
956.339	4048.41
956.643	3994.17
956.948	3986.27
957.252	3966.15
957.556	3984.46
957.86	3964.12
958.163	3927.74
958.467	3962.99
958.771	3935.65
959.075	3902.43
959.378	3869.66
959.682	3852.71
959.985	3812.48
960.289	3821.98
960.592	3784.91
960.896	3757.8
961.199	3732.03
961.502	3768.42
961.805	3758.25
962.108	3738.59
962.411	3705.59
962.714	3683.22
963.017	3670.34
963.32	3678.7
963.623	3632.38
963.926	3655.43
964.228	3608.65
964.531	3585.37
964.833	3602.09
965.136	3557.58
965.438	3602.09
965.741	3524.81
966.043	3523.68
966.345	3497.46
966.648	3484.13
966.95	3480.29
967.252	3456.11
967.554	3429.9
967.856	3435.32
968.158	3424.7
968.46	3390.12
968.761	3367.3
969.063	3341.31
969.365	3352.61
969.666	3340.86
969.968	3279.17
970.269	3320.29
970.571	3291.14
970.872	3314.19
971.174	3274.42
971.475	3259.96
971.776	3249.11
972.077	3211.6
972.378	3172.28
972.679	3234.65
972.98	3205.04
973.281	3198.94
973.582	3151.03
973.883	3128.66
974.183	3131.6
974.484	3098.83
974.785	3090.7
975.085	3076.01
975.386	3136.34
975.686	3097.48
975.986	3018.16
976.287	3045.95
976.587	3041.43
976.887	2982.22
977.187	3018.16
977.487	3021.54
977.787	2992.17
978.087	2965.28
978.387	2950.36
978.687	2917.82
978.987	2905.16
979.286	2897.93
979.586	2893.19
979.885	2875.79
980.185	2870.36
980.484	2824.26
980.784	2851.38
981.083	2826.3
981.382	2804.38
981.682	2803.47
981.981	2824.26
982.28	2781.33
982.579	2790.36
982.878	2787.65
983.177	2750.59
983.475	2719.63
983.774	2710.14
984.073	2709.01
984.372	2678.28
984.67	2688.67
984.969	2715.56
985.267	2656.81
985.566	2662.46
985.864	2638.5
986.162	2596.7
986.461	2594.21
986.759	2636.7
987.057	2583.59
987.355	2582.01
987.653	2577.26
987.951	2521.45
988.249	2529.13
988.547	2541.11
988.844	2504.27
989.142	2493.42
989.44	2466.76
989.737	2508.79
990.035	2443.03
990.332	2456.14
990.63	2449.58
990.927	2458.85
991.224	2440.77
991.521	2443.48
991.819	2400.54
992.116	2408.91
992.413	2382.92
992.71	2378.62
993.006	2372.75
993.303	2370.04
993.6	2325.74
993.897	2289.59
994.193	2326.42
994.49	2323.71
994.787	2284.16
995.083	2285.97
995.379	2243.94
995.676	2241.68
995.972	2231.96
996.268	2249.36
996.565	2222.92
996.861	2193.54
997.157	2198.29
997.453	2200.1
997.749	2164.39
998.044	2138.86
998.34	2193.77
998.636	2177.27
998.932	2136.82
999.227	2094.56
999.523	2147.22
999.818	2095.02
1000.114	2110.61
1000.409	2095.69
1000.704	2085.52
1001	2038.07
1001.295	2076.71
1001.59	2007.79
1001.885	2060.21
1002.18	1997.17
1002.475	1998.75
1002.77	2011.18
1003.065	1980.22
1003.359	2006.66
1003.654	1948.35
1003.949	1963.49
1004.243	1964.4
1004.538	1945.41
1004.832	1918.97
1005.127	1952.65
1005.421	1920.1
1005.715	1872.2
1006.009	1891.18
1006.304	1870.84
1006.598	1862.71
1006.892	1835.81
1007.186	1846.21
1007.48	1843.72
1007.773	1816.38
1008.067	1816.38
1008.361	1782.93
1008.655	1780.22
1008.948	1773.89
1009.242	1755.59
1009.535	1770.05
1009.829	1761.92
1010.122	1765.31
1010.415	1737.28
1010.708	1728.02
1011.001	1706.78
1011.295	1689.15
1011.588	1667.68
1011.881	1661.35
1012.173	1670.62
1012.466	1670.85
1012.759	1633.33
1013.052	1652.32
1013.344	1643.5
1013.637	1618.19
1013.93	1615.25
1014.222	1591.75
1014.514	1599.44
1014.807	1558.08
1015.099	1571.41
1015.391	1573.67
1015.683	1563.05
1015.976	1541.36
1016.268	1547.69
1016.56	1546.78
1016.851	1548.59
1017.143	1509.04
1017.435	1498.42
1017.727	1484.41
1018.018	1478.53
1018.31	1478.53
1018.602	1471.08
1018.893	1457.07
1019.185	1457.52
1019.476	1431.08
1019.767	1437.86
1020.058	1399.89
1020.35	1399.67
1020.641	1392.66
1020.932	1383.62
1021.223	1356.05
1021.514	1372.55
1021.804	1340.46
1022.095	1346.79
1022.386	1335.26
1022.677	1344.75
1022.967	1311.53
1023.258	1304.75
1023.548	1321.7
1023.839	1315.15
1024.129	1311.99
1024.419	1291.42
1024.709	1262.72
1025	1243.96
1025.29	1275.15
1025.58	1253.91
1025.87	1238.54
1026.16	1220.91
1026.449	1189.73
1026.739	1200.58
1027.029	1201.25
1027.319	1210.29
1027.608	1193.34
1027.898	1185.66
1028.187	1168.03
1028.477	1154.48
1028.766	1150.41
1029.055	1127.36
1029.344	1152.44
1029.634	1133.23
1029.923	1128.49
1030.212	1107.24
1030.501	1103.18
1030.79	1086.91
1031.078	1091.88
1031.367	1096.17
1031.656	1102.73
1031.945	1107.02
1032.233	1068.83
1032.522	1048.04
1032.81	1055.72
1033.099	1063.4
1033.387	1035.16
1033.675	1018.89
1033.963	1045.33
1034.251	1034.7
1034.54	1027.02
1034.828	998.32
1035.116	1015.95
1035.403	989.73
1035.691	1025.67
1035.979	975.72
1036.267	984.99
1036.554	957.19
1036.842	967.81
1037.129	951.77
1037.417	930.98
1037.704	963.29
1037.992	939.57
1038.279	927.59
1038.566	924.42
1038.853	924.42
1039.14	924.42
