Data from foil_FLMS001491_082.txt Node
Date: Tue Feb 07 11:36:55 GMT 2017
User: dcchb
Spectrometer: FLMS00149
Trigger mode: 0
Integration Time (sec): 2.000000E-2
Scans to average: 10
Electric dark correction enabled: true
Nonlinearity correction enabled: false
Boxcar width: 0
XAxis mode: Wavelengths
Number of Pixels in Spectrum: 2048
>>>>>Begin Spectral Data<<<<<
341.393	-15.61
341.776	-15.61
342.16	-15.61
342.543	-55.15
342.927	-80.46
343.31	-54.7
343.693	-85.66
344.077	-49.05
344.46	-68.94
344.843	-67.36
345.226	-39.79
345.61	-28.71
345.993	-9.05
346.376	3.38
346.759	-0.92
347.142	38.4
347.525	41.34
347.908	55.13
348.291	71.62
348.674	91.96
349.057	102.36
349.44	129.02
349.823	160.66
350.206	164.5
350.588	279.07
350.971	316.59
351.354	301.22
351.737	325.85
352.119	346.42
352.502	359.07
352.884	376.25
353.267	378.96
353.65	403.82
354.032	408.56
354.414	449.24
354.797	421.44
355.179	427.32
355.562	432.97
355.944	455.12
356.326	454.66
356.709	454.44
357.091	455.57
357.473	464.38
357.855	443.82
358.238	468.67
358.62	463.02
359.002	483.14
359.384	485.4
359.766	467.09
360.148	498.73
360.53	479.97
360.912	485.85
361.294	472.52
361.676	493.53
362.057	477.26
362.439	486.53
362.821	470.26
363.203	478.62
363.584	497.83
363.966	499.86
364.348	468.9
364.729	491.05
365.111	490.14
365.493	518.84
365.874	512.29
366.256	509.58
366.637	495.34
367.019	514.77
367.4	508.45
367.781	499.86
368.163	485.4
368.544	506.41
368.925	505.74
369.306	531.27
369.688	522.91
370.069	533.31
370.45	534.21
370.831	531.05
371.212	508.22
371.593	532.4
371.974	555.9
372.355	563.36
372.736	562.46
373.117	557.71
373.498	531.72
373.879	537.6
374.26	561.33
374.641	532.85
375.021	549.58
375.402	596.35
375.783	625.28
376.163	642.68
376.544	634.09
376.925	598.61
377.305	621.89
377.686	624.38
378.066	629.35
378.447	645.84
378.827	670.02
379.208	633.19
379.588	653.3
379.968	672.96
380.349	668.89
380.729	681.55
381.109	659.63
381.489	702.79
381.87	708.67
382.25	726.29
382.63	725.84
383.01	724.26
383.39	755.9
383.77	738.27
384.15	741.44
384.53	768.33
384.91	765.84
385.29	783.69
385.67	766.07
386.049	795.22
386.429	792.73
386.809	783.24
387.189	813.07
387.568	867.08
387.948	832.73
388.328	872.96
388.707	875.44
389.087	863.01
389.466	884.26
389.846	891.26
390.225	894.43
390.605	924.03
390.984	932.84
391.363	934.42
391.743	976.01
392.122	969.23
392.501	959.96
392.881	993.63
393.26	1015.55
393.639	1027.98
394.018	1014.2
394.397	1047.19
394.776	1020.52
395.155	1011.94
395.534	1030.69
395.913	1099.39
396.292	1103.01
396.671	1131.03
397.05	1109.79
397.429	1127.19
397.808	1121.76
398.186	1167.86
398.565	1166.28
398.944	1162.44
399.323	1176.45
399.701	1199.73
400.08	1187.3
400.458	1207.86
400.837	1216.45
401.215	1239.28
401.594	1238.6
401.972	1289.67
402.351	1268.88
402.729	1295.32
403.107	1320.4
403.486	1303.45
403.864	1328.99
404.242	1359.27
404.62	1388.65
404.999	1391.59
405.377	1376.22
405.755	1422.1
406.133	1441.08
406.511	1451.93
406.889	1455.09
407.267	1504.58
407.645	1543
408.023	1559.27
408.401	1585.48
408.779	1583
409.156	1608.98
409.534	1619.83
409.912	1618.02
410.29	1669.55
410.667	1689.21
411.045	1708.19
411.422	1733.27
411.8	1723.1
412.178	1776.44
412.555	1830.9
412.933	1827.96
413.31	1822.99
413.687	1891.24
414.065	1900.5
414.442	1903.89
414.819	1951.8
415.197	1971.91
415.574	1986.6
415.951	2029.09
416.328	2029.99
416.705	2027.5
417.082	2033.15
417.46	2078.58
417.837	2162.19
418.214	2133.94
418.591	2119.25
418.967	2166.93
419.344	2212.13
419.721	2223.2
420.098	2201.06
420.475	2273.82
420.852	2286.48
421.228	2286.93
421.605	2299.13
421.982	2373.03
422.358	2392.47
422.735	2375.52
423.111	2410.77
423.488	2452.35
423.864	2484.89
424.241	2499.36
424.617	2515.4
424.994	2531.22
425.37	2573.03
425.746	2604.89
426.123	2620.48
426.499	2568.05
426.875	2667.03
427.251	2772.12
427.627	2753.36
428.003	2776.86
428.379	2789.74
428.756	2863.41
429.132	2904.77
429.507	2914.71
429.883	3032.22
430.259	3012.56
430.635	3033.35
431.011	3089.17
431.387	3141.37
431.763	3236.74
432.138	3187.25
432.514	3253.23
432.89	3243.06
433.265	3364.64
433.641	3399.67
434.016	3391.54
434.392	3489.84
434.767	3504.98
435.143	3528.25
435.518	3566.67
435.894	3606.22
436.269	3675.37
436.644	3683.05
437.02	3705.43
437.395	3786.55
437.77	3775.03
438.145	3830.17
438.52	3895.7
438.895	3943.61
439.271	3935.7
439.646	4050.95
440.021	4020.22
440.395	4045.53
440.77	3996.04
441.145	4051.4
441.52	4145.64
441.895	4150.84
442.27	4235.58
442.645	4213.66
443.019	4265.18
443.394	4278.07
443.769	4306.77
444.143	4314
444.518	4404.16
444.892	4390.6
445.267	4457.04
445.641	4450.94
446.016	4495.01
446.39	4477.16
446.764	4526.65
447.139	4475.35
447.513	4638.28
447.887	4646.42
448.262	4618.4
448.636	4691.39
449.01	4704.27
449.384	4763.25
449.758	4799.63
450.132	4809.58
450.506	4854.77
450.88	4909.91
451.254	4893.42
451.628	4985.62
452.002	5034.43
452.376	5052.51
452.75	5119.85
453.123	5157.59
453.497	5276.01
453.871	5282.33
454.244	5372.5
454.618	5455.44
454.992	5525.94
455.365	5511.03
455.739	5642.55
456.112	5681.19
456.486	5784.01
456.859	5827.4
457.232	5920.73
457.606	5935.42
457.979	6003.22
458.352	6181.97
458.725	6109.88
459.099	6197.34
459.472	6303.77
459.845	6405.92
460.218	6410.44
460.591	6501.06
460.964	6530.89
461.337	6635.07
461.71	6805.91
462.083	6831.22
462.456	6884.1
462.829	6863.53
463.201	7079.12
463.574	7027.82
463.947	7155.96
464.32	7309.85
464.692	7353.01
465.065	7409.51
465.438	7579
465.81	7599.79
466.183	7668.03
466.555	7806.79
466.928	7889.5
467.3	7899.67
467.672	8044.75
468.045	8230.28
468.417	8287
468.789	8338.52
469.161	8478.63
469.534	8596.82
469.906	8764.73
470.278	8871.84
470.65	8957.04
471.022	9097.83
471.394	9257.82
471.766	9404.03
472.138	9413.52
472.51	9621.65
472.882	9747.3
473.253	9856.45
473.625	9982.32
473.997	10273.61
474.369	10278.13
474.74	10368.07
475.112	10631.57
475.484	10815.29
475.855	10927.83
476.227	11034.27
476.598	11389.97
476.97	11495.73
477.341	11709.73
477.713	11838.54
478.084	11914.7
478.455	12247.35
478.827	12465.65
479.198	12659.09
479.569	12777.95
479.94	13061.79
480.311	13171.39
480.682	13478.5
481.053	13773.86
481.424	13975.66
481.795	14136.56
482.166	14387.63
482.537	14436.67
482.908	14757.34
483.279	15018.35
483.65	15287.04
484.021	15520.71
484.391	15681.83
484.762	15880.02
485.133	16043.18
485.503	16232.1
485.874	16591.87
486.244	16725.42
486.615	17042.02
486.985	17202.92
487.356	17538.51
487.726	17685.85
488.097	18081.77
488.467	18055.78
488.837	18489.44
489.207	18604.02
489.578	18900.05
489.948	19153.38
490.318	19313.83
490.688	19482.86
491.058	19703.65
491.428	20020.02
491.798	20147.03
492.168	20530.52
492.538	20666.11
492.908	20845.09
493.278	21111.75
493.648	21123.27
494.017	21434.9
494.387	21530.95
494.757	21845.74
495.126	21950.14
495.496	22134.09
495.866	22323.24
496.235	22485.04
496.605	22805.94
496.974	22931.81
497.344	23099.72
497.713	23241.86
498.082	23410.9
498.452	23558.91
498.821	23707.61
499.19	23735.63
499.559	24014.5
499.928	24267.14
500.298	24283.42
500.667	24585.33
501.036	24518.44
501.405	24733.35
501.774	24755.72
502.143	25065.54
502.512	25196.84
502.88	25491.52
503.249	25387.34
503.618	25730.16
503.987	25955.24
504.356	26035.69
504.724	26142.8
505.093	26404.49
505.462	26439.52
505.83	26690.58
506.199	26947.07
506.567	27120.18
506.936	27159.72
507.304	27557.45
507.672	27687.39
508.041	27742.99
508.409	28016.88
508.777	28175.06
509.145	28505
509.514	28523.76
509.882	28699.34
510.25	28776.4
510.618	29041.26
510.986	29195.6
511.354	29491.64
511.722	29698.19
512.09	29976.6
512.458	29924.4
512.826	30248.68
513.193	30436.25
513.561	30520.09
513.929	30873.75
514.297	31131.6
514.664	31411.59
515.032	31540.4
515.4	31762.99
515.767	31934.06
516.135	32082.98
516.502	32000.73
516.869	32624.66
517.237	32632.8
517.604	32705.34
517.972	33071.66
518.339	33494.92
518.706	33424.64
519.073	33631.19
519.44	33874.12
519.808	34173.78
520.175	34257.16
520.542	34809.69
520.909	34960.87
521.276	35073.87
521.643	35453.52
522.009	35755.43
522.376	36020.06
522.743	36390.22
523.11	36524.68
523.477	36884.44
523.843	37047.6
524.21	37517.42
524.577	37775.72
524.943	37985.88
525.31	38160.56
525.676	38576.15
526.043	38758.74
526.409	38913.99
526.776	39392.62
527.142	39390.14
527.508	39682.11
527.874	39985.15
528.241	40170.23
528.607	40288.19
528.973	40815.41
529.339	40936.31
529.705	41316.64
530.071	41595.73
530.437	41803.41
530.803	41918.66
531.169	42164.3
531.535	42259.89
531.901	42433.9
532.267	42707.79
532.632	42924.96
532.998	43055.12
533.364	43366.98
533.73	43602
534.095	43917.93
534.461	44084.25
534.826	44085.38
535.192	44321.08
535.557	44660.28
535.923	44548.87
536.288	44731.47
536.653	45082.64
537.019	44997.22
537.384	45197.89
537.749	45638.33
538.114	45661.84
538.479	45680.37
538.845	46124.87
539.21	45960.36
539.575	46186.79
539.94	46387.01
540.305	46860
540.67	46599.66
541.034	46977.51
541.399	47023.16
541.764	47197.39
542.129	47297.73
542.494	47348.35
542.858	47476.48
543.223	47647.09
543.587	47987.65
543.952	47938.84
544.316	48023.13
544.681	48096.12
545.045	48450.24
545.41	48655.43
545.774	48684.58
546.138	48925.93
546.503	49018.13
546.867	49033.5
547.231	49325.02
547.595	49329.08
547.959	49594.16
548.324	49542.41
548.688	49756.19
549.052	49905.79
549.416	49867.15
549.779	50193.24
550.143	50317.53
550.507	50567.92
550.871	50715.71
551.235	50704.64
551.599	51082.71
551.962	50955.03
552.326	51128.59
552.689	51294.46
553.053	51313.66
553.417	51427.33
553.78	51783.94
554.143	51701.9
554.507	51926.98
554.87	51999.97
555.234	52395.44
555.597	52263.47
555.96	52467.53
556.323	52638.6
556.686	52729.45
557.05	52912.27
557.413	52964.24
557.776	53220.28
558.139	53430.9
558.502	53460.95
558.865	53459.37
559.228	53780.04
559.59	53896.42
559.953	54015.97
560.316	54374.15
560.679	54307.94
561.041	54393.81
561.404	54645.78
561.767	54810.3
562.129	54773.69
562.492	55133.68
562.854	55087.8
563.217	55177.07
563.579	55261.13
563.941	55512.42
564.304	55610.28
564.666	55819.54
565.028	55810.5
565.39	55960.32
565.753	56152.63
566.115	56280.77
566.477	56308.56
566.839	56424.72
567.201	56672.17
567.563	56690.25
567.925	56916.23
568.287	56839.4
568.648	56985.83
569.01	57013.18
569.372	57218.37
569.734	57254.3
570.095	57403.45
570.457	57515.99
570.819	57573.61
571.18	57567.96
571.542	57867.39
571.903	57860.39
572.265	57910.55
572.626	58055.63
572.987	58043.88
573.349	58177.67
573.71	58283.65
574.071	58302.41
574.432	58440.71
574.794	58611.33
575.155	58574.72
575.516	58466.02
575.877	58687.48
576.238	58688.16
576.599	58750.53
576.96	58802.28
577.32	58798.21
577.681	58941.26
578.042	59033.69
578.403	59007.47
578.763	59033.24
579.124	59126.11
579.485	59228.49
579.845	59287.24
580.206	59234.13
580.566	59274.13
580.927	59284.3
581.287	59400.01
581.648	59286.34
582.008	59501.7
582.368	59414.92
582.728	59399.1
583.089	59398.42
583.449	59388.71
583.809	59425.54
584.169	59458.76
584.529	59473
584.889	59587.57
585.249	59461.7
585.609	59387.8
585.969	59560.45
586.329	59495.82
586.688	59528.59
587.048	59481.13
587.408	59548.7
587.768	59566.33
588.127	59542.38
588.487	59491.3
588.846	59709.38
589.206	59560
589.565	59531.08
589.925	59658.98
590.284	59570.85
590.643	59622.15
591.003	59674.57
591.362	59735.36
591.721	59667.34
592.08	59677.74
592.44	59722.94
592.799	59738.3
593.158	59704.86
593.517	59704.86
593.876	59746.66
594.235	59737.4
594.593	59713.9
594.952	59741.01
595.311	59704.63
595.67	59755.93
596.029	59897.39
596.387	59891.74
596.746	59879.32
597.104	59867.34
597.463	59837.96
597.822	59908.24
598.18	59863.72
598.538	59830.96
598.897	60017.16
599.255	59789.15
599.613	60129.03
599.972	59951.4
600.33	60030.72
600.688	59918.41
601.046	60039.09
601.404	60101.91
601.762	60034.34
602.12	60226.2
602.478	60137.16
602.836	60149.59
603.194	60010.84
603.552	60091.06
603.91	60053.55
604.268	60230.27
604.625	60180.55
604.983	60304.16
605.341	60205.86
605.698	60286.31
606.056	60323.82
606.413	60271.62
606.771	60418.74
607.128	60440.88
607.485	60278.4
607.843	60323.6
608.2	60417.61
608.557	60393.43
608.914	60434.1
609.272	60571.27
609.629	60522.91
609.986	60621.67
610.343	60496.93
610.7	60715.68
611.057	60685.17
611.414	60612.18
611.771	60718.16
612.127	60758.84
612.484	60774.43
612.841	60859.63
613.198	60798.39
613.554	60776.69
613.911	60928.33
614.267	60910.25
614.624	60886.97
614.98	60956.58
615.337	61128.32
615.693	60999.74
616.05	60973.98
616.406	61151.6
616.762	61049
617.118	61078.15
617.475	61072.5
617.831	61133.75
618.187	61151.15
618.543	61168.32
618.899	61287.64
619.255	61220.52
619.611	61128.1
619.967	61266.17
620.323	61206.06
620.678	61140.07
621.034	61114.09
621.39	61163.12
621.746	61130.58
622.101	61368.99
622.457	61149.56
622.812	61263.23
623.168	61277.7
623.523	61270.47
623.879	61426.39
624.234	61244.25
624.589	61250.35
624.945	61259.62
625.3	61338.49
625.655	61312.05
626.01	61340.52
626.365	61336.68
626.72	61248.32
627.075	61304.36
627.43	61275.21
627.785	61160.19
628.14	61237.25
628.495	61236.12
628.85	61205.83
629.205	61109.79
629.559	61257.58
629.914	61136.91
630.269	61154.08
630.623	60999.29
630.978	61009.91
631.332	61163.35
631.687	61126.06
632.041	61031.15
632.396	61094.2
632.75	61008.55
633.104	61064.82
633.459	60964.48
633.813	60902.79
634.167	60849.91
634.521	60896.46
634.875	60917.71
635.229	60935.78
635.583	60776.69
635.937	60747.09
636.291	60737.15
636.645	60752.74
636.999	60648.79
637.352	60710.93
637.706	60508.45
638.06	60679.52
638.413	60550.48
638.767	60560.2
639.121	60653.98
639.474	60509.81
639.828	60490.15
640.181	60515.46
640.534	60446.76
640.888	60411.73
641.241	60324.73
641.594	60382.58
641.947	60369.25
642.301	60182.58
642.654	60179.65
643.007	60295.8
643.36	60216.26
643.713	60243.6
644.066	60260.32
644.419	59962.7
644.771	59684.07
645.124	59244.53
645.477	59242.04
645.83	59191.2
646.182	59232.33
646.535	59326.11
646.888	59439.1
647.24	59375.15
647.593	59554.13
647.945	59488.82
648.298	59449.5
648.65	59328.82
649.002	59244.98
649.355	59182.61
649.707	59007.25
650.059	59039.56
650.411	59339.89
650.763	59370.4
651.115	59681.81
651.467	59603.62
651.819	59608.59
652.171	59564.97
652.523	59489.04
652.875	59473.9
653.227	59368.59
653.578	59522.26
653.93	59461.93
654.282	59346.22
654.633	59326.56
654.985	59391.42
655.337	59391.64
655.688	59357.52
656.039	59347.8
656.391	59152.55
656.742	59190.07
657.094	59256.96
657.445	59289.5
657.796	59220.35
658.147	59165.44
658.498	59131.31
658.849	59163.18
659.2	59095.16
659.551	59072.78
659.902	59186.9
660.253	59099.22
660.604	59142.84
660.955	58996.63
661.306	59103.74
661.656	58987.59
662.007	58965.44
662.358	58959.34
662.708	58941.71
663.059	58798.21
663.409	58745.33
663.76	58915.27
664.11	58986.46
664.461	58966.8
664.811	58977.87
665.161	58907.36
665.511	58754.15
665.862	58784.65
666.212	58823.75
666.562	58905.33
666.912	58796.86
667.262	58771.55
667.612	58764.77
667.962	58727.93
668.312	58695.84
668.662	58838.21
669.011	58753.24
669.361	58717.31
669.711	58734.26
670.06	58611.1
670.41	58506.24
670.76	58544.89
671.109	58673.47
671.459	58618.78
671.808	58527.49
672.157	58589.63
672.507	58365.23
672.856	58489.3
673.205	58464.21
673.554	58588.05
673.904	58430.99
674.253	58574.49
674.602	58492.46
674.951	58077.33
675.3	57946.03
675.649	58364.33
675.998	58372.46
676.346	58405
676.695	58406.13
677.044	58183.54
677.393	58285.46
677.741	58345.34
678.09	58205.91
678.438	58124.56
678.787	58191.45
679.135	58188.74
679.484	58064.67
679.832	58118.91
680.181	57915.3
680.529	58017.22
680.877	57969.31
681.225	57905.36
681.573	58036.88
681.922	57870.55
682.27	57765.02
682.618	57774.51
682.966	57690.45
683.314	57709.88
683.661	57544.69
684.009	57427.85
684.357	57462.66
684.705	57394.63
685.053	57436.89
685.4	57330.68
685.748	57308.08
686.095	57204.81
686.443	57078.49
686.79	57126.62
687.138	57150.35
687.485	57059.95
687.832	56978.37
688.18	57027.19
688.527	56893.86
688.874	56864.93
689.221	56782.9
689.568	56772.05
689.915	56608.44
690.262	56654.54
690.609	56527.99
690.956	56462.68
691.303	56421.78
691.65	56328.45
691.997	56332.06
692.344	56251.16
692.69	56093.88
693.037	56165.29
693.383	55906.99
693.73	56048.91
694.077	55827.67
694.423	55857.73
694.769	55755.58
695.116	55623.83
695.462	55591.29
695.808	55510.62
696.155	55603.27
696.501	55283.96
696.847	55386.78
697.193	55197.4
697.539	55203.73
697.885	54994.25
698.231	54962.61
698.577	54909.5
698.923	54856.85
699.269	54735.5
699.614	54603.75
699.96	54496.41
700.306	54537.76
700.651	54316.3
700.997	54300.7
701.342	54155.17
701.688	54228.16
702.033	54103.42
702.379	54005.8
702.724	53947.04
703.069	53947.72
703.415	53663.66
703.76	53671.12
704.105	53671.79
704.45	53519.03
704.795	53203.11
705.14	53341.63
705.485	53201.52
705.83	53247.63
706.175	53277.23
706.52	53149.32
706.865	53051.92
707.209	52999.04
707.554	52907.3
707.899	52910.01
708.243	52820.74
708.588	52713.18
708.932	52425.5
709.277	52404.48
709.621	52385.28
709.966	52226.64
710.31	52395.44
710.654	52072.97
710.998	52109.8
711.342	52107.77
711.687	51869.13
712.031	51775.35
712.375	51680.66
712.719	51634.11
713.063	51582.13
713.407	51624.62
713.75	51529.7
714.094	51571.29
714.438	51366.32
714.782	51379.2
715.125	51127
715.469	51143.5
715.812	51125.2
716.156	50962.94
716.499	50887.69
716.843	50950.51
717.186	50729.27
717.53	50839.33
717.873	50823.06
718.216	50754.36
718.559	50425.55
718.902	50300.36
719.246	50408.15
719.589	50309.17
719.932	50092.68
720.275	50260.36
720.617	50036.86
720.96	49996.86
721.303	49887.04
721.646	49907.37
721.989	49675.29
722.331	49876.64
722.674	49593.71
723.016	49629.42
723.359	49698.57
723.701	49569.76
724.044	49312.59
724.386	49119.82
724.729	49513.71
725.071	49177.9
725.413	48993.05
725.755	49016.32
726.097	48953.05
726.439	48676.9
726.782	48769.78
727.124	48959.38
727.465	48743.79
727.807	48667.63
728.149	48570.69
728.491	48496.34
728.833	48392.39
729.175	48348.77
729.516	48202.33
729.858	48081.43
730.199	48052.96
730.541	48065.39
730.882	47949.46
731.224	48047.54
731.565	47777.26
731.906	47809.12
732.248	47762.8
732.589	47659.3
732.93	47394.22
733.271	47467.89
733.612	47379.31
733.953	47503.14
734.294	47238.74
734.635	47111.06
734.976	47247.11
735.317	46971.86
735.658	46877.85
735.999	46860
736.339	46773.9
736.68	46871.52
737.021	46669.72
737.361	46413.68
737.702	46680.57
738.042	46524.41
738.383	46617.97
738.723	46578.2
739.063	46290.97
739.404	46267.02
739.744	46271.31
740.084	46029.51
740.424	46106.34
740.764	45981.38
741.104	46157.64
741.444	45789.06
741.784	45795.39
742.124	45883.75
742.464	45757.2
742.804	45653.7
743.143	45637.2
743.483	45620.26
743.823	45493.48
744.162	45403.54
744.502	45449.19
744.841	45275.18
745.181	45229.31
745.52	45138.91
745.86	45116.54
746.199	44766.49
746.538	44669.32
746.877	44844.23
747.216	44794.29
747.556	44736.66
747.895	44700.05
748.234	44355.2
748.573	44324.92
748.911	44325.6
749.25	44117.47
749.589	43969
749.928	44184.36
750.267	44046.51
750.605	43883.35
750.944	43809.91
751.283	43645.62
751.621	43764.71
751.96	43532.17
752.298	43536.02
752.636	43363.59
752.975	43152.98
753.313	43061.9
753.651	43333.99
753.989	43021.68
754.327	42918.86
754.666	42714.57
755.004	42779.88
755.342	42767.22
755.679	42642.71
756.017	42371.75
756.355	42512.54
756.693	42253.79
757.031	42088.14
757.368	42037.98
757.706	41910.75
758.044	41757.76
758.381	41764.54
758.719	41705.56
759.056	41680.02
759.394	41564.77
759.731	41185.12
760.068	41143.08
760.405	40943.09
760.743	40852.7
761.08	40946.48
761.417	40695.19
761.754	40461.97
762.091	40442.54
762.428	40332.03
762.765	40047.52
763.102	40169.33
763.438	39888.2
763.775	39712.61
764.112	39886.17
764.449	39816.57
764.785	39557.82
765.122	39301.55
765.458	39037.6
765.795	39068.34
766.131	38914.22
766.467	38817.04
766.804	38519.2
767.14	38400.56
767.476	38318.53
767.812	38212.09
768.148	38241.92
768.485	38048.25
768.821	37709.05
769.157	37710.41
769.492	37594.03
769.828	37626.34
770.164	37246.92
770.5	37126.02
770.836	37094.6
771.171	36932.35
771.507	36896.87
771.842	36694.39
772.178	36698.91
772.513	36554.73
772.849	36382.53
773.184	36159.49
773.519	36183.44
773.855	35961.07
774.19	35803.79
774.525	35678.82
774.86	35532.16
775.195	35477.25
775.53	35434.08
775.865	35099.63
776.2	34983.02
776.535	34651.28
776.87	34567.66
777.205	34546.42
777.539	34469.36
777.874	34359.99
778.209	34138.07
778.543	34171.74
778.878	33776.72
779.212	33940.56
779.547	33712.77
779.881	33682.26
780.215	33539.89
780.55	33539.67
780.884	33198.43
781.218	33110.3
781.552	33027.37
781.886	32876.18
782.22	32781.5
782.554	32606.81
782.888	32284.56
783.222	32199.37
783.556	32061.29
783.889	32037.11
784.223	31908.75
784.557	31774.07
784.89	31822.2
785.224	31653.62
785.557	31498.59
785.891	31222.89
786.224	31301.99
786.558	31237.58
786.891	30878.04
787.224	30785.17
787.557	30613.64
787.891	30692.51
788.224	30643.47
788.557	30492.07
788.89	30520.09
789.223	30351.28
789.556	30196.48
789.888	30055.01
790.221	29798.98
790.554	29655.25
790.887	29638.53
791.219	29585.42
791.552	29562.15
791.884	29376.16
792.217	29262.27
792.549	29157.86
792.882	29020.47
793.214	28879.68
793.546	28891.88
793.879	28622.28
794.211	28490.54
794.543	28666.58
794.875	28521.95
795.207	28489.41
795.539	28220.49
795.871	28293.03
796.203	28061.39
796.535	27858.46
796.867	27921.51
797.198	27610.56
797.53	27592.03
797.862	27503.67
798.193	27657.34
798.525	27290.79
798.856	27327.18
799.188	27000.63
799.519	26977.36
799.85	26813.07
800.182	26903.23
800.513	26798.15
800.844	26507.99
801.175	26614.43
801.506	26495.56
801.837	26374.21
802.168	26260.09
802.499	26128.34
802.83	26074.78
803.161	26030.26
803.491	25917.04
803.822	25895.8
804.153	25763.83
804.483	25601.8
804.814	25543.95
805.145	25539.88
805.475	25494.23
805.805	25407
806.136	25277.74
806.466	25371.07
806.796	25317.96
807.126	25028.25
807.457	25047.69
807.787	24922.04
808.117	24859.9
808.447	24766.79
808.777	24858.77
809.107	24708.04
809.436	24574.25
809.766	24601.6
810.096	24525.67
810.426	24374.71
810.755	24466.91
811.085	24419.23
811.414	24345.33
811.744	24122.97
812.073	24095.4
812.403	24037.55
812.732	23885.91
813.061	24016.53
813.39	23766.59
813.719	23749.64
814.049	23777.44
814.378	23681.17
814.707	23507.39
815.036	23405.47
815.365	23427.39
815.693	23102.43
816.022	23241.86
816.351	23091.36
816.68	22953.96
817.008	23026.73
817.337	22711.03
817.665	22701.54
817.994	22812.04
818.322	22794.64
818.651	22488.43
818.979	22586.51
819.307	22588.09
819.636	22562.56
819.964	22370.7
820.292	22424.48
820.62	22411.37
820.948	22325.5
821.276	22317.14
821.604	22310.81
821.932	22418.38
822.259	22436.01
822.587	22390.58
822.915	22245.73
823.243	22269.68
823.57	22173.64
823.898	22209.35
824.225	22273.75
824.553	22067.43
824.88	22167.31
825.207	22214.99
825.535	22210.93
825.862	22177.26
826.189	22064.94
826.516	22156.69
826.843	22223.58
827.17	22162.34
827.497	22116.01
827.824	22132.06
828.151	22087.54
828.478	22093.64
828.805	22119.86
829.131	22034.89
829.458	22018.84
829.785	21969.35
830.111	22127.31
830.438	22074.89
830.764	22050.48
831.09	22122.12
831.417	21994.89
831.743	22067.2
832.069	22093.42
832.395	21989.01
832.722	22044.83
833.048	21962.35
833.374	21876.92
833.7	21845.29
834.026	21857.26
834.351	21850.03
834.677	21845.74
835.003	21897.94
835.329	21671.05
835.654	21750.15
835.98	21791.96
836.306	21615.91
836.631	21592.41
836.956	21717.38
837.282	21605.52
837.607	21603.94
837.932	21557.61
838.258	21618.63
838.583	21459.76
838.908	21349.03
839.233	21370.95
839.558	21348.58
839.883	21341.12
840.208	21205.3
840.533	21273.55
840.858	21323.49
841.182	21260.22
841.507	21302.25
841.832	21119.43
842.156	21046.66
842.481	21109.94
842.805	20983.61
843.13	20996.27
843.454	20897.52
843.778	20876.73
844.103	20819.78
844.427	20735.26
844.751	20763.51
845.075	20606.68
845.399	20649.84
845.723	20477.64
846.047	20499.11
846.371	20416.17
846.695	20325.78
847.019	20201.71
847.343	20083.75
847.666	19888.28
847.99	19912.68
848.313	19825.23
848.637	19732.57
848.96	19740.26
849.284	19634.95
849.607	19639.02
849.931	19507.95
850.254	19403.09
850.577	19213.94
850.9	19135.53
851.223	19098.47
851.546	19055.3
851.869	18880.62
852.192	18970.56
852.515	18853.73
852.838	18826.38
853.161	18740.28
853.483	18678.82
853.806	18612.83
854.129	18655.31
854.451	18551.59
854.774	18520.63
855.096	18343.23
855.419	18265.27
855.741	18299.39
856.063	18170.58
856.385	18193.86
856.708	18049.23
857.03	18045.16
857.352	18084.93
857.674	18019.63
857.996	17902.79
858.318	17892.85
858.64	17745.96
858.961	17726.07
859.283	17755.45
859.605	17600.88
859.926	17647.88
860.248	17581.67
860.57	17507.32
860.891	17566.3
861.212	17407.89
861.534	17420.77
861.855	17350.04
862.176	17341.22
862.498	17404.5
862.819	17249.48
863.14	17256.48
863.461	17183.71
863.782	17171.74
864.103	17194.79
864.424	17138.07
864.745	17162.25
865.065	17111.85
865.386	16981.23
865.707	17047.45
866.027	17018.75
866.348	16983.95
866.668	17001.57
866.989	16922.03
867.309	16863.95
867.63	16790.5
867.95	16810.62
868.27	16730.62
868.59	16778.08
868.91	16775.36
869.23	16686.33
869.55	16668.02
869.87	16729.72
870.19	16695.37
870.51	16627.57
870.83	16692.43
871.15	16538.53
871.469	16536.05
871.789	16617.4
872.109	16538.99
872.428	16510.29
872.748	16597.97
873.067	16456.05
873.386	16456.95
873.706	16374.47
874.025	16299.22
874.344	16304.87
874.663	16281.14
874.982	16304.42
875.301	16227.81
875.62	16198.2
875.939	16192.55
876.258	16248.6
876.577	16067.13
876.896	16193.01
877.214	16071.43
877.533	16107.36
877.852	16083.86
878.17	16098.55
878.489	16024.2
878.807	15985.55
879.125	16018.1
879.444	16036.17
879.762	15852.68
880.08	16008.83
880.398	15816.52
880.716	15920.7
881.034	15833.69
881.352	15862.85
881.67	15830.76
881.988	15781.49
882.306	15591.21
882.624	15586.69
882.941	15624.21
883.259	15692.23
883.577	15590.99
883.894	15555.74
884.212	15497.88
884.529	15506.02
884.846	15492.69
885.164	15482.06
885.481	15342.86
885.798	15417.21
886.115	15286.82
886.432	15298.34
886.75	15222.18
887.067	15197.1
887.383	15206.82
887.7	15176.76
888.017	15090.44
888.334	15104.45
888.651	14965.02
888.967	14972.93
889.284	14904.9
889.6	14968.63
889.917	14839.37
890.233	14910.55
890.55	14841.86
890.866	14741.52
891.182	14852.48
891.498	14753.04
891.815	14631.24
892.131	14632.82
892.447	14587.62
892.763	14410.91
893.079	14504.46
893.395	14398.03
893.71	14373.62
894.026	14417.91
894.342	14314.86
894.657	14238.03
894.973	14320.97
895.289	14358.25
895.604	14191.48
895.92	14150.12
896.235	14065.83
896.55	14063.34
896.865	14036
897.181	13930.24
897.496	13875.1
897.811	13935.66
898.126	13834.88
898.441	13833.52
898.756	13792.62
899.071	13657.93
899.386	13743.81
899.7	13601.21
900.015	13512.4
900.33	13433.53
900.644	13456.58
900.959	13446.64
901.273	13367.77
901.588	13290.48
901.902	13243.71
902.216	13264.72
902.531	13215.01
902.845	13225.4
903.159	13174.33
903.473	13164.16
903.787	13018.17
904.101	12981.79
904.415	13060.66
904.729	12956.03
905.042	12825.86
905.356	12789.25
905.67	12747.45
905.984	12685.98
906.297	12688.69
906.611	12586.55
906.924	12499.09
907.237	12454.12
907.551	12436.27
907.864	12450.05
908.177	12393.11
908.491	12325.76
908.804	12303.39
909.117	12234.69
909.43	12076.5
909.743	12107.46
910.056	12126.67
910.368	12053.23
910.681	12011.2
910.994	12012.33
911.307	11912.89
911.619	11787.47
911.932	11826.57
912.244	11758.09
912.557	11707.93
912.869	11686.23
913.181	11599.91
913.494	11604.2
913.806	11545.22
914.118	11444.66
914.43	11343.64
914.742	11406.47
915.054	11368.73
915.366	11218.9
915.678	11260.03
915.99	11201.73
916.302	11105.91
916.613	11145.23
916.925	11150.43
917.236	11032.24
917.548	10958.79
917.859	10960.15
918.171	10880.38
918.482	10782.08
918.794	10693.49
919.105	10767.84
919.416	10644.68
919.727	10657.56
920.038	10580.95
920.349	10567.17
920.66	10511.8
920.971	10360.62
921.282	10399.49
921.593	10345.02
921.903	10315.19
922.214	10302.09
922.525	10178.25
922.835	10224.12
923.146	10138.93
923.456	10080.62
923.767	10119.27
924.077	10118.59
924.387	10071.36
924.697	9932.83
925.008	9915.66
925.318	9901.19
925.628	9884.02
925.938	9805.38
926.248	9696
926.558	9688.54
926.867	9644.25
927.177	9655.1
927.487	9611.26
927.796	9439.06
928.106	9519.28
928.416	9440.64
928.725	9434.09
929.034	9364.94
929.344	9354.32
929.653	9306.63
929.962	9320.87
930.271	9196.13
930.581	9222.79
930.89	9150.93
931.199	9059.86
931.508	9110.48
931.817	9043.82
932.125	8963.14
932.434	8937.15
932.743	8906.87
933.051	8803.82
933.36	8786.87
933.669	8715.46
933.977	8658.52
934.286	8734.22
934.594	8662.81
934.902	8616.48
935.21	8524.28
935.519	8562.92
935.827	8599.76
936.135	8445.41
936.443	8378.52
936.751	8393.21
937.059	8366.77
937.367	8372.42
937.674	8267.34
937.982	8281.58
938.29	8197.06
938.597	8107.34
938.905	8080.23
939.213	8117.96
939.52	8077.97
939.827	8122.48
940.135	7968.82
940.442	7920
940.749	7961.58
941.056	7963.39
941.363	7858.54
941.67	7876.39
941.977	7837.75
942.284	7759.33
942.591	7764.3
942.898	7675.49
943.205	7709.61
943.511	7623.29
943.818	7611.09
944.125	7515.95
944.431	7542.16
944.738	7439.56
945.044	7464.2
945.35	7437.53
945.657	7357.31
945.963	7380.58
946.269	7307.36
946.575	7311.66
946.881	7300.58
947.187	7253.81
947.493	7190.31
947.799	7150.98
948.105	7165.9
948.41	7085.68
948.716	7080.48
949.022	7030.54
949.327	7040.7
949.633	6934.04
949.938	6965.23
950.244	6954.38
950.549	6898.56
950.854	6872.8
951.16	6802.74
951.465	6741.28
951.77	6784.67
952.075	6718.23
952.38	6677.78
952.685	6729.75
952.99	6609.53
953.294	6613.15
953.599	6550.32
953.904	6535.18
954.209	6530.66
954.513	6471.23
954.818	6460.61
955.122	6457.44
955.426	6422.87
955.731	6402.76
956.035	6296.09
956.339	6304.45
956.643	6275.3
956.948	6233.49
957.252	6227.39
957.556	6234.62
957.86	6122.08
958.163	6183.78
958.467	6173.38
958.771	6084.8
959.075	6099.49
959.378	6077.34
959.682	6061.97
959.985	6054.52
960.289	5985.82
960.592	5940.85
960.896	5919.6
961.199	5888.19
961.502	5907.63
961.805	5807.29
962.108	5756.22
962.411	5720.97
962.714	5779.27
963.017	5711.93
963.32	5750.34
963.623	5735.65
963.926	5685.49
964.228	5618.37
964.531	5624.02
964.833	5605.04
965.136	5597.35
965.438	5523.68
965.741	5490.69
966.043	5487.98
966.345	5454.53
966.648	5445.94
966.95	5394.87
967.252	5344.48
967.554	5412.5
967.856	5304.25
968.158	5290.92
968.46	5304.03
968.761	5230.58
969.063	5273.97
969.365	5207.98
969.666	5227.42
969.968	5134.31
970.269	5089.34
970.571	5127.31
970.872	5104.03
971.174	5068.78
971.475	5035.33
971.776	5077.14
972.077	5006.41
972.378	4986.97
972.679	4969.8
972.98	4923.25
973.281	4925.96
973.582	4945.39
973.883	4863.36
974.183	4857.71
974.484	4819.52
974.785	4819.52
975.085	4831.95
975.386	4788.11
975.686	4745.85
975.986	4759.41
976.287	4688.68
976.587	4640.77
976.887	4681.67
977.187	4717.38
977.487	4616.81
977.787	4621.56
978.087	4558.28
978.387	4572.75
978.687	4562.13
978.987	4515.57
979.286	4435.35
979.586	4496.59
979.885	4433.32
980.185	4429.25
980.484	4393.77
980.784	4406.65
981.083	4408.23
981.382	4375.01
981.682	4323.94
981.981	4319.19
982.28	4295.47
982.579	4252.3
982.878	4306.77
983.177	4221.57
983.475	4207.33
983.774	4161.01
984.073	4123.72
984.372	4109.71
984.67	4159.88
984.969	4132.08
985.267	4099.99
985.566	4054.79
985.864	4039.2
986.162	4004.4
986.461	3966.44
986.759	3972.08
987.057	3965.76
987.355	3972.76
987.653	3986.55
987.951	3929.15
988.249	3892.76
988.547	3865.19
988.844	3838.08
989.142	3843.27
989.44	3797.63
989.737	3838.3
990.035	3799.43
990.332	3787.23
990.63	3771.41
990.927	3788.81
991.224	3694.58
991.521	3698.19
991.819	3711.75
992.116	3671.98
992.413	3649.38
992.71	3644.41
993.006	3606.9
993.303	3611.42
993.6	3577.07
993.897	3535.71
994.193	3538.42
994.49	3523.51
994.787	3512.66
995.083	3479.44
995.379	3437.86
995.676	3440.57
995.972	3454.13
996.268	3416.17
996.565	3385.66
996.861	3394.7
997.157	3400.12
997.453	3365.1
997.749	3348.6
998.044	3277.64
998.34	3290.52
998.636	3313.35
998.932	3296.62
999.227	3208.94
999.523	3232.9
999.818	3197.19
1000.114	3194.03
1000.409	3184.76
1000.704	3193.8
1001	3093.92
1001.295	3100.02
1001.59	3121.94
1001.885	3096.18
1002.18	3051.43
1002.475	3025.44
1002.77	3001.04
1003.065	2993.58
1003.359	3019.34
1003.654	2944.77
1003.949	2962.39
1004.243	2959.91
1004.538	2906.12
1004.832	2878.1
1005.127	2889.4
1005.421	2845.11
1005.715	2849.4
1006.009	2847.37
1006.304	2820.7
1006.598	2805.79
1006.892	2771.21
1007.186	2799.23
1007.48	2763.08
1007.773	2689.86
1008.067	2696.41
1008.361	2709.07
1008.655	2663.64
1008.948	2646.02
1009.242	2677.2
1009.535	2652.12
1009.829	2623.87
1010.122	2627.49
1010.415	2599.69
1010.708	2575.51
1011.001	2555.62
1011.295	2541.61
1011.588	2520.15
1011.881	2516.53
1012.173	2482.86
1012.466	2510.2
1012.759	2446.02
1013.052	2441.28
1013.344	2437.66
1013.637	2457.1
1013.93	2417.78
1014.222	2409.41
1014.514	2384.33
1014.807	2336.42
1015.099	2338
1015.391	2326.48
1015.683	2307.95
1015.976	2284.45
1016.268	2276.08
1016.56	2272.02
1016.851	2266.59
1017.143	2258.91
1017.435	2202.41
1017.727	2189.08
1018.018	2179.59
1018.31	2160.61
1018.602	2143.66
1018.893	2141.4
1019.185	2095.3
1019.476	2089.42
1019.767	2082.42
1020.058	2107.28
1020.35	2090.78
1020.641	2060.72
1020.932	2025.7
1021.223	2001.74
1021.514	1988.18
1021.804	1972.36
1022.095	1971.46
1022.386	1960.84
1022.677	1942.76
1022.967	1921.52
1023.258	1919.26
1023.548	1919.48
1023.839	1879.71
1024.129	1875.42
1024.419	1853.72
1024.709	1819.83
1025	1837.45
1025.29	1840.62
1025.58	1811.69
1025.87	1797.9
1026.16	1790.9
1026.449	1753.84
1026.739	1754.06
1027.029	1735.99
1027.319	1744.35
1027.608	1717.91
1027.898	1736.66
1028.187	1707.51
1028.477	1677.68
1028.766	1678.81
1029.055	1671.13
1029.344	1653.95
1029.634	1629.32
1029.923	1605.59
1030.212	1599.72
1030.501	1609.89
1030.79	1613.73
1031.078	1569.89
1031.367	1566.05
1031.656	1557.91
1031.945	1520.4
1032.233	1538.7
1032.522	1519.95
1032.81	1498.7
1033.099	1486.5
1033.387	1488.53
1033.675	1492.83
1033.963	1459.83
1034.251	1463.68
1034.54	1432.94
1034.828	1429.1
1035.116	1407.86
1035.403	1378.25
1035.691	1411.7
1035.979	1386.84
1036.267	1381.64
1036.554	1362.66
1036.842	1347.75
1037.129	1354.98
1037.417	1317.47
1037.704	1310.69
1037.992	1328.54
1038.279	1320.86
1038.566	1293.29
1038.853	1293.29
1039.14	1293.29
