Data from foil_FLMS001491_029.txt Node
Date: Tue Feb 07 11:25:41 GMT 2017
User: dcchb
Spectrometer: FLMS00149
Trigger mode: 0
Integration Time (sec): 2.000000E-2
Scans to average: 10
Electric dark correction enabled: true
Nonlinearity correction enabled: false
Boxcar width: 0
XAxis mode: Wavelengths
Number of Pixels in Spectrum: 2048
>>>>>Begin Spectral Data<<<<<
341.393	4.48
341.776	4.48
342.16	4.48
342.543	-39.36
342.927	-70.32
343.31	-63.77
343.693	-40.49
344.077	-71.23
344.46	-62.41
344.843	-82.75
345.226	-35.52
345.61	-42.75
345.993	-19.48
346.376	7.64
346.759	-0.27
347.142	27.3
347.525	37.7
347.908	63.91
348.291	58.94
348.674	93.97
349.057	129.22
349.44	150.46
349.823	127.41
350.206	166.73
350.588	247.41
350.971	265.94
351.354	321.08
351.737	317.01
352.119	329.89
352.502	327.41
352.884	351.81
353.267	347.07
353.65	344.13
354.032	387.29
354.414	395.65
354.797	397.69
355.179	422.32
355.562	380.06
355.944	403.56
356.326	404.24
356.709	410.57
357.091	428.42
357.473	398.14
357.855	454.18
358.238	448.99
358.62	434.07
359.002	440.17
359.384	444.69
359.766	426.61
360.148	440.4
360.53	425.26
360.912	432.26
361.294	429.55
361.676	443.11
362.057	465.71
362.439	438.36
362.821	424.81
363.203	448.31
363.584	447.86
363.966	442.88
364.348	460.28
364.729	455.31
365.111	422.55
365.493	446.27
365.874	430.23
366.256	445.6
366.637	457.35
367.019	476.33
367.4	456.67
367.781	475.43
368.163	465.03
368.544	470
368.925	459.83
369.306	484.46
369.688	489.21
370.069	469.1
370.45	494.63
370.831	481.3
371.212	488.53
371.593	478.59
371.974	504.13
372.355	487.85
372.736	485.82
373.117	471.36
373.498	510.9
373.879	511.81
374.26	476.33
374.641	496.89
375.021	498.02
375.402	522.66
375.783	548.19
376.163	591.35
376.544	573.73
376.925	541.41
377.305	542.32
377.686	558.81
378.066	580.73
378.447	563.11
378.827	572.15
379.208	585.7
379.588	575.99
379.968	583.9
380.349	588.87
380.729	596.1
381.109	599.04
381.489	600.17
381.87	617.57
382.25	615.99
382.63	594.52
383.01	632.94
383.39	642.65
383.77	625.93
384.15	642.65
384.53	681.97
384.91	659.15
385.29	680.39
385.67	678.36
386.049	712.03
386.429	694.4
386.809	678.58
387.189	686.49
387.568	741.41
387.948	721.29
388.328	730.11
388.707	735.98
389.087	748.86
389.466	779.15
389.846	775.76
390.225	799.48
390.605	789.99
390.984	806.72
391.363	800.16
391.743	814.17
392.122	804.46
392.501	832.03
392.881	853.04
393.26	858.24
393.639	873.16
394.018	887.84
394.397	888.75
394.776	860.27
395.155	920.16
395.534	922.42
395.913	910.89
396.292	939.14
396.671	949.54
397.05	959.71
397.429	968.29
397.808	990.21
398.186	969.65
398.565	985.92
398.944	1000.38
399.323	1003.32
399.701	978.91
400.08	1035.41
400.458	1031.57
400.837	1055.3
401.215	1052.36
401.594	1059.14
401.972	1088.06
402.351	1059.14
402.729	1116.31
403.107	1102.3
403.486	1115.41
403.864	1159.25
404.242	1166.71
404.62	1188.4
404.999	1157.22
405.377	1208.29
405.755	1212.58
406.133	1247.16
406.511	1242.18
406.889	1266.59
407.267	1272.69
407.645	1288.06
408.023	1308.85
408.401	1334.16
408.779	1335.52
409.156	1346.59
409.534	1391.56
409.912	1380.03
410.29	1410.99
410.667	1440.15
411.045	1440.37
411.422	1458.45
411.8	1505
412.178	1492.57
412.555	1551.56
412.933	1552.91
413.31	1547.49
413.687	1618.67
414.065	1598.11
414.442	1605.11
414.819	1629.52
415.197	1674.94
415.574	1687.6
415.951	1692.57
416.328	1707.94
416.705	1704.09
417.082	1758.33
417.46	1754.94
417.837	1785.9
418.214	1841.27
418.591	1792.9
418.967	1820.47
419.344	1855.73
419.721	1864.54
420.098	1890.53
420.475	1931.66
420.852	1917.42
421.228	1959
421.605	1981.83
421.982	1973.24
422.358	2012.33
422.735	2017.53
423.111	2041.71
423.488	2081.48
423.864	2081.71
424.241	2114.25
424.617	2145.66
424.994	2150.41
425.37	2166.23
425.746	2246.45
426.123	2206.23
426.499	2233.12
426.875	2297.52
427.251	2280.58
427.627	2335.94
428.003	2367.8
428.379	2405.09
428.756	2424.53
429.132	2480.12
429.507	2518.76
429.883	2516.73
430.259	2571.19
430.635	2586.33
431.011	2595.82
431.387	2700
431.763	2762.14
432.138	2707.91
432.514	2796.27
432.89	2766.66
433.265	2818.64
433.641	2867
434.016	2869.26
434.392	2936.38
434.767	2987.68
435.143	3001.23
435.518	3057.05
435.894	3078.29
436.269	3109.93
436.644	3162.36
437.02	3181.12
437.395	3193.09
437.77	3232.42
438.145	3301.34
438.52	3334.56
438.895	3332.75
439.271	3323.94
439.646	3457.72
440.021	3432.86
440.395	3402.13
440.77	3403.48
441.145	3472.18
441.52	3563.48
441.895	3536.59
442.27	3586.08
442.645	3600.77
443.019	3641.22
443.394	3614.55
443.769	3657.94
444.143	3667.66
444.518	3725.51
444.892	3725.74
445.267	3760.31
445.641	3754.66
446.016	3823.36
446.39	3819.29
446.764	3866.3
447.139	3839.63
447.513	3942.68
447.887	3946.97
448.262	3940.64
448.636	4023.58
449.01	4042.56
449.384	4050.25
449.758	4099.96
450.132	4131.83
450.506	4199.4
450.88	4193.75
451.254	4174.31
451.628	4227.87
452.002	4291.37
452.376	4350.13
452.75	4333.85
453.123	4405.04
453.497	4442.55
453.871	4544.47
454.244	4588.54
454.618	4662.89
454.992	4705.14
455.365	4761.19
455.739	4838.47
456.112	4845.03
456.486	4890.22
456.859	4955.53
457.232	5040.73
457.606	5040.28
457.979	5131.8
458.352	5233.72
458.725	5304.9
459.099	5299.25
459.472	5414.73
459.845	5466.25
460.218	5524.56
460.591	5581.51
460.964	5580.83
461.337	5719.58
461.71	5772.01
462.083	5882.06
462.456	5899.69
462.829	5910.76
463.201	5979.46
463.574	6057.43
463.947	6115.05
464.32	6242.51
464.692	6251.54
465.065	6338.55
465.438	6425.78
465.81	6562.72
466.183	6622.83
466.555	6724.53
466.928	6721.59
467.3	6779.89
467.672	6892.88
468.045	7021.02
468.417	7107.12
468.789	7100.56
469.161	7266.21
469.534	7356.6
469.906	7524.28
470.278	7545.97
470.65	7709.13
471.022	7884.27
471.394	7969.01
471.766	7972.86
472.138	8135.11
472.51	8267.54
472.882	8389.79
473.253	8492.84
473.625	8593.63
473.997	8823.68
474.369	8843.79
474.74	8936.9
475.112	9096.67
475.484	9274.29
475.855	9469.54
476.227	9474.51
476.598	9798.8
476.97	9846.48
477.341	10096.87
477.713	10119.69
478.084	10282.63
478.455	10559.91
478.827	10620.02
479.198	10924.87
479.569	10972.55
479.94	11273.33
480.311	11317.85
480.682	11563.95
481.053	11848.23
481.424	11984.73
481.795	12142.01
482.166	12311.72
482.537	12475.11
482.908	12744.93
483.279	12902.44
483.65	13097.92
484.021	13315.77
484.391	13503.11
484.762	13574.29
485.133	13709.2
485.503	13908.07
485.874	14247.49
486.244	14478.45
486.615	14698.33
486.985	14810.19
487.356	15148.26
487.726	15244.08
488.097	15473.9
488.467	15576.5
488.837	15946.66
489.207	16145.75
489.578	16345.74
489.948	16485.17
490.318	16667.54
490.688	16647.43
491.058	17029.79
491.428	17275.21
491.798	17516.11
492.168	17724.92
492.538	17751.13
492.908	17999.71
493.278	18327.16
493.648	18397.89
494.017	18549.53
494.387	18708.84
494.757	18763.31
495.126	19071.77
495.496	19097.99
495.866	19298.89
496.235	19500.91
496.605	19719.67
496.974	19865.2
497.344	19984.52
497.713	19953.56
498.082	20173.44
498.452	20531.85
498.821	20513.77
499.19	20603.94
499.559	20851.84
499.928	21027.43
500.298	21191.04
500.667	21322.11
501.036	21317.59
501.405	21518.94
501.774	21552.61
502.143	21775.2
502.512	21954.63
502.88	22142.2
503.249	22140.84
503.618	22335.42
503.987	22612.92
504.356	22696.31
504.724	22875.29
505.093	23050.88
505.462	23108.28
505.83	23244.54
506.199	23382.17
506.567	23616.29
506.936	23638.66
507.304	24078.87
507.672	24055.14
508.041	24093.34
508.409	24297.85
508.777	24604.51
509.145	24759.76
509.514	24819.64
509.882	24975.8
510.25	25158.17
510.618	25280.42
510.986	25474.09
511.354	25582.79
511.722	25850.58
512.09	26202.66
512.458	26218.25
512.826	26336.44
513.193	26447.4
513.561	26667.73
513.929	26857.33
514.297	27104.56
514.664	27357.66
515.032	27466.13
515.4	27734.82
515.767	27689.85
516.135	27937.98
516.502	27909.28
516.869	28505.42
517.237	28688.02
517.604	28610.73
517.972	29051.85
518.339	29153.09
518.706	29233.54
519.073	29317.15
519.44	29721.66
519.808	29987.42
520.175	29998.04
520.542	30344.24
520.909	30518.25
521.276	30631.92
521.643	31035.07
522.009	31362.75
522.376	31470.54
522.743	31670.99
523.11	31957.76
523.477	32297.41
523.843	32596.39
524.21	32759.55
524.577	33074.57
524.943	33294.45
525.31	33453.09
525.676	33866.41
526.043	34049.01
526.409	34088.33
526.776	34499.62
527.142	34688.54
527.508	34817.8
527.874	35019.38
528.241	35285.36
528.607	35321.51
528.973	35817.32
529.339	35693.93
529.705	36194.26
530.071	36548.15
530.437	36676.51
530.803	36898.2
531.169	37031.75
531.535	37190.39
531.901	37316.49
532.267	37410.73
532.632	37690.72
532.998	37866.98
533.364	38086.19
533.73	38299.29
534.095	38596.46
534.461	38669.68
534.826	38889.56
535.192	38927.97
535.557	39333.84
535.923	39271.02
536.288	39572.7
536.653	39872.81
537.019	39722.3
537.384	39881.62
537.749	40132.01
538.114	40241.84
538.479	40278.9
538.845	40604.09
539.21	40495.39
539.575	40802.73
539.94	40993.23
540.305	41362.94
540.67	41355.93
541.034	41356.84
541.399	41628.69
541.764	41776.94
542.129	41972.41
542.494	42113.88
542.858	42259.41
543.223	42220.32
543.587	42704.37
543.952	42546.41
544.316	42722.45
544.681	42803.8
545.045	43100.29
545.41	43142.78
545.774	43319.5
546.138	43263.9
546.503	43618.02
546.867	43566.72
547.231	44093.49
547.595	43920.38
547.959	44152.69
548.324	44168.74
548.688	44428.39
549.052	44521.27
549.416	44722.17
549.779	44828.16
550.143	45036.74
550.507	45337.97
550.871	45391.31
551.235	45455.49
551.599	45819.32
551.962	45920.33
552.326	45942.93
552.689	46221.79
553.053	46038.52
553.417	46334.33
553.78	46870.36
554.143	46726.64
554.507	46930.25
554.87	47133.41
555.234	47489.33
555.597	47317.36
555.96	47391.71
556.323	47570.68
556.686	47752.15
557.05	48039.37
557.413	48197.11
557.776	48333.6
558.139	48489.98
558.502	48792.8
558.865	48822.85
559.228	49109.63
559.59	49273.01
559.953	49313.46
560.316	49850.85
560.679	49689.95
561.041	49837.29
561.404	50097.4
561.767	50465.75
562.129	50191.63
562.492	50754.78
562.854	50728.34
563.217	50704.16
563.579	50902.12
563.941	51147.09
564.304	51316.35
564.666	51522.44
565.028	51701.42
565.39	51731.7
565.753	51900.06
566.115	52049.89
566.477	52163.33
566.839	52353.38
567.201	52488.3
567.563	52491.68
567.925	52779.13
568.287	52722.87
568.648	52789.08
569.01	53043.76
569.372	53158.33
569.734	53138
570.095	53360.14
570.457	53495.5
570.819	53623.18
571.18	53578.44
571.542	53686
571.903	53847.58
572.265	53953.79
572.626	53995.83
572.987	54059.1
573.349	54109.04
573.71	54298.64
574.071	54401.01
574.432	54549.71
574.794	54728.24
575.155	54578.18
575.516	54687.79
575.877	54755.35
576.238	54756.26
576.599	54860.21
576.96	54850.49
577.32	54889.36
577.681	54960.09
578.042	55102.46
578.403	55082.58
578.763	55269.92
579.124	55229.47
579.485	55402.34
579.845	55394.21
580.206	55329.12
580.566	55383.36
580.927	55373.64
581.287	55461.1
581.648	55372.29
582.008	55584.03
582.368	55537.25
582.728	55457.48
583.089	55556.24
583.449	55553.3
583.809	55667.87
584.169	55628.55
584.529	55552.4
584.889	55763.01
585.249	55572.28
585.609	55445.05
585.969	55697.93
586.329	55601.21
586.688	55697.93
587.048	55639.85
587.408	55701.54
587.768	55640.3
588.127	55636.01
588.487	55595.56
588.846	55804.14
589.206	55506.07
589.565	55551.94
589.925	55767.08
590.284	55685.73
590.643	55702.45
591.003	55806.4
591.362	55768.43
591.721	55761.66
592.08	55736.57
592.44	55878.49
592.799	55826.74
593.158	55800.98
593.517	55787.87
593.876	55912.84
594.235	55822.44
594.593	55856.12
594.952	55909.45
595.311	55766.4
595.67	55817.7
596.029	55927.98
596.387	55982.67
596.746	56021.08
597.104	55927.53
597.463	55895.44
597.822	56041.65
598.18	55894.53
598.538	55883.01
598.897	56052.5
599.255	55817.92
599.613	56196.22
599.972	56046.39
600.33	56072.16
600.688	56034.42
601.046	56130.91
601.404	56167.52
601.762	56137.24
602.12	56315.31
602.478	56306.5
602.836	56267.4
603.194	56140.18
603.552	56219.27
603.91	56164.13
604.268	56317.12
604.625	56224.69
604.983	56374.29
605.341	56239.16
605.698	56408.42
606.056	56515.31
606.413	56441.41
606.771	56491.81
607.128	56504.23
607.485	56339.49
607.843	56432.37
608.2	56538.58
608.557	56568.64
608.914	56525.7
609.272	56666.72
609.629	56662.87
609.986	56797.33
610.343	56653.38
610.7	56880.95
611.057	56804.79
611.414	56754.4
611.771	56864
612.127	56906.03
612.484	56899.03
612.841	56959.59
613.198	56892.02
613.554	56872.59
613.911	57142.64
614.267	57003.66
614.624	57069.19
614.98	57023.09
615.337	57176.31
615.693	57070.1
616.05	57093.37
616.406	57227.61
616.762	57140.15
617.118	57181.28
617.475	57149.64
617.831	57176.99
618.187	57218.79
618.543	57262.63
618.899	57457.43
619.255	57354.38
619.611	57320.94
619.967	57402.06
620.323	57382.63
620.678	57305.57
621.034	57235.29
621.39	57245.91
621.746	57209.07
622.101	57517.32
622.457	57275.97
622.812	57374.72
623.168	57448.62
623.523	57390.31
623.879	57477.77
624.234	57381.05
624.589	57413.36
624.945	57342.63
625.3	57492.23
625.655	57396.87
626.01	57447.26
626.365	57451.33
626.72	57448.84
627.075	57412.46
627.43	57404.78
627.785	57321.39
628.14	57416.3
628.495	57355.06
628.85	57379.01
629.205	57267.6
629.559	57446.13
629.914	57234.38
630.269	57198
630.623	57176.76
630.978	57202.75
631.332	57232.58
631.687	57337.43
632.041	57165.91
632.396	57204.1
632.75	57063.54
633.104	57155.29
633.459	57009.08
633.813	56926.82
634.167	56952.58
634.521	56925.69
634.875	56962.3
635.229	56876.88
635.583	56770.67
635.937	56746.49
636.291	56689.31
636.645	56709.88
636.999	56628.3
637.352	56668.75
637.706	56464.24
638.06	56687.05
638.413	56607.06
638.767	56583.55
639.121	56632.14
639.474	56393.05
639.828	56451.35
640.181	56553.72
640.534	56579.03
640.888	56604.12
641.241	56339.72
641.594	56299.04
641.947	56407.51
642.301	56262.89
642.654	56302.21
643.007	56219.04
643.36	56133.85
643.713	56089.78
644.066	56312.38
644.419	56042.33
644.771	55747.19
645.124	55443.92
645.477	55251.84
645.83	55072.18
646.182	55047.55
646.535	55130.49
646.888	55230.6
647.24	55156.93
647.593	55426.75
647.945	55316.02
648.298	55247.32
648.65	55187.89
649.002	55072.41
649.355	55034.44
649.707	54795.58
650.059	54907.67
650.411	55159.86
650.763	55242.57
651.115	55620.19
651.467	55482.57
651.819	55550.59
652.171	55369.8
652.523	55208.68
652.875	55259.07
653.227	55207.77
653.578	55300.2
653.93	55350.59
654.282	55219.75
654.633	55114.44
654.985	55205.51
655.337	55214.78
655.688	55193.76
656.039	55295.9
656.391	54901.11
656.742	55022.47
657.094	55034.22
657.445	55026.08
657.796	54964.39
658.147	54915.58
658.498	54896.82
658.849	54876.71
659.2	54811.85
659.551	54780.89
659.902	54879.19
660.253	54800.1
660.604	54848.01
660.955	54644.4
661.306	54723.49
661.656	54705.86
662.007	54655.24
662.358	54644.17
662.708	54687.56
663.059	54594
663.409	54466.32
663.76	54565.98
664.11	54631.06
664.461	54594.91
664.811	54641.01
665.161	54625.87
665.511	54432.42
665.862	54508.81
666.212	54501.8
666.562	54569.14
666.912	54375.48
667.262	54394.91
667.612	54492.54
667.962	54417.28
668.312	54332.54
668.662	54522.37
669.011	54315.82
669.361	54341.58
669.711	54207.57
670.06	54375.03
670.41	54306.78
670.76	54177.06
671.109	54355.59
671.459	54251.41
671.808	54142.94
672.157	54335.7
672.507	54128.93
672.856	53949.73
673.205	54006.67
673.554	54116.95
673.904	54025.2
674.253	54211.41
674.602	54237.85
674.951	53584.09
675.3	53475.61
675.649	53873.34
675.998	53961.25
676.346	53993.79
676.695	53982.72
677.044	53789.96
677.393	53883.74
677.741	53919.67
678.09	53806.68
678.438	53641.03
678.787	53627.7
679.135	53702.5
679.484	53566.91
679.832	53671.99
680.181	53470.87
680.529	53547.93
680.877	53446.46
681.225	53423.19
681.573	53563.97
681.922	53338.44
682.27	53217.09
682.618	53159.01
682.966	53139.58
683.314	53205.34
683.661	53105.45
684.009	52949.07
684.357	52908.17
684.705	52856.19
685.053	52909.3
685.4	52877.66
685.748	52670.44
686.095	52580.95
686.443	52534.4
686.79	52488.52
687.138	52516.32
687.485	52542.08
687.832	52386.83
688.18	52336.43
688.527	52237.45
688.874	52268.87
689.221	52213.27
689.568	51956.78
689.915	51969.44
690.262	51837.46
690.609	51770.57
690.956	51698.26
691.303	51818.71
691.65	51589.11
691.997	51561.99
692.344	51349.57
692.69	51218.72
693.037	51383.92
693.383	50916.81
693.73	51201.78
694.077	50925.17
694.423	50911.61
694.769	50880.2
695.116	50845.4
695.462	50750.49
695.808	50500.1
696.155	50686.31
696.501	50341.46
696.847	50412.64
697.193	50095.14
697.539	50170.84
697.885	49796.61
698.231	49694.24
698.577	49781.02
698.923	49815.14
699.269	49622.61
699.614	49324.31
699.96	49343.52
700.306	49357.76
700.651	49137.42
700.997	48937.43
701.342	49021.04
701.688	48835.51
702.033	48805.91
702.379	48745.79
702.724	48543.77
703.069	48747.15
703.415	48303.09
703.76	48368.63
704.105	48312.13
704.45	48118.01
704.795	47927.96
705.14	47678.25
705.485	47793.73
705.83	47596.22
706.175	47883.9
706.52	47596.67
706.865	47360.52
707.209	47261.99
707.554	47235.78
707.899	47191.71
708.243	46977.71
708.588	46936.58
708.932	46613.2
709.277	46629.92
709.621	46642.57
709.966	46384.95
710.31	46517.15
710.654	46209.14
710.998	46253.66
711.342	46103.15
711.687	46016.83
712.031	46033.55
712.375	45846.21
712.719	45966.66
713.063	45727.57
713.407	45838.07
713.75	45564.64
714.094	45579.1
714.438	45376.39
714.782	45397.86
715.125	45196.96
715.469	45309.5
715.812	44882.62
716.156	44679.69
716.499	44470.88
716.843	44681.72
717.186	44463.87
717.53	44698.22
717.873	44615.73
718.216	44590.2
718.559	44336.87
718.902	44096.2
719.246	44265.91
719.589	44055.97
719.932	43879.48
720.275	43904.11
720.617	43942.08
720.96	43813.27
721.303	43756.1
721.646	43788.64
721.989	43471.36
722.331	43688.53
722.674	43403.11
723.016	43402.88
723.359	43401.08
723.701	43332.6
724.044	43071.37
724.386	43034.31
724.729	43075.44
725.071	42924.25
725.413	42903.01
725.755	42913.18
726.097	42635.67
726.439	42471.61
726.782	42576.01
727.124	42654.2
727.465	42362.23
727.807	42313.42
728.149	42220.99
728.491	42179.19
728.833	42180.09
729.175	41891.74
729.516	41945.07
729.858	41859.2
730.199	41846.77
730.541	41698.3
730.882	41678.18
731.224	41702.14
731.565	41376.5
731.906	41584.4
732.248	41576.94
732.589	41392.77
732.93	41310.96
733.271	41167.01
733.612	41270.28
733.953	41225.54
734.294	41066.22
734.635	40982.16
734.976	40989.84
735.317	40731.32
735.658	40790.3
735.999	40587.59
736.339	40635.05
736.68	40725.21
737.021	40654.48
737.361	40645.44
737.702	40562.96
738.042	40484.99
738.383	40385.34
738.723	40499.46
739.063	40068.28
739.404	40082.07
739.744	39950.32
740.084	39789.42
740.424	39881.62
740.764	39892.02
741.104	39944.9
741.444	39623.55
741.784	39671.46
742.124	39574.51
742.464	39465.59
742.804	39558.47
743.143	39339.04
743.483	39431.01
743.823	39336.1
744.162	39179.27
744.502	39293.16
744.841	38989.44
745.181	39113.73
745.52	38771.14
745.86	38813.85
746.199	38770.92
746.538	38705.15
746.877	38719.17
747.216	38842.1
747.556	38624.25
747.895	38619.96
748.234	38361.66
748.573	38391.49
748.911	38343.58
749.25	38382.9
749.589	38195.56
749.928	38299.06
750.267	38126.64
750.605	37874.44
750.944	37816.82
751.283	37705.41
751.621	37763.03
751.96	37401.23
752.298	37465.41
752.636	37576.6
752.975	37296.38
753.313	37156.04
753.651	37238.3
753.989	37070.85
754.327	36904.75
754.666	36894.81
755.004	36904.07
755.342	36866.33
755.679	36806
756.017	36526.23
756.355	36719.9
756.693	36425.89
757.031	36494.37
757.368	36222.28
757.706	36066.58
758.044	36089.4
758.381	36226.12
758.719	35839.24
759.056	35825.91
759.394	35693.03
759.731	35432.92
760.068	35379.37
760.405	35289.2
760.743	35213.5
761.08	35196.32
761.417	35032.03
761.754	35124.68
762.091	34968.3
762.428	34848.08
762.765	34627.52
763.102	34772.83
763.438	34501.42
763.775	34377.58
764.112	34296.68
764.449	34431.59
764.785	34182.34
765.122	33998.39
765.458	33732.63
765.795	33749.13
766.131	33772.4
766.467	33434.78
766.804	33303.94
767.14	33062.82
767.476	33250.38
767.812	32905.76
768.148	32993.89
768.485	32746.89
768.821	32661.02
769.157	32670.29
769.492	32456.05
769.828	32316.62
770.164	32200.47
770.5	32062.39
770.836	32254.7
771.171	31896.29
771.507	31831.44
771.842	31587.83
772.178	31529.75
772.513	31353.48
772.849	31418.34
773.184	31274.16
773.519	31207.05
773.855	31059.25
774.19	30768.64
774.525	30645.71
774.86	30770
775.195	30573.84
775.53	30470.12
775.865	30297.69
776.2	30200.29
776.535	29886.4
776.87	30094.08
777.205	29904.93
777.539	29716.24
777.874	29732.28
778.209	29473.31
778.543	29510.37
778.878	29235.12
779.212	29242.58
779.547	29122.58
779.881	29089.36
780.215	28875.81
780.55	28845.3
780.884	28666.1
781.218	28617.96
781.552	28573.22
781.886	28376.39
782.22	28145.43
782.554	28062.27
782.888	27830.19
783.222	27733.24
783.556	27722.17
783.889	27554.49
784.223	27544.09
784.557	27521.04
784.89	27577.54
785.224	27309.07
785.557	26997.89
785.891	26994.95
786.224	26856.43
786.558	26906.82
786.891	26711.8
787.224	26597.22
787.557	26517.23
787.891	26497.79
788.224	26451.24
788.557	26387.96
788.89	26360.62
789.223	26272.94
789.556	26099.61
789.888	25949.56
790.221	25830.24
790.554	25687.64
790.887	25753.86
791.219	25552.51
791.552	25462.34
791.884	25289.01
792.217	25299.86
792.549	25231.16
792.882	25019.86
793.214	24946.87
793.546	25080.88
793.879	24831.85
794.211	24636.15
794.543	24777.61
794.875	24663.04
795.207	24677.73
795.539	24526.09
795.871	24382.82
796.203	24230.73
796.535	24169.27
796.867	24189.83
797.198	23970.4
797.53	24012.43
797.862	23853.34
798.193	23959.33
798.525	23773.8
798.856	23776.51
799.188	23466.91
799.519	23486.12
799.85	23372
800.182	23262.62
800.513	23237.09
800.844	23050.65
801.175	23116.86
801.506	23081.84
801.837	22908.51
802.168	22922.29
802.499	22779.7
802.83	22694.5
803.161	22684.33
803.491	22592.58
803.822	22565.24
804.153	22384.68
804.483	22245.93
804.814	22184.01
805.145	22187.4
805.475	22242.99
805.805	22032.6
806.136	21977.91
806.466	22085.25
806.796	22002.09
807.126	21845.48
807.457	21835.09
807.787	21750.12
808.117	21632.16
808.447	21474.2
808.777	21706.96
809.107	21478.71
809.436	21513.97
809.766	21496.34
810.096	21373.86
810.426	21278.95
810.755	21372.28
811.085	21260.19
811.414	21038.27
811.744	20940.65
812.073	21004.15
812.403	20799.41
812.732	20724.84
813.061	20767.55
813.39	20615.46
813.719	20570.94
814.049	20731.62
814.378	20553.77
814.707	20392.64
815.036	20512.41
815.365	20278.07
815.693	20179.77
816.022	20229.03
816.351	20103.84
816.68	20052.54
817.008	20102.25
817.337	19903.39
817.665	19761.02
817.994	19916.72
818.322	19869.72
818.651	19745.43
818.979	19660.23
819.307	19805.99
819.636	19647.8
819.964	19589.95
820.292	19611.65
820.62	19495.26
820.948	19420.46
821.276	19575.49
821.604	19455.72
821.932	19598.99
822.259	19509.73
822.587	19460.46
822.915	19385.89
823.243	19416.62
823.57	19340.47
823.898	19360.8
824.225	19257.3
824.553	19218.44
824.88	19352.9
825.207	19488.71
825.535	19336.85
825.862	19363.06
826.189	19219.34
826.516	19369.62
826.843	19281.48
827.17	19390.63
827.497	19363.29
827.824	19281.71
828.151	19311.77
828.478	19271.09
828.805	19301.15
829.131	19289.17
829.458	19328.71
829.785	19237.87
830.111	19377.08
830.438	19467.69
830.764	19493.23
831.09	19307.02
831.417	19186.8
831.743	19336.62
832.069	19297.53
832.395	19105.22
832.722	19388.6
833.048	19174.59
833.374	19257.08
833.7	19067.93
834.026	19186.8
834.351	19159.45
834.677	19030.64
835.003	19090.98
835.329	19003.3
835.654	18947.48
835.98	18921.72
836.306	18999.01
836.631	18783.19
836.956	18863.42
837.282	18863.19
837.607	18739.8
837.932	18743.19
838.258	18768.5
838.583	18805.34
838.908	18673.82
839.233	18721.5
839.558	18741.61
839.883	18711.56
840.208	18568.28
840.533	18603.99
840.858	18615.97
841.182	18576.42
841.507	18633.82
841.832	18592.92
842.156	18577.77
842.481	18442.86
842.805	18389.3
843.13	18375.97
843.454	18326.26
843.778	18094.85
844.103	18127.16
844.427	18032.93
844.751	18077.9
845.075	18001.97
845.399	18032.48
845.723	17823.44
846.047	17945.25
846.371	17775.99
846.695	17807.17
847.019	17615.31
847.343	17533.73
847.666	17618.48
847.99	17473.85
848.313	17468.65
848.637	17352.04
848.96	17356.56
849.284	17282.44
849.607	17117.25
849.931	17121.77
850.254	16956.8
850.577	16823.7
850.9	16636.36
851.223	16751.61
851.546	16728.33
851.869	16618.73
852.192	16661.44
852.515	16646.07
852.838	16472.07
853.161	16439.3
853.483	16394.55
853.806	16263.26
854.129	16295.35
854.451	16204.96
854.774	16142.81
855.096	16084.73
855.419	16101.46
855.741	16030.27
856.063	15938.52
856.385	15923.38
856.708	15881.12
857.03	15778.07
857.352	15775.36
857.674	15763.16
857.996	15707.34
858.318	15708.7
858.64	15699.66
858.961	15557.74
859.283	15620.79
859.605	15512.54
859.926	15553
860.248	15505.54
860.57	15383.51
860.891	15488.14
861.212	15290.4
861.534	15300.8
861.855	15300.35
862.176	15313.23
862.498	15246.79
862.819	15261.7
863.14	15217.18
863.461	15199.78
863.782	15031.65
864.103	15055.61
864.424	15098.32
864.745	15071.88
865.065	14989.85
865.386	14925.21
865.707	15032.78
866.027	15018.55
866.348	14882.28
866.668	14920.47
866.989	14893.58
867.309	14795.27
867.63	14815.39
867.95	14713.24
868.27	14646.13
868.59	14771.77
868.91	14708.27
869.23	14659.91
869.55	14615.17
869.87	14775.61
870.19	14787.37
870.51	14705.33
870.83	14701.72
871.15	14599.35
871.469	14684.32
871.789	14604.55
872.109	14643.19
872.428	14605.45
872.748	14642.28
873.067	14624.66
873.386	14559.35
873.706	14488.62
874.025	14509.86
874.344	14253.14
874.663	14429.41
874.982	14430.54
875.301	14441.84
875.62	14258.11
875.939	14247.04
876.258	14324.1
876.577	14301.95
876.896	14285.01
877.214	14185.12
877.533	14225.57
877.852	14246.36
878.17	14163.43
878.489	14166.36
878.807	14184.67
879.125	14161.62
879.444	14215.63
879.762	14148.74
880.08	14183.31
880.398	14016.09
880.716	14062.64
881.034	13944.68
881.352	13975.64
881.67	13993.04
881.988	13998.23
882.306	13920.95
882.624	13949.65
882.941	13923.89
883.259	13763.21
883.577	13860.16
883.894	13785.13
884.212	13795.3
884.529	13785.58
884.846	13680.05
885.164	13618.36
885.481	13624.23
885.798	13603.67
886.115	13530.22
886.432	13649.99
886.75	13548.53
887.067	13503.11
887.383	13462.65
887.7	13467.63
888.017	13369.78
888.334	13295.88
888.651	13286.61
888.967	13248.42
889.284	13196.22
889.6	13155.54
889.917	13116
890.233	13200.29
890.55	13182.66
890.866	13198.03
891.182	13131.14
891.498	13104.02
891.815	13042.78
892.131	12949.67
892.447	12949
892.763	12919.17
893.079	12883.91
893.395	12845.5
893.71	12789
894.026	12842.33
894.342	12826.74
894.657	12625.39
894.973	12589.68
895.289	12762.33
895.604	12710.13
895.92	12656.35
896.235	12506.3
896.55	12562.57
896.865	12545.84
897.181	12402.57
897.496	12444.6
897.811	12369.8
898.126	12258.39
898.441	12275.12
898.756	12203.03
899.071	12134.78
899.386	12116.48
899.7	12092.75
900.015	12099.53
900.33	11969.13
900.644	11909.47
900.959	11956.93
901.273	11864.5
901.588	11817.27
901.902	11827.67
902.216	11852.75
902.531	11827.44
902.845	11834.22
903.159	11722.14
903.473	11685.07
903.787	11601.91
904.101	11656.6
904.415	11670.84
904.729	11505.19
905.042	11457.51
905.356	11350.39
905.67	11404.18
905.984	11341.58
906.297	11346.33
906.611	11211.64
906.924	11293.9
907.237	11208.48
907.551	11177.97
907.864	11142.26
908.177	11106.11
908.491	10969.39
908.804	10912.44
909.117	10873.57
909.43	10798.32
909.743	10802.84
910.056	10787.7
910.368	10739.34
910.681	10762.84
910.994	10713.57
911.307	10655.04
911.619	10534.14
911.932	10580.47
912.244	10508.38
912.557	10499.57
912.869	10448.95
913.181	10474.94
913.494	10415.28
913.806	10324.66
914.118	10258.44
914.43	10155.17
914.742	10222.06
915.054	10174.15
915.366	10184.55
915.678	10091.9
915.99	10018.68
916.302	10001.95
916.613	9983.88
916.925	10015.74
917.236	9975.29
917.548	9913.37
917.859	9897.32
918.171	9848.29
918.482	9759.48
918.794	9695.97
919.105	9695.97
919.416	9639.03
919.727	9511.35
920.038	9574.62
920.349	9528.75
920.66	9512.25
920.971	9428.64
921.282	9460.5
921.593	9332.37
921.903	9296.44
922.214	9270.9
922.525	9288.07
922.835	9245.59
923.146	9192.71
923.456	9113.62
923.767	9084.01
924.077	9086.05
924.387	8991.13
924.697	8983
925.008	8930.12
925.318	8939.38
925.628	8862.1
925.938	8851.93
926.248	8701.2
926.558	8703.01
926.867	8731.03
927.177	8699.16
927.487	8647.19
927.796	8535.55
928.106	8524.71
928.416	8553.63
928.725	8575.1
929.034	8479.73
929.344	8511.15
929.653	8450.81
929.962	8360.19
930.271	8370.58
930.581	8342.79
930.89	8278.38
931.199	8197.93
931.508	8167.43
931.817	8218.27
932.125	8139.86
932.434	8095.11
932.743	8037.03
933.051	7983.7
933.36	7916.81
933.669	7897.15
933.977	7918.85
934.286	7846.98
934.594	7867.32
934.902	7796.59
935.21	7802.01
935.519	7783.26
935.827	7737.61
936.135	7627.1
936.443	7616.25
936.751	7540.1
937.059	7587.33
937.367	7542.13
937.674	7560.21
937.982	7506.43
938.29	7473.43
938.597	7479.31
938.905	7436.15
939.213	7336.49
939.52	7340.56
939.827	7343.49
940.135	7263.04
940.442	7283.38
940.749	7253.55
941.056	7249.48
941.363	7146.21
941.67	7147.79
941.977	7108.47
942.284	7081.13
942.591	7047.91
942.898	7068.92
943.205	7030.73
943.511	6986.21
943.818	6956.84
944.125	6849.72
944.431	6906.44
944.738	6862.83
945.044	6769.72
945.35	6770.18
945.657	6722.94
945.963	6736.73
946.269	6666.67
946.575	6640.91
946.881	6576.51
947.187	6608.15
947.493	6531.99
947.799	6555.49
948.105	6497.41
948.41	6452.44
948.716	6476.4
949.022	6455.16
949.327	6431.65
949.633	6393.91
949.938	6373.58
950.244	6340.13
950.549	6285.67
950.854	6295.39
951.16	6281.37
951.465	6278.89
951.77	6188.95
952.075	6113.7
952.38	6080.25
952.685	6111.21
952.99	6028.95
953.294	6034.6
953.599	5993.47
953.904	5975.39
954.209	5938.56
954.513	5974.94
954.818	5953.02
955.122	5940.82
955.426	5891.1
955.731	5865.11
956.035	5827.38
956.339	5795.51
956.643	5797.77
956.948	5734.5
957.252	5687.94
957.556	5702.18
957.86	5662.41
958.163	5600.94
958.467	5599.81
958.771	5582.41
959.075	5536.99
959.378	5548.96
959.682	5566.82
959.985	5527.27
960.289	5477.78
960.592	5487.27
960.896	5479.59
961.199	5426.03
961.502	5424
961.805	5359.14
962.108	5391
962.411	5334.96
962.714	5308.52
963.017	5276.66
963.32	5299.93
963.623	5246.83
963.926	5274.17
964.228	5223.32
964.531	5151.01
964.833	5179.48
965.136	5110.33
965.438	5109.2
965.741	5129.31
966.043	5103.1
966.345	5066.49
966.648	5056.55
966.95	4989.66
967.252	4955.08
967.554	4949.88
967.856	4933.61
968.158	4904.01
968.46	4878.02
968.761	4811.13
969.063	4819.04
969.365	4812.71
969.666	4821.75
969.968	4777.23
970.269	4733.39
970.571	4749.21
970.872	4713.51
971.174	4686.16
971.475	4673.73
971.776	4687.97
972.077	4611.81
972.378	4625.6
972.679	4595.32
972.98	4548.09
973.281	4579.05
973.582	4571.81
973.883	4525.94
974.183	4527.07
974.484	4450.69
974.785	4445.72
975.085	4467.86
975.386	4467.86
975.686	4441.2
975.986	4387.19
976.287	4403.01
976.587	4339.73
976.887	4331.14
977.187	4275.55
977.487	4274.42
977.787	4269.68
978.087	4234.2
978.387	4189.23
978.687	4222.67
978.987	4169.79
979.286	4121.66
979.586	4146.52
979.885	4142
980.185	4126.18
980.484	4090.92
980.784	4044.37
981.083	4022.68
981.382	4010.7
981.682	4076.91
981.981	3995.56
982.28	3954.43
982.579	3989.91
982.878	3962.34
983.177	3951.49
983.475	3932.74
983.774	3879.4
984.073	3874.21
984.372	3872.62
984.67	3839.4
984.969	3804.6
985.267	3778.16
985.566	3778.84
985.864	3752.18
986.162	3782.01
986.461	3700.2
986.759	3690.48
987.057	3675.12
987.355	3660.2
987.653	3667.88
987.951	3649.58
988.249	3614.55
988.547	3633.99
988.844	3576.36
989.142	3608.45
989.44	3593.99
989.737	3533.42
990.035	3518.06
990.332	3556.47
990.63	3518.28
990.927	3488.45
991.224	3506.31
991.521	3472.18
991.819	3433.31
992.116	3418.4
992.413	3391.28
992.71	3438.51
993.006	3384.05
993.303	3369.81
993.6	3341.34
993.897	3338.17
994.193	3318.06
994.49	3299.76
994.787	3277.84
995.083	3283.26
995.379	3264.28
995.676	3233.77
995.972	3221.57
996.268	3170.27
996.565	3187.44
996.861	3158.97
997.157	3146.09
997.453	3173.21
997.749	3125.98
998.044	3128.24
998.34	3120.55
998.636	3092.76
998.932	3054.57
999.227	3053.89
999.523	3006.21
999.818	2986.09
1000.114	2982.7
1000.409	2996.94
1000.704	2942.71
1001	2959.65
1001.295	2956.72
1001.59	2871.52
1001.885	2893.89
1002.18	2868.58
1002.475	2904.29
1002.77	2842.59
1003.065	2798.08
1003.359	2808.02
1003.654	2814.35
1003.949	2774.57
1004.243	2777.51
1004.538	2747.91
1004.832	2747.46
1005.127	2729.38
1005.421	2709.72
1005.715	2667.91
1006.009	2692.32
1006.304	2641.7
1006.598	2615.03
1006.892	2631.3
1007.186	2612.09
1007.48	2602.6
1007.773	2561.47
1008.067	2565.31
1008.361	2505.2
1008.655	2515.82
1008.948	2509.72
1009.242	2491.64
1009.535	2499.1
1009.829	2468.37
1010.122	2428.82
1010.415	2401.48
1010.708	2430.63
1011.001	2424.98
1011.295	2395.15
1011.588	2413
1011.881	2356.05
1012.173	2335.49
1012.466	2320.12
1012.759	2333.91
1013.052	2293
1013.344	2302.04
1013.637	2306.34
1013.93	2261.59
1014.222	2246.68
1014.514	2230.86
1014.807	2211.42
1015.099	2198.54
1015.391	2186.79
1015.683	2161.03
1015.976	2168.71
1016.268	2145.89
1016.56	2166.45
1016.851	2114.03
1017.143	2129.62
1017.435	2114.25
1017.727	2092.33
1018.018	2040.81
1018.31	2039.23
1018.602	2055.72
1018.893	2047.81
1019.185	2015.05
1019.476	1976.63
1019.767	1994.26
1020.058	1977.98
1020.35	1941.15
1020.641	1962.39
1020.932	1939.57
1021.223	1919.23
1021.514	1915.39
1021.804	1875.61
1022.095	1914.48
1022.386	1859.12
1022.677	1839.46
1022.967	1852.34
1023.258	1810.76
1023.548	1807.59
1023.839	1824.99
1024.129	1775.5
1024.419	1812.34
1024.709	1773.7
1025	1754.26
1025.29	1744.54
1025.58	1694.38
1025.87	1666.13
1026.16	1696.64
1026.449	1691.44
1026.739	1664.09
1027.029	1659.12
1027.319	1656.64
1027.608	1629.75
1027.898	1617.32
1028.187	1614.83
1028.477	1619.8
1028.766	1584.1
1029.055	1581.16
1029.344	1556.98
1029.634	1540.48
1029.923	1545.23
1030.212	1544.78
1030.501	1521.05
1030.79	1509.52
1031.078	1501.39
1031.367	1493.03
1031.656	1452.8
1031.945	1462.52
1032.233	1457.77
1032.522	1444.67
1032.81	1457.55
1033.099	1453.48
1033.387	1444.67
1033.675	1409.86
1033.963	1410.32
1034.251	1369.87
1034.54	1405.57
1034.828	1378.23
1035.116	1365.8
1035.403	1322.41
1035.691	1328.96
1035.979	1347.72
1036.267	1313.37
1036.554	1286.48
1036.842	1307.27
1037.129	1277.89
1037.417	1284.22
1037.704	1262.07
1037.992	1291.68
1038.279	1263.43
1038.566	1271.11
1038.853	1271.11
1039.14	1271.11
