Data from foil_FLMS001491_046.txt Node
Date: Tue Feb 07 11:26:57 GMT 2017
User: dcchb
Spectrometer: FLMS00149
Trigger mode: 0
Integration Time (sec): 2.000000E-2
Scans to average: 10
Electric dark correction enabled: true
Nonlinearity correction enabled: false
Boxcar width: 0
XAxis mode: Wavelengths
Number of Pixels in Spectrum: 2048
>>>>>Begin Spectral Data<<<<<
341.393	-6.33
341.776	-6.33
342.16	-6.33
342.543	-70.28
342.927	-65.99
343.31	-63.28
343.693	-80.45
344.077	-70.73
344.46	-45.2
344.843	-48.81
345.226	-28.02
345.61	-44.52
345.993	-41.58
346.376	9.04
346.759	-4.97
347.142	29.83
347.525	60.11
347.908	59.89
348.291	69.83
348.674	85.42
349.057	113.44
349.44	140.79
349.823	132.65
350.206	175.36
350.588	241.8
350.971	271.86
351.354	296.26
351.737	311.86
352.119	315.7
352.502	300.78
352.884	332.19
353.267	330.39
353.65	359.54
354.032	345.08
354.414	363.38
354.797	385.53
355.179	369.93
355.562	371.06
355.944	402.25
356.326	383.94
356.709	426.88
357.091	399.54
357.473	398.86
357.855	413.55
358.238	385.3
358.62	414
359.002	426.43
359.384	423.49
359.766	428.69
360.148	421.68
360.53	430.72
360.912	405.41
361.294	405.41
361.676	413.77
362.057	408.58
362.439	386.66
362.821	418.97
363.203	422.81
363.584	405.87
363.966	422.14
364.348	426.66
364.729	423.94
365.111	422.36
365.493	420.78
365.874	409.03
366.256	424.62
366.637	411.97
367.019	398.41
367.4	417.84
367.781	432.31
368.163	420.55
368.544	449.48
368.925	440.67
369.306	436.37
369.688	443.38
370.069	442.7
370.45	452.87
370.831	440.44
371.212	459.87
371.593	453.55
371.974	468.91
372.355	480.44
372.736	459.87
373.117	464.17
373.498	460.78
373.879	462.81
374.26	471.85
374.641	443.38
375.021	449.48
375.402	482.02
375.783	497.16
376.163	518.4
376.544	514.34
376.925	503.04
377.305	482.47
377.686	515.24
378.066	505.52
378.447	519.53
378.827	517.73
379.208	513.21
379.588	518.86
379.968	538.52
380.349	558.18
380.729	527.22
381.109	558.63
381.489	548.46
381.87	562.47
382.25	545.75
382.63	556.37
383.01	559.76
383.39	575.58
383.77	595.92
384.15	583.49
384.53	574.22
384.91	596.37
385.29	601.11
385.67	611.28
386.049	625.52
386.429	616.71
386.809	626.42
387.189	628.01
387.568	664.84
387.948	633.88
388.328	649.93
388.707	678.17
389.087	649.7
389.466	708
389.846	655.58
390.225	693.32
390.605	690.83
390.984	711.62
391.363	713.65
391.743	747.1
392.122	722.92
392.501	757.72
392.881	748.45
393.26	735.8
393.639	767.44
394.018	779.64
394.397	800.2
394.776	791.62
395.155	806.53
395.534	778.06
395.913	807.89
396.292	779.41
396.671	800.66
397.05	825.06
397.429	838.85
397.808	848.11
398.186	859.19
398.565	847.66
398.944	860.54
399.323	875.46
399.701	883.14
400.08	894.21
400.458	880.88
400.837	892.41
401.215	922.01
401.594	925.85
401.972	946.19
402.351	923.37
402.729	956.13
403.107	971.95
403.486	962.46
403.864	973.53
404.242	987.54
404.62	1035
404.999	1014.21
405.377	1039.07
405.755	1042.91
406.133	1052.18
406.511	1064.15
406.889	1070.48
407.267	1083.14
407.645	1121.33
408.023	1116.58
408.401	1111.61
408.779	1157.94
409.156	1181.21
409.534	1189.8
409.912	1186.18
410.29	1209.01
410.667	1215.79
411.045	1257.37
411.422	1277.25
411.8	1274.32
412.178	1305.5
412.555	1297.37
412.933	1348.89
413.31	1345.05
413.687	1399.29
414.065	1373.3
414.442	1396.12
414.819	1409
415.197	1414.2
415.574	1427.99
415.951	1460.53
416.328	1472.96
416.705	1467.08
417.082	1490.13
417.46	1508.66
417.837	1547.08
418.214	1543.24
418.591	1548.66
418.967	1604.7
419.344	1601.54
419.721	1597.7
420.098	1616
420.475	1634.99
420.852	1661.2
421.228	1684.48
421.605	1666.62
421.982	1695.55
422.358	1712.5
422.735	1719.28
423.111	1737.13
423.488	1757.02
423.864	1790.46
424.241	1797.92
424.617	1840.4
424.994	1837.92
425.37	1858.26
425.746	1847.64
426.123	1901.42
426.499	1920.63
426.875	1965.37
427.251	1958.59
427.627	2011.25
428.003	2005.15
428.379	2071.36
428.756	2071.36
429.132	2080.62
429.507	2123.11
429.883	2164.91
430.259	2188.42
430.635	2186.16
431.011	2214.86
431.387	2284.23
431.763	2293.5
432.138	2340.05
432.514	2378.02
432.89	2378.47
433.265	2423.89
433.641	2430.9
434.016	2444.23
434.392	2519.93
434.767	2569.42
435.143	2578.24
435.518	2612.59
435.894	2613.94
436.269	2613.72
436.644	2688.52
437.02	2723.09
437.395	2707.27
437.77	2771.23
438.145	2816.2
438.52	2841.73
438.895	2855.29
439.271	2843.09
439.646	2925.12
440.021	2965.57
440.395	2982.52
440.77	2939.81
441.145	3004.67
441.52	3101.16
441.895	3040.82
442.27	3098.9
442.645	3081.73
443.019	3169.41
443.394	3116.53
443.769	3137.54
444.143	3220.93
444.518	3212.8
444.892	3201.72
445.267	3227.26
445.641	3296.64
446.016	3269.97
446.39	3325.56
446.764	3335.28
447.139	3368.95
447.513	3394.49
447.887	3385.9
448.262	3428.16
448.636	3450.98
449.01	3512
449.384	3569.4
449.758	3581.15
450.132	3609.17
450.506	3625.44
450.88	3664.08
451.254	3635.38
451.628	3760.81
452.002	3785.89
452.376	3789.28
452.75	3826.34
453.123	3876.96
453.497	3875.15
453.871	3954.47
454.244	4021.14
454.618	3981.59
454.992	4104.07
455.365	4089.38
455.739	4195.82
456.112	4237.18
456.486	4291.86
456.859	4304.07
457.232	4414.8
457.606	4386.55
457.979	4436.95
458.352	4552.65
458.725	4603.72
459.099	4611.63
459.472	4638.52
459.845	4669.03
460.218	4789.25
460.591	4829.93
460.964	4831.96
461.337	4969.13
461.71	5041.68
462.083	5055.46
462.456	5115.35
462.829	5112.41
463.201	5211.61
463.574	5203.03
463.947	5342.23
464.32	5394.89
464.692	5450.7
465.065	5510.14
465.438	5596.24
465.81	5665.16
466.183	5695.22
466.555	5817.7
466.928	5808.89
467.3	5856.8
467.672	5960.52
468.045	6091.82
468.417	6129.56
468.789	6135.21
469.161	6211.59
469.534	6343.79
469.906	6460.62
470.278	6447.51
470.65	6556.44
471.022	6693.84
471.394	6786.04
471.766	6822.87
472.138	6908.97
472.51	7105.58
472.882	7193.03
473.253	7308.51
473.625	7387.6
473.997	7513.7
474.369	7548.95
474.74	7682.06
475.112	7797.31
475.484	7975.61
475.855	8134.02
476.227	8154.81
476.598	8405.43
476.97	8466.44
477.341	8582.83
477.713	8766.78
478.084	8771.75
478.455	9087.22
478.827	9045.86
479.198	9371.05
479.569	9454.21
479.94	9586.87
480.311	9684.27
480.682	9961.32
481.053	10173.29
481.424	10308.43
481.795	10430.46
482.166	10643.56
482.537	10731.92
482.908	10949.09
483.279	11077.9
483.65	11249.87
484.021	11469.98
484.391	11563.54
484.762	11632.69
485.133	11797.43
485.503	11973.02
485.874	12269.28
486.244	12332.56
486.615	12627.01
486.985	12701.36
487.356	12985.87
487.726	13127.34
488.097	13361.91
488.467	13315.36
488.837	13638.51
489.207	13809.58
489.578	13984.27
489.948	14108.1
490.318	14342.9
490.688	14384.71
491.058	14598.26
491.428	14834.41
491.798	14899.5
492.168	15294.29
492.538	15352.59
492.908	15514.17
493.278	15711
493.648	15652.92
494.017	15896.76
494.387	15962.52
494.757	16190.31
495.126	16480.02
495.496	16443.18
495.866	16611.99
496.235	16766.34
496.605	16952.32
496.974	17101.02
497.344	17196.61
497.713	17302.14
498.082	17519.99
498.452	17607.22
498.821	17659.2
499.19	17771.51
499.559	17879.53
499.928	18058.73
500.298	18228.22
500.667	18394.32
501.036	18399.52
501.405	18546.41
501.774	18664.14
502.143	18839.5
502.512	18810.58
502.88	19017.35
503.249	19164.92
503.618	19375.08
503.987	19405.59
504.356	19526.49
504.724	19690.1
505.093	19807.84
505.462	19847.16
505.83	19983.2
506.199	20210.99
506.567	20342.29
506.936	20411.67
507.304	20671.32
507.672	20732.79
508.041	20836.06
508.409	21079.9
508.777	21194.47
509.145	21362.6
509.514	21382.04
509.882	21542.03
510.25	21674.23
510.618	21842.82
510.986	22019.08
511.354	22155.35
511.722	22378.62
512.09	22492.52
512.458	22629.46
512.826	22808.89
513.193	22881.66
513.561	22992.62
513.929	23206.85
514.297	23419.05
514.664	23610.45
515.032	23625.14
515.4	23953.49
515.767	24073.94
516.135	24073.49
516.502	24157.56
516.869	24605.23
517.237	24696.75
517.604	24579.01
517.972	24910.98
518.339	25139.45
518.706	25240.24
519.073	25361.37
519.44	25564.75
519.808	25807.46
520.175	25880.22
520.542	26275.92
520.909	26394.79
521.276	26505.52
521.643	26778.28
522.009	26980.31
522.376	27035.67
522.743	27349.79
523.11	27603.57
523.477	27904.13
523.843	28012.14
524.21	28343.21
524.577	28533.71
524.943	28614.61
525.31	28704.33
525.676	29113.13
526.043	29249.63
526.409	29409.17
526.776	29771.87
527.142	29824.98
527.508	30023.62
527.874	30308.81
528.241	30414.57
528.607	30582.02
528.973	30900.66
529.339	30947.66
529.705	31249.12
530.071	31398.27
530.437	31515.56
530.803	31843.46
531.169	32016.33
531.535	31907.64
531.901	32165.26
532.267	32344.23
532.632	32512.59
532.998	32824.45
533.364	32924.78
533.73	33037.78
534.095	33218.11
534.461	33455.62
534.826	33609.29
535.192	33764.99
535.557	34042.27
535.923	33966.56
536.288	34120.46
536.653	34268.25
537.019	34220.34
537.384	34529.49
537.749	34645.87
538.114	34709.14
538.479	34816.94
538.845	35029.59
539.21	34899.65
539.575	35132.86
539.94	35301.67
540.305	35632.74
540.67	35462.34
541.034	35724.03
541.399	35922.45
541.764	36128.32
542.129	36383.68
542.494	36320.17
542.858	36458.02
543.223	36481.3
543.587	36695.98
543.952	36712.48
544.316	36868.86
544.681	36914.28
545.045	37224.56
545.41	37228.4
545.774	37335.29
546.138	37486.25
546.503	37649.18
546.867	37617.09
547.231	37974.82
547.595	38012.56
547.959	38096.63
548.324	38215.04
548.688	38566.67
549.052	38660.45
549.416	38798.08
549.779	38868.36
550.143	39001.23
550.507	39195.81
550.871	39409.36
551.235	39339.08
551.599	39549.92
551.962	39685.28
552.326	39767.77
552.689	39975.9
553.053	39915.33
553.417	40099.96
553.78	40659.95
554.143	40471.25
554.507	40689.55
554.87	40779.27
555.234	41201.63
555.597	41086.83
555.96	41324.11
556.323	41609.08
556.686	41563.2
557.05	41950.31
557.413	41980.37
557.776	42230.98
558.139	42414.25
558.502	42481.59
558.865	42534.93
559.228	42959.1
559.59	43086.55
559.953	43173.33
560.316	43610.83
560.679	43668.23
561.041	43896.7
561.404	44144.38
561.767	44408.1
562.129	44348.66
562.492	44846.5
562.854	44752.27
563.217	44813.74
563.579	44994.52
563.941	45368.07
564.304	45486.04
564.666	45729.42
565.028	45801.06
565.39	45885.57
565.753	46278.33
566.115	46273.81
566.477	46595.38
566.839	46584.76
567.201	47020.46
567.563	46962.61
567.925	47107.24
568.287	47209.15
568.648	47431.97
569.01	47598.52
569.372	47862.92
569.734	47782.25
570.095	48194.44
570.457	48284.61
570.819	48325.28
571.18	48466.07
571.542	48649.79
571.903	48588.33
572.265	48743.35
572.626	48884.59
572.987	48906.74
573.349	49244.81
573.71	49321.42
574.071	49372.26
574.432	49533.39
574.794	49757.34
575.155	49838.69
575.516	49598.02
575.877	49834.62
576.238	49980.83
576.599	50064.9
576.96	50071.45
577.32	50151.68
577.681	50322.74
578.042	50386.7
578.403	50353.03
578.763	50380.37
579.124	50512.57
579.485	50642.28
579.845	50725.45
580.206	50697.65
580.566	50632.12
580.927	50774.03
581.287	50881.15
581.648	50694.49
582.008	50925.21
582.368	50781.72
582.728	50852.67
583.089	50853.35
583.449	50831.66
583.809	50872.33
584.169	51089.96
584.529	51076.62
584.889	51144.42
585.249	50983.97
585.609	50887.93
585.969	51080.92
586.329	50871.66
586.688	51052.44
587.048	51039.79
587.408	50965.89
587.768	51016.74
588.127	50934.03
588.487	50896.97
588.846	51162.27
589.206	50990.3
589.565	51049.05
589.925	51121.14
590.284	51066.23
590.643	51251.99
591.003	51151.65
591.362	51175.38
591.721	51197.07
592.08	51201.59
592.44	51266.45
592.799	51310.74
593.158	51150.97
593.517	51181.71
593.876	51319.55
594.235	51124.76
594.593	51323.4
594.952	51293.11
595.311	51222.83
595.67	51323.4
596.029	51468.03
596.387	51390.06
596.746	51575.14
597.104	51252.66
597.463	51357.07
597.822	51571.53
598.18	51381.25
598.538	51319.78
598.897	51659.88
599.255	51330.4
599.613	51775.14
599.972	51620.11
600.33	51655.36
600.688	51596.61
601.046	51635.25
601.404	51732.65
601.762	51585.31
602.12	51740.56
602.478	51769.26
602.836	51834.8
603.194	51557.97
603.552	51745.98
603.91	51705.31
604.268	51792.54
604.625	51714.8
604.983	51780.11
605.341	51726.1
605.698	51976.03
606.056	52039.08
606.413	52078.4
606.771	52082.47
607.128	52144.39
607.485	52056.26
607.843	52015.36
608.2	52133.32
608.557	52272.52
608.914	52086.54
609.272	52282.47
609.629	52396.36
609.986	52445.63
610.343	52304.16
610.7	52555.91
611.057	52486.76
611.414	52536.7
611.771	52528.56
612.127	52605.17
612.484	52641.78
612.841	52584.15
613.198	52515.68
613.554	52606.07
613.911	52748.9
614.267	52721.1
614.624	52672.74
614.98	52771.04
615.337	52856.01
615.693	52823.7
616.05	52816.46
616.406	52980.53
616.762	52898.27
617.118	52834.77
617.475	52920.19
617.831	52999.06
618.187	53118.6
618.543	53052.16
618.899	53208.54
619.255	53071.37
619.611	52980.08
619.967	53086.51
620.323	53273.85
620.678	53168.32
621.034	52985.27
621.39	53062.11
621.746	53028.44
622.101	53376
622.457	53120.64
622.812	53126.29
623.168	53231.82
623.523	53173.74
623.879	53207.87
624.234	52965.16
624.589	53116.8
624.945	53188.43
625.3	53191.6
625.655	53209.9
626.01	53170.58
626.365	53251.03
626.72	53084.48
627.075	53098.94
627.43	53128.32
627.785	53105.5
628.14	53140.75
628.495	53130.58
628.85	53065.72
629.205	52905.5
629.559	53140.52
629.914	52941.66
630.269	52993.18
630.623	52842.23
630.978	52787.31
631.332	52915.9
631.687	52905.95
632.041	52774.21
632.396	52811.27
632.75	52748.9
633.104	52823.47
633.459	52571.27
633.813	52589.13
634.167	52566.08
634.521	52696.69
634.875	52612.63
635.229	52493.76
635.583	52422.35
635.937	52359.53
636.291	52326.76
636.645	52348.91
636.999	52212.19
637.352	52276.59
637.706	52182.36
638.06	52271.62
638.413	52126.09
638.767	51974.45
639.121	52117.05
639.474	51868.47
639.828	51893.32
640.181	51967.67
640.534	51903.49
640.888	51924.51
641.241	51666.44
641.594	51755.7
641.947	51800.45
642.301	51651.3
642.654	51726.55
643.007	51663.27
643.36	51650.17
643.713	51599.55
644.066	51704.18
644.419	51280.69
644.771	50918.44
645.124	50573.59
645.477	50440.03
645.83	50409.3
646.182	50418.56
646.535	50334.04
646.888	50599.35
647.24	50497.2
647.593	50663.3
647.945	50586.47
648.298	50359.58
648.65	50321.84
649.002	50178.34
649.355	50169.53
649.707	49956.43
650.059	50098.34
650.411	50443.19
650.763	50621.27
651.115	50948.04
651.467	50873.24
651.819	50701.72
652.171	50642.51
652.523	50569.07
652.875	50578.33
653.227	50375.62
653.578	50628.95
653.93	50611.1
654.282	50449.07
654.633	50350.54
654.985	50390.09
655.337	50420.6
655.688	50332.91
656.039	50440.03
656.391	50079.81
656.742	50216.08
657.094	50214.5
657.445	50175.18
657.796	50091.34
658.147	50055.41
658.498	50013.6
658.849	50086.82
659.2	49974.05
659.551	49939.03
659.902	50050.66
660.253	49875.3
660.604	49911
660.955	49904
661.306	49996.65
661.656	49835.3
662.007	49780.61
662.358	49863.1
662.708	49723.89
663.059	49687.28
663.409	49520.05
663.76	49887.28
664.11	49751.01
664.461	49938.8
664.811	49766.83
665.161	49698.58
665.511	49590.56
665.862	49548.08
666.212	49635.53
666.562	49657.45
666.912	49515.53
667.262	49444.12
667.612	49361.87
667.962	49506.27
668.312	49435.54
668.662	49530.68
669.011	49308.76
669.361	49449.77
669.711	49246.16
670.06	49241.87
670.41	49118.93
670.76	49165.03
671.109	49148.54
671.459	49115.32
671.808	49075.77
672.157	49212.04
672.507	48922.33
672.856	48946.06
673.205	48893.4
673.554	49078.94
673.904	48890.24
674.253	49130.91
674.602	49088.88
674.951	48313.98
675.3	48097.72
675.649	48789.45
675.998	48767.08
676.346	48763.69
676.695	48778.38
677.044	48512.4
677.393	48709.45
677.741	48711.94
678.09	48620.19
678.438	48504.71
678.787	48647.99
679.135	48483.7
679.484	48296.81
679.832	48404.83
680.181	48259.97
680.529	48352.63
680.877	48138.4
681.225	48172.52
681.573	48279.63
681.922	48057.27
682.27	47922.36
682.618	47922.36
682.966	47892.07
683.314	47859.31
683.661	47854.33
684.009	47404.63
684.357	47564.63
684.705	47363.05
685.053	47512.88
685.4	47440.11
685.748	47274.92
686.095	47262.03
686.443	46967.13
686.79	46967.35
687.138	46966
687.485	46959.22
687.832	46940.23
688.18	46878.54
688.527	46709.05
688.874	46640.81
689.221	46387.25
689.568	46101.61
689.915	46024.33
690.262	46053.7
690.609	46043.76
690.956	45994.04
691.303	45905.46
691.65	45695.3
691.997	45751.11
692.344	45546.37
692.69	45382.08
693.037	45369.43
693.383	45075.88
693.73	45197.91
694.077	44978.93
694.423	44960.4
694.769	44995.43
695.116	44716.79
695.462	44640.18
695.808	44333.98
696.155	44560.86
696.501	44333.98
696.847	44245.16
697.193	43956.81
697.539	44149.35
697.885	43745.29
698.231	43804.95
698.577	43826.64
698.923	43535.13
699.269	43358.86
699.614	43299.88
699.96	43182.37
700.306	43204.74
700.651	43016.5
700.997	42961.58
701.342	42699.67
701.688	42795.71
702.033	42626.9
702.379	42520.46
702.724	42300.36
703.069	42581.71
703.415	42097.65
703.76	42018.33
704.105	42013.58
704.45	41875.28
704.795	41638
705.14	41596.42
705.485	41614.72
705.83	41442.98
706.175	41452.92
706.52	41228.29
706.865	41183.55
707.209	40905.37
707.554	40925.25
707.899	40899.72
708.243	40706.73
708.588	40722.32
708.932	40451.14
709.277	40522.55
709.621	40329.56
709.966	40166.85
710.31	40219.51
710.654	39880.99
710.998	40078.72
711.342	40053.18
711.687	39771.16
712.031	39818.61
712.375	39530.94
712.719	39734.1
713.063	39546.3
713.407	39589.69
713.75	39153.55
714.094	39316.93
714.438	39025.87
714.782	39171.63
715.125	38970.95
715.469	39056.15
715.812	38722.37
716.156	38593.79
716.499	38598.08
716.843	38574.13
717.186	38455.49
717.53	38669.72
717.873	38584.97
718.216	38387.92
718.559	38180.24
718.902	37992.22
719.246	38051.43
719.589	37972.11
719.932	37891.21
720.275	37862.06
720.617	37653.02
720.96	37631.1
721.303	37773.24
721.646	37668.84
721.989	37265.69
722.331	37490.54
722.674	37486.25
723.016	37459.35
723.359	37353.14
723.701	37204.22
724.044	37119.25
724.386	36851.46
724.729	36986.15
725.071	36987.28
725.413	36887.17
725.755	36845.36
726.097	36719.49
726.439	36374.86
726.782	36502.32
727.124	36694.4
727.465	36312.04
727.807	36402.21
728.149	36328.08
728.491	36331.47
728.833	36230.69
729.175	36173.96
729.516	35931.03
729.858	35971.71
730.199	36024.82
730.541	35773.3
730.882	35693.07
731.224	35929
731.565	35711.83
731.906	35622.57
732.248	35526.52
732.589	35409.69
732.93	35189.13
733.271	35421.67
733.612	35369.24
733.953	35358.84
734.294	35242.01
734.635	35057.38
734.976	35205.85
735.317	34977.84
735.658	35004.96
735.999	34894.45
736.339	34819.65
736.68	34930.15
737.021	34771.97
737.361	34601.12
737.702	34867.33
738.042	34758.86
738.383	34574.23
738.723	34634.12
739.063	34351.64
739.404	34550.5
739.744	34380.34
740.084	34278.65
740.424	34258.53
740.764	34181.7
741.104	34321.58
741.444	34007.47
741.784	33812.22
742.124	34047.01
742.464	33970.86
742.804	33672.11
743.143	33590.53
743.483	33717.53
743.823	33593.69
744.162	33632.79
744.502	33663.3
744.841	33469.18
745.181	33543.07
745.52	33350.99
745.86	33393.25
746.199	33313.47
746.538	33186.92
746.877	33335.39
747.216	33218.79
747.556	32907.84
747.895	33029.19
748.234	32890.66
748.573	32875.97
748.911	32681.4
749.25	32608.18
749.589	32463.1
749.928	32500.84
750.267	32485.02
750.605	32378.36
750.944	32405.25
751.283	32225.37
751.621	32431.92
751.96	32155.09
752.298	32074.41
752.636	32032.38
752.975	31859.95
753.313	31757.36
753.651	31746.06
753.989	31650.24
754.327	31591.49
754.666	31523.01
755.004	31497.7
755.342	31595.78
755.679	31415.67
756.017	31297.93
756.355	31328.22
756.693	31151.72
757.031	31078.28
757.368	30902.92
757.706	30977.04
758.044	30938.62
758.381	30912.86
758.719	30615.01
759.056	30667.89
759.394	30561.68
759.731	30385.64
760.068	30533.43
760.405	30233.78
760.743	30074.92
761.08	30233.56
761.417	30007.35
761.754	29930.96
762.091	29914.92
762.428	29741.36
762.765	29572.78
763.102	29588.6
763.438	29493.91
763.775	29171.66
764.112	29359.23
764.449	29396.74
764.785	29243.98
765.122	28949.97
765.458	28930.76
765.795	29019.35
766.131	28780.26
766.467	28713.37
766.804	28393.38
767.14	28377.33
767.476	28407.16
767.812	28186.6
768.148	28229.99
768.485	27957.46
768.821	27852.83
769.157	27715.66
769.492	27831.13
769.828	27676.33
770.164	27456.23
770.5	27445.15
770.836	27377.13
771.171	27204.93
771.507	27176.91
771.842	26951.16
772.178	27007.2
772.513	26853.76
772.849	26875.68
773.184	26811.05
773.519	26691.05
773.855	26497.83
774.19	26385.75
774.525	26363.83
774.86	26301.46
775.195	26153.66
775.53	26011.97
775.865	25907.57
776.2	25647.91
776.535	25522.04
776.87	25603.17
777.205	25493.79
777.539	25346.23
777.874	25356.17
778.209	25219.68
778.543	25082.73
778.878	25031.43
779.212	24972.22
779.547	24753.02
779.881	24824.66
780.215	24659.69
780.55	24692.23
780.884	24457.66
781.218	24413.37
781.552	24398
781.886	24237.1
782.22	24171.34
782.554	24025.81
782.888	23853.61
783.222	23724.8
783.556	23710.11
783.889	23589.44
784.223	23410.68
784.557	23447.97
784.89	23429.89
785.224	23262.44
785.557	23043.69
785.891	23069.22
786.224	22982.67
786.558	22928.89
786.891	22922.11
787.224	22777.93
787.557	22678.95
787.891	22513.53
788.224	22494.78
788.557	22391.73
788.89	22384.5
789.223	22339.3
789.556	22143.82
789.888	22107.67
790.221	22090.04
790.554	21843.04
790.887	21835.13
791.219	21769.6
791.552	21699.32
791.884	21671.75
792.217	21521.24
792.549	21481.92
792.882	21295.03
793.214	21193.12
793.546	21227.92
793.879	21168.26
794.211	20964.65
794.543	21014.59
794.875	20848.72
795.207	20978.88
795.539	20911.31
795.871	20869.28
796.203	20690.3
796.535	20522.4
796.867	20510.87
797.198	20528.5
797.53	20406.02
797.862	20221.16
798.193	20236.3
798.525	20273.37
798.856	20201.05
799.188	19976.65
799.519	19891.68
799.85	19844.45
800.182	19800.84
800.513	19767.62
800.844	19630.22
801.175	19858.69
801.506	19693.27
801.837	19636.09
802.168	19479.26
802.499	19390.45
802.83	19241.3
803.161	19278.36
803.491	19244.47
803.822	19170.8
804.153	19116.79
804.483	18860.97
804.814	18878.83
805.145	18857.36
805.475	18798.83
805.805	18772.61
806.136	18736.46
806.466	18652.84
806.796	18655.1
807.126	18460.53
807.457	18467.76
807.787	18515.9
808.117	18394.54
808.447	18264.83
808.777	18316.13
809.107	18153.2
809.436	18112.74
809.766	18108.45
810.096	18094.67
810.426	18006.53
810.755	18004.95
811.085	17950.71
811.414	17903.03
811.744	17747.56
812.073	17742.36
812.403	17757.27
812.732	17585.3
813.061	17571.06
813.39	17466.89
813.719	17433.21
814.049	17552.53
814.378	17389.6
814.707	17325.87
815.036	17313.9
815.365	17227.57
815.693	17161.58
816.022	17120.45
816.351	17053.11
816.68	17015.37
817.008	17026.22
817.337	16915.94
817.665	16856.05
817.994	16966.79
818.322	16904.19
818.651	16748.03
818.979	16654.25
819.307	16806.34
819.636	16738.32
819.964	16625.55
820.292	16698.32
820.62	16637.53
820.948	16516.4
821.276	16582.61
821.604	16484.09
821.932	16521.83
822.259	16594.82
822.587	16510.53
822.915	16480.7
823.243	16501.71
823.57	16470.53
823.898	16518.66
824.225	16502.84
824.553	16467.14
824.88	16483.41
825.207	16448.61
825.535	16313.7
825.862	16444.31
826.189	16399.34
826.516	16403.86
826.843	16488.38
827.17	16393.92
827.497	16407.25
827.824	16381.49
828.151	16491.54
828.478	16306.46
828.805	16432.79
829.131	16296.07
829.458	16327.71
829.785	16208.61
830.111	16309.18
830.438	16328.61
830.764	16401.6
831.09	16350.76
831.417	16291.78
831.743	16332.45
832.069	16331.32
832.395	16280.7
832.722	16322.96
833.048	16244.77
833.374	16233.7
833.7	16258.33
834.026	16249.29
834.351	16327.25
834.677	16200.48
835.003	16171.55
835.329	16193.92
835.654	16142.85
835.98	16121.38
836.306	16091.1
836.631	16057.43
836.956	16103.08
837.282	16133.36
837.607	15989.64
837.932	16011.33
838.258	15959.81
838.583	15969.98
838.908	15908.73
839.233	15828.28
839.558	15870.54
839.883	15810.66
840.208	15831.67
840.533	15831
840.858	15856.31
841.182	15792.58
841.507	15709.87
841.832	15610.44
842.156	15654.73
842.481	15591.91
842.805	15504.9
843.13	15583.77
843.454	15475.98
843.778	15437.33
844.103	15441.63
844.427	15418.13
844.751	15491.57
845.075	15395.3
845.399	15320.28
845.723	15184.01
846.047	15231.69
846.371	15171.58
846.695	15150.79
847.019	15095.65
847.343	14875.77
847.666	14956.67
847.99	14842.55
848.313	14803.9
848.637	14815.43
848.96	14694.3
849.284	14717.35
849.607	14541.09
849.931	14577.47
850.254	14513.52
850.577	14346.06
850.9	14364.59
851.223	14319.85
851.546	14219.74
851.869	14107.2
852.192	14174.77
852.515	14019.29
852.838	13987.65
853.161	13920.09
853.483	13906.08
853.806	13895.91
854.129	13850.94
854.451	13798.28
854.774	13746.31
855.096	13666.08
855.419	13635.8
855.741	13667.21
856.063	13523.26
856.385	13518.06
856.708	13441.45
857.03	13535.24
857.352	13457.27
857.674	13346.32
857.996	13274.68
858.318	13262.7
858.64	13297.5
858.961	13256.83
859.283	13204.62
859.605	13112.65
859.926	13201.69
860.248	13108.58
860.57	13101.35
860.891	13053.67
861.212	13055.02
861.534	12997.85
861.855	12918.08
862.176	12957.85
862.498	12973.9
862.819	12975.03
863.14	12915.82
863.461	12980.68
863.782	12836.05
864.103	12869.49
864.424	12752.43
864.745	12717.63
865.065	12727.57
865.386	12740.68
865.707	12630.63
866.027	12754.24
866.348	12652.1
866.668	12541.14
866.989	12628.37
867.309	12518.77
867.63	12545.66
867.95	12539.11
868.27	12416.17
868.59	12454.81
868.91	12475.6
869.23	12469.28
869.55	12399.67
869.87	12455.72
870.19	12527.13
870.51	12463.85
870.83	12413.91
871.15	12390.86
871.469	12357.19
871.789	12406
872.109	12336.4
872.428	12281.71
872.748	12335.72
873.067	12300.69
873.386	12259.11
873.706	12236.06
874.025	12271.54
874.344	12154.26
874.663	12263.18
874.982	12195.61
875.301	12197.65
875.62	12055.28
875.939	12148.16
876.258	12169.85
876.577	12062.51
876.896	12112.22
877.214	12079.23
877.533	12022.73
877.852	12082.62
878.17	12029.29
878.489	11993.36
878.807	11989.06
879.125	11952
879.444	11911.55
879.762	11895.05
880.08	11886.69
880.398	11810.31
880.716	11837.2
881.034	11829.97
881.352	11845.11
881.67	11812.57
881.988	11866.35
882.306	11775.96
882.624	11701.84
882.941	11672.46
883.259	11670.43
883.577	11672.91
883.894	11603.54
884.212	11629.3
884.529	11622.75
884.846	11554.27
885.164	11614.84
885.481	11535.52
885.798	11520.6
886.115	11442.86
886.432	11454.16
886.75	11397.21
887.067	11453.03
887.383	11320.38
887.7	11336.65
888.017	11288.97
888.334	11298.69
888.651	11251.46
888.967	11197.22
889.284	11233.15
889.6	11221.4
889.917	11103.89
890.233	11180.5
890.55	11085.36
890.866	11067.51
891.182	11035.64
891.498	10982.76
891.815	10955.64
892.131	10958.81
892.447	10944.35
892.763	10821.64
893.079	10847.4
893.395	10856.21
893.71	10846.72
894.026	10719.04
894.342	10761.3
894.657	10655.99
894.973	10660.96
895.289	10624.81
895.604	10627.74
895.92	10579.61
896.235	10558.82
896.55	10476.79
896.865	10435.21
897.181	10415.32
897.496	10445.38
897.811	10362.44
898.126	10294.64
898.441	10271.82
898.756	10351.14
899.071	10192.73
899.386	10202.67
899.7	10152.73
900.015	10122.9
900.33	10074.76
900.644	10065.5
900.959	10105.5
901.273	10051.71
901.588	10053.07
901.902	9989.12
902.216	9952.28
902.531	9932.17
902.845	9860.53
903.159	9889.01
903.473	9838.39
903.787	9705.73
904.101	9626.64
904.415	9710.25
904.729	9725.85
905.042	9550.03
905.356	9576.7
905.67	9543.25
905.984	9582.35
906.297	9505.74
906.611	9398.62
906.924	9405.63
907.237	9302.35
907.551	9343.03
907.864	9306.65
908.177	9305.07
908.491	9239.76
908.804	9223.03
909.117	9122.92
909.43	9137.16
909.743	9138.06
910.056	9061
910.368	8978.97
910.681	8954.11
910.994	8904.85
911.307	8879.09
911.619	8885.87
911.932	8881.8
912.244	8831.63
912.557	8784.85
912.869	8739.43
913.181	8714.8
913.494	8783.05
913.806	8677.29
914.118	8664.63
914.43	8586.89
914.742	8595.03
915.054	8565.65
915.366	8533.79
915.678	8376.28
915.99	8488.36
916.302	8388.93
916.613	8312.55
916.925	8361.36
917.236	8372.66
917.548	8280.46
917.859	8237.3
918.171	8218.54
918.482	8134.02
918.794	8072.1
919.105	8070.75
919.416	8031.2
919.727	8073.01
920.038	7957.08
920.349	7981.26
920.66	7895.16
920.971	7906.23
921.282	7809.51
921.593	7767.03
921.903	7756.63
922.214	7752.34
922.525	7693.81
922.835	7659.01
923.146	7590.08
923.456	7600.7
923.767	7574.04
924.077	7595.73
924.387	7461.95
924.697	7410.65
925.008	7455.17
925.318	7426.7
925.628	7336.53
925.938	7328.62
926.248	7218.12
926.558	7222.41
926.867	7243.43
927.177	7201.84
927.487	7189.19
927.796	7121.39
928.106	7067.38
928.416	7097.44
928.725	7131.11
929.034	7001.17
929.344	7031.68
929.653	6939.93
929.962	6935.41
930.271	6914.62
930.581	6826.49
930.89	6820.84
931.199	6797.56
931.508	6798.24
931.817	6788.52
932.125	6735.64
932.434	6763.66
932.743	6671.01
933.051	6630.11
933.36	6650.45
933.669	6574.97
933.977	6634.4
934.286	6579.94
934.594	6544.91
934.902	6460.62
935.21	6400.28
935.519	6406.39
935.827	6450.68
936.135	6420.4
936.443	6381.75
936.751	6367.97
937.059	6299.5
937.367	6240.74
937.674	6248.65
937.982	6242.1
938.29	6201.19
938.597	6209.33
938.905	6102.44
939.213	6127.52
939.52	6078.94
939.827	6109.9
940.135	5976.11
940.442	5991.48
940.749	5971.59
941.056	5966.4
941.363	5904.25
941.67	5933.18
941.977	5835.55
942.284	5857.7
942.591	5797.81
942.898	5801.2
943.205	5793.52
943.511	5805.5
943.818	5752.39
944.125	5674.43
944.431	5710.58
944.738	5637.37
945.044	5630.81
945.35	5602.56
945.657	5574.09
945.963	5533.41
946.269	5511.04
946.575	5534.54
946.881	5525.28
947.187	5480.31
947.493	5426.75
947.799	5388.11
948.105	5405.51
948.41	5370.71
948.716	5361.44
949.022	5304.27
949.327	5287.32
949.633	5267.66
949.938	5275.79
950.244	5318.73
950.549	5238.28
950.854	5181.11
951.16	5172.75
951.465	5165.29
951.77	5103.82
952.075	5091.39
952.38	5076.93
952.685	5052.3
952.99	5043.71
953.294	4983.6
953.599	5003.26
953.904	4935.01
954.209	4894.11
954.513	4925.29
954.818	4881.91
955.122	4898.4
955.426	4876.26
955.731	4859.08
956.035	4799.2
956.339	4805.98
956.643	4782.25
956.948	4763.04
957.252	4699.09
957.556	4753.55
957.86	4699.99
958.163	4702.93
958.467	4650.73
958.771	4670.61
959.075	4622.93
959.378	4577.51
959.682	4556.94
959.985	4552.42
960.289	4519.88
960.592	4499.54
960.896	4512.88
961.199	4505.42
961.502	4485.98
961.805	4430.84
962.108	4394.69
962.411	4435.82
962.714	4395.14
963.017	4372.54
963.32	4361.92
963.623	4316.72
963.926	4332.77
964.228	4301.58
964.531	4260
964.833	4235.14
965.136	4240.11
965.438	4242.6
965.741	4183.84
966.043	4141.36
966.345	4187.23
966.648	4147.69
966.95	4113.11
967.252	4111.53
967.554	4078.31
967.856	4083.51
968.158	4074.92
968.46	4011.87
968.761	4001.7
969.063	4001.7
969.365	3973.23
969.666	3957.41
969.968	3926.45
970.269	3918.32
970.571	3940.24
970.872	3954.02
971.174	3895.26
971.475	3896.85
971.776	3886
972.077	3837.87
972.378	3821.14
972.679	3788.15
972.98	3786.34
973.281	3779.79
973.582	3751.99
973.883	3723.97
974.183	3699.11
974.484	3690.98
974.785	3647.81
975.085	3636.06
975.386	3625.67
975.686	3598.55
975.986	3624.99
976.287	3667.25
976.587	3571.66
976.887	3562.62
977.187	3549.29
977.487	3553.8
977.787	3493.24
978.087	3494.6
978.387	3487.59
978.687	3485.11
978.987	3421.15
979.286	3409.85
979.586	3413.7
979.885	3402.17
980.185	3363.98
980.484	3356.3
980.784	3325.79
981.083	3350.87
981.382	3353.81
981.682	3289.63
981.981	3272
982.28	3296.18
982.579	3256.19
982.878	3272.23
983.177	3253.47
983.475	3166.02
983.774	3218.45
984.073	3213.7
984.372	3162.18
984.67	3181.39
984.969	3154.49
985.267	3109.97
985.566	3102.07
985.864	3108.62
986.162	3076.53
986.461	3096.87
986.759	3109.75
987.057	3026.81
987.355	3061.16
987.653	3039.47
987.951	2999.47
988.249	2991.11
988.547	2982.75
988.844	2955.63
989.142	2984.78
989.44	2950.66
989.737	2922.64
990.035	2905.46
990.332	2880.83
990.63	2896.65
990.927	2876.53
991.224	2858.23
991.521	2898.45
991.819	2841.73
992.116	2802.41
992.413	2813.71
992.71	2752.02
993.006	2787.05
993.303	2774.39
993.6	2733.49
993.897	2744.79
994.193	2758.12
994.49	2711.12
994.787	2705.47
995.083	2680.38
995.379	2687.39
995.676	2658.91
995.972	2661.62
996.268	2660.27
996.565	2621.63
996.861	2614.39
997.157	2550.22
997.453	2611
997.749	2547.73
998.044	2555.41
998.34	2533.27
998.636	2560.16
998.932	2504.57
999.227	2504.11
999.523	2483.55
999.818	2494.85
1000.114	2469.54
1000.409	2416.43
1000.704	2399.48
1001	2415.53
1001.295	2385.02
1001.59	2374.63
1001.885	2412.37
1002.18	2352.48
1002.475	2320.16
1002.77	2343.89
1003.065	2302.54
1003.359	2354.97
1003.654	2290.79
1003.949	2269.09
1004.243	2247.4
1004.538	2247.85
1004.832	2240.39
1005.127	2223.44
1005.421	2211.24
1005.715	2204.46
1006.009	2196.33
1006.304	2208.98
1006.598	2161.53
1006.892	2162.43
1007.186	2171.69
1007.48	2136.67
1007.773	2098.7
1008.067	2150.9
1008.361	2107.52
1008.655	2083.11
1008.948	2053.96
1009.242	2040.85
1009.535	2051.7
1009.829	2007.18
1010.122	2056.67
1010.415	2013.96
1010.708	1994.52
1011.001	2026.16
1011.295	1968.54
1011.588	1984.58
1011.881	1949.78
1012.173	1966.28
1012.466	1928.08
1012.759	1919.95
1013.052	1932.15
1013.344	1898.71
1013.637	1913.4
1013.93	1882.44
1014.222	1878.37
1014.514	1837.24
1014.807	1831.14
1015.099	1838.82
1015.391	1802.66
1015.683	1817.58
1015.976	1803.57
1016.268	1776
1016.56	1775.32
1016.851	1766.96
1017.143	1742.78
1017.435	1741.2
1017.727	1739.84
1018.018	1720.63
1018.31	1737.36
1018.602	1704.36
1018.893	1707.98
1019.185	1638.83
1019.476	1657.13
1019.767	1661.88
1020.058	1652.16
1020.35	1611.26
1020.641	1608.09
1020.932	1585.72
1021.223	1609.22
1021.514	1605.16
1021.804	1591.6
1022.095	1558.38
1022.386	1557.47
1022.677	1577.81
1022.967	1515.67
1023.258	1521.32
1023.548	1507.53
1023.839	1487.19
1024.129	1484.25
1024.419	1455.78
1024.709	1455.55
1025	1451.04
1025.29	1454.88
1025.58	1439.51
1025.87	1440.19
1026.16	1413.75
1026.449	1394.09
1026.739	1404.93
1027.029	1376.69
1027.319	1383.47
1027.608	1389.57
1027.898	1376.91
1028.187	1353.18
1028.477	1339.4
1028.766	1343.92
1029.055	1324.48
1029.344	1300.98
1029.634	1284.94
1029.923	1318.16
1030.212	1273.64
1030.501	1286.29
1030.79	1271.6
1031.078	1239.29
1031.367	1243.13
1031.656	1246.07
1031.945	1223.7
1032.233	1218.5
1032.522	1261.44
1032.81	1215.56
1033.099	1217.14
1033.387	1185.96
1033.675	1187.54
1033.963	1181.44
1034.251	1150.93
1034.54	1124.94
1034.828	1138.5
1035.116	1140.76
1035.403	1135.56
1035.691	1129.01
1035.979	1119.29
1036.267	1101.44
1036.554	1084.49
1036.842	1096.02
1037.129	1097.37
1037.417	1075.23
1037.704	1080.88
1037.992	1086.75
1038.279	1078.62
1038.566	1048.79
1038.853	1048.79
1039.14	1048.79
