Data from foil_FLMS001491_053.txt Node
Date: Tue Feb 07 11:27:11 GMT 2017
User: dcchb
Spectrometer: FLMS00149
Trigger mode: 0
Integration Time (sec): 2.000000E-2
Scans to average: 10
Electric dark correction enabled: true
Nonlinearity correction enabled: false
Boxcar width: 0
XAxis mode: Wavelengths
Number of Pixels in Spectrum: 2048
>>>>>Begin Spectral Data<<<<<
341.393	-19.58
341.776	-19.58
342.16	-19.58
342.543	-75.39
342.927	-63.64
343.31	-80.59
343.693	-64.77
344.077	-65.68
344.46	-44.43
344.843	-48.28
345.226	-34.94
345.61	-36.3
345.993	-19.58
346.376	-12.57
346.759	15.45
347.142	41.44
347.525	45.73
347.908	60.65
348.291	74.21
348.674	82.34
349.057	87.31
349.44	114.88
349.823	129.35
350.206	177.71
350.588	218.84
350.971	244.82
351.354	270.13
351.737	262.45
352.119	278.72
352.502	314.43
352.884	319.17
353.267	334.31
353.65	326.86
354.032	353.52
354.414	355.1
354.797	376.8
355.179	364.59
355.562	374.31
355.944	379.74
356.326	385.16
356.709	410.7
357.091	393.75
357.473	405.05
357.855	405.95
358.238	414.09
358.62	380.19
359.002	418.15
359.384	404.82
359.766	421.54
360.148	412.05
360.53	438.94
360.912	396.46
361.294	392.62
361.676	403.24
362.057	409.79
362.439	397.81
362.821	382
363.203	379.51
363.584	433.75
363.966	427.42
364.348	399.4
364.729	401.66
365.111	385.39
365.493	407.76
365.874	388.32
366.256	398.49
366.637	422.22
367.019	419.96
367.4	387.87
367.781	432.39
368.163	425.61
368.544	422.9
368.925	409.34
369.306	413.86
369.688	403.69
370.069	431.71
370.45	417.93
370.831	420.19
371.212	445.72
371.593	420.41
371.974	419.73
372.355	449.56
372.736	439.85
373.117	443.91
373.498	467.42
373.879	452.28
374.26	435.55
374.641	444.37
375.021	456.57
375.402	465.61
375.783	473.97
376.163	501.99
376.544	492.5
376.925	483.01
377.305	482.78
377.686	501.31
378.066	495.66
378.447	497.92
378.827	511.26
379.208	524.14
379.588	531.6
379.968	523.69
380.349	534.76
380.729	524.59
381.109	534.31
381.489	544.48
381.87	541.77
382.25	534.99
382.63	557.58
383.01	539.28
383.39	563.01
383.77	564.82
384.15	562.56
384.53	564.82
384.91	610.01
385.29	589.45
385.67	619.5
386.049	616.34
386.429	614.76
386.809	607.3
387.189	623.35
387.568	617.02
387.948	618.15
388.328	658.82
388.707	653.4
389.087	657.92
389.466	677.81
389.846	720.29
390.225	677.58
390.605	680.07
390.984	697.47
391.363	701.31
391.743	721.87
392.122	719.61
392.501	758.26
392.881	750.8
393.26	761.65
393.639	755.09
394.018	761.19
394.397	779.73
394.776	804.13
395.155	784.7
395.534	774.98
395.913	794.64
396.292	820.4
396.671	826.5
397.05	841.42
397.429	849.78
397.808	861.98
398.186	870.57
398.565	876.67
398.944	886.39
399.323	878.48
399.701	879.38
400.08	910.12
400.458	931.59
400.837	934.75
401.215	931.59
401.594	951.02
401.972	952.38
402.351	974.07
402.729	975.88
403.107	983.79
403.486	990.34
403.864	1018.14
404.242	1007.97
404.62	1035.54
404.999	1057.68
405.377	1058.81
405.755	1057.23
406.133	1098.59
406.511	1090.9
406.889	1107.17
407.267	1142.65
407.645	1175.42
408.023	1189.21
408.401	1169.09
408.779	1193.95
409.156	1208.41
409.534	1238.24
409.912	1247.06
410.29	1276.89
410.667	1299.03
411.045	1298.58
411.422	1333.16
411.8	1342.87
412.178	1365.25
412.555	1409.09
412.933	1399.37
413.31	1415.41
413.687	1439.82
414.065	1451.8
414.442	1479.14
414.819	1490.67
415.197	1512.59
415.574	1540.16
415.951	1549.42
416.328	1534.28
416.705	1560.5
417.082	1570.66
417.46	1616.09
417.837	1623.09
418.214	1624.22
418.591	1673.49
418.967	1659.48
419.344	1710.32
419.721	1695.63
420.098	1727.5
420.475	1768.85
420.852	1785.8
421.228	1786.25
421.605	1809.75
421.982	1839.13
422.358	1869.41
422.735	1853.6
423.111	1899.47
423.488	1934.27
423.864	1939.47
424.241	1950.77
424.617	1965.23
424.994	2029.86
425.37	1994.61
425.746	2054.72
426.123	2086.13
426.499	2103.31
426.875	2150.08
427.251	2152.12
427.627	2201.83
428.003	2225.11
428.379	2271.89
428.756	2301.72
429.132	2328.84
429.507	2370.19
429.883	2388.04
430.259	2422.17
430.635	2470.08
431.011	2507.59
431.387	2504.2
431.763	2553.92
432.138	2571.32
432.514	2670.07
432.89	2656.96
433.265	2735.38
433.641	2713.69
434.016	2803.17
434.392	2819.22
434.767	2875.72
435.143	2866.45
435.518	2928.37
435.894	2971.76
436.269	3010.18
436.644	3053.11
437.02	3105.09
437.395	3120.68
437.77	3171.75
438.145	3216.72
438.52	3269.38
438.895	3275.48
439.271	3313.22
439.646	3375.59
440.021	3382.82
440.395	3441.8
440.77	3431.41
441.145	3433.67
441.52	3530.84
441.895	3554.57
442.27	3565.87
442.645	3609.71
443.019	3636.37
443.394	3630.72
443.769	3723.6
444.143	3712.76
444.518	3809.25
444.892	3800.21
445.267	3814.67
445.641	3869.14
446.016	3913.43
446.39	3937.16
446.764	4009.92
447.139	3980.32
447.513	4052.63
447.887	4064.61
448.262	4095.12
448.636	4115
449.01	4182.8
449.384	4239.3
449.758	4323.59
450.132	4315.68
450.506	4358.61
450.88	4406.07
451.254	4415.79
451.628	4463.47
452.002	4555.45
452.376	4582.11
452.75	4591.6
453.123	4694.88
453.497	4758.15
453.871	4830.01
454.244	4872.5
454.618	4922.44
454.992	4979.61
455.365	4945.94
455.739	5164.02
456.112	5154.75
456.486	5162.89
456.859	5213.96
457.232	5321.3
457.606	5314.3
457.979	5417.57
458.352	5520.39
458.725	5555.64
459.099	5590.67
459.472	5735.75
459.845	5739.14
460.218	5857.33
460.591	5868.86
460.964	5938.69
461.337	6036.76
461.71	6090.09
462.083	6231.56
462.456	6214.16
462.829	6265.91
463.201	6373.7
463.574	6380.26
463.947	6493.25
464.32	6663.19
464.692	6691.43
465.065	6726.01
465.438	6829.96
465.81	6892.11
466.183	6940.69
466.555	7163.51
466.928	7234.7
467.3	7228.37
467.672	7344.75
468.045	7532.54
468.417	7554.24
468.789	7630.39
469.161	7739.32
469.534	7872.87
469.906	7990.61
470.278	8057.27
470.65	8138.85
471.022	8337.49
471.394	8467.88
471.766	8602.12
472.138	8602.34
472.51	8801.44
472.882	9012.5
473.253	9136.12
473.625	9195.32
473.997	9306.51
474.369	9485.94
474.74	9530.68
475.112	9755.31
475.484	9863.55
475.855	10163.89
476.227	10193.72
476.598	10459.02
476.97	10527.72
477.341	10791.44
477.713	10935.39
478.084	10973.81
478.455	11304.42
478.827	11352.78
479.198	11749.61
479.569	11765.43
479.94	12100.11
480.311	12273.21
480.682	12559.75
481.053	12751.39
481.424	13023.47
481.795	13118.16
482.166	13357.25
482.537	13536.9
482.908	13807.18
483.279	13926.05
483.65	14234.51
484.021	14462.53
484.391	14669.53
484.762	14783.2
485.133	15050.99
485.503	15137.99
485.874	15541.37
486.244	15648.94
486.615	16054.35
486.985	16132.32
487.356	16444.62
487.726	16556.03
488.097	16935.46
488.467	16972.97
488.837	17448.89
489.207	17520.53
489.578	17866.28
489.948	18128.2
490.318	18422.88
490.688	18333.16
491.058	18648.86
491.428	18941.73
491.798	19133.37
492.168	19494.26
492.538	19486.58
492.908	19799.79
493.278	20033.91
493.648	20176.05
494.017	20482.03
494.387	20611.97
494.757	20739.65
495.126	20958.86
495.496	21071.4
495.866	21218.51
496.235	21480.65
496.605	21717.93
496.974	21755.67
497.344	22085.61
497.713	22298.03
498.082	22404.02
498.452	22592.26
498.821	22757
499.19	22850.56
499.559	23105.47
499.928	23261.62
500.298	23463.65
500.667	23642.17
501.036	23613.25
501.405	24007.14
501.774	23925.56
502.143	24257.75
502.512	24308.15
502.88	24499.33
503.249	24616.84
503.618	24876.49
503.987	24898.64
504.356	25124.62
504.724	25291.4
505.093	25439.64
505.462	25500.21
505.83	25748.33
506.199	25990.14
506.567	26307.64
506.936	26205.72
507.304	26592.38
507.672	26649.55
508.041	26947.85
508.409	27069.43
508.777	27420.15
509.145	27654.95
509.514	27703.54
509.882	27914.83
510.25	27976.3
510.618	28222.17
510.986	28257.19
511.354	28480.01
511.722	28747.58
512.09	28926.56
512.458	28988.48
512.826	29426.2
513.193	29566.31
513.561	29745.29
513.929	29955
514.297	30185.51
514.664	30292.85
515.032	30416.46
515.4	30733.06
515.767	30805.38
516.135	31174.41
516.502	30946.84
516.869	31582.08
517.237	31746.82
517.604	31817.1
517.972	32105.68
518.339	32400.14
518.706	32474.49
519.073	32614.59
519.44	32812.1
519.808	33190.85
520.175	33293.67
520.542	33798.97
520.909	33852.08
521.276	34003.48
521.643	34363.7
522.009	34460.2
522.376	34739.96
522.743	34934.08
523.11	35310.34
523.477	35600.73
523.843	35882.08
524.21	36209.3
524.577	36490.42
524.943	36604.09
525.31	36827.82
525.676	37183.51
526.043	37402.27
526.409	37659.43
526.776	37923.83
527.142	38075.92
527.508	38431.84
527.874	38553.2
528.241	38764.04
528.607	38844.04
528.973	39245.61
529.339	39319.5
529.705	39799.94
530.071	40100.5
530.437	40275.41
530.803	40441.96
531.169	40570.32
531.535	40665
531.901	40834.04
532.267	41067.03
532.632	41353.8
532.998	41366.45
533.364	41684.19
533.73	41813.9
534.095	42116.94
534.461	41991.75
534.826	42384.06
535.192	42664.05
535.557	42865.85
535.923	42943.81
536.288	43106.07
536.653	43368.44
537.019	43244.6
537.384	43547.41
537.749	43646.85
538.114	43860.85
538.479	43908.99
538.845	44040.28
539.21	43963
539.575	44113.73
539.94	44406.37
540.305	44657.44
540.67	44653.37
541.034	44737.89
541.399	45015.17
541.764	45105.34
542.129	45198.67
542.494	45356.41
542.858	45367.25
543.223	45609.96
543.587	45793.23
543.952	45840.01
544.316	45913.45
544.681	46007.91
545.045	46237.74
545.41	46437.06
545.774	46601.35
546.138	46552.76
546.503	46700.33
546.867	46697.39
547.231	47076.81
547.595	47086.3
547.959	47186.64
548.324	47283.14
548.688	47514.77
549.052	47610.36
549.416	47542.11
549.779	47796.79
550.143	47817.36
550.507	48044.47
550.871	48120.63
551.235	48108.2
551.599	48234.97
551.962	48450.34
552.326	48498.92
552.689	48811
553.053	48516.78
553.417	48766.03
553.78	49313.59
554.143	49149.07
554.507	49561.95
554.87	49595.39
555.234	49842.16
555.597	49763.75
555.96	49839.45
556.323	50025.66
556.686	50127.13
557.05	50346.11
557.413	50513.56
557.776	50526.21
558.139	50857.05
558.502	50856.83
558.865	50969.37
559.228	51212.98
559.59	51327.32
559.953	51271.28
560.316	51620.65
560.679	51527.09
561.041	51831.04
561.404	51840.98
561.767	52152.39
562.129	52074.2
562.492	52362.1
562.854	52436.45
563.217	52576.1
563.579	52657.46
563.941	52852.03
564.304	52930.67
564.666	53160.72
565.028	53164.79
565.39	53192.58
565.753	53404.33
566.115	53513.03
566.477	53643.19
566.839	53607.49
567.201	53930.19
567.563	53945.33
567.925	54144.65
568.287	54168.15
568.648	54207.47
569.01	54432.78
569.372	54597.29
569.734	54447.69
570.095	54689.27
570.457	54877.74
570.819	54879.77
571.18	54869.83
571.542	54977.85
571.903	54970.16
572.265	55154.57
572.626	55277.95
572.987	55279.08
573.349	55375.58
573.71	55483.82
574.071	55563.6
574.432	55622.13
574.794	55851.05
575.155	55733.76
575.516	55704.61
575.877	55870.48
576.238	56030.93
576.599	56029.8
576.96	55936.92
577.32	56010.59
577.681	56090.59
578.042	56177.36
578.403	56131.72
578.763	56199.74
579.124	56225.73
579.485	56324.25
579.845	56312.73
580.206	56321.32
580.566	56314.99
580.927	56356.8
581.287	56502.1
581.648	56457.13
582.008	56558.37
582.368	56474.76
582.728	56556.56
583.089	56428.21
583.449	56484.25
583.809	56458.26
584.169	56567.41
584.529	56451.71
584.889	56690.12
585.249	56438.37
585.609	56430.92
585.969	56572.16
586.329	56554.08
586.688	56552.04
587.048	56511.59
587.408	56440.18
587.768	56531.48
588.127	56523.12
588.487	56552.5
588.846	56745.94
589.206	56507.07
589.565	56533.51
589.925	56675.66
590.284	56543.91
590.643	56621.87
591.003	56746.62
591.362	56667.07
591.721	56566.96
592.08	56571.7
592.44	56668.43
592.799	56742.1
593.158	56662.32
593.517	56585.72
593.876	56694.64
594.235	56640.86
594.593	56675.66
594.952	56803.11
595.311	56584.36
595.67	56618.48
596.029	56782.55
596.387	56736.45
596.746	56802.88
597.104	56671.81
597.463	56705.49
597.822	56822.77
598.18	56713.4
598.538	56682.21
598.897	56869.55
599.255	56647.41
599.613	56961.07
599.972	56777.35
600.33	56853.73
600.688	56795.65
601.046	56792.94
601.404	56905.26
601.762	56891.7
602.12	57010.34
602.478	57066.61
602.836	57081.07
603.194	56913.84
603.552	56957.01
603.91	56896.89
604.268	57010.34
604.625	56943.67
604.983	57118.13
605.341	56957.46
605.698	57104.57
606.056	57142.09
606.413	57084.46
606.771	57157.23
607.128	57174.17
607.485	57109.09
607.843	57121.75
608.2	57165.81
608.557	57227.51
608.914	57144.57
609.272	57309.31
609.629	57286.49
609.986	57440.38
610.343	57336.43
610.7	57490.1
611.057	57395.41
611.414	57353.38
611.771	57413.04
612.127	57480.83
612.484	57454.17
612.841	57574.39
613.198	57546.59
613.554	57531.23
613.911	57677.21
614.267	57638.34
614.624	57570.77
614.98	57649.64
615.337	57717.21
615.693	57665.24
616.05	57711.79
616.406	57788.4
616.762	57707.72
617.118	57715.86
617.475	57729.87
617.831	57742.07
618.187	57753.14
618.543	57771
618.899	57912.91
619.255	57855.96
619.611	57808.06
619.967	57850.77
620.323	57863.42
620.678	57767.61
621.034	57707.72
621.39	57701.39
621.746	57749.75
622.101	58047.82
622.457	57843.31
622.812	57838.56
623.168	57829.75
623.523	57868.85
623.879	57913.36
624.234	57646.25
624.589	57764.89
624.945	57737.32
625.3	57797.66
625.655	57781.16
626.01	57766.48
626.365	57721.5
626.72	57680.38
627.075	57737.1
627.43	57752.24
627.785	57590.66
628.14	57653.03
628.495	57706.82
628.85	57682.41
629.205	57624.11
629.559	57714.5
629.914	57538.68
630.269	57538.91
630.623	57432.92
630.978	57319.93
631.332	57448.74
631.687	57510.21
632.041	57408.29
632.396	57391.57
632.75	57253.95
633.104	57205.36
633.459	57166.94
633.813	57138.24
634.167	57085.36
634.521	57170.11
634.875	57171.46
635.229	57095.53
635.583	56993.16
635.937	56962.2
636.291	56968.3
636.645	56991.13
636.999	56811.25
637.352	56960.39
637.706	56692.83
638.06	56731.02
638.413	56750.23
638.767	56676.56
639.121	56769.89
639.474	56584.36
639.828	56522.67
640.181	56580.97
640.534	56462.33
640.888	56389.56
641.241	56296.46
641.594	56332.16
641.947	56430.92
642.301	56221.43
642.654	56225.73
643.007	56214.43
643.36	56149.34
643.713	56173.07
644.066	56171.94
644.419	56034.09
644.771	55821.89
645.124	55645.4
645.477	55552.97
645.83	55384.62
646.182	55246.09
646.535	55175.58
646.888	55207.67
647.24	55054
647.593	55149.6
647.945	55015.59
648.298	54856.04
648.65	54824.63
649.002	54742.37
649.355	54931.52
649.707	54819.66
650.059	54938.75
650.411	55211.06
650.763	55244.28
651.115	55553.2
651.467	55319.08
651.819	55294.9
652.171	55227.11
652.523	55135.81
652.875	55222.59
653.227	55098.07
653.578	55185.75
653.93	55102.59
654.282	54984.85
654.633	54840
654.985	54877.29
655.337	54880.22
655.688	54824.86
656.039	54958.19
656.391	54717.74
656.742	54832.32
657.094	54784.63
657.445	54930.17
657.796	54775.82
658.147	54718.42
658.498	54646.56
658.849	54777.63
659.2	54731.75
659.551	54597.07
659.902	54626.22
660.253	54604.98
660.604	54549.61
660.955	54394.81
661.306	54378.99
661.656	54353.68
662.007	54324.76
662.358	54354.36
662.708	54398.43
663.059	54336.96
663.409	54120.92
663.76	54382.84
664.11	54296.28
664.461	54313.46
664.811	54207.47
665.161	54196.17
665.511	54031.66
665.862	54139
666.212	54230.75
666.562	54152.79
666.912	54177.87
667.262	54149.4
667.612	54126.12
667.962	54110.98
668.312	54049.74
668.662	54203.41
669.011	54118.44
669.361	53941.04
669.711	53906.01
670.06	53954.6
670.41	53775.39
670.76	53816.52
671.109	53974.48
671.459	53790.53
671.808	53665.11
672.157	53772.23
672.507	53515.51
672.856	53469.19
673.205	53584.44
673.554	53617.43
673.904	53485.01
674.253	53599.13
674.602	53521.39
674.951	53162.08
675.3	52932.48
675.649	53430.54
675.998	53358.46
676.346	53290.89
676.695	53461.96
677.044	53240.94
677.393	53229.42
677.741	53186.71
678.09	53130.21
678.438	53049.99
678.787	53205.47
679.135	53166.82
679.484	52881.41
679.832	52928.64
680.181	52749.66
680.529	52900.16
680.877	52733.84
681.225	52694.97
681.573	52900.39
681.922	52572.49
682.27	52495.65
682.618	52516.9
682.966	52469.21
683.314	52534.3
683.661	52359.61
684.009	52162.78
684.357	52160.75
684.705	52146.96
685.053	52140.63
685.4	51973.41
685.748	51864.94
686.095	51914.65
686.443	51625.17
686.79	51630.82
687.138	51629.91
687.485	51638.73
687.832	51441.9
688.18	51497.71
688.527	51354.67
688.874	51235.8
689.221	51212.52
689.568	51059.08
689.915	51053.66
690.262	51048.01
690.609	50902.93
690.956	50790.84
691.303	50657.74
691.65	50564.18
691.997	50532.32
692.344	50293.23
692.69	50265.88
693.037	50136.85
693.383	49980.24
693.73	50101.82
694.077	49850.75
694.423	49792.67
694.769	49636.75
695.116	49427.49
695.462	49325.34
695.808	49292.57
696.155	49439.46
696.501	49084.44
696.847	49098.91
697.193	48804.23
697.539	48947.05
697.885	48586.83
698.231	48351.58
698.577	48483.56
698.923	48349.32
699.269	48282.43
699.614	48147.52
699.96	47993.17
700.306	47976.68
700.651	47675.67
700.997	47702.56
701.342	47716.34
701.688	47509.8
702.033	47450.59
702.379	47382.79
702.724	47284.94
703.069	47388.22
703.415	46864.62
703.76	46861.9
704.105	46850.38
704.45	46599.31
704.795	46458.3
705.14	46312.09
705.485	46384.4
705.83	46219.66
706.175	46230.51
706.52	45994.13
706.865	45769.28
707.209	45828.71
707.554	45689.73
707.899	45803.85
708.243	45521.6
708.588	45437.53
708.932	45161.84
709.277	45077.77
709.621	45099.24
709.966	44980.6
710.31	44963.2
710.654	44687.27
710.998	44786.03
711.342	44670.1
711.687	44583.32
712.031	44316.21
712.375	44146.27
712.719	44201.41
713.063	44094.07
713.407	44040.96
713.75	43857.24
714.094	43773.62
714.438	43540.86
714.782	43678.48
715.125	43369.11
715.469	43445.95
715.812	43378.15
716.156	42986.07
716.499	42989.46
716.843	43004.15
717.186	42754.44
717.53	43024.49
717.873	42845.74
718.216	42710.15
718.559	42720.09
718.902	42415.01
719.246	42408.01
719.589	42393.77
719.932	41987.68
720.275	42059.54
720.617	41968.92
720.96	41877.85
721.303	41990.62
721.646	41911.3
721.989	41757.4
722.331	41738.87
722.674	41616.62
723.016	41703.85
723.359	41624.08
723.701	41594.7
724.044	41314.25
724.386	40951.55
724.729	41210.07
725.071	40944.77
725.413	40914.04
725.755	40993.81
726.097	40712.91
726.439	40450.55
726.782	40396.99
727.124	40603.76
727.465	40446.7
727.807	40437.89
728.149	40133.72
728.491	40114.28
728.833	40108.63
729.175	40149.31
729.516	40101.86
729.858	40032.93
730.199	40112.02
730.541	39838.36
730.882	39938.92
731.224	39844.23
731.565	39379.84
731.906	39551.59
732.248	39475.2
732.589	39226.85
732.93	39244.25
733.271	39171.71
733.612	39224.82
733.953	39056.46
734.294	38928.55
734.635	38749.57
734.976	38808.33
735.317	38541.22
735.658	38714.55
735.999	38735.11
736.339	38560.65
736.68	38483.37
737.021	38319.76
737.361	38304.39
737.702	38396.14
738.042	38319.08
738.383	38117.5
738.723	38244.73
739.063	38030.5
739.404	38036.15
739.744	37980.78
740.084	37771.52
740.424	37795.7
740.764	37633.22
741.104	37735.36
741.444	37560.45
741.784	37374.02
742.124	37375.6
742.464	37346.45
742.804	37261.48
743.143	37214.7
743.483	37149.84
743.823	36998.43
744.162	36972.9
744.502	36891.77
744.841	36630.53
745.181	36854.71
745.52	36656.97
745.86	36645.22
746.199	36446.58
746.538	36365
746.877	36406.81
747.216	36428.05
747.556	36237.32
747.895	36378.34
748.234	36217.44
748.573	36212.47
748.911	36183.77
749.25	36085.24
749.589	35958.01
749.928	35791.91
750.267	35858.12
750.605	35722.08
750.944	35543.1
751.283	35369.55
751.621	35397.12
751.96	35331.59
752.298	35391.24
752.636	35339.49
752.975	35173.17
753.313	35002.78
753.651	35048.2
753.989	34864.25
754.327	34694.54
754.666	34463.81
755.004	34562.11
755.342	34597.59
755.679	34449.35
756.017	34372.51
756.355	34372.74
756.693	34130.03
757.031	34131.16
757.368	34024.05
757.706	33887.78
758.044	33790.38
758.381	33780.21
758.719	33628.58
759.056	33623.61
759.394	33508.81
759.731	33237.63
760.068	33188.14
760.405	33099.1
760.743	32971.2
761.08	33147.91
761.417	32836.06
761.754	32707.47
762.091	32542.96
762.428	32561.71
762.765	32411.21
763.102	32473.36
763.438	32231.33
763.775	32087.15
764.112	32245.79
764.449	32123.08
764.785	31924.44
765.122	31763.32
765.458	31370.11
765.795	31454.85
766.131	31326.94
766.467	31211.92
766.804	31236.1
767.14	31017.57
767.476	30933.73
767.812	30869.56
768.148	30819.39
768.485	30618.04
768.821	30440.41
769.157	30395.44
769.492	30353.41
769.828	30268.67
770.164	30033.87
770.5	29996.13
770.836	29965.85
771.171	29682.02
771.507	29690.38
771.842	29597.72
772.178	29495.35
772.513	29222.14
772.849	29259.88
773.184	29006.78
773.519	28908.93
773.855	28794.36
774.19	28621.71
774.525	28480.92
774.86	28530.18
775.195	28400.69
775.53	28258.1
775.865	28169.97
776.2	28005.9
776.535	27702.86
776.87	27711.22
777.205	27614.73
777.539	27501.73
777.874	27607.72
778.209	27356.2
778.543	27318.01
778.878	27156.66
779.212	27178.81
779.547	26861.3
779.881	26949.88
780.215	26689.33
780.55	26800.74
780.884	26543.57
781.218	26484.36
781.552	26468.54
781.886	26273.74
782.22	26096.8
782.554	26056.8
782.888	25791.05
783.222	25717.37
783.556	25568.45
783.889	25670.14
784.223	25485.06
784.557	25390.38
784.89	25490.94
785.224	25324.16
785.557	25144.28
785.891	25085.75
786.224	25015.92
786.558	24911.75
786.891	24683.96
787.224	24516.73
787.557	24486.22
787.891	24436.96
788.224	24471.76
788.557	24540.68
788.89	24318.54
789.223	24232.22
789.556	24027.25
789.888	23951.09
790.221	23872.45
790.554	23742.06
790.887	23808.5
791.219	23695.51
791.552	23462.52
791.884	23422.29
792.217	23408.06
792.549	23104.11
792.882	23143.66
793.214	23008.97
793.546	23035.41
793.879	22825.93
794.211	22742.99
794.543	22828.64
794.875	22633.84
795.207	22604.01
795.539	22603.11
795.871	22557.01
796.203	22316.33
796.535	22203.79
796.867	22181.2
797.198	22049.22
797.53	21961.54
797.862	21808.78
798.193	21929.23
798.525	21627.31
798.856	21691.49
799.188	21515.23
799.519	21461.67
799.85	21262.8
800.182	21414.89
800.513	21289.02
800.844	21099.19
801.175	21304.38
801.506	21294.21
801.837	21120.21
802.168	20972.64
802.499	20879.31
802.83	20816.26
803.161	20851.06
803.491	20677.73
803.822	20616.27
804.153	20646.1
804.483	20358.87
804.814	20248.14
805.145	20428.47
805.475	20340.11
805.805	20153.45
806.136	20232.1
806.466	20143.28
806.796	20045.43
807.126	19840.24
807.457	19892.9
807.787	19906
808.117	19729.74
808.447	19659.91
808.777	19765.21
809.107	19674.82
809.436	19685.89
809.766	19515.96
810.096	19497.65
810.426	19401.16
810.755	19436.41
811.085	19292.91
811.414	19205.23
811.744	19059.24
812.073	19079.13
812.403	19097.21
812.732	18879.81
813.061	18894.73
813.39	18793.94
813.719	18727.05
814.049	18849.76
814.378	18776.09
814.707	18675.75
815.036	18617.67
815.365	18622.65
815.693	18387.62
816.022	18400.73
816.351	18333.39
816.68	18243.45
817.008	18223.56
817.337	18213.84
817.665	18061.98
817.994	18075.99
818.322	18003.68
818.651	17910.35
818.979	17823.57
819.307	18033.96
819.636	17826.06
819.964	17761.88
820.292	17893.85
820.62	17817.02
820.948	17779.5
821.276	17879.61
821.604	17740.41
821.932	17787.41
822.259	17743.57
822.587	17685.72
822.915	17695.21
823.243	17687.3
823.57	17678.72
823.898	17628.1
824.225	17595.55
824.553	17534.76
824.88	17523.47
825.207	17552.84
825.535	17594.2
825.862	17592.62
826.189	17541.54
826.516	17681.88
826.843	17609.79
827.17	17638.72
827.497	17556.69
827.824	17633.07
828.151	17640.3
828.478	17568.66
828.805	17607.98
829.131	17574.09
829.458	17603.24
829.785	17569.79
830.111	17533.64
830.438	17681.65
830.764	17519.4
831.09	17560.98
831.417	17381.77
831.743	17564.59
832.069	17390.14
832.395	17404.15
832.722	17382
833.048	17298.61
833.374	17414.77
833.7	17332.96
834.026	17333.87
834.351	17396.24
834.677	17343.36
835.003	17289.35
835.329	17277.14
835.654	17253.64
835.98	17222.91
836.306	17165.06
836.631	17161.44
836.956	17175.45
837.282	17250.48
837.607	17130.71
837.932	17130.71
838.258	17042.57
838.583	17034.89
838.908	17055
839.233	16986.3
839.558	16961.67
839.883	16853.43
840.208	16800.32
840.533	16802.13
840.858	16822.47
841.182	16821.34
841.507	16772.53
841.832	16707.89
842.156	16732.53
842.481	16660.66
842.805	16597.84
843.13	16608.91
843.454	16586.77
843.778	16381.12
844.103	16472.42
844.427	16414.12
844.751	16385.19
845.075	16356.72
845.399	16316.04
845.723	16173.67
846.047	16249.83
846.371	16135.03
846.695	16162.82
847.019	15876.28
847.343	15836.73
847.666	15737.98
847.99	15569.17
848.313	15582.27
848.637	15564.65
848.96	15545.66
849.284	15515.83
849.607	15429.06
849.931	15308.83
850.254	15224.32
850.577	15241.04
850.9	15129.86
851.223	15080.37
851.546	15073.59
851.869	14974.61
852.192	15004.44
852.515	14801.05
852.838	14810.09
853.161	14772.8
853.483	14710.88
853.806	14726.03
854.129	14688.29
854.451	14671.79
854.774	14540.72
855.096	14507.05
855.419	14426.82
855.741	14441.51
856.063	14390.67
856.385	14296.66
856.708	14288.52
857.03	14165.59
857.352	14173.27
857.674	14161.07
857.996	14137.57
858.318	14043.33
858.64	14020.28
858.961	13985.93
859.283	13914.75
859.605	13799.5
859.926	13925.14
860.248	13876.56
860.57	13807.41
860.891	13762.89
861.212	13730.8
861.534	13679.05
861.855	13716.33
862.176	13748.88
862.498	13728.99
862.819	13659.61
863.14	13551.14
863.461	13611.03
863.782	13517.7
864.103	13525.15
864.424	13444.25
864.745	13498.49
865.065	13411.26
865.386	13409.22
865.707	13278.61
866.027	13460.3
866.348	13416
866.668	13377.13
866.989	13306.63
867.309	13228.44
867.63	13280.41
867.95	13220.08
868.27	13163.35
868.59	13274.76
868.91	13262.11
869.23	13143.24
869.55	13086.97
869.87	13174.65
870.19	13125.39
870.51	13084.03
870.83	13042.91
871.15	12963.13
871.469	13012.62
871.789	13032.28
872.109	13098.05
872.428	12956.81
872.748	13014.21
873.067	13028.67
873.386	12916.36
873.706	12935.34
874.025	12873.42
874.344	12799.3
874.663	12825.51
874.982	12842.91
875.301	12834.1
875.62	12809.01
875.939	12832.74
876.258	12759.3
876.577	12683.82
876.896	12746.19
877.214	12738.96
877.533	12718.17
877.852	12668.45
878.17	12729.24
878.489	12743.25
878.807	12706.87
879.125	12642.24
879.444	12576.25
879.762	12531.28
880.08	12427.1
880.398	12481.79
880.716	12487.67
881.034	12432.98
881.352	12461.23
881.67	12383.04
881.988	12461.9
882.306	12393.88
882.624	12359.31
882.941	12302.81
883.259	12303.72
883.577	12275.92
883.894	12223.72
884.212	12210.39
884.529	12159.77
884.846	12057.62
885.164	12098.07
885.481	12036.15
885.798	12033.21
886.115	11994.57
886.432	11956.61
886.75	12001.35
887.067	11972.2
887.383	11963.16
887.7	11984.18
888.017	11964.97
888.334	11928.58
888.651	11784.41
888.967	11814.46
889.284	11861.02
889.6	11809.27
889.917	11705.09
890.233	11702.6
890.55	11698.99
890.866	11677.07
891.182	11680.91
891.498	11704.64
891.815	11535.83
892.131	11458.09
892.447	11498.77
892.763	11384.64
893.079	11341.71
893.395	11304.19
893.71	11277.3
894.026	11312.1
894.342	11253.35
894.657	11221.48
894.973	11165.89
895.289	11118.21
895.604	11146.91
895.92	11099.91
896.235	11011.55
896.55	11010.87
896.865	11012.68
897.181	10908.5
897.496	10993.69
897.811	10876.63
898.126	10909.63
898.441	10801.38
898.756	10781.04
899.071	10727.94
899.386	10749.86
899.7	10620.14
900.015	10584.44
900.33	10572.69
900.644	10554.61
900.959	10607.49
901.273	10512.12
901.588	10446.59
901.902	10376.54
902.216	10406.59
902.531	10332.02
902.845	10356.42
903.159	10293.15
903.473	10334.28
903.787	10245.24
904.101	10243.43
904.415	10078.01
904.729	10071.23
905.042	10024.91
905.356	10031.23
905.67	9984.68
905.984	9930.22
906.297	9941.07
906.611	9948.75
906.924	9849.54
907.237	9838.47
907.551	9743.11
907.864	9718.25
908.177	9678.47
908.491	9641.41
908.804	9594.86
909.117	9534.52
909.43	9484.81
909.743	9511.93
910.056	9455.66
910.368	9481.42
910.681	9429.44
910.994	9370.69
911.307	9362.55
911.619	9346.73
911.932	9383.57
912.244	9274.19
912.557	9268.32
912.869	9233.06
913.181	9254.3
913.494	9124.59
913.806	9131.37
914.118	9086.85
914.43	8969.79
914.742	8985.84
915.054	8986.06
915.366	8920.08
915.678	8817.03
915.99	8793.3
916.302	8719.63
916.613	8736.35
916.925	8739.06
917.236	8690.7
917.548	8559.18
917.859	8633.08
918.171	8581.1
918.482	8480.31
918.794	8485.06
919.105	8460.65
919.416	8401.9
919.727	8416.13
920.038	8309.92
920.349	8224.95
920.66	8232.64
920.971	8211.62
921.282	8156.48
921.593	8100.21
921.903	8119.19
922.214	8115.58
922.525	8054.79
922.835	8034
923.146	7957.62
923.456	7972.08
923.767	7958.75
924.077	7993.09
924.387	7984.06
924.697	7867.22
925.008	7826.55
925.318	7760.56
925.628	7752.42
925.938	7747
926.248	7737.51
926.558	7637.62
926.867	7702.26
927.177	7585.2
927.487	7592.2
927.796	7478.98
928.106	7543.62
928.416	7478.76
928.725	7390.85
929.034	7379.55
929.344	7391.75
929.653	7346.56
929.962	7260.23
930.271	7246.9
930.581	7184.75
930.89	7205.09
931.199	7150.41
931.508	7161.25
931.817	7043.29
932.125	7038.77
932.434	7084.19
932.743	6996.51
933.051	6960.35
933.36	6869.96
933.669	6891.2
933.977	6891.2
934.286	6865.21
934.594	6823.41
934.902	6843.75
935.21	6757.87
935.519	6781.83
935.827	6764.2
936.135	6666.8
936.443	6650.31
936.751	6647.14
937.059	6669.51
937.367	6611.89
937.674	6627.71
937.982	6547.03
938.29	6460.93
938.597	6511.1
938.905	6428.39
939.213	6412.8
939.52	6331.9
939.827	6319.69
940.135	6295.96
940.442	6304.55
940.749	6289.18
941.056	6236.08
941.363	6207.38
941.67	6214.61
941.977	6140.26
942.284	6093.03
942.591	6143.65
942.898	6082.41
943.205	6079.02
943.511	6001.73
943.818	6064.56
944.125	5959.7
944.431	5968.29
944.738	5980.49
945.044	5941.17
945.35	5918.57
945.657	5899.82
945.963	5847.39
946.269	5849.65
946.575	5840.16
946.881	5780.95
947.187	5788.63
947.493	5724
947.799	5709.54
948.105	5707.96
948.41	5651.91
948.716	5646.94
949.022	5570.56
949.327	5539.37
949.633	5511.8
949.938	5539.83
950.244	5500.05
950.549	5438.36
950.854	5425.48
951.16	5387.97
951.465	5392.03
951.77	5375.31
952.075	5375.31
952.38	5338.48
952.685	5316.78
952.99	5269.32
953.294	5224.81
953.599	5243.79
953.904	5205.82
954.209	5169.21
954.513	5145.71
954.818	5133.28
955.122	5062.78
955.426	5083.11
955.731	5117.69
956.035	5032.27
956.339	5046.73
956.643	5064.36
956.948	4981.2
957.252	4990.46
957.556	4940.97
957.86	4923.8
958.163	4891.93
958.467	4895.78
958.771	4879.96
959.075	4846.29
959.378	4868.88
959.682	4819.17
959.985	4799.28
960.289	4784.82
960.592	4758.6
960.896	4693.75
961.199	4685.16
961.502	4680.87
961.805	4693.07
962.108	4633.41
962.411	4647.42
962.714	4561.09
963.017	4552.51
963.32	4528.78
963.623	4509.34
963.926	4507.76
964.228	4493.07
964.531	4493.53
964.833	4472.28
965.136	4397.26
965.438	4420.31
965.741	4321.78
966.043	4308.45
966.345	4319.75
966.648	4326.3
966.95	4343.02
967.252	4290.14
967.554	4303.02
967.856	4288.56
968.158	4243.59
968.46	4210.82
968.761	4222.12
969.063	4256.7
969.365	4188
969.666	4171.27
969.968	4105.97
970.269	4126.3
970.571	4110.71
970.872	4105.29
971.174	4052.41
971.475	4021.9
971.776	4010.37
972.077	4019.87
972.378	3986.42
972.679	3998.85
972.98	3941
973.281	3935.8
973.582	3908.91
973.883	3868.68
974.183	3853.77
974.484	3850.15
974.785	3832.3
975.085	3831.85
975.386	3825.97
975.686	3784.84
975.986	3767.9
976.287	3783.26
976.587	3742.13
976.887	3746.65
977.187	3695.35
977.487	3697.39
977.787	3688.8
978.087	3644.96
978.387	3646.09
978.687	3651.51
978.987	3592.53
979.286	3557.28
979.586	3588.92
979.885	3538.97
980.185	3541.23
980.484	3562.02
980.784	3534.23
981.083	3456.27
981.382	3484.96
981.682	3436.15
981.981	3443.84
982.28	3402.93
982.579	3376.04
982.878	3398.19
983.177	3366.55
983.475	3350.05
983.774	3365.65
984.073	3345.08
984.372	3332.43
984.67	3289.72
984.969	3303.73
985.267	3270.73
985.566	3232.09
985.864	3252.65
986.162	3258.98
986.461	3207.91
986.759	3194.35
987.057	3185.31
987.355	3199.77
987.653	3202.71
987.951	3174.01
988.249	3143.5
988.547	3158.19
988.844	3131.98
989.142	3094.24
989.44	3128.14
989.737	3035.26
990.035	3047.91
990.332	3026.45
990.63	3006.79
990.927	3011.08
991.224	2975.37
991.521	2981.93
991.819	2949.39
992.116	2936.73
992.413	2916.62
992.71	2908.03
993.006	2874.81
993.303	2896.28
993.6	2884.08
993.897	2892.21
994.193	2859.44
994.49	2824.87
994.787	2828.26
995.083	2793.01
995.379	2758.43
995.676	2789.16
995.972	2775.38
996.268	2745.32
996.565	2748.26
996.861	2723.18
997.157	2744.87
997.453	2692.67
997.749	2685.66
998.044	2633.24
998.34	2647.47
998.636	2632.56
998.932	2636.63
999.227	2620.35
999.523	2620.13
999.818	2583.07
1000.114	2577.19
1000.409	2558.89
1000.704	2559.79
1001	2524.31
1001.295	2463.52
1001.59	2530.64
1001.885	2491.32
1002.18	2486.57
1002.475	2439.79
1002.77	2437.08
1003.065	2424.2
1003.359	2439.12
1003.654	2435.73
1003.949	2383.75
1004.243	2436.63
1004.538	2370.64
1004.832	2368.38
1005.127	2371.77
1005.421	2328.39
1005.715	2354.83
1006.009	2295.84
1006.304	2313.47
1006.598	2288.61
1006.892	2276.41
1007.186	2263.3
1007.48	2249.07
1007.773	2202.51
1008.067	2218.56
1008.361	2193.47
1008.655	2197.09
1008.948	2183.08
1009.242	2166.36
1009.535	2141.05
1009.829	2129.52
1010.122	2133.81
1010.415	2137.2
1010.708	2084.32
1011.001	2089.52
1011.295	2029.86
1011.588	2076.64
1011.881	2047.71
1012.173	2024.44
1012.466	2024.89
1012.759	2025.79
1013.052	2026.47
1013.344	1995.96
1013.637	1958.9
1013.93	1930.2
1014.222	1967.72
1014.514	1918.23
1014.807	1925.46
1015.099	1873.93
1015.391	1911.22
1015.683	1908.74
1015.976	1896.53
1016.268	1871.45
1016.56	1882.97
1016.851	1820.38
1017.143	1842.75
1017.435	1833.26
1017.727	1815.86
1018.018	1789.42
1018.31	1798.68
1018.602	1795.74
1018.893	1770.66
1019.185	1742.64
1019.476	1736.31
1019.767	1753.26
1020.058	1739.25
1020.35	1693.15
1020.641	1692.02
1020.932	1700.83
1021.223	1654.05
1021.514	1674.84
1021.804	1654.5
1022.095	1662.87
1022.386	1655.18
1022.677	1624
1022.967	1609.99
1023.258	1601.17
1023.548	1606.6
1023.839	1548.52
1024.129	1565.69
1024.419	1558.01
1024.709	1554.62
1025	1534.28
1025.29	1533.38
1025.58	1506.94
1025.87	1499.48
1026.16	1504
1026.449	1489.54
1026.739	1463.78
1027.029	1457.9
1027.319	1456.32
1027.608	1416.32
1027.898	1439.14
1028.187	1411.8
1028.477	1415.41
1028.766	1434.4
1029.055	1391.46
1029.344	1384
1029.634	1367.96
1029.923	1322.76
1030.212	1351.01
1030.501	1373.83
1030.79	1344.46
1031.078	1344.91
1031.367	1311.91
1031.656	1317.79
1031.945	1322.31
1032.233	1270.56
1032.522	1273.72
1032.81	1283.89
1033.099	1277.79
1033.387	1261.97
1033.675	1248.64
1033.963	1258.36
1034.251	1243.67
1034.54	1231.92
1034.828	1210.9
1035.116	1206.61
1035.403	1207.74
1035.691	1183.56
1035.979	1196.89
1036.267	1195.99
1036.554	1184.69
1036.842	1169.32
1037.129	1134.52
1037.417	1126.16
1037.704	1110.11
1037.992	1106.5
1038.279	1106.04
1038.566	1102.2
1038.853	1102.2
1039.14	1102.2
