Data from foil_FLMS001491_058.txt Node
Date: Tue Feb 07 11:27:12 GMT 2017
User: dcchb
Spectrometer: FLMS00149
Trigger mode: 0
Integration Time (sec): 2.000000E-2
Scans to average: 10
Electric dark correction enabled: true
Nonlinearity correction enabled: false
Boxcar width: 0
XAxis mode: Wavelengths
Number of Pixels in Spectrum: 2048
>>>>>Begin Spectral Data<<<<<
341.393	-25.92
341.776	-25.92
342.16	-25.92
342.543	-56.88
342.927	-59.81
343.31	-89.42
343.693	-78.12
344.077	-67.95
344.46	-63.2
344.843	-34.05
345.226	-48.74
345.61	-36.99
345.993	-12.13
346.376	-0.83
346.759	14.76
347.142	31.93
347.525	46.62
347.908	61.09
348.291	78.49
348.674	78.49
349.057	120.07
349.44	133.17
349.823	143.57
350.206	169.78
350.588	240.74
350.971	260.18
351.354	260.85
351.737	279.84
352.119	304.7
352.502	301.98
352.884	310.12
353.267	329.33
353.65	336.56
354.032	359.84
354.414	364.58
354.797	380.17
355.179	365.94
355.562	392.15
355.944	384.24
356.326	383.11
356.709	413.62
357.091	402.55
357.473	403.9
357.855	419.04
358.238	403.22
358.62	399.16
359.002	403.68
359.384	407.29
359.766	389.89
360.148	397.12
360.53	418.82
360.912	395.54
361.294	399.16
361.676	424.24
362.057	421.53
362.439	403.68
362.821	416.33
363.203	400.74
363.584	413.39
363.966	409.55
364.348	411.36
364.729	430.34
365.111	425.14
365.493	410.68
365.874	433.05
366.256	401.87
366.637	421.53
367.019	403.45
367.4	407.74
367.781	435.31
368.163	430.12
368.544	439.16
368.925	422.88
369.306	451.81
369.688	431.47
370.069	444.8
370.45	428.31
370.831	415.88
371.212	446.39
371.593	416.33
371.974	442.32
372.355	431.7
372.736	435.54
373.117	443.67
373.498	478.48
373.879	460.85
374.26	442.54
374.641	426.95
375.021	447.97
375.402	479.38
375.783	486.84
376.163	527.74
376.544	491.36
376.925	486.16
377.305	472.6
377.686	513.05
378.066	495.88
378.447	501.53
378.827	505.82
379.208	501.98
379.588	524.12
379.968	487.06
380.349	520.96
380.729	529.1
381.109	531.36
381.489	532.49
381.87	561.64
382.25	562.77
382.63	590.56
383.01	567.29
383.39	591.47
383.77	572.94
384.15	589.21
384.53	580.17
384.91	614.07
385.29	612.71
385.67	598.47
386.049	640.05
386.429	613.61
386.809	645.03
387.189	619.72
387.568	647.96
387.948	650
388.328	687.28
388.707	657.23
389.087	654.52
389.466	704.68
389.846	689.54
390.225	705.14
390.605	708.98
390.984	721.18
391.363	711.69
391.743	700.84
392.122	739.94
392.501	756.89
392.881	771.58
393.26	758.92
393.639	734.51
394.018	769.09
394.397	774.06
394.776	785.13
395.155	823.55
395.534	796.43
395.913	836.66
396.292	813.61
396.671	846.38
397.05	859.94
397.429	876.43
397.808	885.25
398.186	887.5
398.565	884.12
398.944	879.82
399.323	887.28
399.701	892.48
400.08	909.43
400.458	901.97
400.837	920.27
401.215	945.36
401.594	946.94
401.972	978.8
402.351	954.85
402.729	986.03
403.107	998.01
403.486	1002.76
403.864	1008.63
404.242	1006.15
404.62	1018.8
404.999	1084.11
405.377	1088.63
405.755	1069.87
406.133	1086.14
406.511	1108.29
406.889	1133.15
407.267	1131.34
407.645	1149.19
408.023	1165.01
408.401	1195.75
408.779	1199.81
409.156	1229.64
409.534	1193.03
409.912	1240.94
410.29	1281.17
410.667	1294.95
411.045	1316.42
411.422	1337.66
411.8	1313.48
412.178	1373.14
412.555	1397.1
412.933	1385.12
413.31	1433.71
413.687	1431.22
414.065	1448.62
414.442	1480.94
414.819	1486.36
415.197	1491.56
415.574	1531.33
415.951	1559.58
416.328	1604.32
416.705	1582.18
417.082	1596.86
417.46	1588.28
417.837	1623.08
418.214	1665.11
418.591	1677.77
418.967	1712.34
419.344	1701.72
419.721	1736.52
420.098	1711.66
420.475	1739.91
420.852	1793.24
421.228	1786.92
421.605	1830.08
421.982	1824.43
422.358	1865.56
422.735	1878.21
423.111	1897.42
423.488	1951.21
423.864	1931.55
424.241	1968.38
424.617	2013.8
424.994	2016.51
425.37	2077.53
425.746	2064.88
426.123	2077.08
426.499	2117.53
426.875	2139.68
427.251	2165.66
427.627	2230.52
428.003	2218.77
428.379	2257.86
428.756	2297.19
429.132	2335.6
429.507	2345.09
429.883	2401.59
430.259	2442.04
430.635	2449.27
431.011	2472.1
431.387	2511.87
431.763	2576.95
432.138	2613.79
432.514	2679.77
432.89	2660.57
433.265	2719.55
433.641	2777.17
434.016	2761.13
434.392	2824.4
434.767	2917.73
435.143	2874.8
435.518	2929.26
435.894	2969.03
436.269	3018.75
436.644	3035.92
437.02	3093.55
437.395	3101.68
437.77	3173.77
438.145	3213.09
438.52	3241.79
438.895	3261.23
439.271	3327.44
439.646	3369.7
440.021	3425.74
440.395	3422.58
440.77	3410.38
441.145	3498.28
441.52	3525.4
441.895	3533.76
442.27	3567.21
442.645	3542.12
443.019	3656.02
443.394	3642.23
443.769	3728.33
444.143	3717.26
444.518	3845.17
444.892	3782.57
445.267	3814.43
445.641	3875.45
446.016	3902.79
446.39	3923.36
446.764	3995.45
447.139	4028.21
447.513	4056.91
447.887	4098.95
448.262	4072.28
448.636	4100.08
449.01	4204.25
449.384	4255.1
449.758	4277.7
450.132	4347.07
450.506	4325.15
450.88	4394.98
451.254	4384.36
451.628	4520.63
452.002	4528.77
452.376	4538.48
452.75	4606.5
453.123	4692.83
453.497	4732.6
453.871	4771.92
454.244	4877.68
454.618	4933.27
454.992	4981.86
455.365	4990
455.739	5095.76
456.112	5158.81
456.486	5208.3
456.859	5237.67
457.232	5313.38
457.606	5284.23
457.979	5390.21
458.352	5476.54
458.725	5546.59
459.099	5629.98
459.472	5668.85
459.845	5769.64
460.218	5821.39
460.591	5801.95
460.964	5885.11
461.337	6018.9
461.71	6135.73
462.083	6223.64
462.456	6191.09
462.829	6249.85
463.201	6368.94
463.574	6393.35
463.947	6493.23
464.32	6667.24
464.692	6688.26
465.065	6689.61
465.438	6895.26
465.81	6958.08
466.183	7000.79
466.555	7131.18
466.928	7187.9
467.3	7257.96
467.672	7340.22
468.045	7522.81
468.417	7570.27
468.789	7554.9
469.161	7738.85
469.534	7805.97
469.906	8046.19
470.278	8076.24
470.65	8144.49
471.022	8330.93
471.394	8501.32
471.766	8556.91
472.138	8682.55
472.51	8804.81
472.882	8978.14
473.253	9057.23
473.625	9208.19
473.997	9455.64
474.369	9505.13
474.74	9580.84
475.112	9718.46
475.484	9921.17
475.855	10080.03
476.227	10177.43
476.598	10472.11
476.97	10464.88
477.341	10786.23
477.713	10908.48
478.084	11108.93
478.455	11391.18
478.827	11373.78
479.198	11707.79
479.569	11816.03
479.94	12125.63
480.311	12294.89
480.682	12559.97
481.053	12789.79
481.424	13018.94
481.795	13123.12
482.166	13349.55
482.537	13549.09
482.908	13798.8
483.279	13885.58
483.65	14169.42
484.021	14476.3
484.391	14672.91
484.762	14795.61
485.133	14964.87
485.503	15157.64
485.874	15499.1
486.244	15631.75
486.615	15952.42
486.985	16205.97
487.356	16442.12
487.726	16684.38
488.097	16913.3
488.467	17017.93
488.837	17426.96
489.207	17519.38
489.578	17936.32
489.948	18082.76
490.318	18283.21
490.688	18310.1
491.058	18681.61
491.428	18937.43
491.798	19102.62
492.168	19435.49
492.538	19516.39
492.908	19802.26
493.278	19970.62
493.648	20084.29
494.017	20418.74
494.387	20600.88
494.757	20650.15
495.126	20934.66
495.496	21124.49
495.866	21223.24
496.235	21501.88
496.605	21732.83
496.974	21865.71
497.344	22064.12
497.713	22217.79
498.082	22317.68
498.452	22588.86
498.821	22695.97
499.19	22742.52
499.559	23020.71
499.928	23371.43
500.298	23349.97
500.667	23609.85
501.036	23593.57
501.405	23931.19
501.774	24007.35
502.143	24079.89
502.512	24300.22
502.88	24518.3
503.249	24623.83
503.618	24770.72
503.987	24880.77
504.356	25208.45
504.724	25192.63
505.093	25423.81
505.462	25513.98
505.83	25654.99
506.199	26127.29
506.567	26220.4
506.936	26346.5
507.304	26548.07
507.672	26704.68
508.041	26903.09
508.409	27046.59
508.777	27379.92
509.145	27518.67
509.514	27600.7
509.882	27829.17
510.25	27853.35
510.618	28202.94
510.986	28277.07
511.354	28432.54
511.722	28628.47
512.09	28902.36
512.458	29071.17
512.826	29354.1
513.193	29462.12
513.561	29776.91
513.929	29999.73
514.297	30104.82
514.664	30370.8
515.032	30522.21
515.4	30785.7
515.767	30818.47
516.135	31105.02
516.502	30867.96
516.869	31553.14
517.237	31699.58
517.604	31615.06
517.972	32024.54
518.339	32357.86
518.706	32520.57
519.073	32561.47
519.44	32880.34
519.808	33199.42
520.175	33294.79
520.542	33690.03
520.909	33896.35
521.276	33896.35
521.643	34280.53
522.009	34475.77
522.376	34631.93
522.743	35002.54
523.11	35221.74
523.477	35589.42
523.843	35802.75
524.21	36151.21
524.577	36489.05
524.943	36580.58
525.31	36796.17
525.676	37049.49
526.043	37421.91
526.409	37587.1
526.776	38050.37
527.142	38109.35
527.508	38352.96
527.874	38505.27
528.241	38797.47
528.607	38892.38
528.973	39261.41
529.339	39261.86
529.705	39809.42
530.071	40083.99
530.437	40165.57
530.803	40530.3
531.169	40578.66
531.535	40692.56
531.901	40665.44
532.267	41074.92
532.632	41246.67
532.998	41462.94
533.364	41723.72
533.73	41727.79
534.095	42099.53
534.461	41998.51
534.826	42350.82
535.192	42532.74
535.557	42935.66
535.923	42894.54
536.288	43054.98
536.653	43206.39
537.019	43278.93
537.384	43466.27
537.749	43659.49
538.114	43745.36
538.479	43871.69
538.845	43896.32
539.21	43976.09
539.575	44173.82
539.94	44315.29
540.305	44573.81
540.67	44473.93
541.034	44678.9
541.399	44970.41
541.764	45106.46
542.129	45222.16
542.494	45327.24
542.858	45387.13
543.223	45516.84
543.587	45824.63
543.952	45734.91
544.316	45998.64
544.681	45799.09
545.045	46178.07
545.41	46420.54
545.774	46479.98
546.138	46430.04
546.503	46627.09
546.867	46684.94
547.231	47010.59
547.595	47044.03
547.959	47246.29
548.324	47187.76
548.688	47256.68
549.052	47530.8
549.416	47579.61
549.779	47536.67
550.143	47675.65
550.507	47994.06
550.871	48147.96
551.235	48076.55
551.599	48289.65
551.962	48413.94
552.326	48508.63
552.689	48733.93
553.053	48649.86
553.417	48722.18
553.78	49127.59
554.143	49120.81
554.507	49338.89
554.87	49465.21
555.234	49921.24
555.597	49760.8
555.96	49860.45
556.323	49983.84
556.686	50077.62
557.05	50355.58
557.413	50451.63
557.776	50560.32
558.139	50765.97
558.502	50880.09
558.865	50976.13
559.228	51208.67
559.59	51315.78
559.953	51268.55
560.316	51552.61
560.679	51498.83
561.041	51833.74
561.404	51837.13
561.767	52106.27
562.129	52109.89
562.492	52396.21
562.854	52396.88
563.217	52395.53
563.579	52604.11
563.941	52747.84
564.304	52955.74
564.666	53198.22
565.028	53186.24
565.39	53179.24
565.753	53349.63
566.115	53457.65
566.477	53522.73
566.839	53666
567.201	53821.71
567.563	53935.83
567.925	54121.13
568.287	54157.29
568.648	54210.62
569.01	54346.89
569.372	54537.62
569.734	54521.57
570.095	54703.27
570.457	54830.72
570.819	54875.01
571.18	54826.65
571.542	54936.03
571.903	55049.7
572.265	55052.41
572.626	55182.57
572.987	55256.47
573.349	55346.19
573.71	55492.4
574.071	55513.87
574.432	55602.22
574.794	55703.01
575.155	55694.65
575.516	55718.38
575.877	55852.16
576.238	55905.27
576.599	55981.42
576.96	55959.05
577.32	55984.36
577.681	56148.2
578.042	56166.96
578.403	56097.35
578.763	56209.21
579.124	56247.18
579.485	56304.13
579.845	56354.07
580.206	56307.52
580.566	56319.72
580.927	56365.37
581.287	56451.47
581.648	56389.77
582.008	56529.88
582.368	56466.16
582.728	56576.66
583.089	56457.8
583.449	56411.24
583.809	56474.07
584.169	56478.59
584.529	56421.19
584.889	56544.8
585.249	56439.26
585.609	56415.76
585.969	56551.8
586.329	56517
586.688	56477.68
587.048	56457.57
587.408	56426.84
587.768	56458.93
588.127	56474.29
588.487	56486.49
588.846	56667.51
589.206	56496.44
589.565	56538.25
589.925	56627.28
590.284	56576.89
590.643	56623.89
591.003	56632.93
591.362	56649.2
591.721	56605.59
592.08	56591.58
592.44	56621.41
592.799	56676.32
593.158	56576.21
593.517	56604.68
593.876	56599.49
594.235	56600.62
594.593	56603.78
594.952	56694.4
595.311	56617.11
595.67	56618.92
596.029	56826.6
596.387	56777.79
596.746	56810.1
597.104	56656.21
597.463	56641.52
597.822	56839.71
598.18	56709.99
598.538	56668.19
598.897	56794.74
599.255	56577.11
599.613	56964.22
599.972	56843.1
600.33	56915.41
600.688	56748.18
601.046	56883.55
601.404	56910.21
601.762	56884
602.12	57011.45
602.478	56978.46
602.836	57083.32
603.194	56879.7
603.552	56923.09
603.91	56891
604.268	57020.72
604.625	56953.15
604.983	57091
605.341	56938.01
605.698	57121.96
606.056	57111.34
606.413	57143.43
606.771	57160.83
607.128	57166.03
607.485	56987.5
607.843	57109.98
608.2	57177.1
608.557	57240.6
608.914	57098
609.272	57287.83
609.629	57295.97
609.986	57439.92
610.343	57298.9
610.7	57475.17
611.057	57376.87
611.414	57473.14
611.771	57339.81
612.127	57463.87
612.484	57451.44
612.841	57542.74
613.198	57558.78
613.554	57577.54
613.911	57649.18
614.267	57550.87
614.624	57564.66
614.98	57636.07
615.337	57772.56
615.693	57682.4
616.05	57613.7
616.406	57782.96
616.762	57669.74
617.118	57706.58
617.475	57672.9
617.831	57716.75
618.187	57797.19
618.543	57812.11
618.899	57955.38
619.255	57841.04
619.611	57746.12
619.967	57842.84
620.323	57790.19
620.678	57774.37
621.034	57723.3
621.39	57731.89
621.746	57700.47
622.101	57946.8
622.457	57741.15
622.812	57824.54
623.168	57870.41
623.523	57819.34
623.879	57852.33
624.234	57688.05
624.589	57719.68
624.945	57780.02
625.3	57732.11
625.655	57660.02
626.01	57689.18
626.365	57704.32
626.72	57731.89
627.075	57680.36
627.43	57682.62
627.785	57621.15
628.14	57729.85
628.495	57624.54
628.85	57635.39
629.205	57591.32
629.559	57724.43
629.914	57516.52
630.269	57465
630.623	57420.26
630.978	57379.8
631.332	57465.23
631.687	57512.46
632.041	57346.59
632.396	57421.16
632.75	57215.74
633.104	57317.66
633.459	57121.28
633.813	57188.62
634.167	57175.29
634.521	57109.08
634.875	57205.12
635.229	57064.78
635.583	56941.85
635.937	56957.44
636.291	56929.87
636.645	56938.46
636.999	56853.49
637.352	56927.84
637.706	56723.55
638.06	56744.12
638.413	56686.04
638.767	56694.85
639.121	56670.9
639.474	56583.44
639.828	56545.7
640.181	56549.32
640.534	56571.46
640.888	56400.85
641.241	56326.5
641.594	56305.03
641.947	56448.3
642.301	56269.78
642.654	56271.81
643.007	56267.74
643.36	56206.05
643.713	56137.35
644.066	56227.97
644.419	56013.74
644.771	55891.03
645.124	55604.71
645.477	55579.85
645.83	55404.72
646.182	55241.1
646.535	55172.63
646.888	55215.79
647.24	54975.8
647.593	55114.1
647.945	54986.65
648.298	54826.43
648.65	54904.16
649.002	54762.92
649.355	54896.03
649.707	54797.73
650.059	54944.39
650.411	55141.45
650.763	55215.12
651.115	55571.04
651.467	55342.57
651.819	55317.03
652.171	55234.1
652.523	55185.96
652.875	55161.11
653.227	54969.02
653.578	55313.42
653.93	55137.38
654.282	54983.03
654.633	54916.14
654.985	54896.25
655.337	54890.6
655.688	54886.76
656.039	54988.68
656.391	54738.29
656.742	54790.04
657.094	54832.53
657.445	54903.71
657.796	54762.25
658.147	54702.81
658.498	54686.77
658.849	54754.56
659.2	54671.63
659.551	54535.36
659.902	54661.01
660.253	54518.19
660.604	54532.87
660.955	54418.3
661.306	54578.97
661.656	54403.39
662.007	54382.82
662.358	54376.49
662.708	54445.87
663.059	54351.41
663.409	54185.76
663.76	54237.06
664.11	54265.31
664.461	54225.54
664.811	54238.42
665.161	54200.68
665.511	54174.24
665.862	54161.36
666.212	54177.18
666.562	54215.14
666.912	54176.73
667.262	54104.41
667.612	54100.79
667.962	54120.46
668.312	54089.27
668.662	54253.56
669.011	54095.15
669.361	53903.96
669.711	53942.83
670.06	53910.97
670.41	53805.66
670.76	53691.99
671.109	53889.73
671.459	53817.41
671.808	53751.65
672.157	53802.05
672.507	53546.69
672.856	53571.09
673.205	53612.9
673.554	53662.16
673.904	53421.49
674.253	53736.74
674.602	53605.89
674.951	53078.45
675.3	52982.18
675.649	53376.52
675.998	53271.21
676.346	53386.24
676.695	53399.8
677.044	53171.55
677.393	53151.89
677.741	53231.44
678.09	53110.31
678.438	53115.51
678.787	53187.82
679.135	53073.48
679.484	52876.42
679.832	53061.27
680.181	52818.57
680.529	52903.31
680.877	52725.24
681.225	52655.64
681.573	52880.04
681.922	52634.17
682.27	52519.59
682.618	52551.01
682.966	52387.62
683.314	52482.98
683.661	52478.01
684.009	52156.44
684.357	52212.71
684.705	52096.55
685.053	52075.76
685.4	52139.94
685.748	51899.5
686.095	51911.7
686.443	51654.98
686.79	51624.25
687.138	51670.58
687.485	51552.61
687.832	51582.44
688.18	51490.92
688.527	51337.7
688.874	51265.39
689.221	51110.37
689.568	51085.51
689.915	50979.52
690.262	50984.49
690.609	50897.04
690.956	50749.47
691.303	50788.11
691.65	50571.17
691.997	50524.39
692.344	50261.35
692.69	50285.08
693.037	50153.33
693.383	49965.76
693.73	50005.54
694.077	49773.23
694.423	49786.33
694.769	49721.02
695.116	49499.56
695.462	49432.22
695.808	49297.08
696.155	49340.47
696.501	49113.13
696.847	49102.96
697.193	48862.97
697.539	48952.23
697.885	48601.5
698.231	48392.47
698.577	48395.63
698.923	48305.47
699.269	48083.78
699.614	47984.8
699.96	47988.64
700.306	47944.57
700.651	47765.59
700.997	47595.2
701.342	47660.96
701.688	47503.45
702.033	47300.97
702.379	47388.43
702.724	47303.46
703.069	47337.81
703.415	46856.69
703.76	46859.4
704.105	46788.9
704.45	46697.37
704.795	46500.77
705.14	46370.83
705.485	46252.19
705.83	46145.3
706.175	46302.36
706.52	45992.08
706.865	45878.64
707.209	45910.28
707.554	45830.73
707.899	45764.29
708.243	45528.37
708.588	45508.7
708.932	45176.06
709.277	45010.41
709.621	45281.59
709.966	45030.3
710.31	45048.15
710.654	44799.57
710.998	44894.48
711.342	44762.06
711.687	44519.8
712.031	44285.69
712.375	44248.17
712.719	44231.68
713.063	43977.67
713.407	44095.86
713.75	43858.13
714.094	43786.72
714.438	43640.05
714.782	43643.44
715.125	43546.5
715.469	43407.29
715.812	43180.86
716.156	43029.67
716.499	43032.39
716.843	43113.06
717.186	42710.13
717.53	42948.77
717.873	42907.64
718.216	42771.15
718.559	42692.51
718.902	42389.01
719.246	42503.81
719.589	42229.02
719.932	42115.57
720.275	42018.17
720.617	42034.45
720.96	41910.83
721.303	42032.64
721.646	41954
721.989	41714.91
722.331	41694.34
722.674	41619.09
723.016	41738.18
723.359	41654.34
723.701	41661.57
724.044	41354.69
724.386	41045.32
724.729	41172.32
725.071	41071.53
725.413	41003.96
725.755	40929.16
726.097	40581.15
726.439	40419.12
726.782	40520.81
727.124	40674.03
727.465	40618.21
727.807	40373.92
728.149	40326.47
728.491	40135.96
728.833	40230.88
729.175	40084.44
729.516	40123.99
729.858	39979.81
730.199	39996.31
730.541	39874.5
730.882	39846.48
731.224	39825.46
731.565	39356.1
731.906	39459.15
732.248	39437.45
732.589	39374.18
732.93	39193.84
733.271	39176.44
733.612	39209.44
733.953	39045.82
734.294	38839.95
734.635	38693.06
734.976	38771.25
735.317	38583.91
735.658	38660.75
735.999	38524.26
736.339	38586.4
736.68	38558.83
737.021	38331.94
737.361	38303.47
737.702	38364.71
738.042	38217.82
738.383	38145.96
738.723	38076.36
739.063	37972.41
739.404	38032.97
739.744	37738.51
740.084	37815.12
740.424	37796.14
740.764	37730.38
741.104	37694.22
741.444	37445.64
741.784	37229.6
742.124	37386.43
742.464	37092.65
742.804	37323.61
743.143	37198.41
743.483	37192.99
743.823	36997.29
744.162	36783.06
744.502	36904.64
744.841	36730.4
745.181	36827.35
745.52	36687.24
745.86	36571.54
746.199	36545.55
746.538	36446.12
746.877	36555.95
747.216	36491.09
747.556	36473.24
747.895	36294.26
748.234	36313.24
748.573	36137.2
748.911	36149.85
749.25	36062.85
749.589	35855.4
749.928	35927.26
750.267	35907.83
750.605	35683.65
750.944	35530.89
751.283	35365.92
751.621	35635.74
751.96	35294.96
752.298	35367.95
752.636	35318.01
752.975	35173.84
753.313	35053.84
753.651	35038.47
753.989	34820.17
754.327	34744.69
754.666	34456.34
755.004	34504.47
755.342	34606.17
755.679	34563.46
756.017	34247.98
756.355	34323.01
756.693	34090.02
757.031	34117.37
757.368	33946.97
757.706	33931.38
758.044	33857.26
758.381	33857.26
758.719	33597.38
759.056	33744.27
759.394	33587.44
759.731	33344.96
760.068	33159.42
760.405	33122.36
760.743	33000.33
761.08	32987
761.417	32720.34
761.754	32705.65
762.091	32721.92
762.428	32473.12
762.765	32551.76
763.102	32403.74
763.438	32329.39
763.775	32068.61
764.112	32220.92
764.449	32248.71
764.785	31992.45
765.122	31784.55
765.458	31493.25
765.795	31416.87
766.131	31308.17
766.467	31335.29
766.804	31054.62
767.14	31066.15
767.476	30915.42
767.812	30877.45
768.148	31002.87
768.485	30606.5
768.821	30522.43
769.157	30448.54
769.492	30271.14
769.828	30239.28
770.164	29979.62
770.5	29897.14
770.836	29952.28
771.171	29701.89
771.507	29505.06
771.842	29528.11
772.178	29439.52
772.513	29392.52
772.849	29241.11
773.184	28992.08
773.519	29075.46
773.855	28699.65
774.19	28678.86
774.525	28524.74
774.86	28554.35
775.195	28390.28
775.53	28243.4
775.865	28229.61
776.2	27853.58
776.535	27790.3
776.87	27817.19
777.205	27671.89
777.539	27463.98
777.874	27552.57
778.209	27367.03
778.543	27258.79
778.878	27126.81
779.212	27035.07
779.547	26856.54
779.881	26996.87
780.215	26752.36
780.55	26680.5
780.884	26604.34
781.218	26468.53
781.552	26497
781.886	26329.1
782.22	26129.33
782.554	25960.74
782.888	25779.51
783.222	25847.75
783.556	25639.85
783.889	25556.23
784.223	25442.79
784.557	25406.41
784.89	25554.65
785.224	25374.09
785.557	25055.46
785.891	24957.15
786.224	24932.75
786.558	24946.53
786.891	24822.47
787.224	24527.11
787.557	24564.62
787.891	24538.41
788.224	24495.02
788.557	24471.74
788.89	24281.92
789.223	24285.53
789.556	24108.59
789.888	23907.46
790.221	23821.82
790.554	23777.07
790.887	23768.49
791.219	23731.42
791.552	23526.68
791.884	23367.82
792.217	23397.65
792.549	23265
792.882	23073.59
793.214	23002.4
793.546	23056.41
793.879	22939.13
794.211	22774.61
794.543	22736.87
794.875	22620.04
795.207	22819.13
795.539	22587.5
795.871	22559.7
796.203	22346.83
796.535	22185.48
796.867	22196.78
797.198	22136.21
797.53	22018.02
797.862	21893.05
798.193	21868.65
798.525	21761.76
798.856	21729.22
799.188	21532.84
799.519	21483.12
799.85	21365.38
800.182	21363.58
800.513	21346.63
800.844	21159.51
801.175	21301.43
801.506	21191.83
801.837	21082.45
802.168	20995.22
802.499	20979.63
802.83	20825.51
803.161	20725.63
803.491	20655.35
803.822	20746.87
804.153	20555.91
804.483	20374.22
804.814	20330.16
805.145	20285.64
805.475	20303.72
805.805	20307.33
806.136	20266.43
806.466	20204.29
806.796	20113.67
807.126	19887.91
807.457	19852.88
807.787	19885.2
808.117	19808.14
808.447	19724.52
808.777	19701.47
809.107	19694.24
809.436	19549.16
809.766	19525.21
810.096	19503.96
810.426	19456.96
810.755	19433.46
811.085	19301.71
811.414	19221.03
811.744	19134.93
812.073	19037.76
812.403	18997.99
812.732	18886.35
813.061	18890.2
813.39	18873.02
813.719	18781.95
814.049	18848.16
814.378	18856.75
814.707	18749.18
815.036	18689.07
815.365	18540.37
815.693	18369.76
816.022	18440.49
816.351	18304.22
816.68	18285.24
817.008	18250.89
817.337	18099.03
817.665	18109.88
817.994	18053.38
818.322	18010.67
818.651	17955.76
818.979	18000.73
819.307	18043.89
819.636	17914.85
819.964	17811.13
820.292	17883.67
820.62	17848.87
820.948	17756.89
821.276	17751.92
821.604	17776.78
821.932	17817.68
822.259	17752.37
822.587	17729.32
822.915	17629.21
823.243	17705.37
823.57	17699.72
823.898	17732.03
824.225	17539.27
824.553	17606.84
824.88	17647.97
825.207	17577.91
825.535	17635.09
825.862	17686.39
826.189	17558.7
826.516	17711.02
826.843	17676.22
827.17	17604.81
827.497	17691.13
827.824	17611.36
828.151	17664.69
828.478	17584.02
828.805	17593.51
829.131	17520.29
829.458	17661.98
829.785	17543.11
830.111	17593.73
830.438	17565.71
830.764	17569.1
831.09	17565.48
831.417	17415.43
831.743	17478.71
832.069	17459.05
832.395	17336.79
832.722	17406.39
833.048	17358.71
833.374	17452.49
833.7	17340.63
834.026	17424.02
834.351	17467.63
834.677	17329.33
835.003	17372.5
835.329	17301.54
835.654	17229
835.98	17205.72
836.306	17348.99
836.631	17127.08
836.956	17253.63
837.282	17274.42
837.607	17062.22
837.932	17041.66
838.258	17004.6
838.583	17180.41
838.908	16977.25
839.233	17080.53
839.558	17059.51
839.883	16941.55
840.208	16824.94
840.533	16845.28
840.858	16920.53
841.182	16807.09
841.507	16810.7
841.832	16702.91
842.156	16785.17
842.481	16713.08
842.805	16581.33
843.13	16548.34
843.454	16593.98
843.778	16478.96
844.103	16432.63
844.427	16450.71
844.751	16420.2
845.075	16298.85
845.399	16248.23
845.723	16311.28
846.047	16265.63
846.371	16115.81
846.695	16075.81
847.019	15937.73
847.343	15943.83
847.666	15789.49
847.99	15657.29
848.313	15631.52
848.637	15534.8
848.96	15572.77
849.284	15483.28
849.607	15354.7
849.931	15327.58
850.254	15259.78
850.577	15238.31
850.9	15101.82
851.223	15074.48
851.546	14991.31
851.869	14927.59
852.192	15023.4
852.515	14850.75
852.838	14852.11
853.161	14897.08
853.483	14748.61
853.806	14744.54
854.129	14637.2
854.451	14616.41
854.774	14620.93
855.096	14439.24
855.419	14316.08
855.741	14363.76
856.063	14437.21
856.385	14359.02
856.708	14235.85
857.03	14252.13
857.352	14200.15
857.674	14235.85
857.996	14189.75
858.318	14064.79
858.64	14079.47
858.961	14049.64
859.283	13951.79
859.605	13833.83
859.926	13974.39
860.248	13935.75
860.57	13824.79
860.891	13857.79
861.212	13818.01
861.534	13753.16
861.855	13726.49
862.176	13695.08
862.498	13712.03
862.819	13704.57
863.14	13614.85
863.461	13634.97
863.782	13461.86
864.103	13545.25
864.424	13472.03
864.745	13454.18
865.065	13499.38
865.386	13456.21
865.707	13341.64
866.027	13452.37
866.348	13416.22
866.668	13381.19
866.989	13290.79
867.309	13283.56
867.63	13355.2
867.95	13287.4
868.27	13192.27
868.59	13214.86
868.91	13177.35
869.23	13183.45
869.55	13130.12
869.87	13078.82
870.19	13148.43
870.51	13138.03
870.83	13090.35
871.15	12978.26
871.469	12982.1
871.789	13034.76
872.109	12997.92
872.428	12965.15
872.748	13025.26
873.067	13018.03
873.386	13014.19
873.706	12950.01
874.025	12812.62
874.344	12789.56
874.663	12847.87
874.982	12824.82
875.301	12829.56
875.62	12825.72
875.939	12810.81
876.258	12804.03
876.577	12791.37
876.896	12744.59
877.214	12669.79
877.533	12713.63
877.852	12724.48
878.17	12784.14
878.489	12725.61
878.807	12664.14
879.125	12688.78
879.444	12641.77
879.762	12459.86
880.08	12455.56
880.398	12446.97
880.716	12475
881.034	12460.08
881.352	12397.03
881.67	12439.52
881.988	12443.13
882.306	12418.05
882.624	12343.25
882.941	12331.05
883.259	12173.99
883.577	12216.7
883.894	12188.9
884.212	12204.95
884.529	12081.11
884.846	12031.62
885.164	12051.73
885.481	12113.88
885.798	11971.96
886.115	11950.04
886.432	12102.58
886.75	11913.88
887.067	12010.6
887.383	12028.68
887.7	11941.68
888.017	11878.18
888.334	11933.54
888.651	11922.69
888.967	11924.5
889.284	11824.17
889.6	11814
889.917	11709.14
890.233	11749.37
890.55	11699.65
890.866	11660.1
891.182	11624.4
891.498	11567.68
891.815	11630.05
892.131	11480.9
892.447	11489.71
892.763	11378.75
893.079	11435.7
893.395	11322.26
893.71	11292.66
894.026	11301.92
894.342	11191.87
894.657	11189.15
894.973	11179.44
895.289	11224.41
895.604	11232.32
895.92	11103.73
896.235	11052.89
896.55	11071.64
896.865	10964.98
897.181	11026.9
897.496	10932.21
897.811	10932.44
898.126	10834.81
898.441	10832.33
898.756	10861.03
899.071	10767.92
899.386	10737.19
899.7	10694.93
900.015	10634.82
900.33	10544.65
900.644	10616.97
900.959	10565.67
901.273	10488.61
901.588	10480.7
901.902	10392.11
902.216	10380.81
902.531	10430.3
902.845	10397.31
903.159	10340.82
903.473	10329.06
903.787	10213.59
904.101	10187.6
904.415	10271.66
904.729	10121.84
905.042	10041.39
905.356	9998
905.67	9957.32
905.984	9984.89
906.297	9941.28
906.611	9877.55
906.924	9859.92
907.237	9857.89
907.551	9854.95
907.864	9708.74
908.177	9692.02
908.491	9713.49
908.804	9635.52
909.117	9653.83
909.43	9481.63
909.743	9476.66
910.056	9504.68
910.368	9518.92
910.681	9397.56
910.994	9449.77
911.307	9375.19
911.619	9248.64
911.932	9368.64
912.244	9270.56
912.557	9260.39
912.869	9250
913.181	9178.36
913.494	9170.68
913.806	9082.09
914.118	9105.14
914.43	9001.87
914.742	8954.64
915.054	8945.82
915.366	8942.66
915.678	8871.7
915.99	8787.86
916.302	8784.02
916.613	8803.23
916.925	8817.92
917.236	8670.8
917.548	8689.56
917.859	8636
918.171	8549.9
918.482	8517.59
918.794	8472.39
919.105	8454.31
919.416	8397.59
919.727	8423.13
920.038	8322.56
920.349	8259.51
920.66	8236.46
920.971	8150.36
921.282	8260.87
921.593	8127.77
921.903	8093.64
922.214	8098.84
922.525	8109.46
922.835	8079.18
923.146	8031.95
923.456	8009.58
923.767	7972.97
924.077	7978.39
924.387	7954.89
924.697	7859.98
925.008	7862.69
925.318	7816.14
925.628	7782.01
925.938	7758.74
926.248	7638.97
926.558	7683.03
926.867	7645.75
927.177	7565.75
927.487	7604.39
927.796	7527.1
928.106	7489.14
928.416	7478.52
928.725	7478.97
929.034	7378.63
929.344	7375.92
929.653	7371.18
929.962	7289.82
930.271	7302.03
930.581	7203.5
930.89	7202.82
931.199	7187.68
931.508	7128.47
931.817	7128.02
932.125	7051.18
932.434	7078.53
932.743	6999.21
933.051	6977.06
933.36	6949.49
933.669	6911.98
933.977	6893
934.286	6836.5
934.594	6880.57
934.902	6820
935.21	6777.52
935.519	6746.33
935.827	6716.96
936.135	6650.29
936.443	6660.46
936.751	6593.57
937.059	6644.64
937.367	6595.6
937.674	6574.59
937.982	6498.88
938.29	6522.38
938.597	6546.57
938.905	6419.34
939.213	6384.76
939.52	6427.47
939.827	6358.32
940.135	6321.94
940.442	6342.5
940.749	6326.68
941.056	6267.02
941.363	6254.14
941.67	6199.46
941.977	6208.95
942.284	6126.92
942.591	6122.85
942.898	6116.29
943.205	6116.07
943.511	6018.9
943.818	6086.01
944.125	5975.73
944.431	5939.35
944.738	6015.05
945.044	5905.45
945.35	5942.51
945.657	5928.95
945.963	5897.54
946.269	5829.75
946.575	5813.25
946.881	5776.64
947.187	5734.16
947.493	5683.54
947.799	5705.01
948.105	5695.51
948.41	5591.56
948.716	5601.51
949.022	5518.8
949.327	5623.2
949.633	5502.3
949.938	5543.43
950.244	5482.41
950.549	5389.76
950.854	5408.52
951.16	5478.8
951.465	5407.39
951.77	5354.73
952.075	5339.14
952.38	5308.18
952.685	5378.23
952.99	5278.35
953.294	5258.69
953.599	5249.88
953.904	5201.06
954.209	5204.91
954.513	5154.06
954.818	5145.92
955.122	5140.5
955.426	5081.52
955.731	5079.26
956.035	5023.67
956.339	5061.86
956.643	5026.61
956.948	5004.01
957.252	4938.25
957.556	4985.93
957.86	4943.22
958.163	4893.05
958.467	4846.5
958.771	4905.7
959.075	4803.79
959.378	4775.54
959.682	4829.1
959.985	4824.58
960.289	4804.01
960.592	4742.54
960.896	4682.89
961.199	4718.59
961.502	4705.03
961.805	4691.25
962.108	4652.38
962.411	4630.23
962.714	4620.29
963.017	4552.95
963.32	4566.05
963.623	4555.21
963.926	4533.51
964.228	4505.26
964.531	4499.16
964.833	4505.71
965.136	4402.89
965.438	4438.82
965.741	4387.07
966.043	4418.03
966.345	4354.98
966.648	4327.64
966.95	4306.85
967.252	4343.69
967.554	4303.01
967.856	4305.49
968.158	4260.3
968.46	4272.73
968.761	4201.32
969.063	4252.84
969.365	4203.8
969.666	4152.73
969.968	4120.19
970.269	4131.49
970.571	4092.62
970.872	4095.1
971.174	4129.68
971.475	4099.62
971.776	4049.91
972.077	4023.24
972.378	3995.22
972.679	3993.86
972.98	3950.93
973.281	3926.52
973.582	3916.8
973.883	3878.39
974.183	3872.74
974.484	3832.29
974.785	3823.47
975.085	3820.99
975.386	3844.72
975.686	3756.58
975.986	3777.82
976.287	3807.2
976.587	3703.7
976.887	3766.75
977.187	3720.65
977.487	3720.42
977.787	3696.7
978.087	3617.38
978.387	3648.79
978.687	3652.63
978.987	3610.37
979.286	3577.38
979.586	3584.16
979.885	3595
980.185	3542.8
980.484	3507.1
980.784	3490.15
981.083	3485.63
981.382	3458.28
981.682	3463.71
981.981	3444.27
982.28	3416.93
982.579	3404.95
982.878	3390.72
983.177	3334.22
983.475	3356.59
983.774	3321.34
984.073	3313.88
984.372	3301.68
984.67	3351.17
984.969	3309.14
985.267	3277.95
985.566	3286.99
985.864	3277.72
986.162	3281.57
986.461	3226.65
986.759	3224.17
987.057	3206.54
987.355	3185.98
987.653	3192.53
987.951	3151.63
988.249	3148.24
988.547	3143.72
988.844	3149.59
989.142	3122.25
989.44	3093.55
989.737	3061.69
990.035	3091.97
990.332	3058.75
990.63	3044.96
990.927	2995.92
991.224	3011.06
991.521	2972.42
991.819	2951.63
992.116	2932.87
992.413	2975.13
992.71	2907.11
993.006	2899.66
993.303	2876.15
993.6	2865.98
993.897	2845.19
994.193	2837.06
994.49	2811.52
994.787	2812.88
995.083	2793.67
995.379	2796.16
995.676	2750.96
995.972	2753.9
996.268	2756.38
996.565	2763.39
996.861	2742.6
997.157	2716.38
997.453	2703.5
997.749	2708.93
998.044	2649.72
998.34	2677.06
998.636	2633.67
998.932	2621.02
999.227	2605.43
999.523	2592.77
999.818	2601.13
1000.114	2577.63
1000.409	2557.07
1000.704	2536.28
1001	2558.87
1001.295	2511.87
1001.59	2503.51
1001.885	2543.28
1002.18	2498.08
1002.475	2446.11
1002.77	2471.87
1003.065	2443.17
1003.359	2441.59
1003.654	2440.46
1003.949	2419.67
1004.243	2395.26
1004.538	2357.75
1004.832	2397.07
1005.127	2385.32
1005.421	2372.21
1005.715	2350.07
1006.009	2317.07
1006.304	2303.29
1006.598	2279.56
1006.892	2261.71
1007.186	2250.18
1007.48	2272.33
1007.773	2266.23
1008.067	2203.18
1008.361	2189.17
1008.655	2212.22
1008.948	2181.71
1009.242	2173.57
1009.535	2146.23
1009.829	2155.95
1010.122	2140.35
1010.415	2124.31
1010.708	2143.07
1011.001	2122.5
1011.295	2089.96
1011.588	2084.08
1011.881	2075.95
1012.173	2042.95
1012.466	2023.97
1012.759	2012.45
1013.052	2008.15
1013.344	2020.13
1013.637	2021.49
1013.93	1967.93
1014.222	1957.53
1014.514	1960.7
1014.807	1939.91
1015.099	1907.59
1015.391	1906.69
1015.683	1936.52
1015.976	1897.87
1016.268	1881.15
1016.56	1852
1016.851	1861.94
1017.143	1852.9
1017.435	1839.34
1017.727	1815.16
1018.018	1814.03
1018.31	1812.9
1018.602	1822.4
1018.893	1779.01
1019.185	1739.91
1019.476	1751.44
1019.767	1733.58
1020.058	1748.27
1020.35	1710.76
1020.641	1711.89
1020.932	1703.3
1021.223	1670.54
1021.514	1667.6
1021.804	1653.59
1022.095	1673.47
1022.386	1626.02
1022.677	1624.66
1022.967	1607.26
1023.258	1610.2
1023.548	1571.78
1023.839	1623.98
1024.129	1551.89
1024.419	1574.72
1024.709	1578.56
1025	1547.15
1025.29	1536.53
1025.58	1520.26
1025.87	1494.72
1026.16	1504.89
1026.449	1476.87
1026.739	1480.26
1027.029	1477.55
1027.319	1461.5
1027.608	1446.36
1027.898	1441.39
1028.187	1417.89
1028.477	1450.65
1028.766	1420.15
1029.055	1390.77
1029.344	1395.06
1029.634	1385.8
1029.923	1370.88
1030.212	1360.03
1030.501	1364.55
1030.79	1331.34
1031.078	1330.88
1031.367	1341.28
1031.656	1327.27
1031.945	1335.63
1032.233	1295.86
1032.522	1295.4
1032.81	1291.34
1033.099	1270.09
1033.387	1262.64
1033.675	1239.81
1033.963	1235.29
1034.251	1219.47
1034.54	1206.14
1034.828	1217.44
1035.116	1212.24
1035.403	1211.34
1035.691	1199.59
1035.979	1203.2
1036.267	1182.41
1036.554	1179.47
1036.842	1165.69
1037.129	1173.6
1037.417	1152.36
1037.704	1120.72
1037.992	1166.14
1038.279	1141.51
1038.566	1118.01
1038.853	1118.01
1039.14	1118.01
