Data from foil_FLMS001491_011.txt Node
Date: Tue Feb 07 11:25:27 GMT 2017
User: dcchb
Spectrometer: FLMS00149
Trigger mode: 0
Integration Time (sec): 2.000000E-2
Scans to average: 10
Electric dark correction enabled: true
Nonlinearity correction enabled: false
Boxcar width: 0
XAxis mode: Wavelengths
Number of Pixels in Spectrum: 2048
>>>>>Begin Spectral Data<<<<<
341.393	-27.8
341.776	-27.8
342.16	-27.8
342.543	-31.19
342.927	-49.72
343.31	-80.68
343.693	-67.79
344.077	-52.2
344.46	-72.99
344.843	-39.77
345.226	-43.16
345.61	-31.64
345.993	-17.17
346.376	-28.02
346.759	5.2
347.142	20.79
347.525	52.65
347.908	52.88
348.291	84.97
348.674	100.11
349.057	116.83
349.44	123.84
349.823	131.75
350.206	186.44
350.588	242.25
350.971	251.74
351.354	275.7
351.737	276.6
352.119	289.94
352.502	313.21
352.884	319.77
353.267	317.96
353.65	345.08
354.032	332.65
354.414	364.96
354.797	363.38
355.179	376.49
355.562	381.68
355.944	387.79
356.326	406.77
356.709	383.04
357.091	396.6
357.473	395.92
357.855	415.58
358.238	409.25
358.62	380.78
359.002	417.39
359.384	400.44
359.766	401.35
360.148	416.49
360.53	420.78
360.912	411.51
361.294	422.59
361.676	395.7
362.057	407.67
362.439	402.7
362.821	400.67
363.203	409.03
363.584	425.53
363.966	415.13
364.348	390.72
364.729	409.25
365.111	419.2
365.493	408.12
365.874	418.29
366.256	428.24
366.637	399.31
367.019	425.75
367.4	408.8
367.781	414.45
368.163	431.18
368.544	425.53
368.925	435.47
369.306	413.55
369.688	442.93
370.069	425.75
370.45	430.27
370.831	416.94
371.212	454.45
371.593	451.74
371.974	433.43
372.355	439.08
372.736	470.5
373.117	455.81
373.498	466.65
373.879	466.43
374.26	460.78
374.641	417.39
375.021	433.89
375.402	464.17
375.783	496.48
376.163	494.9
376.544	491.06
376.925	485.18
377.305	489.48
377.686	492.87
378.066	495.35
378.447	505.3
378.827	512.75
379.208	509.82
379.588	535.58
379.968	512.53
380.349	523.38
380.729	520.44
381.109	562.7
381.489	554.11
381.87	553.43
382.25	562.47
382.63	563.83
383.01	546.65
383.39	574.22
383.77	575.8
384.15	579.19
384.53	609.02
384.91	603.83
385.29	599.08
385.67	610.83
386.049	611.28
386.429	637.27
386.809	617.61
387.189	639.31
387.568	655.58
387.948	644.73
388.328	633.2
388.707	652.86
389.087	673.43
389.466	679.08
389.846	705.29
390.225	677.72
390.605	699.19
390.984	708.68
391.363	711.17
391.743	744.61
392.122	727.21
392.501	731.05
392.881	752.3
393.26	750.04
393.639	788.91
394.018	786.19
394.397	783.71
394.776	789.58
395.155	777.61
395.534	829.58
395.913	823.48
396.292	815.12
396.671	824.39
397.05	840.88
397.429	824.84
397.808	843.82
398.186	834.55
398.565	870.03
398.944	878.17
399.323	870.94
399.701	906.42
400.08	914.78
400.458	924.04
400.837	951.61
401.215	949.81
401.594	927.43
401.972	954.33
402.351	960.2
402.729	970.37
403.107	962.23
403.486	980.09
403.864	1002.91
404.242	1004.49
404.62	1039.75
404.999	1031.39
405.377	1058.05
405.755	1044.94
406.133	1100.31
406.511	1086.3
406.889	1092.63
407.267	1096.69
407.645	1137.15
408.023	1161.55
408.401	1161.78
408.779	1166.52
409.156	1212.85
409.534	1227.54
409.912	1229.35
410.29	1257.14
410.667	1305.05
411.045	1305.05
411.422	1301.21
411.8	1310.47
412.178	1338.95
412.555	1352.28
412.933	1381.43
413.31	1362
413.687	1408.32
414.065	1429.57
414.442	1438.61
414.819	1421.43
415.197	1470.7
415.574	1493.07
415.951	1534.87
416.328	1536.68
416.705	1523.35
417.082	1567.19
417.46	1586.85
417.837	1599.05
418.214	1577.13
418.591	1618.71
418.967	1619.39
419.344	1656
419.721	1689.45
420.098	1662.1
420.475	1696
420.852	1719.05
421.228	1725.38
421.605	1752.95
421.982	1754.3
422.358	1793.85
422.735	1822.32
423.111	1784.13
423.488	1853.74
423.864	1881.08
424.241	1874.53
424.617	1910.23
424.994	1912.04
425.37	1941.64
425.746	1914.3
426.123	2006.27
426.499	1970.34
426.875	2010.79
427.251	2062.54
427.627	2119.27
428.003	2092.15
428.379	2186.61
428.756	2187.51
429.132	2208.76
429.507	2273.16
429.883	2284.46
430.259	2302.09
430.635	2353.84
431.011	2345.25
431.387	2383.44
431.763	2446.94
432.138	2444.91
432.514	2489.65
432.89	2471.57
433.265	2559.48
433.641	2623.21
434.016	2645.58
434.392	2664.34
434.767	2737.56
435.143	2749.31
435.518	2754.73
435.894	2808.97
436.269	2832.69
436.644	2894.39
437.02	2930.77
437.395	2912.69
437.77	2933.71
438.145	2983.42
438.52	3025.91
438.895	3084.21
439.271	3088.73
439.646	3158.56
440.021	3161.27
440.395	3219.35
440.77	3176.64
441.145	3183.65
441.52	3347.26
441.895	3269.52
442.27	3346.58
442.645	3305
443.019	3406.69
443.394	3378.89
443.769	3430.19
444.143	3455.05
444.518	3451.21
444.892	3506.12
445.267	3559.68
445.641	3562.17
446.016	3563.97
446.39	3668.15
446.764	3696.63
447.139	3669.73
447.513	3731.2
447.887	3736.85
448.262	3775.72
448.636	3789.05
449.01	3862.27
449.384	3876.06
449.758	3915.6
450.132	3956.05
450.506	3987.69
450.88	4036.05
451.254	4003.06
451.628	4087.12
452.002	4138.87
452.376	4190.85
452.75	4265.88
453.123	4253.67
453.497	4348.36
453.871	4336.16
454.244	4443.5
454.618	4438.98
454.992	4529.15
455.365	4523.95
455.739	4610.5
456.112	4658.63
456.486	4737.95
456.859	4744.51
457.232	4823.83
457.606	4809.59
457.979	4889.59
458.352	4991.96
458.725	5025.63
459.099	5058.4
459.472	5151.73
459.845	5186.98
460.218	5205.29
460.591	5242.35
460.964	5282.12
461.337	5421.55
461.71	5466.07
462.083	5607.99
462.456	5550.36
462.829	5629.68
463.201	5706.29
463.574	5734.76
463.947	5841.65
464.32	5941.54
464.692	5970.92
465.065	5992.61
465.438	6142.21
465.81	6212.72
466.183	6255.88
466.555	6339.95
466.928	6408.19
467.3	6405.26
467.672	6538.59
468.045	6668.53
468.417	6673.5
468.789	6793.95
469.161	6896.99
469.534	6961.62
469.906	7037.33
470.278	7139.02
470.65	7240.71
471.022	7369.07
471.394	7499.01
471.766	7514.6
472.138	7633.02
472.51	7815.84
472.882	7946.01
473.253	7969.28
473.625	8074.59
473.997	8293.34
474.369	8303.51
474.74	8415.6
475.112	8623.05
475.484	8749.15
475.855	8857.62
476.227	8980.33
476.598	9200.21
476.97	9290.83
477.341	9494.44
477.713	9589.8
478.084	9670.25
478.455	9931.49
478.827	10079.73
479.198	10338.94
479.569	10370.8
479.94	10612.83
480.311	10589.78
480.682	10919.71
481.053	11130.1
481.424	11317.44
481.795	11450.09
482.166	11645.34
482.537	11848.28
482.908	12087.37
483.279	12137.53
483.65	12387.24
484.021	12641.25
484.391	12740.91
484.762	12968.47
485.133	13105.19
485.503	13227.22
485.874	13516.25
486.244	13680.54
486.615	13890.03
486.985	14097.03
487.356	14287.99
487.726	14457.7
488.097	14758.48
488.467	14786.73
488.837	15076.21
489.207	15211.35
489.578	15518.01
489.948	15659.25
490.318	15893.14
490.688	15983.76
491.058	16135.39
491.428	16466.23
491.798	16596.63
492.168	16879.1
492.538	16938.99
492.908	17222.37
493.278	17430.95
493.648	17404.06
494.017	17663.94
494.387	17775.58
494.757	17882.92
495.126	18215.79
495.496	18303.47
495.866	18399.74
496.235	18610.13
496.605	18770.13
496.974	18905.72
497.344	19100.74
497.713	19149.55
498.082	19345.25
498.452	19593.16
498.821	19682.65
499.19	19676.77
499.559	19951.79
499.928	20114.05
500.298	20253.48
500.667	20450.31
501.036	20479.91
501.405	20735.5
501.774	20774.82
502.143	20942.95
502.512	21095.04
502.88	21202.15
503.249	21164.42
503.618	21411.64
503.987	21513.11
504.356	21683.95
504.724	21917.62
505.093	21985.86
505.462	22045.97
505.83	22194.67
506.199	22479.41
506.567	22668.33
506.936	22662.45
507.304	23000.07
507.672	23053.86
508.041	23146.96
508.409	23377.69
508.777	23610.9
509.145	23782.43
509.514	23841.63
509.882	24034.4
510.25	24124.56
510.618	24272.36
510.986	24358.68
511.354	24636.41
511.722	24781.27
512.09	25079.79
512.458	25092.22
512.826	25321.82
513.193	25457.64
513.561	25635.71
513.929	25826.44
514.297	26047.45
514.664	26211.51
515.032	26347.56
515.4	26546.87
515.767	26749.35
516.135	26872.74
516.502	26762.23
516.869	27483.57
517.237	27322.9
517.604	27349.34
517.972	27774.86
518.339	28045.14
518.706	28023.9
519.073	28278.13
519.44	28472.92
519.808	28750.2
520.175	28863.87
520.542	29177.54
520.909	29413.69
521.276	29457.98
521.643	29642.16
522.009	29949.04
522.376	30135.03
522.743	30315.36
523.11	30593.77
523.477	31006.87
523.843	31044.38
524.21	31329.57
524.577	31583.8
524.943	31694.53
525.31	31952.38
525.676	32242.09
526.043	32268.53
526.409	32737.9
526.776	32851.57
527.142	33140.82
527.508	33299.46
527.874	33553.69
528.241	33709.17
528.607	33878.21
528.973	34290.4
529.339	34148.25
529.705	34491.52
530.071	34829.37
530.437	34965.18
530.803	35131.73
531.169	35422.35
531.535	35325.85
531.901	35445.62
532.267	35768.33
532.632	35973.74
532.998	36064.59
533.364	36331.93
533.73	36322.21
534.095	36662.76
534.461	36700.73
534.826	36824.79
535.192	37125.13
535.557	37378.45
535.923	37388.85
536.288	37595.85
536.653	37770.76
537.019	37845.11
537.384	37938.44
537.749	38020.47
538.114	38169.84
538.479	38329.84
538.845	38504.3
539.21	38518.99
539.575	38630.62
539.94	38817.96
540.305	39048.01
540.67	39041.69
541.034	39137.95
541.399	39408.46
541.764	39559.86
542.129	39725.51
542.494	39851.38
542.858	39853.19
543.223	39958.05
543.587	40171.15
543.952	40063.35
544.316	40370.92
544.681	40426.73
545.045	40623.11
545.41	40795.09
545.774	40907.4
546.138	40827.85
546.503	41077.56
546.867	41146.04
547.231	41529.76
547.595	41529.3
547.959	41692.69
548.324	41784.21
548.688	41850.2
549.052	41969.74
549.416	42016.52
549.779	42322.05
550.143	42361.15
550.507	42636.39
550.871	42906.22
551.235	42764.98
551.599	43080.9
551.962	43129.49
552.326	43328.13
552.689	43379.65
553.053	43441.12
553.417	43471.4
553.78	43981.67
554.143	43748.23
554.507	43983.7
554.87	44070.48
555.234	44542.33
555.597	44363.58
555.96	44665.04
556.323	44930.12
556.686	44951.81
557.05	45143.45
557.413	45254.18
557.776	45372.14
558.139	45600.83
558.502	45750.66
558.865	45784.11
559.228	46056.19
559.59	46288.5
559.953	46435.16
560.316	46770.52
560.679	46743.4
561.041	46923.06
561.404	47249.61
561.767	47363.5
562.129	47219.55
562.492	47808.91
562.854	47757.84
563.217	47815.92
563.579	48101.33
563.941	48223.36
564.304	48328.45
564.666	48630.59
565.028	48735.44
565.39	48776.34
565.753	49000.52
566.115	49143.34
566.477	49196.9
566.839	49439.6
567.201	49623.55
567.563	49690.67
567.925	49966.6
568.287	49928.18
568.648	50028.06
569.01	50207.04
569.372	50380.37
569.734	50311.22
570.095	50496.53
570.457	50738.55
570.819	50697.42
571.18	50746.24
571.542	50976.51
571.903	50890.19
572.265	51199.78
572.626	51250.86
572.987	51191.65
573.349	51442.49
573.71	51532.2
574.071	51551.64
574.432	51663.27
574.794	51881.57
575.155	51909.6
575.516	51835.93
575.877	51932.42
576.238	51929.71
576.599	52189.36
576.96	52199.53
577.32	52185.29
577.681	52308.23
578.042	52352.52
578.403	52291.96
578.763	52484.5
579.124	52457.83
579.485	52504.38
579.845	52679.29
580.206	52586.64
580.566	52618.96
580.927	52536.7
581.287	52684.94
581.648	52700.54
582.008	52793.64
582.368	52697.82
582.728	52705.73
583.089	52651.5
583.449	52608.56
583.809	52751.16
584.169	52717.71
584.529	52710.7
584.889	52895.11
585.249	52728.11
585.609	52620.31
585.969	52833.41
586.329	52772.17
586.688	52837.25
587.048	52724.26
587.408	52798.84
587.768	52797.93
588.127	52620.76
588.487	52623.25
588.846	52877.25
589.206	52660.76
589.565	52748.44
589.925	52805.84
590.284	52749.35
590.643	52770.59
591.003	52826.18
591.362	52862.79
591.721	52865.95
592.08	52879.51
592.44	52921.32
592.799	52884.03
593.158	52837.71
593.517	52766.75
593.876	52817.59
594.235	52809.01
594.593	52860.76
594.952	52790.48
595.311	52725.62
595.67	52781.21
596.029	53026.18
596.387	52948.21
596.746	53017.81
597.104	52896.69
597.463	52847.2
597.822	52985.05
598.18	52828.22
598.538	52872.96
598.897	53086.29
599.255	52762.68
599.613	53253.52
599.972	52985.5
600.33	53001.54
600.688	52816.92
601.046	53003.35
601.404	53117.47
601.762	53033.86
602.12	53244.25
602.478	53135.1
602.836	53227.75
603.194	53137.59
603.552	53086.74
603.91	53036.8
604.268	53169.22
604.625	53086.97
604.983	53239.28
605.341	53070.69
605.698	53267.3
606.056	53336.9
606.413	53284.25
606.771	53322.21
607.128	53363.34
607.485	53246.74
607.843	53310.46
608.2	53574.64
608.557	53506.16
608.914	53270.92
609.272	53522.21
609.629	53596.56
609.986	53663
610.343	53451.02
610.7	53599.72
611.057	53543.22
611.414	53601.08
611.771	53652.37
612.127	53712.71
612.484	53653.73
612.841	53799.49
613.198	53588.87
613.554	53721.75
613.911	53812.6
614.267	53892.82
614.624	53848.08
614.98	53930.33
615.337	53929.66
615.693	53874.52
616.05	53902.76
616.406	53978.47
616.762	53936.21
617.118	53964.91
617.475	54011.91
617.831	54024.79
618.187	53909.99
618.543	53958.13
618.899	54088.75
619.255	53993.38
619.611	53986.83
619.967	54110.89
620.323	54107.96
620.678	53949.32
621.034	53896.66
621.39	53920.39
621.746	53886.72
622.101	54134.62
622.457	53945.25
622.812	53991.8
623.168	54057.34
623.523	54054.17
623.879	54116.32
624.234	53885.81
624.589	53947.51
624.945	53983.67
625.3	54025.47
625.655	53975.3
626.01	53957.9
626.365	54050.78
626.72	53906.83
627.075	53931.69
627.43	53842.65
627.785	53804.91
628.14	53872.48
628.495	53874.06
628.85	53835.65
629.205	53702.77
629.559	53934.85
629.914	53846.72
630.269	53855.53
630.623	53637.46
630.978	53684.69
631.332	53694.63
631.687	53657.35
632.041	53582.32
632.396	53568.99
632.75	53478.37
633.104	53484.47
633.459	53415.54
633.813	53356.56
634.167	53296
634.521	53350.91
634.875	53437.01
635.229	53229.33
635.583	53059.4
635.937	53042.9
636.291	53052.62
636.645	52966.97
636.999	52935.56
637.352	52926.07
637.706	52823.02
638.06	52885.62
638.413	52805.62
638.767	52672.06
639.121	52779.4
639.474	52496.92
639.828	52566.3
640.181	52595.91
640.534	52526.3
640.888	52371.96
641.241	52250.83
641.594	52247.21
641.947	52371.28
642.301	52149.82
642.654	52235.69
643.007	52214.22
643.36	52234.33
643.713	51996.15
644.066	52176.93
644.419	51934.45
644.771	51700.79
645.124	51403.62
645.477	51245.21
645.83	51016.96
646.182	50972.67
646.535	50762.28
646.888	50897.42
647.24	50703.98
647.593	50986
647.945	50847.25
648.298	50691.32
648.65	50574.26
649.002	50325.46
649.355	50551.89
649.707	50497.66
650.059	50532.91
650.411	50927.47
650.763	50887.7
651.115	51256.73
651.467	51103.06
651.819	51074.36
652.171	50975.83
652.523	50834.37
652.875	50840.47
653.227	50765.44
653.578	51011.77
653.93	50854.71
654.282	50714.6
654.633	50518.9
654.985	50580.36
655.337	50613.58
655.688	50549.86
656.039	50602.74
656.391	50317.1
656.742	50465.11
657.094	50386.92
657.445	50454.27
657.796	50354.16
658.147	50318.9
658.498	50263.31
658.849	50288.85
659.2	50262.63
659.551	50164.33
659.902	50278.9
660.253	50064.67
660.604	50071.9
660.955	49908.29
661.306	50192.13
661.656	49959.82
662.007	49980.61
662.358	49828.29
662.708	49877.78
663.059	49923.21
663.409	49594.18
663.76	49944.9
664.11	49885.47
664.461	49820.16
664.811	49784
665.161	49749.2
665.511	49558.92
665.862	49584.23
666.212	49702.65
666.562	49657.9
666.912	49653.84
667.262	49555.08
667.612	49506.27
667.962	49607.51
668.312	49458.13
668.662	49675.76
669.011	49429.89
669.361	49297.46
669.711	49253.17
670.06	49332.26
670.41	49213.17
670.76	49138.37
671.109	49210.23
671.459	49127.75
671.808	48956
672.157	49169.55
672.507	48755.55
672.856	48843.46
673.205	48879.84
673.554	49012.27
673.904	48926.4
674.253	48986.96
674.602	48901.09
674.951	48334.55
675.3	48210.26
675.649	48638.27
675.998	48709.68
676.346	48665.61
676.695	48875.33
677.044	48486.41
677.393	48575.22
677.741	48690.02
678.09	48449.8
678.438	48198.28
678.787	48326.19
679.135	48308.56
679.484	48091.39
679.832	48186.98
680.181	48024.5
680.529	48135.01
680.877	47856.59
681.225	47928.46
681.573	48128.45
681.922	47704.28
682.27	47664.06
682.618	47826.09
682.966	47457.74
683.314	47610.5
683.661	47523.5
684.009	47470.84
684.357	47149.49
684.705	47184.52
685.053	47137.07
685.4	47067.91
685.748	46944.53
686.095	46971.65
686.443	46827.92
686.79	46795.15
687.138	46729.62
687.485	46700.02
687.832	46507.25
688.18	46496.4
688.527	46336.18
688.874	46340.48
689.221	46148.84
689.568	46000.82
689.915	45909.08
690.262	45863.43
690.609	45874.5
690.956	45748.4
691.303	45660.72
691.65	45492.82
691.997	45411.91
692.344	45105.93
692.69	45154.52
693.037	45085.82
693.383	44839.72
693.73	44831.59
694.077	44461.88
694.423	44416.01
694.769	44331.49
695.116	44298.72
695.462	44220.53
695.808	44053.76
696.155	44086.75
696.501	43849.92
696.847	43830.03
697.193	43521.79
697.539	43611.06
697.885	43261.24
698.231	43269.37
698.577	43162.25
698.923	43085.42
699.269	42868.03
699.614	42678.2
699.96	42601.82
700.306	42545.77
700.651	42447.7
700.997	42331.77
701.342	42145.78
701.688	41981.72
702.033	41936.98
702.379	41954.6
702.724	41854.49
703.069	41873.7
703.415	41419.48
703.76	41397.56
704.105	41423.32
704.45	41268.29
704.795	41053.61
705.14	40929.09
705.485	40963.44
705.83	40695.43
706.175	40794.18
706.52	40650.91
706.865	40595.32
707.209	40403.23
707.554	40162.33
707.899	40371.59
708.243	40184.03
708.588	40167.53
708.932	39815.68
709.277	39718.05
709.621	39692.97
709.966	39450.04
710.31	39413.2
710.654	39226.31
710.998	39209.14
711.342	39259.76
711.687	39295.24
712.031	38988.35
712.375	38841.69
712.719	39006.43
713.063	38859.09
713.407	38839.2
713.75	38675.14
714.094	38573
714.438	38323.51
714.782	38440.35
715.125	38314.25
715.469	38460.23
715.812	38030.41
716.156	37839.46
716.499	37808.95
716.843	37887.14
717.186	37692.79
717.53	37793.58
717.873	37815.95
718.216	37585.45
718.559	37411.22
718.902	37243.77
719.246	37417.77
719.589	37198.12
719.932	36951.12
720.275	37063.21
720.617	36928.97
720.96	36964.45
721.303	36800.16
721.646	36879.26
721.989	36582.77
722.331	36645.82
722.674	36594.74
723.016	36698.24
723.359	36350.46
723.701	36446.95
724.044	36231.14
724.386	36105.04
724.729	36046.06
725.071	36060.75
725.413	35819.17
725.755	35877.02
726.097	35725.39
726.439	35516.13
726.782	35674.77
727.124	35713.41
727.465	35437.71
727.807	35479.75
728.149	35410.14
728.491	35247.43
728.833	35297.83
729.175	35203.82
729.516	35222.58
729.858	35039.53
730.199	35083.37
730.541	34926.99
730.882	34945.07
731.224	34887.9
731.565	34668.92
731.906	34714.79
732.248	34755.92
732.589	34594.12
732.93	34435.25
733.271	34327.01
733.612	34399.32
733.953	34520.67
734.294	34286.56
734.635	34148.25
734.976	34339.89
735.317	33968.82
735.658	34025.55
735.999	34004.3
736.339	33805.66
736.68	33915.94
737.021	33677.98
737.361	33547.14
737.702	33725.67
738.042	33701.49
738.383	33517.99
738.723	33649.28
739.063	33403.64
739.404	33455.84
739.744	33457.88
740.084	33270.99
740.424	33146.7
740.764	33166.36
741.104	33314.6
741.444	33122.07
741.784	33049.07
742.124	33030.54
742.464	32917.33
742.804	32892.02
743.143	32673.49
743.483	32798.23
743.823	32702.64
744.162	32635.07
744.502	32569.77
744.841	32420.62
745.181	32581.97
745.52	32365.93
745.86	32241.41
746.199	32256.55
746.538	32130
746.877	32220.62
747.216	32180.4
747.556	31881.65
747.895	32013.85
748.234	31801.88
748.573	31677.81
748.911	31736.57
749.25	31477.14
749.589	31427.87
749.928	31385.16
750.267	31510.13
750.605	31442.56
750.944	31397.14
751.283	31318.27
751.621	31255
751.96	31075.34
752.298	31111.27
752.636	31007.09
752.975	30897.04
753.313	30731.85
753.651	30945.4
753.989	30771.39
754.327	30691.4
754.666	30555.13
755.004	30431.29
755.342	30506.77
755.679	30313.33
756.017	30218.64
756.355	30302.48
756.693	30015.03
757.031	30031.98
757.368	29937.74
757.706	29899.55
758.044	29776.84
758.381	29664.3
758.719	29591.99
759.056	29578.66
759.394	29534.36
759.731	29290.76
760.068	29199.68
760.405	29173.92
760.743	29135.51
761.08	29000.82
761.417	28882.18
761.754	28897.77
762.091	28843.99
762.428	28640.15
762.765	28527.61
763.102	28499.36
763.438	28358.58
763.775	28177.56
764.112	28324.45
764.449	28109.77
764.785	27980.51
765.122	27960.85
765.458	27711.36
765.795	27679.05
766.131	27516.11
766.467	27518.37
766.804	27304.59
767.14	27135.11
767.476	27195.22
767.812	27033.87
768.148	27060.08
768.485	26953.19
768.821	26842.68
769.157	26826.19
769.492	26689.24
769.828	26633.88
770.164	26436.14
770.5	26406.99
770.836	26261.23
771.171	26116.83
771.507	26095.81
771.842	25847
772.178	25847.68
772.513	25723.17
772.849	25709.61
773.184	25580.12
773.519	25584.64
773.855	25458.54
774.19	25345.32
774.525	25241.6
774.86	25167.93
775.195	25177.87
775.53	25087.48
775.865	24890.19
776.2	24618.79
776.535	24500.6
776.87	24477.32
777.205	24399.58
777.539	24166.37
777.874	24299.02
778.209	24146.26
778.543	24129.08
778.878	23886.38
779.212	23878.69
779.547	23801.86
779.881	23772.48
780.215	23529.1
780.55	23678.7
780.884	23450.23
781.218	23333.17
781.552	23344.47
781.886	23233.51
782.22	23163.91
782.554	22968.44
782.888	22745.84
783.222	22701.78
783.556	22553.31
783.889	22518.28
784.223	22281.45
784.557	22351.73
784.89	22440.99
785.224	22319.87
785.557	22062.24
785.891	22150.38
786.224	22048.01
786.558	22009.59
786.891	21856.37
787.224	21706.32
787.557	21735.02
787.891	21551.52
788.224	21503.84
788.557	21423.17
788.89	21356.73
789.223	21328.7
789.556	21249.16
789.888	21166.22
790.221	21111.99
790.554	20864.08
790.887	20808.94
791.219	20867.7
791.552	20818.66
791.884	20670.42
792.217	20604.88
792.549	20495.05
792.882	20408.5
793.214	20209.86
793.546	20296.42
793.879	20123.31
794.211	20018.91
794.543	20133.48
794.875	20019.36
795.207	20088.06
795.539	19834.73
795.871	19920.15
796.203	19787.73
796.535	19570.11
796.867	19589.32
797.198	19495.98
797.53	19415.08
797.862	19446.49
798.193	19394.29
798.525	19175.99
798.856	19208.99
799.188	18973.51
799.519	18937.81
799.85	18915.89
800.182	18938.71
800.513	18857.58
800.844	18750.24
801.175	18847.19
801.506	18649.45
801.837	18527.87
802.168	18649.68
802.499	18590.02
802.83	18390.25
803.161	18373.75
803.491	18308.67
803.822	18278.84
804.153	18181.44
804.483	18038.4
804.814	18014.67
805.145	17950.94
805.475	17964.5
805.805	17888.12
806.136	17751.85
806.466	17782.36
806.796	17728.57
807.126	17585.53
807.457	17626.88
807.787	17540.33
808.117	17358.64
808.447	17384.4
808.777	17371.29
809.107	17354.35
809.436	17276.16
809.766	17216.27
810.096	17194.58
810.426	17076.16
810.755	17124.97
811.085	17093.79
811.414	16978.99
811.744	16862.61
812.073	16762.05
812.403	16788.94
812.732	16687.47
813.061	16738.77
813.39	16564.08
813.719	16560.69
814.049	16684.08
814.378	16575.16
814.707	16414.71
815.036	16455.61
815.365	16381.26
815.693	16268.05
816.022	16265.56
816.351	16188.5
816.68	16087.26
817.008	16179.69
817.337	15995.06
817.665	15954.38
817.994	16012.01
818.322	15976.3
818.651	15869.19
818.979	15812.92
819.307	15875.06
819.636	15820.6
819.964	15675.52
820.292	15741.51
820.62	15675.97
820.948	15671.45
821.276	15646.37
821.604	15581.06
821.932	15642.75
822.259	15687.72
822.587	15590.78
822.915	15663.32
823.243	15597.33
823.57	15521.85
823.898	15621.06
824.225	15548.74
824.553	15515.75
824.88	15621.06
825.207	15565.92
825.535	15483.89
825.862	15518.24
826.189	15483.89
826.516	15535.64
826.843	15527.73
827.17	15521.17
827.497	15546.26
827.824	15411.35
828.151	15604.79
828.478	15471.68
828.805	15474.62
829.131	15497.9
829.458	15432.81
829.785	15346.49
830.111	15345.59
830.438	15448.86
830.764	15499.25
831.09	15440.95
831.417	15365.47
831.743	15445.92
832.069	15412.7
832.395	15269.88
832.722	15410.67
833.048	15296.77
833.374	15393.49
833.7	15220.84
834.026	15311.91
834.351	15355.98
834.677	15246.6
835.003	15316.21
835.329	15227.4
835.654	15287.06
835.98	15208.87
836.306	15142.2
836.631	15162.31
836.956	15167.96
837.282	15208.87
837.607	15044.58
837.932	15048.42
838.258	15061.52
838.583	14991.24
838.908	14948.53
839.233	14971.36
839.558	14982.2
839.883	14875.77
840.208	14847.07
840.533	14861.08
840.858	14845.94
841.182	14767.07
841.507	14780.85
841.832	14656.56
842.156	14715.55
842.481	14654.98
842.805	14574.53
843.13	14527.53
843.454	14608.88
843.778	14525.49
844.103	14462.9
844.427	14527.98
844.751	14382.45
845.075	14396.91
845.399	14385.84
845.723	14308.1
846.047	14278.72
846.371	14214.32
846.695	14164.37
847.019	14139.06
847.343	14009.35
847.666	13979.52
847.99	13880.09
848.313	13822.24
848.637	13780.88
848.96	13734.55
849.284	13783.37
849.607	13677.38
849.931	13660.21
850.254	13579.98
850.577	13464.73
850.9	13334.79
851.223	13393.32
851.546	13277.62
851.869	13185.64
852.192	13314.68
852.515	13163.04
852.838	13146.77
853.161	13108.81
853.483	13058.19
853.806	12936.38
854.129	12949.94
854.451	12834.46
854.774	12822.94
855.096	12758.31
855.419	12812.54
855.741	12781.58
856.063	12740.68
856.385	12662.49
856.708	12689.16
857.03	12616.62
857.352	12540.91
857.674	12457.53
857.996	12477.64
858.318	12400.8
858.64	12406.68
858.961	12388.6
859.283	12370.07
859.605	12194.48
859.926	12214.14
860.248	12140.7
860.57	12290.07
860.891	12213.01
861.212	12167.36
861.534	12132.79
861.855	12155.84
862.176	12174.37
862.498	12119.46
862.819	12172.34
863.14	12025.67
863.461	12045.11
863.782	11945.45
864.103	11978.44
864.424	11982.28
864.745	12025.9
865.065	11929.63
865.386	11834.94
865.707	11954.94
866.027	11959.23
866.348	11878.33
866.668	11869.52
866.989	11798.33
867.309	11684.21
867.63	11738
867.95	11682.4
868.27	11587.27
868.59	11680.37
868.91	11662.97
869.23	11684.21
869.55	11625.01
869.87	11671.11
870.19	11707.49
870.51	11624.1
870.83	11595.85
871.15	11524.67
871.469	11543.43
871.789	11470.66
872.109	11477.89
872.428	11396.99
872.748	11401.51
873.067	11356.99
873.386	11351.34
873.706	11340.94
874.025	11399.7
874.344	11308.63
874.663	11326.93
874.982	11383.2
875.301	11328.06
875.62	11258.01
875.939	11216.2
876.258	11263.43
876.577	11248.97
876.896	11281.74
877.214	11196.99
877.533	11209.87
877.852	11236.77
878.17	11180.72
878.489	11196.54
878.807	11201.74
879.125	11173.49
879.444	11075.64
879.762	11057.56
880.08	11034.29
880.398	11015.98
880.716	11009.2
881.034	10968.75
881.352	11007.17
881.67	11033.61
881.988	10897.34
882.306	10927.85
882.624	10879.26
882.941	10835.42
883.259	10845.59
883.577	10862.31
883.894	10766.95
884.212	10783.22
884.529	10850.34
884.846	10735.08
885.164	10710.45
885.481	10683.11
885.798	10686.27
886.115	10674.75
886.432	10644.24
886.75	10525.6
887.067	10594.3
887.383	10532.38
887.7	10535.09
888.017	10554.98
888.334	10456.22
888.651	10473.62
888.967	10523.79
889.284	10380.29
889.6	10351.82
889.917	10235.89
890.233	10369.67
890.55	10278.6
890.866	10282.67
891.182	10271.59
891.498	10194.08
891.815	10172.84
892.131	10118.83
892.447	10100.3
892.763	10082.22
893.079	10103.92
893.395	10000.87
893.71	10100.53
894.026	9964.26
894.342	9953.18
894.657	9888.33
894.973	9889.23
895.289	9903.47
895.604	9822.34
895.92	9742.34
896.235	9766.3
896.55	9784.6
896.865	9703.93
897.181	9704.6
897.496	9664.15
897.811	9598.39
898.126	9603.59
898.441	9551.61
898.756	9589.13
899.071	9527.66
899.386	9591.61
899.7	9434.33
900.015	9406.08
900.33	9383.48
900.644	9300.09
900.959	9369.47
901.273	9316.37
901.588	9211.96
901.902	9243.37
902.216	9220.32
902.531	9150.27
902.845	9125.86
903.159	9050.61
903.473	9038.41
903.787	9042.7
904.101	8989.59
904.415	9007.67
904.729	8952.98
905.042	8868.92
905.356	8736.27
905.67	8775.36
905.984	8856.04
906.297	8783.05
906.611	8712.54
906.924	8723.61
907.237	8716.61
907.551	8678.87
907.864	8635.48
908.177	8571.53
908.491	8621.92
908.804	8529.27
909.117	8407.46
909.43	8425.99
909.743	8420.8
910.056	8418.76
910.368	8388.03
910.681	8327.69
910.994	8278.88
911.307	8292.44
911.619	8196.85
911.932	8293.79
912.244	8218.54
912.557	8174.93
912.869	8089.28
913.181	8063.06
913.494	8027.13
913.806	8021.26
914.118	7997.3
914.43	7902.62
914.742	7939.9
915.054	7871.66
915.366	7876.18
915.678	7745.11
915.99	7756.41
916.302	7740.36
916.613	7736.97
916.925	7639.35
917.236	7666.47
917.548	7692.68
917.859	7607.94
918.171	7555.06
918.482	7534.72
918.794	7435.51
919.105	7433.02
919.416	7393.7
919.727	7436.64
920.038	7359.58
920.349	7293.14
920.66	7265.8
920.971	7279.81
921.282	7276.19
921.593	7209.53
921.903	7135.86
922.214	7183.54
922.525	7101.51
922.835	7077.1
923.146	7008.63
923.456	7066.25
923.767	7020.15
924.077	6937.67
924.387	6956.88
924.697	6930.89
925.008	6869.42
925.318	6821.52
925.628	6854.06
925.938	6763.89
926.248	6765.25
926.558	6750.1
926.867	6776.32
927.177	6704
927.487	6601.63
927.796	6591.01
928.106	6593.72
928.416	6526.38
928.725	6534.52
929.034	6516.21
929.344	6505.82
929.653	6439.83
929.962	6448.87
930.271	6396.44
930.581	6309.66
930.89	6294.75
931.199	6319.16
931.508	6246.62
931.817	6253.62
932.125	6248.88
932.434	6231.47
932.743	6185.6
933.051	6148.09
933.36	6125.71
933.669	6119.16
933.977	6048.2
934.286	6048.2
934.594	6057.92
934.902	6014.53
935.21	5966.85
935.519	5957.58
935.827	5922.56
936.135	5908.55
936.443	5854.31
936.751	5811.6
937.059	5798.94
937.367	5830.13
937.674	5758.72
937.982	5764.59
938.29	5738.15
938.597	5669.68
938.905	5658.61
939.213	5672.17
939.52	5592.62
939.827	5632.17
940.135	5576.12
940.442	5579.74
940.749	5497.03
941.056	5549.23
941.363	5475.56
941.67	5443.92
941.977	5415.68
942.284	5429.69
942.591	5389.69
942.898	5356.02
943.205	5349.46
943.511	5319.18
943.818	5302.91
944.125	5240.54
944.431	5231.73
944.738	5277.38
945.044	5227.43
945.35	5184.27
945.657	5148.34
945.963	5120.54
946.269	5099.07
946.575	5097.27
946.881	5099.98
947.187	5095.01
947.493	5035.57
947.799	5052.97
948.105	5014.11
948.41	4931.85
948.716	4922.36
949.022	4910.15
949.327	4903.6
949.633	4842.13
949.938	4875.35
950.244	4816.37
950.549	4817.95
950.854	4786.09
951.16	4792.19
951.465	4742.47
951.77	4730.95
952.075	4691.63
952.38	4645.3
952.685	4659.31
952.99	4631.29
953.294	4653.66
953.599	4591.07
953.904	4594.46
954.209	4581.57
954.513	4562.37
954.818	4517.17
955.122	4515.14
955.426	4460.22
955.731	4448.02
956.035	4490.28
956.339	4467.23
956.643	4440.34
956.948	4386.55
957.252	4344.29
957.556	4329.38
957.86	4299.1
958.163	4312.43
958.467	4303.39
958.771	4271.07
959.075	4282.15
959.378	4204.64
959.682	4223.62
959.985	4215.03
960.289	4180
960.592	4161.25
960.896	4175.26
961.199	4084.41
961.502	4085.99
961.805	4094.13
962.108	4069.27
962.411	4067.92
962.714	4011.42
963.017	3987.69
963.32	4055.71
963.623	3970.07
963.926	3990.18
964.228	3943.85
964.531	3988.6
964.833	3937.07
965.136	3898.2
965.438	3876.73
965.741	3843.74
966.043	3849.39
966.345	3840.13
966.648	3797.41
966.95	3835.38
967.252	3795.83
967.554	3764.65
967.856	3768.49
968.158	3748.6
968.46	3715.61
968.761	3733.69
969.063	3684.2
969.365	3697.3
969.666	3614.82
969.968	3619.11
970.269	3618.89
970.571	3650.53
970.872	3572.34
971.174	3587.02
971.475	3580.92
971.776	3559.45
972.077	3538.44
972.378	3523.07
972.679	3478.1
972.98	3512
973.281	3455.28
973.582	3469.51
973.883	3466.8
974.183	3428.61
974.484	3428.38
974.785	3356.75
975.085	3368.95
975.386	3377.76
975.686	3335.96
975.986	3310.65
976.287	3297.31
976.587	3351.55
976.887	3278.56
977.187	3300.03
977.487	3265.45
977.787	3223.87
978.087	3260.25
978.387	3197.66
978.687	3214.38
978.987	3191.1
979.286	3204.66
979.586	3165.57
979.885	3130.54
980.185	3123.76
980.484	3123.76
980.784	3091.67
981.083	3097.09
981.382	3067.94
981.682	3079.02
981.981	3037.89
982.28	3044.67
982.579	3035.63
982.878	3039.69
983.177	2981.16
983.475	3009.41
983.774	2979.58
984.073	2950.43
984.372	2928.06
984.67	2935.29
984.969	2904.1
985.267	2919.47
985.566	2853.03
985.864	2871.34
986.162	2853.03
986.461	2880.6
986.759	2841.28
987.057	2827.04
987.355	2802.41
987.653	2813.26
987.951	2788.63
988.249	2776.2
988.547	2750.44
988.844	2732.58
989.142	2700.27
989.44	2723.32
989.737	2707.27
990.035	2689.42
990.332	2657.33
990.63	2674.05
990.927	2646.94
991.224	2606.26
991.521	2611
991.819	2613.94
992.116	2602.19
992.413	2598.35
992.71	2550.22
993.006	2625.24
993.303	2527.84
993.6	2542.76
993.897	2543.89
994.193	2541.63
994.49	2467.96
994.787	2496.88
995.083	2471.12
995.379	2478.35
995.676	2427.28
995.972	2441.29
996.268	2425.02
996.565	2392.03
996.861	2418.24
997.157	2385.47
997.453	2375.76
997.749	2371.24
998.044	2333.05
998.34	2351.35
998.636	2325.59
998.932	2322.88
999.227	2316.1
999.523	2307.51
999.818	2292.6
1000.114	2305.93
1000.409	2275.42
1000.704	2230.45
1001	2222.31
1001.295	2248.3
1001.59	2244.23
1001.885	2203.56
1002.18	2173.73
1002.475	2189.55
1002.77	2173.73
1003.065	2135.31
1003.359	2163.33
1003.654	2117.01
1003.949	2133.05
1004.243	2111.36
1004.538	2062.54
1004.832	2079.27
1005.127	2084.24
1005.421	2041.08
1005.715	2038.59
1006.009	2041.3
1006.304	2053.96
1006.598	2022.55
1006.892	2004.24
1007.186	1978.25
1007.48	1987.52
1007.773	1953.62
1008.067	1954.75
1008.361	1939.84
1008.655	1952.27
1008.948	1937.35
1009.242	1907.07
1009.535	1882.21
1009.829	1883.57
1010.122	1917.24
1010.415	1912.04
1010.708	1845.15
1011.001	1858.93
1011.295	1852.38
1011.588	1828.88
1011.881	1816
1012.173	1824.36
1012.466	1805.38
1012.759	1803.79
1013.052	1776.22
1013.344	1788.2
1013.637	1777.58
1013.93	1745.94
1014.222	1744.36
1014.514	1731.71
1014.807	1712.05
1015.099	1700.07
1015.391	1691.71
1015.683	1713.4
1015.976	1675.66
1016.268	1654.42
1016.56	1609
1016.851	1675.21
1017.143	1635.44
1017.435	1634.99
1017.727	1617.36
1018.018	1610.58
1018.31	1603.8
1018.602	1582.56
1018.893	1580.3
1019.185	1582.56
1019.476	1549.34
1019.767	1544.59
1020.058	1523.35
1020.35	1518.38
1020.641	1488.1
1020.932	1495.55
1021.223	1489
1021.514	1463.24
1021.804	1475.67
1022.095	1448.32
1022.386	1426.18
1022.677	1442.67
1022.967	1443.8
1023.258	1417.59
1023.548	1421.21
1023.839	1389.79
1024.129	1386.86
1024.419	1370.59
1024.709	1395.44
1025	1362
1025.29	1377.82
1025.58	1352.96
1025.87	1316.58
1026.16	1315.45
1026.449	1314.99
1026.739	1301.21
1027.029	1324.94
1027.319	1283.13
1027.608	1291.94
1027.898	1283.81
1028.187	1258.5
1028.477	1260.31
1028.766	1250.36
1029.055	1244.49
1029.344	1251.72
1029.634	1210.14
1029.923	1226.18
1030.212	1199.52
1030.501	1187.54
1030.79	1188.9
1031.078	1202.68
1031.367	1185.28
1031.656	1134.66
1031.945	1175.34
1032.233	1139.41
1032.522	1150.93
1032.81	1140.08
1033.099	1139.18
1033.387	1125.62
1033.675	1116.81
1033.963	1110.93
1034.251	1124.26
1034.54	1088.33
1034.828	1103.02
1035.116	1077.26
1035.403	1094.43
1035.691	1064.15
1035.979	1073.19
1036.267	1063.93
1036.554	1032.29
1036.842	1032.97
1037.129	1038.62
1037.417	1025.28
1037.704	1009.92
1037.992	1008.56
1038.279	1018.28
1038.566	986.64
1038.853	986.64
1039.14	986.64
