Data from foil_FLMS001491_033.txt Node
Date: Tue Feb 07 11:26:14 GMT 2017
User: dcchb
Spectrometer: FLMS00149
Trigger mode: 0
Integration Time (sec): 2.000000E-2
Scans to average: 10
Electric dark correction enabled: true
Nonlinearity correction enabled: false
Boxcar width: 0
XAxis mode: Wavelengths
Number of Pixels in Spectrum: 2048
>>>>>Begin Spectral Data<<<<<
341.393	-10.48
341.776	-10.48
342.16	-10.48
342.543	-50.03
342.927	-94.32
343.31	-76.01
343.693	-74.66
344.077	-62.23
344.46	-58.61
344.843	-56.35
345.226	-43.02
345.61	-21.78
345.993	-8.9
346.376	2.18
346.759	16.19
347.142	3.53
347.525	53.25
347.908	43.53
348.291	86.47
348.674	96.64
349.057	99.8
349.44	136.63
349.823	142.74
350.206	175.28
350.588	250.76
350.971	284.2
351.354	309.29
351.737	324.65
352.119	312.68
352.502	333.69
352.884	346.57
353.267	365.1
353.65	395.39
354.032	406.23
354.414	407.36
354.797	396.06
355.179	399.68
355.562	421.15
355.944	406.46
356.326	427.47
356.709	431.54
357.091	432.67
357.473	439.68
357.855	455.27
358.238	433.12
358.62	453.01
359.002	427.93
359.384	446.68
359.766	432.45
360.148	451.88
360.53	456.63
360.912	442.16
361.294	441.49
361.676	461.6
362.057	441.94
362.439	464.76
362.821	456.85
363.203	458.21
363.584	468.6
363.966	474.48
364.348	467.47
364.729	448.72
365.111	462.05
365.493	462.5
365.874	471.54
366.256	467.25
366.637	448.04
367.019	450.98
367.4	474.48
367.781	462.05
368.163	469.51
368.544	492.33
368.925	473.35
369.306	480.35
369.688	489.17
370.069	481.94
370.45	501.6
370.831	490.3
371.212	500.69
371.593	475.61
371.974	506.57
372.355	495.5
372.736	517.42
373.117	505.44
373.498	522.84
373.879	502.73
374.26	512.44
374.641	506.12
375.021	493.24
375.402	536.4
375.783	568.26
376.163	605.78
376.544	562.84
376.925	555.83
377.305	565.55
377.686	566
378.066	585.44
378.447	586.79
378.827	608.03
379.208	610.07
379.588	618.2
379.968	605.1
380.349	605.32
380.729	620.92
381.109	647.58
381.489	644.42
381.87	638.99
382.25	642.16
382.63	645.77
383.01	655.04
383.39	681.25
383.77	679.45
384.15	674.7
384.53	697.07
384.91	695.49
385.29	678.32
385.67	709.28
386.049	702.04
386.429	734.36
386.809	733.23
387.189	722.38
387.568	742.49
387.948	761.03
388.328	781.36
388.707	763.29
389.087	785.66
389.466	778.43
389.846	808.48
390.225	817.29
390.605	806.9
390.984	830.85
391.363	855.03
391.743	848.71
392.122	891.64
392.501	896.61
392.881	878.31
393.26	888.03
393.639	910.85
394.018	920.79
394.397	897.07
394.776	937.07
395.155	941.13
395.534	918.54
395.913	957.86
396.292	973.45
396.671	990.62
397.05	989.49
397.429	989.27
397.808	997.4
398.186	1011.19
398.565	1040.57
398.944	1023.39
399.323	1029.49
399.701	1058.87
400.08	1077.85
400.458	1075.14
400.837	1102.49
401.215	1098.64
401.594	1129.15
401.972	1117.63
402.351	1152.2
402.729	1141.35
403.107	1155.82
403.486	1221.35
403.864	1196.27
404.242	1202.82
404.62	1215.7
404.999	1231.52
405.377	1264.74
405.755	1269.71
406.133	1267.9
406.511	1282.82
406.889	1298.41
407.267	1341.8
407.645	1362.59
408.023	1402.36
408.401	1387.45
408.779	1398.97
409.156	1455.24
409.534	1445.07
409.912	1484.62
410.29	1481.46
410.667	1511.29
411.045	1535.47
411.422	1555.58
411.8	1563.04
412.178	1608.01
412.555	1636.71
412.933	1675.8
413.31	1666.09
413.687	1692.3
414.065	1743.6
414.442	1768.91
414.819	1734.78
415.197	1769.36
415.574	1779.3
415.951	1807.33
416.328	1849.13
416.705	1845.97
417.082	1860.21
417.46	1848.68
417.837	1909.92
418.214	1943.37
418.591	1953.99
418.967	1970.48
419.344	1971.84
419.721	2019.52
420.098	1997.15
420.475	2062.23
420.852	2075.34
421.228	2112.85
421.605	2112.85
421.982	2149.24
422.358	2171.38
422.735	2180.2
423.111	2211.61
423.488	2195.79
423.864	2237.37
424.241	2294.54
424.617	2311.27
424.994	2339.74
425.37	2331.83
425.746	2336.35
426.123	2354.2
426.499	2389.23
426.875	2419.51
427.251	2497.25
427.627	2554.65
428.003	2565.05
428.379	2573.18
428.756	2613.86
429.132	2664.25
429.507	2688.88
429.883	2716.45
430.259	2770.01
430.635	2774.53
431.011	2806.85
431.387	2908.09
431.763	2936.11
432.138	2990.57
432.514	3037.12
432.89	3013.62
433.265	3113.51
433.641	3124.8
434.016	3124.8
434.392	3186.05
434.767	3282.77
435.143	3291.81
435.518	3337.68
435.894	3358.25
436.269	3383.1
436.644	3458.13
437.02	3484.8
437.395	3487.28
437.77	3549.88
438.145	3587.39
438.52	3598.24
438.895	3661.74
439.271	3630.33
439.646	3764.34
440.021	3757.56
440.395	3753.49
440.77	3761.17
441.145	3842.07
441.52	3873.49
441.895	3915.97
442.27	3912.81
442.645	3903.09
443.019	3999.81
443.394	4008.85
443.769	4060.83
444.143	4016.76
444.518	4083.65
444.892	4065.35
445.267	4114.84
445.641	4188.73
446.016	4183.99
446.39	4248.17
446.764	4228.5
447.139	4256.53
447.513	4341.72
447.887	4342.4
448.262	4375.62
448.636	4369.07
449.01	4386.01
449.384	4486.35
449.758	4489.29
450.132	4571.09
450.506	4615.84
450.88	4630.75
451.254	4646.57
451.628	4714.82
452.002	4801.82
452.376	4853.57
452.75	4878.88
453.123	4899
453.497	5007.92
453.871	5048.37
454.244	5126.56
454.618	5140.8
454.992	5197.29
455.365	5227.35
455.739	5350.96
456.112	5420.11
456.486	5496.72
456.859	5534.23
457.232	5640.9
457.606	5590.95
457.979	5748.69
458.352	5837.05
458.725	5877.73
459.099	5905.07
459.472	6055.12
459.845	6132.86
460.218	6098.29
460.591	6226.42
460.964	6206.53
461.337	6375.11
461.71	6501.89
462.083	6609.68
462.456	6566.97
462.829	6677.48
463.201	6812.84
463.574	6784.6
463.947	6883.58
464.32	7038.15
464.692	7086.96
465.065	7116.56
465.438	7254.41
465.81	7376.9
466.183	7458.7
466.555	7558.81
466.928	7648.08
467.3	7678.13
467.672	7794.06
468.045	7962.64
468.417	7984.34
468.789	8071.34
469.161	8153.6
469.534	8351.79
469.906	8508.62
470.278	8565.79
470.65	8648.73
471.022	8856.63
471.394	9016.63
471.766	9075.38
472.138	9168.26
472.51	9374.13
472.882	9517.18
473.253	9631.75
473.625	9727.12
473.997	10042.59
474.369	10028.8
474.74	10151.96
475.112	10321.68
475.484	10476.93
475.855	10666.75
476.227	10873.08
476.598	11058.16
476.97	11183.8
477.341	11371.82
477.713	11610.23
478.084	11643.9
478.455	12097.9
478.827	12076.66
479.198	12465.35
479.569	12423.09
479.94	12812.46
480.311	12963.19
480.682	13273.01
481.053	13483.4
481.424	13749.16
481.795	13881.36
482.166	14058.3
482.537	14233.21
482.908	14544.84
483.279	14705.07
483.65	14974.44
484.021	15293.3
484.391	15399.96
484.762	15577.58
485.133	15694.64
485.503	15966.95
485.874	16323.55
486.244	16442.19
486.615	16831.56
486.985	17004.44
487.356	17286.24
487.726	17443.98
488.097	17745.21
488.467	17797.87
488.837	18160.79
489.207	18416.61
489.578	18617.96
489.948	18838.97
490.318	19154.44
490.688	19223.59
491.058	19530.93
491.428	19859.05
491.798	19897.02
492.168	20410
492.538	20386.72
492.908	20580.17
493.278	20965.47
493.648	21083.2
494.017	21315.06
494.387	21376.3
494.757	21601.38
495.126	21826.69
495.496	21921.6
495.866	22109.39
496.235	22404.98
496.605	22433.9
496.974	22802.71
497.344	22937.62
497.713	23042.47
498.082	23207.44
498.452	23478.62
498.821	23577.83
499.19	23665.06
499.559	23966.52
499.928	24017.14
500.298	24281.99
500.667	24532.15
501.036	24508.2
501.405	24706.84
501.774	24827.06
502.143	25004.23
502.512	25117.67
502.88	25384.11
503.249	25491.45
503.618	25665.23
503.987	25730.09
504.356	25896.18
504.724	26135.73
505.093	26277.42
505.462	26403.74
505.83	26584.98
506.199	26789.27
506.567	27191.74
506.936	27109.71
507.304	27547.67
507.672	27545.41
508.041	27669.47
508.409	27859.3
508.777	28116.69
509.145	28386.51
509.514	28508.32
509.882	28691.59
510.25	28783.34
510.618	29099.49
510.986	29175.65
511.354	29397.33
511.722	29649.31
512.09	29906.47
512.458	29948.05
512.826	30228.5
513.193	30440.92
513.561	30471.2
513.929	30829.61
514.297	31113.22
514.664	31359.09
515.032	31439.31
515.4	31675.24
515.767	31862.58
516.135	32146.87
516.502	32032.97
516.869	32603.13
517.237	32805.83
517.604	32657.81
517.972	33045.15
518.339	33347.96
518.706	33475.87
519.073	33600.16
519.44	33966.03
519.808	34258
520.175	34322.4
520.542	34809.85
520.909	34979.79
521.276	35034.93
521.643	35423.16
522.009	35683.72
522.376	35976.37
522.743	36192.41
523.11	36669.46
523.477	36913.29
523.843	37121.88
524.21	37541.98
524.577	37699.26
524.943	37849.32
525.31	37988.29
525.676	38364.1
526.043	38786.92
526.409	38858.1
526.776	39312.55
527.142	39460.8
527.508	39576.73
527.874	39979.43
528.241	40276.14
528.607	40345.3
528.973	40878.16
529.339	40760.43
529.705	41302.56
530.071	41458.26
530.437	41716.11
530.803	41891.02
531.169	42099.83
531.535	42044.69
531.901	42422.3
532.267	42639.25
532.632	42864.55
532.998	43051.89
533.364	43309.96
533.73	43402.84
534.095	43925.54
534.461	43935.48
534.826	44092.77
535.192	44237.62
535.557	44544.51
535.923	44538.86
536.288	44831.96
536.653	45099.29
537.019	44959.19
537.384	45135
537.749	45450.25
538.114	45607.76
538.479	45697.24
538.845	45847.07
539.21	45948.99
539.575	46026.95
539.94	46293.84
540.305	46568.18
540.67	46504.23
541.034	46770.44
541.399	46945.8
541.764	46974.73
542.129	47353.92
542.494	47343.53
542.858	47449.52
543.223	47508.27
543.587	47779
543.952	47781.03
544.316	47904.42
544.681	47900.12
545.045	48155.26
545.41	48331.75
545.774	48519.77
546.138	48533.55
546.503	48820.1
546.867	48788.01
547.231	49130.6
547.595	49217.6
547.959	49337.83
548.324	49451.04
548.688	49550.93
549.052	49789.34
549.416	49842.67
549.779	49809.9
550.143	50016.45
550.507	50290.34
550.871	50389.1
551.235	50480.4
551.599	50692.37
551.962	50807.62
552.326	50807.62
552.689	51131.9
553.053	50979.59
553.417	51234.73
553.78	51670.2
554.143	51566.69
554.507	51612.12
554.87	51735.5
555.234	52085.1
555.597	51922.62
555.96	52103.86
556.323	52253.23
556.686	52346.11
557.05	52641.47
557.413	52686.44
557.776	52932.99
558.139	53068.8
558.502	53103.6
558.865	53244.16
559.228	53493.2
559.59	53506.76
559.953	53592.86
560.316	53903.81
560.679	53979.51
561.041	54092.05
561.404	54280.3
561.767	54521.65
562.129	54362.55
562.492	54746.72
562.854	54733.84
563.217	54887.29
563.579	54890.45
563.941	55047.28
564.304	55192.36
564.666	55389.42
565.028	55507.16
565.39	55638.68
565.753	55812.23
566.115	55914.38
566.477	55905.56
566.839	56143.98
567.201	56333.12
567.563	56258.1
567.925	56407.02
568.287	56437.75
568.648	56572.21
569.01	56775.37
569.372	56897.18
569.734	56877.97
570.095	57008.13
570.457	57143.5
570.819	57219.65
571.18	57247.9
571.542	57368.58
571.903	57418.97
572.265	57512.3
572.626	57613.09
572.987	57647.67
573.349	57805.85
573.71	57915.68
574.071	57948.45
574.432	58019.18
574.794	58196.58
575.155	58077.94
575.516	58036.58
575.877	58201.55
576.238	58267.76
576.599	58345.27
576.96	58338.49
577.32	58448.1
577.681	58554.76
578.042	58559.51
578.403	58538.72
578.763	58589.79
579.124	58616.23
579.485	58793.62
579.845	58773.74
580.206	58760.18
580.566	58803.11
580.927	58809.89
581.287	58921.76
581.648	58846.73
582.008	58976.9
582.368	58833.4
582.728	59004.47
583.089	58955.65
583.449	58988.65
583.809	59019.15
584.169	59047.63
584.529	59036.33
584.889	59170.56
585.249	59058.02
585.609	58974.64
585.969	59048.53
586.329	59055.54
586.688	59081.75
587.048	59104.8
587.408	59030.45
587.768	59036.78
588.127	59063.22
588.487	59059.38
588.846	59212.6
589.206	59063.22
589.565	59092.15
589.925	59150.45
590.284	59171.69
590.643	59139.83
591.003	59156.1
591.362	59294.18
591.721	59234.52
592.08	59206.95
592.44	59293.27
592.799	59302.08
593.158	59199.49
593.517	59195.65
593.876	59217.12
594.235	59164.46
594.593	59217.57
594.952	59273.38
595.311	59205.14
595.67	59175.76
596.029	59346.38
596.387	59403.33
596.746	59354.51
597.104	59335.53
597.463	59293.27
597.822	59461.85
598.18	59432.7
598.538	59426.15
598.897	59558.58
599.255	59359.03
599.613	59717.67
599.972	59534.62
600.33	59574.62
600.688	59456.88
601.046	59527.39
601.404	59678.57
601.762	59533.04
602.12	59688.29
602.478	59687.39
602.836	59653.04
603.194	59550.67
603.552	59651.68
603.91	59619.59
604.268	59634.05
604.625	59592.47
604.983	59731
605.341	59591.12
605.698	59817.1
606.056	59865.23
606.413	59709.76
606.771	59821.85
607.128	59996.76
607.485	59891
607.843	59916.76
608.2	59938
608.557	60034.27
608.914	59914.95
609.272	60056.42
609.629	60096.41
609.986	60200.59
610.343	60085.12
610.7	60266.81
611.057	60209.86
611.414	60212.8
611.771	60265.22
612.127	60368.5
612.484	60270.65
612.841	60374.37
613.198	60284.66
613.554	60291.89
613.911	60433.81
614.267	60429.96
614.624	60427.7
614.98	60481.71
615.337	60577.98
615.693	60561.71
616.05	60495.27
616.406	60627.25
616.762	60549.96
617.118	60545.89
617.475	60454.82
617.831	60629.06
618.187	60613.91
618.543	60631.32
618.899	60724.19
619.255	60711.99
619.611	60668.15
619.967	60739.79
620.323	60806.68
620.678	60773.01
621.034	60655.04
621.39	60700.92
621.746	60649.62
622.101	60928.03
622.457	60764.87
622.812	60781.82
623.168	60850.29
623.523	60816.85
623.879	60928.71
624.234	60721.26
624.589	60817.53
624.945	60797.19
625.3	60818.2
625.655	60834.25
626.01	60899.56
626.365	60878.77
626.72	60730.52
627.075	60730.3
627.43	60698.43
627.785	60720.58
628.14	60744.98
628.495	60683.74
628.85	60736.85
629.205	60648.49
629.559	60814.36
629.914	60602.84
630.269	60649.62
630.623	60594.48
630.978	60573.01
631.332	60667.47
631.687	60709.51
632.041	60596.74
632.396	60663.18
632.75	60542.28
633.104	60506.35
633.459	60432.9
633.813	60442.17
634.167	60343.41
634.521	60381.15
634.875	60376.18
635.229	60317.65
635.583	60189.75
635.937	60254.15
636.291	60210.76
636.645	60145.9
636.999	60124.44
637.352	60098.9
637.706	60012.8
638.06	60082.86
638.413	60030.88
638.767	59985.91
639.121	60033.59
639.474	59903.42
639.828	59867.72
640.181	59987.94
640.534	60001.28
640.888	59874.73
641.241	59783.2
641.594	59854.61
641.947	59886.7
642.301	59763.77
642.654	59783.43
643.007	59781.62
643.36	59743.43
643.713	59755.41
644.066	59774.16
644.419	59587.28
644.771	59361.74
645.124	58951.13
645.477	58904.58
645.83	58750.23
646.182	58806.05
646.535	58771.25
646.888	58875.88
647.24	58851.48
647.593	59028.42
647.945	58926.5
648.298	58791.14
648.65	58703.46
649.002	58631.37
649.355	58648.77
649.707	58491.48
650.059	58594.31
650.411	58811.93
650.763	58878.37
651.115	59134.41
651.467	59154.29
651.819	59084.92
652.171	58961.98
652.523	58960.85
652.875	59004.69
653.227	58865.71
653.578	58904.81
653.93	58805.37
654.282	58841.98
654.633	58741.65
654.985	58861.64
655.337	58754.3
655.688	58795.43
656.039	58900.97
656.391	58665.27
656.742	58734.42
657.094	58629.56
657.445	58719.05
657.796	58639.96
658.147	58650.35
658.498	58658.03
658.849	58621.88
659.2	58582.78
659.551	58568.54
659.902	58564.7
660.253	58515.21
660.604	58596.79
660.955	58431.6
661.306	58534.65
661.656	58490.35
662.007	58449.9
662.358	58418.49
662.708	58432.73
663.059	58453.29
663.409	58323.58
663.76	58426.63
664.11	58444.71
664.461	58395.89
664.811	58378.95
665.161	58408.1
665.511	58212.4
665.862	58321.77
666.212	58352.05
666.562	58316.35
666.912	58219.85
667.262	58158.16
667.612	58315.67
667.962	58282.68
668.312	58144.38
668.662	58275.45
669.011	58254.88
669.361	58113.19
669.711	58202.68
670.06	58147.31
670.41	58086.52
670.76	58118.16
671.109	58226.41
671.459	58101.89
671.808	58075.45
672.157	58095.34
672.507	57874.55
672.856	57958.39
673.205	58012.18
673.554	58087.43
673.904	58019.41
674.253	58140.99
674.602	57984.38
674.951	57672.3
675.3	57458.29
675.649	57905.06
675.998	57852.41
676.346	57814.21
676.695	57895.34
677.044	57669.13
677.393	57736.93
677.741	57798.4
678.09	57672.3
678.438	57609.02
678.787	57671.39
679.135	57677.27
679.484	57552.75
679.832	57568.8
680.181	57402.93
680.529	57438.18
680.877	57415.58
681.225	57295.81
681.573	57447.67
681.922	57293.1
682.27	57199.09
682.618	57182.37
682.966	57168.58
683.314	57191.63
683.661	57056.49
684.009	56840.91
684.357	56915.03
684.705	56830.96
685.053	56933.79
685.4	56903.73
685.748	56691.08
686.095	56687.46
686.443	56633.68
686.79	56597.07
687.138	56665.09
687.485	56635.49
687.832	56475.94
688.18	56507.36
688.527	56340.81
688.874	56334.93
689.221	56337.64
689.568	56247.25
689.915	56111.66
690.262	56087.71
690.609	56012
690.956	56013.36
691.303	55983.08
691.65	55900.14
691.997	55786.7
692.344	55588.74
692.69	55596.19
693.037	55629.41
693.383	55325.92
693.73	55347.84
694.077	55189.42
694.423	55240.72
694.769	55121.18
695.116	55068.07
695.462	55086.6
695.808	54978.13
696.155	54926.15
696.501	54688.87
696.847	54770.45
697.193	54442.1
697.539	54620.63
697.885	54406.39
698.231	54319.84
698.577	54393.06
698.923	54273.29
699.269	54149
699.614	53932.06
699.96	53965.05
700.306	54025.16
700.651	53764.15
700.997	53716.47
701.342	53728.22
701.688	53776.13
702.033	53617.49
702.379	53591.27
702.724	53500.88
703.069	53520.54
703.415	53098.18
703.76	53300.89
704.105	53184.73
704.45	53132.53
704.795	52928.02
705.14	52843.5
705.485	52761.47
705.83	52774.57
706.175	52735.25
706.52	52515.6
706.865	52301.59
707.209	52342.72
707.554	52208.94
707.899	52342.27
708.243	52137.75
708.588	52039.9
708.932	51856.4
709.277	51855.73
709.621	51944.54
709.966	51578.45
710.31	51742.96
710.654	51255.52
710.998	51562.63
711.342	51522.18
711.687	51451.9
712.031	51211.9
712.375	51042.87
712.719	51131.45
713.063	51028.4
713.407	51080.61
713.75	50916.99
714.094	50992.25
714.438	50814.4
714.782	50899.82
715.125	50521.07
715.469	50602.2
715.812	50449.21
716.156	50208.09
716.499	50254.64
716.843	50350.46
717.186	49986.17
717.53	50235.66
717.873	50071.37
718.216	50243.11
718.559	49879.51
718.902	49752.28
719.246	49672.73
719.589	49652.17
719.932	49582.79
720.275	49565.39
720.617	49514.32
720.96	49319.75
721.303	49312.06
721.646	49239.07
721.989	49025.74
722.331	49224.16
722.674	49100.09
723.016	49147.1
723.359	48914.11
723.701	49084.27
724.044	48753.66
724.386	48505.76
724.729	48791.17
725.071	48681.35
725.413	48661.23
725.755	48420.79
726.097	48237.97
726.439	48168.82
726.782	48081.59
727.124	48155.71
727.465	48012.89
727.807	47859
728.149	47804.99
728.491	47712.78
728.833	47771.77
729.175	47562.28
729.516	47526.35
729.858	47362.74
730.199	47516.86
730.541	47353.25
730.882	47301.5
731.224	47353.02
731.565	47095.17
731.906	47219.01
732.248	47172.46
732.589	46922.3
732.93	46887.04
733.271	46987.61
733.612	46933.6
733.953	46984.89
734.294	46727.27
734.635	46684.56
734.976	46710.33
735.317	46462.42
735.658	46624.45
735.999	46565.24
736.339	46279.15
736.68	46481.63
737.021	46221.98
737.361	45970.91
737.702	46378.81
738.042	46050
738.383	45913.28
738.723	45967.07
739.063	45739.96
739.404	45801.65
739.744	45704.93
740.084	45633.07
740.424	45569.79
740.764	45468.78
741.104	45550.13
741.444	45443.24
741.784	45307.88
742.124	45478.72
742.464	45148.56
742.804	45018.17
743.143	45061.56
743.483	45013.65
743.823	44738.63
744.162	44958.06
744.502	44791.51
744.841	44680.55
745.181	44733.2
745.52	44518.07
745.86	44566.88
746.199	44383.61
746.538	44340.22
746.877	44350.16
747.216	44272.88
747.556	44114.46
747.895	44127.34
748.234	43929.61
748.573	43781.36
748.911	43821.81
749.25	43868.37
749.589	43716.05
749.928	43765.32
750.267	43783.85
750.605	43584.98
750.944	43373.24
751.283	43232.68
751.621	43307.03
751.96	43066.35
752.298	43199.23
752.636	43103.41
752.975	42733.48
753.313	42573.26
753.651	42771.22
753.989	42617.1
754.327	42532.13
754.666	42153.61
755.004	42199.03
755.342	42449.65
755.679	42179.15
756.017	42061.86
756.355	42052.82
756.693	41710.91
757.031	41870
757.368	41467.98
757.706	41386.62
758.044	41426.4
758.381	41565.38
758.719	41127.87
759.056	41204.93
759.394	41030.47
759.731	40777.83
760.068	40828.67
760.405	40811.95
760.743	40652.63
761.08	40639.07
761.417	40454.9
761.754	40311.85
762.091	40244.28
762.428	40055.59
762.765	39902.14
763.102	39934.68
763.438	39653.56
763.775	39443.17
764.112	39356.85
764.449	39466
764.785	39084.76
765.122	39035.73
765.458	38765
765.795	38760.93
766.131	38657.88
766.467	38358.91
766.804	38313.48
767.14	38261.51
767.476	38203.66
767.812	38129.08
768.148	37970.67
768.485	37617.01
768.821	37584.69
769.157	37475.77
769.492	37373.85
769.828	37510.34
770.164	36930.47
770.5	36958.72
770.836	36853.64
771.171	36689.12
771.507	36782.22
771.842	36467.43
772.178	36529.8
772.513	36337.94
772.849	36201.22
773.184	35961
773.519	35978.4
773.855	35791.06
774.19	35446.44
774.525	35363.73
774.86	35391.98
775.195	35246.67
775.53	35203.51
775.865	34978.66
776.2	34823.86
776.535	34629.74
776.87	34524.88
777.205	34365.11
777.539	34216.87
777.874	34332.12
778.209	33877.67
778.543	33801.74
778.878	33545.7
779.212	33511.35
779.547	33401.97
779.881	33508.86
780.215	33209.21
780.55	33287.18
780.884	32940.52
781.218	33086.05
781.552	33008.76
781.886	32719.73
782.22	32453.98
782.554	32410.14
782.888	32240.42
783.222	32096.7
783.556	32034.78
783.889	31909.13
784.223	31650.38
784.557	31614.23
784.89	31647.9
785.224	31455.36
785.557	31293.56
785.891	31222.15
786.224	31010.4
786.558	31070.74
786.891	30904.87
787.224	30724.08
787.557	30502.62
787.891	30391.66
788.224	30477.76
788.557	30396.86
788.89	30267.37
789.223	30305.11
789.556	30044.77
789.888	29957.09
790.221	29896.53
790.554	29615.86
790.887	29659.25
791.219	29560.95
791.552	29488.41
791.884	29315.3
792.217	29234.17
792.549	29262.87
792.882	28788.31
793.214	28675.55
793.546	28860.17
793.879	28554.42
794.211	28477.58
794.543	28584.02
794.875	28420.64
795.207	28446.62
795.539	28271.94
795.871	28150.81
796.203	27946.53
796.535	27837.6
796.867	27747.21
797.198	27734.78
797.53	27822.23
797.862	27645.06
798.193	27502.69
798.525	27244.85
798.856	27387.44
799.188	27152.42
799.519	26963.95
799.85	26899.77
800.182	26971.64
800.513	26774.13
800.844	26394.48
801.175	26646.9
801.506	26579.78
801.837	26425.21
802.168	26319.45
802.499	26175.05
802.83	26000.59
803.161	26102.05
803.491	26201.26
803.822	26053.24
804.153	25907.26
804.483	25712.23
804.814	25594.04
805.145	25593.14
805.475	25567.15
805.805	25399.93
806.136	25346.37
806.466	25415.52
806.796	25339.81
807.126	25138.92
807.457	25150.67
807.787	25119.03
808.117	24984.34
808.447	24872.93
808.777	24922.42
809.107	24867.74
809.436	24682.66
809.766	24704.35
810.096	24556.11
810.426	24415.77
810.755	24592.94
811.085	24380.29
811.414	24298.26
811.744	24113.41
812.073	24144.14
812.403	23997.25
812.732	23842.23
813.061	23931.04
813.39	23724.26
813.719	23700.54
814.049	23821.44
814.378	23680.87
814.707	23529.01
815.036	23549.13
815.365	23466.19
815.693	23164.05
816.022	23230.72
816.351	23187.78
816.68	23031.4
817.008	23249.02
817.337	22957.5
817.665	22990.5
817.994	22963.38
818.322	22972.19
818.651	22792.31
818.979	22741.24
819.307	22822.82
819.636	22669.38
819.964	22585.31
820.292	22574.24
820.62	22507.57
820.948	22451.3
821.276	22642.48
821.604	22448.82
821.932	22423.73
822.259	22557.06
822.587	22476.39
822.915	22388.03
823.243	22479.78
823.57	22349.84
823.898	22421.02
824.225	22312.55
824.553	22323.4
824.88	22295.83
825.207	22407.24
825.535	22234.36
825.862	22350.51
826.189	22314.81
826.516	22400.23
826.843	22421.7
827.17	22387.35
827.497	22385.09
827.824	22419.89
828.151	22361.36
828.478	22244.98
828.805	22366.56
829.131	22266.67
829.458	22164.53
829.785	22082.72
830.111	22129.28
830.438	22155.94
830.764	22095.38
831.09	22237.3
831.417	22053.8
831.743	22166.56
832.069	22103.06
832.395	22115.49
832.722	22234.13
833.048	22170.41
833.374	22193.23
833.7	21969.28
834.026	21922.5
834.351	22009.28
834.677	21814.93
835.003	21995.95
835.329	21986.23
835.654	21996.85
835.98	21927.25
836.306	21917.98
836.631	21900.58
836.956	21949.39
837.282	21861.26
837.607	21728.84
837.932	21643.87
838.258	21783.98
838.583	21800.25
838.908	21615.17
839.233	21620.82
839.558	21589.4
839.883	21525.22
840.208	21488.84
840.533	21408.84
840.858	21421.95
841.182	21458.79
841.507	21422.85
841.832	21327.26
842.156	21217.44
842.481	21369.52
842.805	21146.03
843.13	21098.34
843.454	21067.16
843.778	20976.76
844.103	20946.48
844.427	20953.94
844.751	21000.27
845.075	20966.37
845.399	20822.19
845.723	20711.91
846.047	20624.01
846.371	20541.97
846.695	20506.95
847.019	20375.65
847.343	20372.49
847.666	20290.46
847.99	20178.82
848.313	20029.67
848.637	19909.22
848.96	19945.15
849.284	19983.34
849.607	19649.79
849.931	19587.42
850.254	19520.76
850.577	19451.83
850.9	19421.78
851.223	19420.65
851.546	19407.77
851.869	19225.85
852.192	19312.63
852.515	18996.03
852.838	18980.89
853.161	18997.38
853.483	18937.04
853.806	18917.84
854.129	18782.7
854.451	18680.33
854.774	18623.83
855.096	18660.22
855.419	18635.36
855.741	18575.25
856.063	18416.83
856.385	18406.66
856.708	18434.46
857.03	18316.72
857.352	18328.47
857.674	18217.06
857.996	18088.03
858.318	18072.66
858.64	18027.01
858.961	18070.85
859.283	17988.82
859.605	17947.24
859.926	17973
860.248	17858.88
860.57	17688.04
860.891	17787.02
861.212	17596.06
861.534	17625.44
861.855	17614.82
862.176	17608.27
862.498	17608.94
862.819	17521.71
863.14	17575.05
863.461	17445.56
863.782	17466.57
864.103	17386.12
864.424	17389.51
864.745	17318.1
865.065	17262.96
865.386	17275.62
865.707	17212.57
866.027	17163.98
866.348	17214.83
866.668	17339.57
866.989	17183.64
867.309	16961.28
867.63	16975.29
867.95	16974.84
868.27	16860.04
868.59	17043.53
868.91	16973.71
869.23	16963.31
869.55	16979.81
869.87	17092.57
870.19	16906.59
870.51	16867.72
870.83	16871.56
871.15	16808.74
871.469	16859.81
871.789	16926.48
872.109	16817.55
872.428	16727.84
872.748	16716.31
873.067	16765.8
873.386	16769.64
873.706	16619.82
874.025	16576.2
874.344	16571.91
874.663	16525.36
874.982	16556.54
875.301	16619.82
875.62	16456.21
875.939	16508.41
876.258	16482.19
876.577	16355.87
876.896	16449.43
877.214	16331.69
877.533	16364.46
877.852	16354.51
878.17	16243.1
878.489	16231.8
878.807	16241.3
879.125	16176.67
879.444	16203.56
879.762	16114.97
880.08	16179.83
880.398	16096.22
880.716	16079.04
881.034	16094.86
881.352	16205.59
881.67	16072.94
881.988	16130.56
882.306	15937.35
882.624	16088.31
882.941	15922.21
883.259	15720.18
883.577	15921.08
883.894	15862.1
884.212	15794.53
884.529	15735.77
884.846	15808.54
885.164	15709.56
885.481	15689.45
885.798	15686.73
886.115	15679.73
886.432	15696.68
886.75	15595.89
887.067	15577.58
887.383	15484.25
887.7	15423.69
888.017	15465.05
888.334	15416.23
888.651	15417.36
888.967	15338.04
889.284	15165.17
889.6	15282.9
889.917	15097.15
890.233	15113.19
890.55	15012.63
890.866	15136.47
891.182	15058.95
891.498	14999.52
891.815	14907.55
892.131	14918.62
892.447	14846.53
892.763	14781.9
893.079	14779.41
893.395	14880.2
893.71	14707.1
894.026	14765.4
894.342	14749.13
894.657	14560.21
894.973	14520.44
895.289	14487.67
895.604	14498.74
895.92	14334.68
896.235	14307.79
896.55	14343.04
896.865	14262.82
897.181	14279.54
897.496	14306.21
897.811	14249.26
898.126	14193.21
898.441	14137.17
898.756	14076.83
899.071	13913.67
899.386	13974.69
899.7	13872.77
900.015	13839.33
900.33	13782.6
900.644	13746.45
900.959	13698.76
901.273	13668.03
901.588	13607.92
901.902	13602.5
902.216	13483.4
902.531	13471.88
902.845	13499.45
903.159	13424.42
903.473	13317.98
903.787	13232.34
904.101	13213.58
904.415	13170.64
904.729	13178.1
905.042	13054.71
905.356	13051.55
905.67	13049.06
905.984	12927.94
906.297	12952.34
906.611	12878.22
906.924	12823.98
907.237	12829.18
907.551	12706.93
907.864	12719.81
908.177	12686.59
908.491	12668.06
908.804	12535.4
909.117	12424
909.43	12379.93
909.743	12314.85
910.056	12376.54
910.368	12190.33
910.681	12224.45
910.994	12091.35
911.307	12129.09
911.619	12012.48
911.932	12120.27
912.244	11995.98
912.557	12005.93
912.869	11910.11
913.181	11878.47
913.494	11835.31
913.806	11763.45
914.118	11758.25
914.43	11676.67
914.742	11640.29
915.054	11599.61
915.366	11525.71
915.678	11477.81
915.99	11350.8
916.302	11380.86
916.613	11414.53
916.925	11306.06
917.236	11264.7
917.548	11197.59
917.859	11186.74
918.171	11118.72
918.482	11060.19
918.794	10913.75
919.105	11006.63
919.416	10831.27
919.727	10807.99
920.038	10745.62
920.349	10738.62
920.66	10687.54
920.971	10598.73
921.282	10579.3
921.593	10587.66
921.903	10593.76
922.214	10559.41
922.525	10592.18
922.835	10542.46
923.146	10468.79
923.456	10429.7
923.767	10368.68
924.077	10318.97
924.387	10291.85
924.697	10209.14
925.008	10181.57
925.318	10108.35
925.628	10065.41
925.938	10028.8
926.248	9930.5
926.558	9922.59
926.867	9926.43
927.177	9858.87
927.487	9842.82
927.796	9753.56
928.106	9743.39
928.416	9667.23
928.725	9712.43
929.034	9613.9
929.344	9586.33
929.653	9497.07
929.962	9443.28
930.271	9402.61
930.581	9282.84
930.89	9347.47
931.199	9335.04
931.508	9250.07
931.817	9293.46
932.125	9169.17
932.434	9218.88
932.743	9071.09
933.051	9075.83
933.36	9089.62
933.669	9036.06
933.977	8919.45
934.286	9011.2
934.594	8840.81
934.902	8757.2
935.21	8771.66
935.519	8756.07
935.827	8666.81
936.135	8643.53
936.443	8637.43
936.751	8609.41
937.059	8654.15
937.367	8545.91
937.674	8556.3
937.982	8473.82
938.29	8426.81
938.597	8454.38
938.905	8351.11
939.213	8311.34
939.52	8271.56
939.827	8341.39
940.135	8201.51
940.442	8145.69
940.749	8172.13
941.056	8129.87
941.363	7998.57
941.67	8038.35
941.977	7985.02
942.284	7958.12
942.591	7917.67
942.898	7930.55
943.205	7832.03
943.511	7795.19
943.818	7879.48
944.125	7748.86
944.431	7672.03
944.738	7759.94
945.044	7712.25
945.35	7645.36
945.657	7536.44
945.963	7502.54
946.269	7504.8
946.575	7539.15
946.881	7381.64
947.187	7409.89
947.493	7391.36
947.799	7308.2
948.105	7249.44
948.41	7256.45
948.716	7263
949.022	7190.69
949.327	7152.95
949.633	7090.8
949.938	7148.88
950.244	7157.02
950.549	7016.45
950.854	7014.19
951.16	6990.47
951.465	6904.14
951.77	6901.65
952.075	6893.52
952.38	6871.15
952.685	6821.66
952.99	6790.02
953.294	6786.4
953.599	6746.86
953.904	6726.29
954.209	6679.29
954.513	6689.91
954.818	6652.17
955.122	6620.31
955.426	6608.33
955.731	6611.49
956.035	6539.18
956.339	6467.77
956.643	6519.97
956.948	6422.57
957.252	6416.47
957.556	6333.08
957.86	6312.52
958.163	6233.42
958.467	6249.47
958.771	6200.88
959.075	6195.68
959.378	6195.23
959.682	6189.81
959.985	6181.45
960.289	6091.96
960.592	6101.68
960.896	6024.84
961.199	6018.51
961.502	5981.9
961.805	5964.96
962.108	5936.48
962.411	5945.3
962.714	5912.08
963.017	5916.82
963.32	5879.53
963.623	5855.81
963.926	5881.34
964.228	5767.9
964.531	5780.1
964.833	5780.78
965.136	5684.06
965.438	5712.08
965.741	5620.56
966.043	5616.26
966.345	5547.34
966.648	5599.32
966.95	5594.8
967.252	5553.89
967.554	5514.35
967.856	5480.9
968.158	5407.46
968.46	5461.47
968.761	5333.11
969.063	5385.31
969.365	5362.71
969.666	5379.66
969.968	5334.46
970.269	5332.2
970.571	5254.47
970.872	5254.69
971.174	5241.81
971.475	5230.51
971.776	5194.35
972.077	5143.28
972.378	5085.88
972.679	5132.66
972.98	5097.63
973.281	5027.35
973.582	5061.93
973.883	4997.3
974.183	5001.14
974.484	4977.64
974.785	4922.05
975.085	4939.22
975.386	4943.74
975.686	4871.43
975.986	4893.8
976.287	4866.45
976.587	4767.25
976.887	4736.51
977.187	4787.36
977.487	4760.47
977.787	4707.36
978.087	4710.07
978.387	4669.17
978.687	4634.6
978.987	4624.65
979.286	4567.03
979.586	4583.52
979.885	4606.35
980.185	4515.05
980.484	4497.65
980.784	4478.67
981.083	4494.71
981.382	4476.18
981.682	4478.22
981.981	4424.88
982.28	4435.28
982.579	4388.05
982.878	4408.16
983.177	4358.22
983.475	4346.24
983.774	4291.55
984.073	4268.05
984.372	4229.86
984.67	4245
984.969	4196.19
985.267	4186.25
985.566	4154.16
985.864	4154.16
986.162	4169.07
986.461	4089.3
986.759	4111.22
987.057	4054.27
987.355	4048.62
987.653	4077.32
987.951	4035.06
988.249	4064.67
988.547	4025.57
988.844	3941.51
989.142	3972.24
989.44	3891.56
989.737	3905.8
990.035	3876.88
990.332	3892.02
990.63	3845.24
990.927	3855.63
991.224	3797.56
991.521	3854.96
991.819	3814.05
992.116	3778.57
992.413	3743.32
992.71	3699.93
993.006	3720.5
993.303	3662.87
993.6	3704.9
993.897	3642.98
994.193	3629.42
994.49	3595.3
994.787	3589.43
995.083	3567.73
995.379	3549.88
995.676	3556.43
995.972	3553.27
996.268	3526.83
996.565	3514.63
996.861	3491.12
997.157	3473.5
997.453	3445.93
997.749	3422.42
998.044	3408.19
998.34	3366.38
998.636	3365.93
998.932	3345.59
999.227	3348.53
999.523	3344.46
999.818	3341.07
1000.114	3276.89
1000.409	3253.62
1000.704	3223.56
1001	3192.15
1001.295	3208.42
1001.59	3207.06
1001.885	3149.66
1002.18	3149.89
1002.475	3121.87
1002.77	3097.91
1003.065	3106.73
1003.359	3078.25
1003.654	3088.42
1003.949	3009.78
1004.243	3022.43
1004.538	2987.41
1004.832	2964.58
1005.127	2949.22
1005.421	2917.35
1005.715	2907.41
1006.009	2905.15
1006.304	2872.83
1006.598	2855.89
1006.892	2852.95
1007.186	2851.14
1007.48	2801.65
1007.773	2802.78
1008.067	2774.98
1008.361	2749.45
1008.655	2748.77
1008.948	2727.08
1009.242	2718.49
1009.535	2694.99
1009.829	2676.91
1010.122	2673.52
1010.415	2620.86
1010.708	2643.46
1011.001	2588.77
1011.295	2587.64
1011.588	2584.93
1011.881	2576.34
1012.173	2547.19
1012.466	2550.81
1012.759	2542.22
1013.052	2517.14
1013.344	2473.52
1013.637	2488.21
1013.93	2469.68
1014.222	2441.66
1014.514	2449.57
1014.807	2414.77
1015.099	2406.63
1015.391	2391.04
1015.683	2364.6
1015.976	2359.4
1016.268	2307.88
1016.56	2320.31
1016.851	2296.13
1017.143	2267.2
1017.435	2276.92
1017.727	2260.19
1018.018	2235.34
1018.31	2193.3
1018.602	2203.7
1018.893	2233.08
1019.185	2195.11
1019.476	2182.91
1019.767	2162.8
1020.058	2138.62
1020.35	2118.05
1020.641	2098.39
1020.932	2093.87
1021.223	2063.59
1021.514	2071.73
1021.804	2027.88
1022.095	2028.56
1022.386	2010.26
1022.677	1977.94
1022.967	1961.22
1023.258	1973.87
1023.548	1935.91
1023.839	1924.16
1024.129	1904.05
1024.419	1931.62
1024.709	1890.26
1025	1865.4
1025.29	1879.41
1025.58	1873.09
1025.87	1818.85
1026.16	1828.57
1026.449	1820.21
1026.739	1805.97
1027.029	1808.23
1027.319	1779.98
1027.608	1732.75
1027.898	1777.27
1028.187	1732.98
1028.477	1729.59
1028.766	1723.94
1029.055	1731.4
1029.344	1693.66
1029.634	1667.67
1029.923	1648.91
1030.212	1645.75
1030.501	1641.45
1030.79	1614.79
1031.078	1609.59
1031.367	1585.41
1031.656	1611.17
1031.945	1608.23
1032.233	1561.23
1032.522	1539.31
1032.81	1584.28
1033.099	1520.33
1033.387	1509.25
1033.675	1521.91
1033.963	1448.69
1034.251	1453.89
1034.54	1462.7
1034.828	1463.15
1035.116	1488.46
1035.403	1453.89
1035.691	1435.36
1035.979	1410.95
1036.267	1393.32
1036.554	1402.59
1036.842	1382.7
1037.129	1388.81
1037.417	1338.86
1037.704	1356.04
1037.992	1344.74
1038.279	1350.61
1038.566	1330.5
1038.853	1330.5
1039.14	1330.5
