Data from foil_FLMS001491_040.txt Node
Date: Tue Feb 07 11:26:16 GMT 2017
User: dcchb
Spectrometer: FLMS00149
Trigger mode: 0
Integration Time (sec): 2.000000E-2
Scans to average: 10
Electric dark correction enabled: true
Nonlinearity correction enabled: false
Boxcar width: 0
XAxis mode: Wavelengths
Number of Pixels in Spectrum: 2048
>>>>>Begin Spectral Data<<<<<
341.393	9.1
341.776	9.1
342.16	9.1
342.543	-76.1
342.927	-74.07
343.31	-67.06
343.693	-58.93
344.077	-60.73
344.46	-55.99
344.843	-37.23
345.226	-48.53
345.61	-33.84
345.993	-14.18
346.376	3.22
346.759	-8.76
347.142	20.17
347.525	57.91
347.908	45.03
348.291	61.07
348.674	82.99
349.057	114.86
349.44	130.9
349.823	143.56
350.206	199.6
350.588	286.15
350.971	287.05
351.354	298.13
351.737	295.64
352.119	327.05
352.502	337.22
352.884	368.86
353.267	365.47
353.65	346.04
354.032	402.98
354.414	407.05
354.797	400.5
355.179	410.89
355.562	430.55
355.944	421.97
356.326	411.12
356.709	438.92
357.091	434.85
357.473	449.31
357.855	448.41
358.238	444.11
358.62	455.19
359.002	433.49
359.384	443.89
359.766	458.12
360.148	462.19
360.53	459.71
360.912	448.86
361.294	444.11
361.676	449.08
362.057	465.58
362.439	444.34
362.821	445.92
363.203	459.71
363.584	466.03
363.966	452.25
364.348	445.24
364.729	467.39
365.111	462.87
365.493	470.55
365.874	468.74
366.256	457.67
366.637	453.83
367.019	460.38
367.4	477.11
367.781	488.63
368.163	475.98
368.544	478.69
368.925	509.2
369.306	488.18
369.688	488.41
370.069	490.89
370.45	512.36
370.831	485.02
371.212	518.23
371.593	495.64
371.974	501.51
372.355	515.98
372.736	526.37
373.117	528.63
373.498	511.23
373.879	534.96
374.26	513.26
374.641	501.74
375.021	496.54
375.402	557.33
375.783	579.25
376.163	582.41
376.544	588.97
376.925	591.23
377.305	579.93
377.686	568.4
378.066	572.7
378.447	582.19
378.827	594.39
379.208	623.77
379.588	602.53
379.968	608.18
380.349	591.23
380.729	609.98
381.109	639.36
381.489	630.77
381.87	648.18
382.25	619.48
382.63	632.13
383.01	646.59
383.39	640.72
383.77	674.39
384.15	668.97
384.53	680.49
384.91	689.98
385.29	727.27
385.67	719.13
386.049	725.46
386.429	750.55
386.809	743.31
387.189	740.83
387.568	737.89
387.948	769.98
388.328	765.69
388.707	771.34
389.087	789.19
389.466	810.2
389.846	802.75
390.225	828.51
390.605	816.08
390.984	820.6
391.363	853.37
391.743	878.45
392.122	864.67
392.501	866.47
392.881	889.3
393.26	893.59
393.639	925.91
394.018	929.3
394.397	939.24
394.776	931.56
395.155	959.58
395.534	979.69
395.913	976.53
396.292	945.34
396.671	1003.19
397.05	996.87
397.429	1022.85
397.808	1037.77
398.186	1059.92
398.565	1047.49
398.944	1051.1
399.323	1073.47
399.701	1045.23
400.08	1066.47
400.458	1069.41
400.837	1113.47
401.215	1109.86
401.594	1133.81
401.972	1126.35
402.351	1125.45
402.729	1143.76
403.107	1188.27
403.486	1227.37
403.864	1199.12
404.242	1216.75
404.62	1233.47
404.999	1249.52
405.377	1268.95
405.755	1270.08
406.133	1290.87
406.511	1307.59
406.889	1332.45
407.267	1346.91
407.645	1348.5
408.023	1376.07
408.401	1411.77
408.779	1414.93
409.156	1441.15
409.534	1447.02
409.912	1473.46
410.29	1515.95
410.667	1526.8
411.045	1559.11
411.422	1552.78
411.8	1588.72
412.178	1610.86
412.555	1643.18
412.933	1636.62
413.31	1637.53
413.687	1725.21
414.065	1719.11
414.442	1715.72
414.819	1754.59
415.197	1808.14
415.574	1781.03
415.951	1841.36
416.328	1821.03
416.705	1846.34
417.082	1850.63
417.46	1856.96
417.837	1907.12
418.214	1939.44
418.591	1943.06
418.967	1947.58
419.344	1990.51
419.721	2034.35
420.098	2005.65
420.475	2037.97
420.852	2082.04
421.228	2120
421.605	2102.83
421.982	2152.32
422.358	2140.57
422.735	2167.01
423.111	2187.8
423.488	2226.66
423.864	2265.76
424.241	2281.35
424.617	2299.66
424.994	2347.57
425.37	2318.64
425.746	2374.68
426.123	2377.4
426.499	2405.87
426.875	2429.82
427.251	2495.36
427.627	2519.09
428.003	2576.94
428.379	2607.9
428.756	2609.48
429.132	2658.97
429.507	2693.54
429.883	2715.47
430.259	2799.08
430.635	2758.85
431.011	2811.96
431.387	2917.49
431.763	2942.35
432.138	2924.73
432.514	3017.15
432.89	3024.61
433.265	3099.41
433.641	3156.58
434.016	3121.56
434.392	3178.96
434.767	3265.28
435.143	3258.5
435.518	3328.1
435.894	3343.25
436.269	3363.58
436.644	3429.34
437.02	3443.81
437.395	3456.69
437.77	3548.89
438.145	3589.11
438.52	3623.24
438.895	3654.2
439.271	3597.7
439.646	3762.9
440.021	3804.48
440.395	3785.72
440.77	3751.82
441.145	3813.52
441.52	3863.46
441.895	3896
442.27	3968.77
442.645	3903
443.019	3989.1
443.394	3990.69
443.769	4036.79
444.143	4034.3
444.518	4104.36
444.892	4091.93
445.267	4147.74
445.641	4180.96
446.016	4235.43
446.39	4198.36
446.764	4302.77
447.139	4262.77
447.513	4325.59
447.887	4338.25
448.262	4329.43
448.636	4367.63
449.01	4486.72
449.384	4515.87
449.758	4491.01
450.132	4581.4
450.506	4585.7
450.88	4646.71
451.254	4675.87
451.628	4732.59
452.002	4786.15
452.376	4778.01
452.75	4856.88
453.123	4849.87
453.497	4951.56
453.871	5030.43
454.244	5081.5
454.618	5191.11
454.992	5218
455.365	5255.96
455.739	5361.27
456.112	5413.25
456.486	5486.47
456.859	5502.06
457.232	5634.71
457.606	5630.64
457.979	5783.18
458.352	5873.8
458.725	5863.86
459.099	5921.71
459.472	6026.34
459.845	6076.51
460.218	6121.03
460.591	6210.74
460.964	6250.51
461.337	6437.18
461.71	6500
462.083	6539.77
462.456	6633.1
462.829	6579.54
463.201	6742.7
463.574	6787.9
463.947	6873.55
464.32	6968.69
464.692	7071.73
465.065	7136.14
465.438	7279.19
465.81	7354.21
466.183	7437.38
466.555	7608.67
466.928	7687.76
467.3	7677.59
467.672	7797.82
468.045	7975.44
468.417	8016.79
468.789	8053.86
469.161	8176.34
469.534	8319.84
469.906	8518.93
470.278	8584.01
470.65	8666.5
471.022	8789.66
471.394	8922.99
471.766	9044.34
472.138	9192.13
472.51	9401.62
472.882	9513.25
473.253	9680.03
473.625	9696.75
473.997	9993.24
474.369	9997.99
474.74	10112.56
475.112	10338.09
475.484	10554.36
475.855	10713.45
476.227	10786.67
476.598	11131.97
476.97	11166.32
477.341	11409.93
477.713	11541.45
478.084	11661.44
478.455	12086.29
478.827	12057.82
479.198	12427.53
479.569	12419.39
479.94	12811.25
480.311	12941.64
480.682	13233.83
481.053	13500.72
481.424	13674.73
481.795	13748.62
482.166	14112.45
482.537	14250.08
482.908	14594.7
483.279	14695.94
483.65	15062.94
484.021	15297.73
484.391	15400.78
484.762	15551.51
485.133	15660.44
485.503	15918.51
485.874	16358.72
486.244	16418.16
486.615	16722.78
486.985	16982.21
487.356	17244.12
487.726	17401.41
488.097	17770.66
488.467	17842.75
488.837	18242.06
489.207	18390.08
489.578	18658.77
489.948	18830.97
490.318	19079.33
490.688	19136.05
491.058	19489.49
491.428	19841.57
491.798	19937.16
492.168	20233.65
492.538	20312.74
492.908	20599.97
493.278	20913.4
493.648	20994.76
494.017	21183.45
494.387	21434.07
494.757	21613.5
495.126	21863.44
495.496	22000.38
495.866	22131.45
496.235	22338.9
496.605	22519.24
496.974	22730.98
497.344	22888.49
497.713	22953.13
498.082	23171.65
498.452	23532.32
498.821	23643.5
499.19	23703.61
499.559	23867
499.928	23975.02
500.298	24142.7
500.667	24489.36
501.036	24474.89
501.405	24616.58
501.774	24792.85
502.143	25007.53
502.512	25141.32
502.88	25414.76
503.249	25367.53
503.618	25690.91
503.987	25790.79
504.356	25843.67
504.724	26175.87
505.093	26298.57
505.462	26389.19
505.83	26621.96
506.199	26758.9
506.567	27067.82
506.936	27058.78
507.304	27501.93
507.672	27578.54
508.041	27687.92
508.409	27729.04
508.777	28065.99
509.145	28265.3
509.514	28418.29
509.882	28625.74
510.25	28678.17
510.618	29067.54
510.986	29086.52
511.354	29439.28
511.722	29616.68
512.09	29928.54
512.458	29874.98
512.826	30084.46
513.193	30269.09
513.561	30460.95
513.929	30729.42
514.297	31141.84
514.664	31309.97
515.032	31370.53
515.4	31740.01
515.767	31835.83
516.135	32141.36
516.502	31944.53
516.869	32622.93
517.237	32749.03
517.604	32567.11
517.972	33008.91
518.339	33374.55
518.706	33461.78
519.073	33610.92
519.44	33894.08
519.808	34421.07
520.175	34371.36
520.542	34793.49
520.909	34922.3
521.276	35078.91
521.643	35471.21
522.009	35580.82
522.376	35861.94
522.743	36108.94
523.11	36390.96
523.477	36837.96
523.843	37080.66
524.21	37361.33
524.577	37773.07
524.943	37897.82
525.31	38201.09
525.676	38380.52
526.043	38706.61
526.409	38863.89
526.776	39188.18
527.142	39326.25
527.508	39636.53
527.874	40031.55
528.241	40139.11
528.607	40316.96
528.973	40836.27
529.339	40748.36
529.705	41204.4
530.071	41541.34
530.437	41720.99
530.803	41885.73
531.169	42054.09
531.535	42130.02
531.901	42395.55
532.267	42538.82
532.632	42844.81
532.998	43035.08
533.364	43196.43
533.73	43406.15
534.095	43743.09
534.461	43793.26
534.826	43989.18
535.192	44283.86
535.557	44463.97
535.923	44649.5
536.288	44830.52
536.653	45008.59
537.019	44907.35
537.384	45135.37
537.749	45434.79
538.114	45505.53
538.479	45515.47
538.845	45788.23
539.21	45893.09
539.575	45987.77
539.94	46204.27
540.305	46533.07
540.67	46421.43
541.034	46731.71
541.399	47011.02
541.764	46963.12
542.129	47213.73
542.494	47222.32
542.858	47436.32
543.223	47438.81
543.587	47744.11
543.952	47646.49
544.316	47911.57
544.681	47923.09
545.045	48196.76
545.41	48335.06
545.774	48612.79
546.138	48579.12
546.503	48796.29
546.867	48765.55
547.231	49158.09
547.595	49126.22
547.959	49359.21
548.324	49463.84
548.688	49503.84
549.052	49690.28
549.416	49756.94
549.779	49849.59
550.143	50000.1
550.507	50185.4
550.871	50387.21
551.235	50413.42
551.599	50690.7
551.962	50674.66
552.326	50852.73
552.689	51162.78
553.053	51086.17
553.417	51196.22
553.78	51599.83
554.143	51480.96
554.507	51684.12
554.87	51700.17
555.234	52006.6
555.597	51857.9
555.96	52124.79
556.323	52166.37
556.686	52315.52
557.05	52518
557.413	52634.15
557.776	52854.49
558.139	52997.53
558.502	53084.54
558.865	53122.73
559.228	53515.94
559.59	53525.65
559.953	53654.01
560.316	53964.51
560.679	53934.91
561.041	54095.81
561.404	54279.08
561.767	54399.3
562.129	54391.39
562.492	54697.83
562.854	54717.04
563.217	54732.4
563.579	54860.08
563.941	55067.99
564.304	55193.63
564.666	55409.22
565.028	55503
565.39	55535.55
565.753	55796.1
566.115	55892.6
566.477	55985.03
566.839	56030.22
567.201	56207.17
567.563	56297.11
567.925	56421.17
568.287	56512.92
568.648	56606.03
569.01	56759.24
569.372	56850.31
569.734	56827.04
570.095	57009.4
570.457	57080.59
570.819	57068.61
571.18	57154.71
571.542	57399.45
571.903	57379.34
572.265	57536.17
572.626	57611.87
572.987	57677.64
573.349	57780.23
573.71	57846.45
574.071	57932.32
574.432	57988.14
574.794	58143.84
575.155	58090.51
575.516	58067.23
575.877	58199.88
576.238	58245.76
576.599	58315.81
576.96	58369.37
577.32	58471.29
577.681	58411.85
578.042	58595.58
578.403	58606.88
578.763	58563.04
579.124	58617.27
579.485	58756.93
579.845	58783.6
580.206	58747.21
580.566	58815.46
580.927	58850.26
581.287	58895.01
581.648	58813.2
582.008	58947.21
582.368	58871.5
582.728	58892.29
583.089	58923.48
583.449	58970.03
583.809	59026.53
584.169	59017.71
584.529	59033.31
584.889	59201.89
585.249	59113.3
585.609	58955.79
585.969	59043.48
586.329	59056.36
586.688	59048.9
587.048	59069.46
587.408	58957.83
587.768	59026.08
588.127	59062.01
588.487	59020.43
588.846	59193.98
589.206	58967.77
589.565	59040.99
589.925	59149.69
590.284	59073.98
590.643	59059.07
591.003	59189.46
591.362	59248.44
591.721	59251.61
592.08	59195.34
592.44	59203.7
592.799	59212.28
593.158	59186.3
593.517	59191.27
593.876	59223.81
594.235	59118.28
594.593	59156.24
594.952	59302.9
595.311	59179.74
595.67	59185.84
596.029	59396.46
596.387	59324.15
596.746	59374.31
597.104	59240.53
597.463	59282.57
597.822	59420.19
598.18	59379.96
598.538	59341.55
598.897	59531.37
599.255	59308.55
599.613	59713.06
599.972	59501.99
600.33	59561.65
600.688	59467.19
601.046	59554.42
601.404	59577.7
601.762	59519.85
602.12	59639.17
602.478	59689.79
602.836	59608.66
603.194	59529.11
603.552	59560.98
603.91	59585.61
604.268	59652.73
604.625	59539.51
604.983	59693.63
605.341	59582.44
605.698	59758.03
606.056	59777.02
606.413	59723.23
606.771	59857.69
607.128	59913.74
607.485	59826.51
607.843	59852.27
608.2	59940.4
608.557	60040.74
608.914	59890.23
609.272	60044.58
609.629	60018.37
609.986	60222.65
610.343	60054.3
610.7	60252.48
611.057	60139.94
611.414	60190.34
611.771	60170.9
612.127	60287.74
612.484	60219.94
612.841	60390.11
613.198	60269.66
613.554	60303.56
613.911	60397.56
614.267	60379.94
614.624	60421.97
614.98	60442.76
615.337	60567.96
615.693	60485.92
616.05	60449.31
616.406	60615.64
616.762	60563.21
617.118	60520.95
617.475	60534.96
617.831	60595.07
618.187	60527.73
618.543	60594.85
618.899	60779.7
619.255	60682.53
619.611	60668.29
619.967	60674.39
620.323	60841.39
620.678	60688.4
621.034	60673.94
621.39	60636.43
621.746	60617.22
622.101	60802.75
622.457	60640.5
622.812	60702.87
623.168	60843.43
623.523	60787.16
623.879	60911
624.234	60662.87
624.589	60806.82
624.945	60772.7
625.3	60826.03
625.655	60883.88
626.01	60848.85
626.365	60808.85
626.72	60737.44
627.075	60651.12
627.43	60753.26
627.785	60713.26
628.14	60686.82
628.495	60735.18
628.85	60661.74
629.205	60624
629.559	60741.96
629.914	60598.01
630.269	60640.95
630.623	60574.28
630.978	60554.62
631.332	60685.01
631.687	60695.86
632.041	60604.11
632.396	60611.34
632.75	60472.82
633.104	60548.75
633.459	60449.09
633.813	60388.53
634.167	60388.3
634.521	60429.43
634.875	60364.12
635.229	60250
635.583	60240.73
635.937	60264.01
636.291	60233.27
636.645	60154.63
636.999	60071.47
637.352	60158.7
637.706	59941.76
638.06	60112.83
638.413	60044.35
638.767	59981.08
639.121	60068.08
639.474	59917.8
639.828	59920.74
640.181	59967.07
640.534	59984.92
640.888	59880.52
641.241	59711.25
641.594	59807.75
641.947	59916
642.301	59800.97
642.654	59755.55
643.007	59740.63
643.36	59754.42
643.713	59680.75
644.066	59801.2
644.419	59514.42
644.771	59329.8
645.124	59003.48
645.477	58870.15
645.83	58736.14
646.182	58701.11
646.535	58776.59
646.888	58810.94
647.24	58807.32
647.593	59011.84
647.945	58995.12
648.298	58784.95
648.65	58678.06
649.002	58532.98
649.355	58636.03
649.707	58511.06
650.059	58558.52
650.411	58797.61
650.763	58887.77
651.115	59128.22
651.467	59069.69
651.819	59105.17
652.171	59044.15
652.523	58956.7
652.875	58917.15
653.227	58833.76
653.578	58936.36
653.93	58844.84
654.282	58772.52
654.633	58732.52
654.985	58749.92
655.337	58808
655.688	58805.74
656.039	58816.59
656.391	58587.89
656.742	58655.24
657.094	58639.87
657.445	58684.62
657.796	58646.65
658.147	58655.24
658.498	58603.71
658.849	58604.62
659.2	58554.22
659.551	58489.59
659.902	58550.16
660.253	58510.38
660.604	58536.14
660.955	58403.49
661.306	58522.59
661.656	58452.08
662.007	58417.96
662.358	58333.66
662.708	58430.84
663.059	58417.5
663.409	58242.37
663.76	58425.19
664.11	58378.86
664.461	58485.52
664.811	58410.5
665.161	58335.02
665.511	58255.93
665.862	58221.58
666.212	58303.38
666.562	58227.45
666.912	58178.41
667.262	58162.14
667.612	58195.14
667.962	58155.59
668.312	58115.36
668.662	58290.5
669.011	58211.63
669.361	58180.9
669.711	58092.77
670.06	58101.81
670.41	58029.94
670.76	58088.7
671.109	58265.42
671.459	58050.06
671.808	58036.04
672.157	58082.82
672.507	57894.58
672.856	57872.66
673.205	57962.6
673.554	58048.93
673.904	57958.08
674.253	58115.82
674.602	57999.89
674.951	57634.25
675.3	57475.16
675.649	57868.37
675.998	57812.32
676.346	57812.1
676.695	57914.24
677.044	57685.55
677.393	57721.02
677.741	57744.3
678.09	57617.3
678.438	57556.74
678.787	57564.87
679.135	57663.63
679.484	57511.31
679.832	57540.92
680.181	57411.65
680.529	57455.27
680.877	57360.13
681.225	57246.46
681.573	57428.83
681.922	57247.59
682.27	57123.07
682.618	57163.3
682.966	57175.5
683.314	57143.64
683.661	56994.49
684.009	56904.32
684.357	56856.87
684.705	56896.64
685.053	56931.89
685.4	56833.14
685.748	56571.45
686.095	56720.82
686.443	56627.95
686.79	56605.12
687.138	56670.66
687.485	56624.78
687.832	56502.53
688.18	56500.94
688.527	56303.89
688.874	56317.22
689.221	56341.63
689.568	56204
689.915	56182.31
690.262	56148.64
690.609	56073.16
690.956	55954.74
691.303	55986.38
691.65	55811.7
691.997	55778.93
692.344	55562.44
692.69	55602.44
693.037	55577.35
693.383	55304.82
693.73	55366.96
694.077	55131.49
694.423	55199.96
694.769	55048.33
695.116	55040.19
695.462	55051.49
695.808	54832.06
696.155	54924.04
696.501	54739.63
696.847	54744.83
697.193	54468
697.539	54646.76
697.885	54376.71
698.231	54397.72
698.577	54411.28
698.923	54272.75
699.269	54103.94
699.614	53912.99
699.96	53965.42
700.306	53961.8
700.651	53739.43
700.997	53672.54
701.342	53670.74
701.688	53699.44
702.033	53642.71
702.379	53486.79
702.724	53475.03
703.069	53481.59
703.415	53078.89
703.76	53126.12
704.105	53159.11
704.45	53150.07
704.795	52868.5
705.14	52760.25
705.485	52699.69
705.83	52709.18
706.175	52639.35
706.52	52525.46
706.865	52367.27
707.209	52358.91
707.554	52231.68
707.899	52344.89
708.243	52094.28
708.588	52052.7
708.932	51846.15
709.277	51763.67
709.621	51844.79
709.966	51603.45
710.31	51614.07
710.654	51436.44
710.998	51503.34
711.342	51448.87
711.687	51325.26
712.031	51233.51
712.375	51004.14
712.719	51102.89
713.063	50985.83
713.407	51042.78
713.75	50911.26
714.094	50933.86
714.438	50730.02
714.782	50712.85
715.125	50485.28
715.469	50523.93
715.812	50368.9
716.156	50222.24
716.499	50334.1
716.843	50333.65
717.186	49974.56
717.53	50186.08
717.873	50119.64
718.216	50073.32
718.559	49808.01
718.902	49604.18
719.246	49683.95
719.589	49633.33
719.932	49481.02
720.275	49485.08
720.617	49491.41
720.96	49378.65
721.303	49293
721.646	49330.51
721.989	49112.66
722.331	49308.36
722.674	48990.86
723.016	49072.44
723.359	48955.38
723.701	48991.08
724.044	48716.74
724.386	48511.55
724.729	48765.55
725.071	48641.04
725.413	48549.29
725.755	48521.72
726.097	48222.52
726.439	48085.57
726.782	48093.71
727.124	48216.64
727.465	47926.03
727.807	47844
728.149	47772.13
728.491	47775.98
728.833	47745.02
729.175	47614.85
729.516	47564.46
729.858	47368.08
730.199	47377.34
730.541	47218.48
730.882	47125.37
731.224	47516.55
731.565	47118.14
731.906	47214.86
732.248	47123.56
732.589	46971.02
732.93	46820.97
733.271	46867.07
733.612	46903.46
733.953	46858.71
734.294	46564.48
734.635	46392.73
734.976	46677.93
735.317	46430.93
735.658	46625.27
735.999	46546.4
736.339	46258.95
736.68	46440.64
737.021	46138.28
737.361	46021.22
737.702	46113.19
738.042	46024.16
738.383	45862.58
738.723	46036.13
739.063	45649.25
739.404	45792.98
739.744	45663.04
740.084	45506.2
740.424	45573.55
740.764	45535.13
741.104	45574.45
741.444	45220.56
741.784	45325.42
742.124	45250.62
742.464	45163.39
742.804	45084.07
743.143	45039.32
743.483	45002.49
743.823	44742.83
744.162	44826
744.502	44866
744.841	44532.44
745.181	44750.07
745.52	44536.29
745.86	44569.05
746.199	44370.42
746.538	44245.22
746.877	44254.94
747.216	44256.97
747.556	44135.39
747.895	44013.81
748.234	43850.88
748.573	43711.68
748.911	43872.12
749.25	43782.63
749.589	43652.24
749.928	43656.31
750.267	43733.37
750.605	43338.58
750.944	43378.12
751.283	43346.94
751.621	43355.53
751.96	43082.99
752.298	42985.59
752.636	42914.41
752.975	42690.91
753.313	42529.79
753.651	42692.49
753.989	42504.48
754.327	42513.97
754.666	42217.48
755.004	42340.86
755.342	42175.22
755.679	42276.91
756.017	41954.66
756.355	42031.49
756.693	41776.81
757.031	41816.36
757.368	41704.72
757.706	41387.22
758.044	41400.32
758.381	41419.08
758.719	41076.26
759.056	41146.09
759.394	41108.35
759.731	40908.36
760.068	40752.66
760.405	40542.72
760.743	40563.96
761.08	40663.62
761.417	40244.42
761.754	40313.35
762.091	40207.59
762.428	39875.39
762.765	39799.69
763.102	39721.95
763.438	39576.42
763.775	39435.18
764.112	39408.29
764.449	39260.72
764.785	39059.59
765.122	38932.14
765.458	38620.96
765.795	38566.95
766.131	38473.4
766.467	38380.06
766.804	38225.04
767.14	38159.05
767.476	38276.56
767.812	37887.42
768.148	37933.75
768.485	37719.06
768.821	37431.16
769.157	37445.85
769.492	37352.97
769.828	37362.69
770.164	37042.7
770.5	36944.17
770.836	36970.38
771.171	36705.53
771.507	36590.51
771.842	36434.35
772.178	36410.17
772.513	36412.21
772.849	36285.66
773.184	36066.68
773.519	35988.04
773.855	35709.17
774.19	35498.78
774.525	35402.52
774.86	35472.34
775.195	35269.41
775.53	35066.25
775.865	34929.76
776.2	34696.55
776.535	34541.97
776.87	34360.96
777.205	34394.63
777.539	34162.1
777.874	34135.2
778.209	33846.62
778.543	33710.13
778.878	33541.32
779.212	33490.02
779.547	33376.35
779.881	33552.17
780.215	33257.26
780.55	33260.88
780.884	32993.99
781.218	32911.28
781.552	32928.46
781.886	32687.56
782.22	32537.73
782.554	32401.46
782.888	32269.26
783.222	32088.25
783.556	31905.21
783.889	31781.59
784.223	31576.63
784.557	31552
784.89	31558.55
785.224	31321.72
785.557	31316.3
785.891	31302.96
786.224	31138.9
786.558	31031.33
786.891	30729.19
787.224	30731.23
787.557	30517.9
787.891	30599.48
788.224	30493.49
788.557	30381.18
788.89	30259.6
789.223	30164.91
789.556	30021.41
789.888	29972.83
790.221	29702.78
790.554	29553.63
790.887	29623.91
791.219	29454.88
791.552	29408.77
791.884	29239.97
792.217	29069.57
792.549	29095.11
792.882	28835.46
793.214	28732.86
793.546	28757.27
793.879	28520.89
794.211	28438.18
794.543	28536.48
794.875	28360.21
795.207	28496.71
795.539	28209.71
795.871	28282.7
796.203	27826.9
796.535	27833.22
796.867	27871.19
797.198	27732.21
797.53	27781.47
797.862	27656.05
798.193	27527.69
798.525	27241.83
798.856	27399.11
799.188	26977.43
799.519	27060.59
799.85	26775.17
800.182	26841.16
800.513	26834.38
800.844	26542.18
801.175	26470.55
801.506	26603.88
801.837	26307.61
802.168	26368.63
802.499	26279.14
802.83	26080.05
803.161	26012.93
803.491	26063.78
803.822	26063.78
804.153	25932.03
804.483	25656.33
804.814	25579.95
805.145	25525.49
805.475	25471.48
805.805	25531.81
806.136	25413.63
806.466	25295.66
806.796	25305.38
807.126	25158.27
807.457	25054.76
807.787	25140.64
808.117	24898.84
808.447	24789.24
808.777	24856.58
809.107	24810.48
809.436	24711.27
809.766	24662.01
810.096	24564.83
810.426	24454.33
810.755	24464.5
811.085	24372.07
811.414	24391.51
811.744	24043.27
812.073	24107.9
812.403	24023.83
812.732	23968.47
813.061	23818.64
813.39	23867
813.719	23538.65
814.049	23765.08
814.378	23686.89
814.707	23515.14
815.036	23500.91
815.365	23375.04
815.693	23166.45
816.022	23295.26
816.351	23154.25
816.68	23010.98
817.008	23154.7
817.337	22874.03
817.665	22892.11
817.994	22950.64
818.322	22908.38
818.651	22818.67
818.979	22793.36
819.307	22758.78
819.636	22631.78
819.964	22452.35
820.292	22631.1
820.62	22464.32
820.948	22424.55
821.276	22526.92
821.604	22379.13
821.932	22448.96
822.259	22554.94
822.587	22384.78
822.915	22364.21
823.243	22452.57
823.57	22340.26
823.898	22372.58
824.225	22183.2
824.553	22325.12
824.88	22308.85
825.207	22306.81
825.535	22279.92
825.862	22363.76
826.189	22342.29
826.516	22379.81
826.843	22406.25
827.17	22380.48
827.497	22381.84
827.824	22444.21
828.151	22289.19
828.478	22229.08
828.805	22340.26
829.131	22116.31
829.458	22232.47
829.785	21991.34
830.111	22147.72
830.438	22197.44
830.764	22232.69
831.09	22213.71
831.417	22029.53
831.743	22123.32
832.069	22135.75
832.395	22136.88
832.722	22159.25
833.048	22087.16
833.374	22097.55
833.7	21991.12
834.026	22032.25
834.351	21976.43
834.677	21895.98
835.003	21901.63
835.329	21905.24
835.654	21948.18
835.98	21884
836.306	21852.14
836.631	21864.34
836.956	21794.51
837.282	21806.04
837.607	21691.69
837.932	21724.46
838.258	21613.27
838.583	21746.38
838.908	21560.39
839.233	21593.61
839.558	21594.52
839.883	21491.02
840.208	21435.88
840.533	21405.37
840.858	21343.45
841.182	21475.2
841.507	21418.02
841.832	21328.31
842.156	21114.76
842.481	21282.66
842.805	21158.37
843.13	20956.57
843.454	21147.52
843.778	21001.54
844.103	20992.27
844.427	20931.26
844.751	21051.93
845.075	20892.84
845.399	20816.68
845.723	20707.08
846.047	20691.26
846.371	20498.5
846.695	20463.47
847.019	20360.65
847.343	20419.63
847.666	20216.02
847.99	19987.33
848.313	20008.34
848.637	19893.54
848.96	19936.26
849.284	19929.93
849.607	19696.26
849.931	19685.64
850.254	19535.59
850.577	19477.74
850.9	19394.12
851.223	19369.72
851.546	19357.29
851.869	19251.53
852.192	19221.02
852.515	19009.73
852.838	18892.44
853.161	19007.24
853.483	18885.66
853.806	18783.97
854.129	18837.98
854.451	18659
854.774	18571.77
855.096	18605.89
855.419	18586.46
855.741	18461.94
856.063	18290.87
856.385	18274.83
856.708	18262.18
857.03	18306.47
857.352	18403.19
857.674	18201.16
857.996	18195.96
858.318	18097.89
858.64	18039.81
858.961	17927.27
859.283	17951
859.605	17929.75
859.926	17934.05
860.248	17889.53
860.57	17775.86
860.891	17780.61
861.212	17624
861.534	17616.77
861.855	17685.47
862.176	17555.75
862.498	17587.39
862.819	17673.49
863.14	17531.57
863.461	17593.27
863.782	17417.23
864.103	17474.85
864.424	17362.09
864.745	17328.19
865.065	17296.32
865.386	17246.61
865.707	17202.09
866.027	17235.76
866.348	17185.82
866.668	17269.66
866.989	17134.75
867.309	16950.8
867.63	17015.65
867.95	17076.22
868.27	16921.19
868.59	16951.7
868.91	17009.33
869.23	17078.7
869.55	16948.99
869.87	17029.21
870.19	16959.61
870.51	16888.43
870.83	16906.96
871.15	16805.94
871.469	16831.7
871.789	16907.41
872.109	16885.71
872.428	16710.13
872.748	16708.09
873.067	16682.33
873.386	16710.58
873.706	16665.83
874.025	16519.4
874.344	16504.71
874.663	16553.97
874.982	16493.18
875.301	16486.4
875.62	16516.68
875.939	16542.67
876.258	16454.77
876.577	16425.16
876.896	16436.46
877.214	16302.45
877.533	16260.65
877.852	16310.14
878.17	16230.82
878.489	16138.39
878.807	16178.84
879.125	16089.58
879.444	16145.39
879.762	16130.48
880.08	16036.92
880.398	16035.12
880.716	16130.71
881.034	16135.23
881.352	16160.08
881.67	16088.22
881.988	16092.97
882.306	15926.42
882.624	15977.49
882.941	15794.9
883.259	15814.1
883.577	15718.97
883.894	15843.48
884.212	15716.93
884.529	15835.8
884.846	15695.91
885.164	15783.14
885.481	15656.14
885.798	15718.97
886.115	15568.01
886.432	15581.57
886.75	15564.17
887.067	15592.87
887.383	15453.89
887.7	15454.11
888.017	15405.3
888.334	15479.42
888.651	15385.64
888.967	15249.37
889.284	15255.93
889.6	15258.19
889.917	15104.29
890.233	15125.53
890.55	14978.42
890.866	15125.08
891.182	15015.03
891.498	15012.54
891.815	14855.71
892.131	14798.31
892.447	14872.89
892.763	14697.3
893.079	14822.94
893.395	14751.98
893.71	14717.41
894.026	14714.02
894.342	14714.25
894.657	14444.87
894.973	14538.66
895.289	14592.22
895.604	14488.72
895.92	14343.41
896.235	14320.58
896.55	14382.28
896.865	14274.71
897.181	14320.58
897.496	14329.85
897.811	14249.4
898.126	14152.45
898.441	14048.05
898.756	14067.71
899.071	13905.68
899.386	13949.29
899.7	13855.51
900.015	13898
900.33	13769.19
900.644	13681.96
900.959	13749.53
901.273	13670.21
901.588	13567.38
901.902	13470.21
902.216	13434.51
902.531	13447.16
902.845	13443.09
903.159	13345.92
903.473	13319.03
903.787	13214.4
904.101	13187.28
904.415	13198.58
904.729	13109.09
905.042	13059.83
905.356	13010.34
905.67	13011.01
905.984	13067.96
906.297	12928.53
906.611	12831.81
906.924	12811.25
907.237	12755.88
907.551	12731.25
907.864	12641.08
908.177	12660.74
908.491	12675.43
908.804	12529.22
909.117	12396.57
909.43	12503.91
909.743	12327.19
910.056	12362.9
910.368	12242.45
910.681	12247.64
910.994	12141.88
911.307	12140.3
911.619	12011.27
911.932	12027.08
912.244	11905.28
912.557	11995.9
912.869	11921.32
913.181	11844.94
913.494	11801.78
913.806	11742.35
914.118	11715.68
914.43	11609.24
914.742	11577.15
915.054	11525.18
915.366	11519.3
915.678	11508
915.99	11439.3
916.302	11264.85
916.613	11348.23
916.925	11343.94
917.236	11315.01
917.548	11152.98
917.859	11246.99
918.171	11137.62
918.482	10993.89
918.794	11011.52
919.105	11020.11
919.416	10877.28
919.727	10826.21
920.038	10854.46
920.349	10722.94
920.66	10673.45
920.971	10668.48
921.282	10655.37
921.593	10548.48
921.903	10592.32
922.214	10594.81
922.525	10529.72
922.835	10468.71
923.146	10456.05
923.456	10468.03
923.767	10367.92
924.077	10302.84
924.387	10225.55
924.697	10231.2
925.008	10141.71
925.318	10055.61
925.628	10057.87
925.938	10073.24
926.248	9898.78
926.558	9915.95
926.867	9871.89
927.177	9854.26
927.487	9940.36
927.796	9792.79
928.106	9695.17
928.416	9718.22
928.725	9739.46
929.034	9576.08
929.344	9622.4
929.653	9585.79
929.962	9443.65
930.271	9362.52
930.581	9389.41
930.89	9344.22
931.199	9307.83
931.508	9272.13
931.817	9314.16
932.125	9213.6
932.434	9219.25
932.743	9099.03
933.051	9140.83
933.36	9057.22
933.669	9039.37
933.977	8964.34
934.286	8969.99
934.594	8891.35
934.902	8799.6
935.21	8759.6
935.519	8750.79
935.827	8680.51
936.135	8636.89
936.443	8594.41
936.751	8610.23
937.059	8589.89
937.367	8522.32
937.674	8507.18
937.982	8482.77
938.29	8485.26
938.597	8423.34
938.905	8341.98
939.213	8335.88
939.52	8284.36
939.827	8281.65
940.135	8238.03
940.442	8199.39
940.749	8114.19
941.056	8210.69
941.363	8059.51
941.67	8079.84
941.977	7927.08
942.284	7816.12
942.591	7873.3
942.898	7810.02
943.205	7872.62
943.511	7817.25
943.818	7861.77
944.125	7706.52
944.431	7724.83
944.738	7690.93
945.044	7702.23
945.35	7570.03
945.657	7551.95
945.963	7528.45
946.269	7496.81
946.575	7487.32
946.881	7445.74
947.187	7425.17
947.493	7379.3
947.799	7342.24
948.105	7290.26
948.41	7239.41
948.716	7292.97
949.022	7232.86
949.327	7205.52
949.633	7149.92
949.938	7178.4
950.244	7074.9
950.549	7058.85
950.854	7002.36
951.16	6989.7
951.465	6960.55
951.77	6890.72
952.075	6849.59
952.38	6892.98
952.685	6799.43
952.99	6819.09
953.294	6776.6
953.599	6785.19
953.904	6737.05
954.209	6733.21
954.513	6717.39
954.818	6667.9
955.122	6594.23
955.426	6615.7
955.731	6571.86
956.035	6505.87
956.339	6515.59
956.643	6445.99
956.948	6413.67
957.252	6383.62
957.556	6374.13
957.86	6344.3
958.163	6255.71
958.467	6216.16
958.771	6255.03
959.075	6248.48
959.378	6190.4
959.682	6210.97
959.985	6127.8
960.289	6120.12
960.592	6045.1
960.896	6074.7
961.199	6024.08
961.502	6002.38
961.805	5980.46
962.108	5970.75
962.411	5951.09
962.714	5967.81
963.017	5847.59
963.32	5846.23
963.623	5776.85
963.926	5840.58
964.228	5837.42
964.531	5767.59
964.833	5727.59
965.136	5672.22
965.438	5633.35
965.741	5639.46
966.043	5581.6
966.345	5649.63
966.648	5558.55
966.95	5608.5
967.252	5545.45
967.554	5556.97
967.856	5476.97
968.158	5406.47
968.46	5424.09
968.761	5404.89
969.063	5321.5
969.365	5352.91
969.666	5298.9
969.968	5250.77
970.269	5301.16
970.571	5235.63
970.872	5279.47
971.174	5207.6
971.475	5193.82
971.776	5139.81
972.077	5113.82
972.378	5120.6
972.679	5086.93
972.98	5095.74
973.281	5056.42
973.582	5033.14
973.883	4980.72
974.183	4996.99
974.484	4956.54
974.785	4882.64
975.085	4967.84
975.386	4925.58
975.686	4880.15
975.986	4790.89
976.287	4817.1
976.587	4762.87
976.887	4764.23
977.187	4772.13
977.487	4791.34
977.787	4722.87
978.087	4658.92
978.387	4665.02
978.687	4615.98
978.987	4597.22
979.286	4575.08
979.586	4578.24
979.885	4547.96
980.185	4561.52
980.484	4526.04
980.784	4481.29
981.083	4473.61
981.382	4422.31
981.682	4490.79
981.981	4424.35
982.28	4440.17
982.579	4364.24
982.878	4373.5
983.177	4408.98
983.475	4358.59
983.774	4272.03
984.073	4253.73
984.372	4208.76
984.67	4238.59
984.969	4224.13
985.267	4231.36
985.566	4178.48
985.864	4169.21
986.162	4172.15
986.461	4088.76
986.759	4075.66
987.057	4044.7
987.355	4081.31
987.653	4049.22
987.951	4042.44
988.249	3991.59
988.547	3988.43
988.844	3972.83
989.142	3925.15
989.44	3899.16
989.737	3871.82
990.035	3878.37
990.332	3845.38
990.63	3826.85
990.927	3802.44
991.224	3823.91
991.521	3774.87
991.819	3798.6
992.116	3809
992.413	3687.64
992.71	3701.43
993.006	3671.82
993.303	3683.8
993.6	3695.55
993.897	3669.11
994.193	3672.28
994.49	3600.64
994.787	3583.69
995.083	3589.57
995.379	3584.37
995.676	3581.66
995.972	3587.31
996.268	3496.46
996.565	3505.5
996.861	3485.39
997.157	3447.2
997.453	3413.98
997.749	3433.19
998.044	3397.26
998.34	3370.82
998.636	3376.01
998.932	3368.33
999.227	3286.98
999.523	3304.38
999.818	3315.68
1000.114	3294.66
1000.409	3232.29
1000.704	3263.7
1001	3202.91
1001.295	3168.56
1001.59	3168.56
1001.885	3161.78
1002.18	3115.45
1002.475	3120.2
1002.77	3103.7
1003.065	3050.37
1003.359	3042.24
1003.654	3090.37
1003.949	3028.68
1004.243	2988.45
1004.538	3015.12
1004.832	2983.48
1005.127	2975.35
1005.421	2920.43
1005.715	2921.56
1006.009	2904.39
1006.304	2905.29
1006.598	2854.44
1006.892	2838.4
1007.186	2810.15
1007.48	2824.61
1007.773	2755.46
1008.067	2799.53
1008.361	2768.12
1008.655	2781
1008.948	2735.13
1009.242	2704.62
1009.535	2698.97
1009.829	2703.26
1010.122	2670.27
1010.415	2651.51
1010.708	2613.1
1011.001	2633.66
1011.295	2576.94
1011.588	2596.82
1011.881	2559.99
1012.173	2550.27
1012.466	2508.24
1012.759	2511.18
1013.052	2527.9
1013.344	2512.76
1013.637	2483.16
1013.93	2436.38
1014.222	2431.63
1014.514	2442.03
1014.807	2408.81
1015.099	2401.8
1015.391	2363.84
1015.683	2384.63
1015.976	2349.83
1016.268	2356.15
1016.56	2307.57
1016.851	2302.14
1017.143	2270.73
1017.435	2315.25
1017.727	2248.36
1018.018	2211.3
1018.31	2232.99
1018.602	2214.46
1018.893	2186.44
1019.185	2209.04
1019.476	2149.15
1019.767	2147.57
1020.058	2116.84
1020.35	2131.53
1020.641	2100.34
1020.932	2086.1
1021.223	2097.4
1021.514	2072.09
1021.804	2044.97
1022.095	2009.5
1022.386	1987.12
1022.677	1998.87
1022.967	1989.16
1023.258	1950.29
1023.548	1969.04
1023.839	1924.75
1024.129	1927.46
1024.419	1915.94
1024.709	1923.85
1025	1856.05
1025.29	1850.63
1025.58	1846.56
1025.87	1836.39
1026.16	1793.23
1026.449	1764.3
1026.739	1786
1027.029	1806.11
1027.319	1774.25
1027.608	1781.7
1027.898	1756.85
1028.187	1771.99
1028.477	1709.39
1028.766	1738.54
1029.055	1685.21
1029.344	1686.57
1029.634	1653.8
1029.923	1653.57
1030.212	1638.43
1030.501	1601.82
1030.79	1595.04
1031.078	1596.17
1031.367	1623.29
1031.656	1587.36
1031.945	1566.34
1032.233	1567.92
1032.522	1564.99
1032.81	1541.48
1033.099	1514.59
1033.387	1507.81
1033.675	1488.6
1033.963	1511.88
1034.251	1489.96
1034.54	1486.35
1034.828	1461.04
1035.116	1447.25
1035.403	1454.26
1035.691	1437.31
1035.979	1412.45
1036.267	1434.37
1036.554	1385.33
1036.842	1381.94
1037.129	1353.24
1037.417	1354.15
1037.704	1387.59
1037.992	1376.07
1038.279	1362.51
1038.566	1339.68
1038.853	1339.68
1039.14	1339.68
