Data from foil_FLMS001491_025.txt Node
Date: Tue Feb 07 11:25:40 GMT 2017
User: dcchb
Spectrometer: FLMS00149
Trigger mode: 0
Integration Time (sec): 2.000000E-2
Scans to average: 10
Electric dark correction enabled: true
Nonlinearity correction enabled: false
Boxcar width: 0
XAxis mode: Wavelengths
Number of Pixels in Spectrum: 2048
>>>>>Begin Spectral Data<<<<<
341.393	-18.54
341.776	-18.54
342.16	-18.54
342.543	-43.85
342.927	-71.2
343.31	-81.14
343.693	-68.94
344.077	-76.62
344.46	-48.15
344.843	-55.83
345.226	-44.08
345.61	-27.36
345.993	-24.19
346.376	-3.63
346.759	-1.14
347.142	36.82
347.525	46.09
347.908	58.52
348.291	84.05
348.674	82.24
349.057	123.37
349.44	125.63
349.823	138.74
350.206	178.29
350.588	247.44
350.971	277.72
351.354	283.82
351.737	300.99
352.119	305.51
352.502	332.41
352.884	339.64
353.267	340.99
353.65	371.73
354.032	385.74
354.414	389.35
354.797	400.88
355.179	398.39
355.562	392.07
355.944	404.72
356.326	414.66
356.709	428.9
357.091	419.64
357.473	440.2
357.855	453.08
358.238	440.88
358.62	436.13
359.002	439.3
359.384	426.64
359.766	439.3
360.148	416.7
360.53	450.14
360.912	452.86
361.294	455.12
361.676	424.83
362.057	420.09
362.439	436.81
362.821	446.3
363.203	452.4
363.584	446.75
363.966	432.29
364.348	438.84
364.729	475.68
365.111	452.86
365.493	430.93
365.874	433.87
366.256	447.43
366.637	468
367.019	455.34
367.4	448.79
367.781	482.23
368.163	460.76
368.544	457.15
368.925	472.97
369.306	472.06
369.688	479.3
370.069	468.9
370.45	467.32
370.831	456.02
371.212	492.63
371.593	484.04
371.974	483.81
372.355	518.16
372.736	508.67
373.117	496.92
373.498	504.38
373.879	483.59
374.26	474.1
374.641	483.81
375.021	484.72
375.402	522.46
375.783	535.79
376.163	573.08
376.544	569.69
376.925	550.93
377.305	536.47
377.686	566.98
378.066	550.25
378.447	585.51
378.827	563.13
379.208	557.71
379.588	592.51
379.968	558.84
380.349	604.72
380.729	596.13
381.109	595.68
381.489	599.07
381.87	616.01
382.25	634.55
382.63	618.73
383.01	623.7
383.39	624.15
383.77	654.21
384.15	651.95
384.53	670.7
384.91	694.66
385.29	691.04
385.67	677.26
386.049	675.9
386.429	691.04
386.809	718.16
387.189	705.96
387.568	723.13
387.948	700.53
388.328	716.8
388.707	735.56
389.087	753.19
389.466	749.34
389.846	776.46
390.225	777.59
390.605	773.98
390.984	801.32
391.363	791.6
391.743	827.76
392.122	822.11
392.501	841.55
392.881	870.7
393.26	867.31
393.639	871.38
394.018	894.88
394.397	900.3
394.776	885.61
395.155	897.14
395.534	894.88
395.913	908.66
396.292	900.53
396.671	952.96
397.05	967.64
397.429	958.15
397.808	978.27
398.186	954.54
398.565	1012.16
398.944	995.67
399.323	1027.53
399.701	1035.21
400.08	1050.58
400.458	1032.5
400.837	1063.91
401.215	1078.15
401.594	1067.75
401.972	1084.48
402.351	1094.65
402.729	1106.17
403.107	1126.74
403.486	1122.89
403.864	1153.18
404.242	1157.24
404.62	1174.19
404.999	1199.95
405.377	1176
405.755	1219.39
406.133	1206.96
406.511	1232.72
406.889	1287.64
407.267	1294.42
407.645	1309.78
408.023	1319.95
408.401	1323.79
408.779	1343.45
409.156	1372.61
409.534	1349.78
409.912	1382.32
410.29	1436.33
410.667	1466.16
411.045	1492.6
411.422	1450.34
411.8	1496.9
412.178	1542.77
412.555	1547.52
412.933	1560.62
413.31	1604.92
413.687	1592.26
414.065	1611.47
414.442	1630.68
414.819	1667.29
415.197	1680.17
415.574	1664.57
415.951	1724.23
416.328	1744.57
416.705	1743.89
417.082	1786.61
417.46	1805.14
417.837	1806.94
418.214	1804.91
418.591	1847.85
418.967	1848.07
419.344	1877.68
419.721	1877.68
420.098	1875.42
420.475	1911.12
420.852	1936.43
421.228	1964.45
421.605	1991.35
421.982	2008.75
422.358	2010.33
422.735	2066.15
423.111	2053.94
423.488	2102.3
423.864	2117.67
424.241	2124.45
424.617	2160.38
424.994	2182.98
425.37	2181.85
425.746	2207.16
426.123	2208.74
426.499	2224.11
426.875	2284.67
427.251	2315.63
427.627	2384.33
428.003	2393.82
428.379	2409.41
428.756	2455.29
429.132	2506.36
429.507	2526.7
429.883	2549.52
430.259	2609.86
430.635	2639.46
431.011	2630.43
431.387	2675.85
431.763	2750.65
432.138	2742.74
432.514	2792
432.89	2808.95
433.265	2878.55
433.641	2921.72
434.016	2929.17
434.392	3005.78
434.767	3017.76
435.143	3054.82
435.518	3064.31
435.894	3092.33
436.269	3136.17
436.644	3156.97
437.02	3188.83
437.395	3229.51
437.77	3252.33
438.145	3340.46
438.52	3320.35
438.895	3353.12
439.271	3373.23
439.646	3506.56
440.021	3503.4
440.395	3457.52
440.77	3474.02
441.145	3540.91
441.52	3562.38
441.895	3573.45
442.27	3643.96
442.645	3643.73
443.019	3712.43
443.394	3691.41
443.769	3755.82
444.143	3717.18
444.518	3783.62
444.892	3768.25
445.267	3775.71
445.641	3860.22
446.016	3892.99
446.39	3888.25
446.764	3877.17
447.139	3879.43
447.513	3983.16
447.887	3968.02
448.262	4016.6
448.636	4027
449.01	4108.13
449.384	4144.28
449.758	4125.3
450.132	4223.83
450.506	4203.04
450.88	4235.13
451.254	4243.04
451.628	4311.96
452.002	4317.84
452.376	4395.8
452.75	4402.36
453.123	4410.27
453.497	4541.34
453.871	4596.48
454.244	4697.49
454.618	4697.94
454.992	4750.14
455.365	4768.9
455.739	4887.31
456.112	4910.82
456.486	4930.93
456.859	5021.1
457.232	5134.54
457.606	5098.16
457.979	5217.02
458.352	5294.99
458.725	5294.99
459.099	5341.54
459.472	5496.79
459.845	5597.35
460.218	5616.79
460.591	5658.82
460.964	5660.63
461.337	5817.69
461.71	5886.16
462.083	5915.31
462.456	5970
462.829	5975.42
463.201	6134.74
463.574	6109.43
463.947	6176.77
464.32	6364.11
464.692	6407.05
465.065	6466.03
465.438	6502.19
465.81	6627.83
466.183	6675.52
466.555	6797.77
466.928	6880.26
467.3	6880.71
467.672	6956.19
468.045	7208.16
468.417	7139.01
468.789	7228.27
469.161	7339.68
469.534	7460.58
469.906	7577.87
470.278	7661.71
470.65	7830.06
471.022	7865.09
471.394	8048.14
471.766	8112.77
472.138	8231.63
472.51	8437.73
472.882	8457.16
473.253	8594.79
473.625	8708.01
473.997	8864.84
474.369	8946.19
474.74	9085.62
475.112	9219.63
475.484	9412.85
475.855	9504.82
476.227	9605.61
476.598	9885.83
476.97	9996.79
477.341	10232.26
477.713	10378.02
478.084	10428.19
478.455	10723.32
478.827	10714.28
479.198	11121.05
479.569	11111.33
479.94	11386.35
480.311	11462.51
480.682	11758.55
481.053	12035.15
481.424	12281.24
481.795	12332.99
482.166	12434.69
482.537	12697.05
482.908	12949.25
483.279	13053.88
483.65	13348.79
484.021	13534.55
484.391	13700.19
484.762	13859.96
485.133	13991.93
485.503	14195.32
485.874	14515.08
486.244	14684.35
486.615	14961.85
486.985	14993.26
487.356	15274.39
487.726	15486.58
488.097	15766.58
488.467	15761.83
488.837	16137.64
489.207	16321.36
489.578	16562.26
489.948	16654.24
490.318	16935.36
490.688	16966.09
491.058	17194.11
491.428	17463.71
491.798	17644.95
492.168	17987.54
492.538	18101.88
492.908	18329.67
493.278	18537.13
493.648	18622.77
494.017	18849.66
494.387	18961.07
494.757	19162.19
495.126	19301.4
495.496	19370.78
495.866	19543.65
496.235	19853.25
496.605	19992.68
496.974	20001.72
497.344	20251.2
497.713	20386.12
498.082	20513.12
498.452	20700.46
498.821	20766.45
499.19	20972.09
499.559	21210.05
499.928	21404.39
500.298	21441.23
500.667	21601.45
501.036	21643.94
501.405	21892.97
501.774	21887.32
502.143	22120.99
502.512	22094.09
502.88	22446.85
503.249	22520.98
503.618	22651.59
503.987	22826.73
504.356	23022.43
504.724	23102.88
505.093	23198.92
505.462	23484.11
505.83	23498.13
506.199	23795.97
506.567	24062.4
506.936	23955.97
507.304	24310.31
507.672	24422.85
508.041	24562.5
508.409	24816.28
508.777	24987.13
509.145	25037.29
509.514	25164.52
509.882	25370.62
510.25	25400
510.618	25634.79
510.986	25751.85
511.354	25963.82
511.722	26178.73
512.09	26458.95
512.458	26494.66
512.826	26676.8
513.193	26885.15
513.561	27014.87
513.929	27352.49
514.297	27493.27
514.664	27775.53
515.032	27796.54
515.4	27982.75
515.767	28357.66
516.135	28322.18
516.502	28238.34
516.869	28862.96
517.237	28921.26
517.604	29035.15
517.972	29401.7
518.339	29559.89
518.706	29623.16
519.073	29768.69
519.44	29919.2
519.808	30348.57
520.175	30337.27
520.542	30820.42
520.909	31014.09
521.276	31074.65
521.643	31422.21
522.009	31649.1
522.376	31897
522.743	32093.83
523.11	32390.09
523.477	32739.24
523.843	32956.18
524.21	33310.52
524.577	33515.94
524.943	33788.7
525.31	33935.82
525.676	34242.93
526.043	34433.2
526.409	34583.26
526.776	34848.56
527.142	35082.23
527.508	35316.8
527.874	35660.29
528.241	35678.82
528.607	35822.55
528.973	36220.95
529.339	36147.28
529.705	36670.66
530.071	36845.8
530.437	37263.64
530.803	37350.64
531.169	37563.29
531.535	37509.06
531.901	37847.8
532.267	37935.71
532.632	38342.48
532.998	38557.84
533.364	38634.45
533.73	38859.98
534.095	39090.71
534.461	39194.44
534.826	39455.45
535.192	39612.28
535.557	39905.6
535.923	39798.49
536.288	40005.49
536.653	40301.98
537.019	40155.31
537.384	40544
537.749	40652.02
538.114	40751
538.479	40842.53
538.845	41038
539.21	41107.15
539.575	41329.29
539.94	41576.07
540.305	41698.1
540.67	41706.69
541.034	42051.99
541.399	42207.92
541.764	42463.73
542.129	42522.48
542.494	42595.7
542.858	42769.93
543.223	42794.11
543.587	43127.44
543.952	43140.32
544.316	43290.82
544.681	43182.35
545.045	43463.25
545.41	43833.86
545.774	43838.83
546.138	43971.49
546.503	44179.62
546.867	44158.6
547.231	44451.47
547.595	44562.66
547.959	44650.11
548.324	44758.58
548.688	45039.93
549.052	45319.7
549.416	45241.06
549.779	45341.84
550.143	45616.64
550.507	45810.98
550.871	45987.03
551.235	46060.92
551.599	46371.2
551.962	46379.78
552.326	46528.71
552.689	46751.3
553.053	46609.83
553.417	46766.21
553.78	47312.64
554.143	47239.42
554.507	47459.75
554.87	47545.4
555.234	47972.74
555.597	47694.1
555.96	47979.74
556.323	48095.9
556.686	48277.81
557.05	48557.81
557.413	48593.51
557.776	48797.12
558.139	49279.37
558.502	49119.82
558.865	49205.02
559.228	49653.6
559.59	49619.47
559.953	49802.74
560.316	50101.49
560.679	50195.05
561.041	50473.01
561.404	50595.27
561.767	50852.21
562.129	50778.09
562.492	51231.63
562.854	51169.04
563.217	51245.64
563.579	51352.31
563.941	51630.04
564.304	51752.3
564.666	51919.07
565.028	52010.14
565.39	52159.29
565.753	52348.67
566.115	52519.28
566.477	52631.82
566.839	52743.01
567.201	52849.9
567.563	52931.93
567.925	53152.49
568.287	53160.4
568.648	53170.11
569.01	53385.02
569.372	53511.35
569.734	53545.02
570.095	53714.96
570.457	53874.5
570.819	53983.88
571.18	54048.28
571.542	54081.05
571.903	54223.42
572.265	54393.81
572.626	54470.64
572.987	54516.29
573.349	54635.39
573.71	54699.11
574.071	54677.87
574.432	54901.59
574.794	55147.91
575.155	55050.74
575.516	54955.6
575.877	55124.19
576.238	55217.74
576.599	55223.17
576.96	55160.57
577.32	55244.18
577.681	55356.72
578.042	55419.77
578.403	55542.93
578.763	55498.41
579.124	55604.85
579.485	55689.6
579.845	55720.78
580.206	55741.35
580.566	55718.97
580.927	55729.82
581.287	55855.69
581.648	55791.06
582.008	55910.38
582.368	55871.29
582.728	55865.41
583.089	55869.93
583.449	55841.68
583.809	56008.91
584.169	55958.29
584.529	55904.73
584.889	56067.21
585.249	55996.25
585.609	55874.22
585.969	56006.65
586.329	55922.36
586.688	56057.27
587.048	56027.44
587.408	55909.48
587.768	55946.76
588.127	55974.33
588.487	55986.54
588.846	56153.76
589.206	55969.36
589.565	55933.88
589.925	56089.36
590.284	55996.25
590.643	56135.46
591.003	56149.47
591.362	56120.09
591.721	56114.67
592.08	56172.97
592.44	56185.18
592.799	56189.92
593.158	56155.12
593.517	56101.11
593.876	56179.07
594.235	56157.61
594.593	56164.16
594.952	56254.55
595.311	56174.78
595.67	56184.72
596.029	56308.11
596.387	56317.15
596.746	56316.92
597.104	56236.93
597.463	56295
597.822	56398.05
598.18	56284.16
598.538	56297.04
598.897	56477.37
599.255	56171.84
599.613	56565.96
599.972	56367.09
600.33	56442.12
600.688	56378.16
601.046	56518.73
601.404	56566.86
601.762	56484.6
602.12	56681.89
602.478	56624.49
602.836	56551.95
603.194	56510.82
603.552	56555.33
603.91	56528.67
604.268	56675.33
604.625	56555.79
604.983	56715.33
605.341	56636.01
605.698	56765.05
606.056	56823.8
606.413	56760.08
606.771	56867.64
607.128	56843.69
607.485	56747.65
607.843	56802.79
608.2	56899.05
608.557	56934.53
608.914	56836.01
609.272	57052.27
609.629	57051.14
609.986	57083
610.343	57016.34
610.7	57179.27
611.057	57109.44
611.414	57036.45
611.771	57109.9
612.127	57266.5
612.484	57214.07
612.841	57268.31
613.198	57200.97
613.554	57288.65
613.911	57440.06
614.267	57347.63
614.624	57356.9
614.98	57401.19
615.337	57512.6
615.693	57403.67
616.05	57417.23
616.406	57537.46
616.762	57426.27
617.118	57419.27
617.475	57464.92
617.831	57494.07
618.187	57544.24
618.543	57607.51
618.899	57775.19
619.255	57695.19
619.611	57601.18
619.967	57659.03
620.323	57741.52
620.678	57589.43
621.034	57633.5
621.39	57532.71
621.746	57496.55
622.101	57858.35
622.457	57692.25
622.812	57671.92
623.168	57780.39
623.523	57721.41
623.879	57803.21
624.234	57601.41
624.589	57761.86
624.945	57785.13
625.3	57795.53
625.655	57806.6
626.01	57885.92
626.365	57830.78
626.72	57802.53
627.075	57793.49
627.43	57700.39
627.785	57684.12
628.14	57709.2
628.495	57741.97
628.85	57677.57
629.205	57633.95
629.559	57716.43
629.914	57586.27
630.269	57542.65
630.623	57444.13
630.978	57408.65
631.332	57570
631.687	57655.42
632.041	57471.7
632.396	57435.31
632.75	57407.06
633.104	57476.89
633.459	57415.65
633.813	57277.8
634.167	57254.75
634.521	57223.57
634.875	57277.12
635.229	57298.37
635.583	57066.73
635.937	57095.43
636.291	57066.28
636.645	57082.33
636.999	57030.35
637.352	57008.2
637.706	56881.88
638.06	56974.98
638.413	57024.93
638.767	56889.56
639.121	56930.92
639.474	56786.29
639.828	56826.51
640.181	56867.87
640.534	56930.47
640.888	56779.06
641.241	56732.96
641.594	56740.41
641.947	56746.52
642.301	56619.74
642.654	56582.45
643.007	56556.24
643.36	56415.9
643.713	56512.62
644.066	56698.61
644.419	56357.83
644.771	56142.46
645.124	55784.73
645.477	55638.3
645.83	55562.82
646.182	55310.4
646.535	55507.45
646.888	55677.62
647.24	55721.23
647.593	55793.77
647.945	55722.36
648.298	55645.3
648.65	55519.66
649.002	55377.51
649.355	55345.88
649.707	55218.65
650.059	55223.84
650.411	55532.54
650.763	55587.45
651.115	55893.88
651.467	55810.04
651.819	55858.18
652.171	55810.04
652.523	55705.41
652.875	55703.15
653.227	55545.42
653.578	55740.44
653.93	55640.1
654.282	55574.57
654.633	55485.76
654.985	55539.99
655.337	55539.32
655.688	55550.39
656.039	55618.18
656.391	55352.65
656.742	55378.64
657.094	55443.95
657.445	55408.92
657.796	55328.02
658.147	55320.79
658.498	55346.55
658.849	55216.61
659.2	55146.78
659.551	55132.32
659.902	55236.5
660.253	55130.29
660.604	55164.86
660.955	55041.25
661.306	55067.92
661.656	55005.09
662.007	55007.35
662.358	55024.53
662.708	55000.12
663.059	54980.91
663.409	54820.47
663.76	54985.43
664.11	55048.26
664.461	54980.01
664.811	55028.6
665.161	55022.72
665.511	54846.23
665.862	54851.88
666.212	54887.81
666.562	54943.63
666.912	54859.79
667.262	54769.39
667.612	54765.78
667.962	54812.1
668.312	54830.86
668.662	54902.72
669.011	54752.22
669.361	54704.08
669.711	54669.06
670.06	54642.39
670.41	54632.9
670.76	54487.14
671.109	54653.46
671.459	54662.96
671.808	54545.22
672.157	54639.68
672.507	54416.63
672.856	54453.7
673.205	54382.06
673.554	54604.88
673.904	54429.74
674.253	54606.46
674.602	54456.86
674.951	54045.8
675.3	53853.49
675.649	54288.73
675.998	54302.96
676.346	54329.63
676.695	54428.39
677.044	54168.05
677.393	54302.51
677.741	54224.32
678.09	54118.79
678.438	54058.23
678.787	54165.79
679.135	54146.36
679.484	53952.92
679.832	54018.45
680.181	53832.92
680.529	53996.76
680.877	53906.59
681.225	53807.38
681.573	53839.25
681.922	53689.42
682.27	53574.62
682.618	53632.47
682.966	53613.72
683.314	53726.71
683.661	53553.15
684.009	53354.06
684.357	53297.79
684.705	53207.63
685.053	53253.95
685.4	53249.21
685.748	53091.25
686.095	53077.91
686.443	53001.98
686.79	52970.57
687.138	52919.95
687.485	52950.23
687.832	52779.16
688.18	52673.63
688.527	52695.1
688.874	52663.46
689.221	52567.64
689.568	52397.7
689.915	52345.5
690.262	52317.71
690.609	52258.95
690.956	52212.85
691.303	52136.47
691.65	51995.91
691.997	52000.65
692.344	51730.6
692.69	51684.05
693.037	51734.22
693.383	51482.02
693.73	51636.14
694.077	51402.25
694.423	51441.57
694.769	51275.47
695.116	51189.15
695.462	51168.81
695.808	50999.55
696.155	51076.61
696.501	50736.05
696.847	50837.52
697.193	50459.45
697.539	50691.99
697.885	50386.68
698.231	50256.52
698.577	50241.83
698.923	50259.23
699.269	50132.68
699.614	49925.9
699.96	49809.98
700.306	49812.24
700.651	49611.34
700.997	49499.48
701.342	49386.03
701.688	49321.63
702.033	49255.19
702.379	49104.46
702.724	49167.05
703.069	49115.53
703.415	48747.63
703.76	48641.19
704.105	48711.47
704.45	48628.76
704.795	48386.96
705.14	48266.29
705.485	48285.27
705.83	48088.44
706.175	48271.48
706.52	48096.57
706.865	47897.26
707.209	47755.34
707.554	47721.89
707.899	47695.23
708.243	47510.38
708.588	47415.46
708.932	47277.16
709.277	47277.16
709.621	47153.55
709.966	46898.87
710.31	47095.02
710.654	46688.25
710.998	46634.69
711.342	46723.28
711.687	46575.26
712.031	46300.46
712.375	46274.48
712.719	46350.63
713.063	46267.92
713.407	46257.3
713.75	46186.34
714.094	46082.39
714.438	45957.87
714.782	45953.35
715.125	45650.54
715.469	45743.19
715.812	45374.84
716.156	45199.48
716.499	45171.45
716.843	45325.57
717.186	44978.69
717.53	45222.53
717.873	45102.75
718.216	44928.97
718.559	44864.79
718.902	44580.51
719.246	44618.25
719.589	44537.57
719.932	44437.46
720.275	44484.01
720.617	44517.01
720.96	44238.6
721.303	44245.15
721.646	44214.87
721.989	44076.57
722.331	44041.77
722.674	43932.39
723.016	43863.92
723.359	43831.83
723.701	43905.5
724.044	43586.86
724.386	43520.88
724.729	43771.04
725.071	43553.42
725.413	43473.87
725.755	43443.59
726.097	43283.82
726.439	43023.04
726.782	43117.04
727.124	43185.52
727.465	42752.31
727.807	42662.59
728.149	42697.62
728.491	42700.11
728.833	42607.68
729.175	42417.85
729.516	42394.35
729.858	42360.23
730.199	42350.74
730.541	42209.05
730.882	42087.92
731.224	42305.77
731.565	42081.37
731.906	42049.73
732.248	42009.28
732.589	41780.81
732.93	41580.14
733.271	41681.6
733.612	41828.49
733.953	41775.61
734.294	41681.6
734.635	41555.05
734.976	41537.2
735.317	41354.83
735.658	41235.06
735.999	41296.08
736.339	41120.71
736.68	41275.51
737.021	41130.66
737.361	40875.3
737.702	41174.5
738.042	40934.28
738.383	40741.06
738.723	41077.32
739.063	40539.94
739.404	40619.48
739.744	40561.41
740.084	40276.21
740.424	40425.82
740.764	40373.84
741.104	40455.87
741.444	40167.97
741.784	40102.21
742.124	39965.26
742.464	39960.97
742.804	39906.96
743.143	39849.11
743.483	39838.94
743.823	39633.97
744.162	39629.68
744.502	39695.44
744.841	39448.67
745.181	39553.3
745.52	39363.02
745.86	39399.85
746.199	39128.67
746.538	39177.71
746.877	39259.29
747.216	39387.42
747.556	39064.72
747.895	38880.32
748.234	38772.98
748.573	38967.55
748.911	38808.91
749.25	38779.31
749.589	38622.7
749.928	38771.17
750.267	38582.7
750.605	38467.45
750.944	38321.46
751.283	38140.68
751.621	38069.49
751.96	37812.32
752.298	37798.99
752.636	37907.01
752.975	37648.26
753.313	37528.72
753.651	37730.97
753.989	37688.26
754.327	37494.82
754.666	37222.51
755.004	37324.88
755.342	37317.87
755.679	37250.08
756.017	36923.08
756.355	36997.21
756.693	36836.76
757.031	37142.74
757.368	36551.34
757.706	36586.82
758.044	36561.74
758.381	36646.93
758.719	36379.82
759.056	36310.44
759.394	36135.53
759.731	35953.62
760.068	35875.65
760.405	35689.22
760.743	35715.43
761.08	35752.72
761.417	35548.88
761.754	35479.96
762.091	35450.58
762.428	35272.5
762.765	34925.17
763.102	35192.51
763.438	34912.74
763.775	34639.53
764.112	34768.79
764.449	34908.67
764.785	34678.4
765.122	34340.1
765.458	34270.27
765.795	34202.93
766.131	34099.2
766.467	33977.17
766.804	33667.35
767.14	33520.69
767.476	33667.58
767.812	33501.48
768.148	33371.54
768.485	33129.74
768.821	32978.1
769.157	32969.29
769.492	32886.8
769.828	32852.91
770.164	32501.73
770.5	32513.26
770.836	32355.97
771.171	32191
771.507	32274.84
771.842	31864.23
772.178	31933.84
772.513	31772.26
772.849	31685.48
773.184	31584.47
773.519	31619.72
773.855	31333.85
774.19	31367.07
774.525	31127.98
774.86	31059.28
775.195	30944.03
775.53	30950.36
775.865	30706.75
776.2	30513.31
776.535	30220.43
776.87	30287.55
777.205	30217.72
777.539	30060.21
777.874	30116.26
778.209	29798.52
778.543	29899.76
778.878	29658.42
779.212	29752.2
779.547	29344.07
779.881	29604.86
780.215	29203.29
780.55	29316.5
780.884	29155.83
781.218	29001.94
781.552	28909.28
781.886	28742.96
782.22	28630.19
782.554	28558.11
782.888	28150.88
783.222	28106.14
783.556	27949.31
783.889	27805.58
784.223	27828.41
784.557	27813.27
784.89	27915.64
785.224	27743.21
785.557	27449.66
785.891	27415.08
786.224	27282.66
786.558	27247.63
786.891	27076.34
787.224	26873.86
787.557	26753.18
787.891	26761.99
788.224	26693.52
788.557	26687.19
788.89	26647.65
789.223	26515.45
789.556	26270.48
789.888	26196.59
790.221	26296.92
790.554	26054.44
790.887	26024.39
791.219	25865.29
791.552	25649.48
791.884	25748.24
792.217	25625.07
792.549	25552.76
792.882	25380.11
793.214	25254.92
793.546	25252.43
793.879	25204.07
794.211	24853.12
794.543	24990.97
794.875	24947.35
795.207	24972.89
795.539	24698.32
795.871	24761.59
796.203	24496.29
796.535	24483.64
796.867	24308.27
797.198	24274.83
797.53	24300.82
797.862	24273.02
798.193	24174.49
798.525	24099.92
798.856	24118.45
799.188	23776.31
799.519	23868.28
799.85	23596.43
800.182	23685.69
800.513	23543.55
800.844	23404.12
801.175	23388.75
801.506	23261.07
801.837	23217.45
802.168	23200.51
802.499	23061.3
802.83	22996.9
803.161	23029.21
803.491	22885.26
803.822	22825.37
804.153	22723.23
804.483	22463.8
804.814	22383.58
805.145	22373.41
805.475	22426.29
805.805	22270.13
806.136	22307.42
806.466	22385.16
806.796	22257.03
807.126	22195.79
807.457	21964.15
807.787	22067.2
808.117	21919.86
808.447	21788.57
808.777	21853.2
809.107	21769.58
809.436	21743.14
809.766	21677.38
810.096	21636.71
810.426	21500.66
810.755	21644.16
811.085	21581.79
811.414	21401.23
811.744	21206.66
812.073	21182.71
812.403	21064.52
812.732	20940.68
813.061	21033.33
813.39	20862.49
813.719	20871.98
814.049	20781.13
814.378	20852.54
814.707	20669.72
815.036	20724.19
815.365	20530.97
815.693	20427.92
816.022	20508.83
816.351	20390.86
816.68	20331.2
817.008	20274.93
817.337	20058.89
817.665	20047.37
817.994	20194.26
818.322	20109.29
818.651	20000.14
818.979	19901.16
819.307	20044.43
819.636	19891.21
819.964	19762.63
820.292	19847.15
820.62	19785.45
820.948	19770.99
821.276	19796.75
821.604	19730.31
821.932	19805.11
822.259	19730.77
822.587	19701.16
822.915	19522.86
823.243	19664.1
823.57	19485.8
823.898	19631.79
824.225	19467.5
824.553	19552.47
824.88	19519.7
825.207	19630.2
825.535	19535.29
825.862	19628.4
826.189	19455.75
826.516	19545.23
826.843	19653.93
827.17	19658.23
827.497	19740.94
827.824	19560.38
828.151	19474.73
828.478	19494.61
828.805	19546.36
829.131	19520.38
829.458	19453.26
829.785	19488.29
830.111	19661.84
830.438	19691.67
830.764	19631.56
831.09	19650.77
831.417	19573.93
831.743	19537.1
832.069	19559.47
832.395	19479.47
832.722	19513.82
833.048	19491.9
833.374	19518.34
833.7	19377.78
834.026	19392.47
834.351	19411.23
834.677	19256.2
835.003	19241.74
835.329	19259.82
835.654	19204.68
835.98	19157.22
836.306	19298.69
836.631	19043.55
836.956	19051.24
837.282	19185.24
837.607	18984.8
837.932	19006.27
838.258	19001.97
838.583	19042.65
838.908	18877.91
839.233	19014.4
839.558	18995.42
839.883	18981.18
840.208	18756.1
840.533	18792.94
840.858	18792.03
841.182	18825.48
841.507	18790.23
841.832	18776.22
842.156	18749.78
842.481	18670.46
842.805	18611.25
843.13	18513.17
843.454	18432.27
843.778	18355.66
844.103	18447.86
844.427	18345.94
844.751	18307.08
845.075	18296.45
845.399	18178.04
845.723	18112.28
846.047	18217.13
846.371	18119.74
846.695	18082.67
847.019	17979.63
847.343	17811.04
847.666	17737.6
847.99	17733.76
848.313	17623.03
848.637	17493.99
848.96	17474.55
849.284	17440.43
849.607	17283.83
849.931	17270.72
850.254	17141.68
850.577	17037.05
850.9	16976.26
851.223	17005.64
851.546	16885.64
851.869	16746.21
852.192	16893.78
852.515	16837.51
852.838	16694.91
853.161	16696.95
853.483	16647.91
853.806	16454.24
854.129	16493.11
854.451	16405.2
854.774	16182.61
855.096	16291.31
855.419	16284.53
855.741	16226.23
856.063	16168.6
856.385	16009.28
856.708	16063.07
857.03	15944.65
857.352	16002.05
857.674	15882.28
857.996	15926.8
858.318	15944.65
858.64	15777.88
858.961	15770.19
859.283	15778.55
859.605	15729.74
859.926	15771.32
860.248	15792.56
860.57	15695.39
860.891	15664.21
861.212	15499.47
861.534	15500.82
861.855	15494.95
862.176	15445.46
862.498	15484.55
862.819	15474.83
863.14	15418.79
863.461	15409.07
863.782	15255.4
864.103	15297.66
864.424	15304.67
864.745	15374.27
865.065	15189.19
865.386	15198.46
865.707	15237.33
866.027	15147.16
866.348	15101.06
866.668	15079.82
866.989	15073.49
867.309	15033.49
867.63	15010.44
867.95	14986.48
868.27	14842.99
868.59	14867.84
868.91	14879.14
869.23	14793.72
869.55	14887.05
869.87	15028.29
870.19	14994.17
870.51	14937.22
870.83	14896.32
871.15	14697.68
871.469	14811.12
871.789	14848.18
872.109	14821.07
872.428	14713.95
872.748	14841.4
873.067	14787.62
873.386	14824.91
873.706	14695.64
874.025	14614.52
874.344	14494.52
874.663	14592.6
874.982	14563.22
875.301	14602.54
875.62	14543.33
875.939	14492.71
876.258	14520.96
876.577	14522.54
876.896	14440.96
877.214	14338.59
877.533	14421.08
877.852	14402.09
878.17	14402.09
878.489	14355.09
878.807	14333.62
879.125	14311.7
879.444	14343.34
879.762	14284.13
880.08	14355.99
880.398	14299.72
880.716	14265.37
881.034	14106.06
881.352	14168.88
881.67	14126.39
881.988	14153.74
882.306	14078.49
882.624	14091.59
882.941	14066.73
883.259	14081.42
883.577	14090.69
883.894	14007.75
884.212	13896.57
884.529	13919.62
884.846	13964.59
885.164	13876.68
885.481	13771.6
885.798	13774.99
886.115	13746.29
886.432	13691.15
886.75	13728.89
887.067	13743.13
887.383	13690.47
887.7	13570.7
888.017	13525.28
888.334	13474.89
888.651	13520.53
888.967	13431.05
889.284	13296.13
889.6	13396.02
889.917	13276.02
890.233	13350.6
890.55	13353.99
890.866	13338.39
891.182	13364.83
891.498	13212.29
891.815	13090.72
892.131	13165.52
892.447	13141.79
892.763	13068.57
893.079	13073.99
893.395	13007.78
893.71	12967.55
894.026	12998.74
894.342	12981.34
894.657	12896.6
894.973	12875.35
895.289	12802.14
895.604	12789.93
895.92	12768.92
896.235	12722.36
896.55	12708.8
896.865	12665.64
897.181	12643.27
897.496	12594.68
897.811	12422.94
898.126	12395.59
898.441	12402.82
898.756	12334.8
899.071	12301.36
899.386	12376.38
899.7	12213.68
900.015	12250.96
900.33	12127.12
900.644	12041.7
900.959	12093.68
901.273	12027.24
901.588	11991.76
901.902	12026.11
902.216	11991.08
902.531	11925.77
902.845	11905.21
903.159	11879.9
903.473	11873.57
903.787	11863.18
904.101	11807.36
904.415	11757.42
904.729	11682.62
905.042	11573.24
905.356	11486.24
905.67	11516.75
905.984	11514.71
906.297	11479.91
906.611	11376.64
906.924	11427.03
907.237	11396.3
907.551	11368.73
907.864	11282.63
908.177	11234.72
908.491	11148.62
908.804	11121.5
909.117	10938.23
909.43	10987.49
909.743	10955.18
910.056	10961.28
910.368	10958.79
910.681	10790.89
910.994	10803.32
911.307	10818.01
911.619	10712.92
911.932	10721.29
912.244	10632.7
912.557	10637.67
912.869	10601.74
913.181	10531.46
913.494	10580.72
913.806	10501.18
914.118	10458.69
914.43	10378.02
914.742	10422.31
915.054	10387.06
915.366	10225.48
915.678	10262.77
915.99	10147.29
916.302	10155.65
916.613	10074.52
916.925	10089.44
917.236	10058.48
917.548	10064.35
917.859	10015.54
918.171	9932.38
918.482	9936.9
918.794	9848.31
919.105	9791.14
919.416	9719.5
919.727	9675.21
920.038	9632.95
920.349	9594.99
920.66	9601.99
920.971	9574.65
921.282	9520.19
921.593	9415.33
921.903	9392.73
922.214	9449.68
922.525	9385.28
922.835	9350.7
923.146	9227.31
923.456	9231.83
923.767	9198.16
924.077	9240.65
924.387	9170.82
924.697	9037.94
925.008	9034.55
925.318	9048.11
925.628	9006.53
925.938	8908.23
926.248	8888.57
926.558	8880.88
926.867	8786.87
927.177	8820.54
927.487	8748
927.796	8689.25
928.106	8645.18
928.416	8651.28
928.725	8596.82
929.034	8608.8
929.344	8589.59
929.653	8503.04
929.962	8497.16
930.271	8446.32
930.581	8428.69
930.89	8328.35
931.199	8368.81
931.508	8336.94
931.817	8310.05
932.125	8250.62
932.434	8222.59
932.743	8140.79
933.051	8029.83
933.36	8108.47
933.669	8040.45
933.977	7964.07
934.286	7982.37
934.594	7967.01
934.902	7914.13
935.21	7802.04
935.519	7917.07
935.827	7814.47
936.135	7734.47
936.443	7689.73
936.751	7668.26
937.059	7670.07
937.367	7574.02
937.674	7601.14
937.982	7630.07
938.29	7554.82
938.597	7594.81
938.905	7494.03
939.213	7410.64
939.52	7427.59
939.827	7406.34
940.135	7360.7
940.442	7307.59
940.749	7305.56
941.056	7345.1
941.363	7228.27
941.67	7230.08
941.977	7203.64
942.284	7152.34
942.591	7148.72
942.898	7121.61
943.205	7105.56
943.511	6994.15
943.818	6996.41
944.125	6985.79
944.431	6943.08
944.738	6923.65
945.044	6885.68
945.35	6835.29
945.657	6834.83
945.963	6802.29
946.269	6768.85
946.575	6765.68
946.881	6713.48
947.187	6666.48
947.493	6653.14
947.799	6617.21
948.105	6591.45
948.41	6567.27
948.716	6523.43
949.022	6536.99
949.327	6522.07
949.633	6439.14
949.938	6410.21
950.244	6436.2
950.549	6347.62
950.854	6338.58
951.16	6349.42
951.465	6305.13
951.77	6300.39
952.075	6214.51
952.38	6165.25
952.685	6132.71
952.99	6123.89
953.294	6121.63
953.599	6086.61
953.904	6002.54
954.209	6013.61
954.513	6022.65
954.818	6037.57
955.122	6000.96
955.426	5959.15
955.731	5916.67
956.035	5922.32
956.339	5888.19
956.643	5866.95
956.948	5792.6
957.252	5809.1
957.556	5794.18
957.86	5684.58
958.163	5685.03
958.467	5618.37
958.771	5646.84
959.075	5617.92
959.378	5599.16
959.682	5578.14
959.985	5551.93
960.289	5549.9
960.592	5510.8
960.896	5511.03
961.199	5504.02
961.502	5462.44
961.805	5463.57
962.108	5404.59
962.411	5416.79
962.714	5349.22
963.017	5329.34
963.32	5344.25
963.623	5273.75
963.926	5310.35
964.228	5221.77
964.531	5247.08
964.833	5181.32
965.136	5142.68
965.438	5160.08
965.741	5149.23
966.043	5114.43
966.345	5066.29
966.648	5070.36
966.95	5049.57
967.252	4999.4
967.554	4979.74
967.856	4996.01
968.158	4958.73
968.46	4884.6
968.761	4902.23
969.063	4848.45
969.365	4899.97
969.666	4849.58
969.968	4870.37
970.269	4784.72
970.571	4803.7
970.872	4762.57
971.174	4708.34
971.475	4666.98
971.776	4691.16
972.077	4702.24
972.378	4669.02
972.679	4629.92
972.98	4581.11
973.281	4637.15
973.582	4611.39
973.883	4566.87
974.183	4549.47
974.484	4539.08
974.785	4440.32
975.085	4474.44
975.386	4503.82
975.686	4436.25
975.986	4446.2
976.287	4445.07
976.587	4415.69
976.887	4349.48
977.187	4346.99
977.487	4331.62
977.787	4253.66
978.087	4251.17
978.387	4226.99
978.687	4249.37
978.987	4202.81
979.286	4229.48
979.586	4178.63
979.885	4196.03
980.185	4160.1
980.484	4064.96
980.784	4081.91
981.083	4092.31
981.382	4049.37
981.682	4068.81
981.981	4039.88
982.28	4027.22
982.579	4043.27
982.878	3995.14
983.177	3997.62
983.475	3943.16
983.774	3920.11
984.073	3920.11
984.372	3919.66
984.67	3886.21
984.969	3842.6
985.267	3836.72
985.566	3805.76
985.864	3776.61
986.162	3810.96
986.461	3776.84
986.759	3785.2
987.057	3712.43
987.355	3674.01
987.653	3714.01
987.951	3678.99
988.249	3667.91
988.547	3670.62
988.844	3629.95
989.142	3645.09
989.44	3596.05
989.737	3616.61
990.035	3526.22
990.332	3516.96
990.63	3536.16
990.927	3524.19
991.224	3465.43
991.521	3489.16
991.819	3449.39
992.116	3420.69
992.413	3437.41
992.71	3397.18
993.006	3392.67
993.303	3356.06
993.6	3387.69
993.897	3356.73
994.193	3368.94
994.49	3304.08
994.787	3258.66
995.083	3252.56
995.379	3234.7
995.676	3272.22
995.972	3234.48
996.268	3200.35
996.565	3188.38
996.861	3187.02
997.157	3194.25
997.453	3175.04
997.749	3157.64
998.044	3126.91
998.34	3146.12
998.636	3087.14
998.932	3082.39
999.227	3076.52
999.523	3064.09
999.818	3007.14
1000.114	3000.36
1000.409	3019.12
1000.704	2996.97
1001	2933.92
1001.295	2904.99
1001.59	2939.12
1001.885	2912.45
1002.18	2883.75
1002.475	2859.8
1002.77	2856.63
1003.065	2814.38
1003.359	2839.91
1003.654	2860.48
1003.949	2801.27
1004.243	2810.08
1004.538	2771.21
1004.832	2762.17
1005.127	2752.68
1005.421	2737.99
1005.715	2719.69
1006.009	2687.6
1006.304	2666.13
1006.598	2675.17
1006.892	2615.96
1007.186	2642.63
1007.48	2615.28
1007.773	2604.66
1008.067	2579.58
1008.361	2545.46
1008.655	2528.05
1008.948	2521.95
1009.242	2538.22
1009.535	2492.58
1009.829	2498.23
1010.122	2460.03
1010.415	2418.68
1010.708	2431.79
1011.001	2403.99
1011.295	2416.19
1011.588	2435.4
1011.881	2368.74
1012.173	2385.69
1012.466	2393.82
1012.759	2400.15
1013.052	2337.55
1013.344	2317.21
1013.637	2305.24
1013.93	2290.1
1014.222	2257.78
1014.514	2234.05
1014.807	2228.18
1015.099	2227.27
1015.391	2229.53
1015.683	2186.37
1015.976	2162.19
1016.268	2177.1
1016.56	2150.66
1016.851	2141.85
1017.143	2112.7
1017.435	2107.73
1017.727	2110.66
1018.018	2089.2
1018.31	2089.2
1018.602	2110.66
1018.893	2020.95
1019.185	2044.23
1019.476	2022.08
1019.767	2036.99
1020.058	1945.92
1020.35	1986.6
1020.641	1930.78
1020.932	1961.52
1021.223	1921.52
1021.514	1936.21
1021.804	1875.87
1022.095	1872.48
1022.386	1890.78
1022.677	1864.12
1022.967	1857.79
1023.258	1835.19
1023.548	1846.27
1023.839	1819.37
1024.129	1787.74
1024.419	1787.74
1024.709	1752.03
1025	1774.63
1025.29	1750.67
1025.58	1733.27
1025.87	1697.34
1026.16	1717.45
1026.449	1681.75
1026.739	1702.54
1027.029	1659.38
1027.319	1658.25
1027.608	1650.34
1027.898	1638.59
1028.187	1623.9
1028.477	1630.68
1028.766	1597.23
1029.055	1586.61
1029.344	1571.47
1029.634	1531.02
1029.923	1515.88
1030.212	1550.91
1030.501	1563.11
1030.79	1521.3
1031.078	1503
1031.367	1502.55
1031.656	1466.84
1031.945	1487.86
1032.233	1467.74
1032.522	1452.6
1032.81	1446.05
1033.099	1444.02
1033.387	1441.76
1033.675	1405.82
1033.963	1443.11
1034.251	1394.07
1034.54	1360.63
1034.828	1378.48
1035.116	1356.33
1035.403	1374.86
1035.691	1318.14
1035.979	1331.93
1036.267	1317.01
1036.554	1329.67
1036.842	1310.46
1037.129	1319.05
1037.417	1285.15
1037.704	1296
1037.992	1276.34
1038.279	1252.38
1038.566	1235.43
1038.853	1235.43
1039.14	1235.43
