Data from foil_FLMS001491_060.txt Node
Date: Tue Feb 07 11:27:12 GMT 2017
User: dcchb
Spectrometer: FLMS00149
Trigger mode: 0
Integration Time (sec): 2.000000E-2
Scans to average: 10
Electric dark correction enabled: true
Nonlinearity correction enabled: false
Boxcar width: 0
XAxis mode: Wavelengths
Number of Pixels in Spectrum: 2048
>>>>>Begin Spectral Data<<<<<
341.393	-4.75
341.776	-4.75
342.16	-4.75
342.543	-66.66
342.927	-68.92
343.31	-74.8
343.693	-55.59
344.077	-72.09
344.46	-58.3
344.843	-48.36
345.226	-34.58
345.61	-25.08
345.993	-15.37
346.376	6.33
346.759	-5.88
347.142	18.76
347.525	37.97
347.908	35.93
348.291	84.74
348.674	80.22
349.057	126.1
349.44	134.23
349.823	125.19
350.206	181.24
350.588	238.41
350.971	261.69
351.354	272.99
351.737	310.05
352.119	306.21
352.502	315.92
352.884	303.04
353.267	326.77
353.65	329.03
354.032	369.48
354.414	363.83
354.797	361.35
355.179	373.55
355.562	366.32
355.944	389.59
356.326	381.23
356.709	382.36
357.091	389.37
357.473	402.93
357.855	416.49
358.238	396.6
358.62	398.18
359.002	421.01
359.384	426.66
359.766	426.66
360.148	406.09
360.53	407.45
360.912	407.22
361.294	392.53
361.676	421.91
362.057	416.71
362.439	425.3
362.821	421.23
363.203	413.32
363.584	404.51
363.966	410.16
364.348	408.8
364.729	423.94
365.111	406.09
365.493	423.27
365.874	432.53
366.256	425.07
366.637	429.37
367.019	410.61
367.4	428.92
367.781	420.1
368.163	445.64
368.544	427.56
368.925	404.74
369.306	431.18
369.688	424.4
370.069	430.72
370.45	416.26
370.831	420.55
371.212	438.18
371.593	430.95
371.974	441.12
372.355	435.92
372.736	459.2
373.117	460.55
373.498	432.08
373.879	437.05
374.26	462.81
374.641	441.12
375.021	427.33
375.402	450.84
375.783	481.12
376.163	484.28
376.544	498.74
376.925	471.4
377.305	499.87
377.686	481.34
378.066	480.44
378.447	501
378.827	497.61
379.208	519.99
379.588	530.83
379.968	528.12
380.349	523.15
380.729	536.94
381.109	544.39
381.489	555.92
381.87	548.91
382.25	539.19
382.63	555.92
383.01	542.36
383.39	570.15
383.77	583.26
384.15	554.79
384.53	576.71
384.91	597.5
385.29	597.72
385.67	601.79
386.049	598.63
386.429	618.29
386.809	621.23
387.189	655.8
387.568	641.57
387.948	651.28
388.328	626.65
388.707	641.79
389.087	668.68
389.466	684.28
389.846	684.5
390.225	718.85
390.605	690.38
390.984	715.46
391.363	709.81
391.743	729.7
392.122	712.07
392.501	739.19
392.881	749.58
393.26	746.42
393.639	744.84
394.018	804.72
394.397	755.91
394.776	804.72
395.155	805.85
395.534	813.76
395.913	840.88
396.292	832.75
396.671	839.53
397.05	839.98
397.429	868.45
397.808	820.54
398.186	858.51
398.565	871.84
398.944	886.53
399.323	878.85
399.701	880.43
400.08	905.29
400.458	903.25
400.837	922.46
401.215	922.46
401.594	925.17
401.972	973.76
402.351	943.25
402.729	1004.27
403.107	1013.08
403.486	990.93
403.864	985.74
404.242	1033.19
404.62	1050.14
404.999	1062.12
405.377	1053.08
405.755	1065.73
406.133	1097.82
406.511	1121.33
406.889	1136.92
407.267	1122.23
407.645	1162
408.023	1176.01
408.401	1181.21
408.779	1224.37
409.156	1211.72
409.534	1228.44
409.912	1250.81
410.29	1290.59
410.667	1293.98
411.045	1306.18
411.422	1322
411.8	1339.85
412.178	1363.58
412.555	1404.48
412.933	1388.44
413.31	1422.34
413.687	1427.76
414.065	1453.3
414.442	1469.79
414.819	1472.96
415.197	1506.63
415.574	1533.52
415.951	1566.96
416.328	1571.71
416.705	1564.03
417.082	1598.6
417.46	1624.36
417.837	1636.79
418.214	1645.38
418.591	1646.74
418.967	1680.41
419.344	1719.5
419.721	1738.03
420.098	1732.16
420.475	1766.73
420.852	1762.44
421.228	1783.23
421.605	1818.26
421.982	1827.97
422.358	1845.6
422.735	1888.31
423.111	1866.62
423.488	1944.36
423.864	1943.45
424.241	1951.59
424.617	1995.88
424.994	2013.28
425.37	2041.08
425.746	2010.12
426.123	2084.46
426.499	2095.09
426.875	2147.06
427.251	2191.35
427.627	2193.39
428.003	2204.24
428.379	2237.91
428.756	2302.54
429.132	2306.83
429.507	2365.14
429.883	2401.74
430.259	2416.66
430.635	2465.92
431.011	2465.47
431.387	2568.29
431.763	2624.34
432.138	2611
432.514	2625.92
432.89	2665.69
433.265	2706.14
433.641	2751.57
434.016	2788.4
434.392	2795.63
434.767	2877.89
435.143	2896.2
435.518	2962.41
435.894	3022.97
436.269	3040.15
436.644	3091.44
437.02	3075.85
437.395	3149.75
437.77	3140.48
438.145	3215.96
438.52	3235.17
438.895	3302.06
439.271	3308.84
439.646	3374.15
440.021	3413.02
440.395	3457.54
440.77	3428.38
441.145	3508.38
441.52	3559.91
441.895	3518.55
442.27	3592.9
442.645	3584.09
443.019	3656.63
443.394	3669.28
443.769	3711.99
444.143	3709.73
444.518	3782.27
444.892	3752.9
445.267	3852.1
445.641	3899.78
446.016	3904.76
446.39	3898.2
446.764	3984.98
447.139	3967.13
447.513	4071.08
447.887	4082.83
448.262	4115.37
448.636	4143.17
449.01	4186.1
449.384	4229.95
449.758	4309.27
450.132	4333.67
450.506	4331.64
450.88	4394.23
451.254	4433.1
451.628	4497.06
452.002	4498.41
452.376	4578.18
452.75	4587.45
453.123	4678.52
453.497	4753.32
453.871	4775.92
454.244	4880.78
454.618	4893.88
454.992	4962.36
455.365	5028.57
455.739	5142.24
456.112	5116.48
456.486	5134.33
456.859	5164.38
457.232	5352.85
457.606	5336.58
457.979	5386.3
458.352	5520.08
458.725	5542.91
459.099	5597.14
459.472	5685.27
459.845	5767.53
460.218	5790.81
460.591	5832.61
460.964	5885.49
461.337	6094.08
461.71	6118.48
462.083	6204.58
462.456	6237.8
462.829	6263.34
463.201	6333.17
463.574	6403
463.947	6487.29
464.32	6604.12
464.692	6677.34
465.065	6719.37
465.438	6843.66
465.81	6967.73
466.183	6967.05
466.555	7139.7
466.928	7178.34
467.3	7221.28
467.672	7302.18
468.045	7501.27
468.417	7512.34
468.789	7559.12
469.161	7689.74
469.534	7853.35
469.906	8056.51
470.278	8050.41
470.65	8182.84
471.022	8290.18
471.394	8470.51
471.766	8534.24
472.138	8622.82
472.51	8782.37
472.882	9013.55
473.253	9064.85
473.625	9232.3
473.997	9433.65
474.369	9437.49
474.74	9515.23
475.112	9738.5
475.484	9854.88
475.855	10098.94
476.227	10156.8
476.598	10451.25
476.97	10530.57
477.341	10768.53
477.713	10939.6
478.084	10957.23
478.455	11320.38
478.827	11371
479.198	11697.77
479.569	11792.91
479.94	12061.83
480.311	12261.82
480.682	12498.65
481.053	12845.09
481.424	12937.06
481.795	13155.59
482.166	13290.72
482.537	13435.8
482.908	13806.19
483.279	14003.02
483.65	14156.69
484.021	14513.29
484.391	14589.22
484.762	14822.44
485.133	14921.64
485.503	15206.15
485.874	15475.07
486.244	15614.05
486.615	15938.11
486.985	16169.74
487.356	16483.86
487.726	16546.68
488.097	16952.1
488.467	16953.23
488.837	17414.91
489.207	17589.14
489.578	17823.71
489.948	18035.91
490.318	18253.08
490.688	18311.61
491.058	18723.35
491.428	18985.72
491.798	19115.88
492.168	19526.94
492.538	19486.04
492.908	19752.7
493.278	20133.48
493.648	20148.62
494.017	20498.9
494.387	20549.97
494.757	20858.89
495.126	21019.11
495.496	21094.36
495.866	21249.84
496.235	21434.01
496.605	21678.3
496.974	21842.59
497.344	21989.25
497.713	22129.14
498.082	22318.51
498.452	22637.14
498.821	22720.98
499.19	22813.86
499.559	23088.66
499.928	23323.45
500.298	23456.56
500.667	23598.93
501.036	23698.81
501.405	23899.03
501.774	23973.61
502.143	24292.24
502.512	24232.36
502.88	24593.93
503.249	24600.94
503.618	24821.72
503.987	24868.95
504.356	25132.45
504.724	25321.37
505.093	25464.87
505.462	25471.19
505.83	25750.96
506.199	25901.69
506.567	26260.33
506.936	26343.49
507.304	26639.3
507.672	26621.67
508.041	26851.27
508.409	27075.45
508.777	27392.27
509.145	27539.84
509.514	27650.8
509.882	27744.81
510.25	27933.28
510.618	28160.39
510.986	28212.37
511.354	28472.92
511.722	28702.07
512.09	28948.62
512.458	28994.94
512.826	29302.51
513.193	29443.97
513.561	29674.02
513.929	29973.22
514.297	30188.81
514.664	30429.48
515.032	30532.98
515.4	30722.81
515.767	30803.03
516.135	31173.64
516.502	30943.37
516.869	31538.61
517.237	31626.06
517.604	31733.85
517.972	32121.19
518.339	32312.14
518.706	32398.47
519.073	32652.02
519.44	32789.65
519.808	33195.74
520.175	33277.77
520.542	33699.45
520.909	33846.12
521.276	33901.03
521.643	34253.79
522.009	34480
522.376	34674.34
522.743	35005.86
523.11	35168.11
523.477	35543.25
523.843	35825.72
524.21	36091.93
524.577	36504.35
524.943	36670.45
525.31	36932.36
525.676	37189.98
526.043	37343.65
526.409	37592.68
526.776	37886.69
527.142	38024.54
527.508	38114.03
527.874	38503.39
528.241	38806.44
528.607	38817.06
528.973	39242.81
529.339	39289.81
529.705	39823.36
530.071	40176.34
530.437	40072.17
530.803	40427.41
531.169	40562.78
531.535	40579.5
531.901	40734.3
532.267	40975.19
532.632	41349.65
532.998	41479.59
533.364	41699.92
533.73	41673.03
534.095	42031.66
534.461	42095.16
534.826	42272.56
535.192	42484.53
535.557	42882.26
535.923	42807.69
536.288	43250.39
536.653	43335.58
537.019	43145.53
537.384	43426.43
537.749	43734.67
538.114	43807.89
538.479	43719.08
538.845	43888.34
539.21	44029.12
539.575	44135.56
539.94	44309.34
540.305	44613.74
540.67	44504.14
541.034	44760.41
541.399	44946.84
541.764	44942.77
542.129	45142.09
542.494	45182.77
542.858	45390.67
543.223	45499.37
543.587	45861.62
543.952	45755.63
544.316	45922.63
544.681	45989.3
545.045	46159.46
545.41	46193.81
545.774	46432.23
546.138	46372.34
546.503	46622.73
546.867	46707.92
547.231	47039.44
547.595	46932.33
547.959	47077.41
548.324	47115.82
548.688	47341.35
549.052	47573.89
549.416	47601.91
549.779	47707.9
550.143	47678.97
550.507	48069.24
550.871	48054.33
551.235	48156.7
551.599	48303.81
551.962	48405.73
552.326	48461.32
552.689	48859.96
553.053	48571.6
553.417	48721.88
553.78	49185.6
554.143	49197.35
554.507	49332.04
554.87	49611.8
555.234	49948.07
555.597	49708.98
555.96	49870.1
556.323	49991.91
556.686	49961.62
557.05	50208.62
557.413	50433.7
557.776	50558.67
558.139	50756.41
558.502	50712.79
558.865	50926.8
559.228	51214.92
559.59	51236.17
559.953	51220.57
560.316	51615.37
560.679	51536.95
561.041	51844.51
561.404	51909.82
561.767	52156.14
562.129	52019.65
562.492	52379.19
562.854	52349.81
563.217	52424.84
563.579	52531.95
563.941	52849.46
564.304	52912.06
564.666	53180.52
565.028	53154.31
565.39	53162.67
565.753	53340.07
566.115	53502.77
566.477	53603.79
566.839	53644.01
567.201	53926.04
567.563	53925.81
567.925	54157.67
568.287	54089.88
568.648	54175.98
569.01	54307.95
569.372	54543.88
569.734	54497.1
570.095	54728.73
570.457	54781.16
570.819	54909.97
571.18	54806.92
571.542	55006.01
571.903	54933.92
572.265	55145.67
572.626	55180.92
572.987	55314.03
573.349	55422.05
573.71	55444.87
574.071	55436.73
574.432	55642.38
574.794	55730.74
575.155	55798.08
575.516	55774.58
575.877	55962.6
576.238	55888.02
576.599	56046.21
576.96	55933.22
577.32	55950.85
577.681	56041.69
578.042	56112.42
578.403	56139.54
578.763	56129.82
579.124	56266.54
579.485	56252.31
579.845	56338.41
580.206	56283.94
580.566	56312.19
580.927	56394.45
581.287	56499.53
581.648	56349.7
582.008	56542.92
582.368	56471.06
582.728	56516.25
583.089	56453.43
583.449	56428.57
583.809	56438.29
584.169	56483.94
584.529	56420.66
584.889	56657.04
585.249	56445.97
585.609	56394.9
585.969	56523.49
586.329	56537.95
586.688	56553.54
587.048	56513.32
587.408	56421.79
587.768	56472.87
588.127	56493.2
588.487	56515.8
588.846	56723.03
589.206	56485.29
589.565	56566.2
589.925	56584.5
590.284	56548.57
590.643	56608
591.003	56625.4
591.362	56697.27
591.721	56570.94
592.08	56593.99
592.44	56716.02
592.799	56679.19
593.158	56573.43
593.517	56592.86
593.876	56623.37
594.235	56543.82
594.593	56679.64
594.952	56667.66
595.311	56513.32
595.67	56641
596.029	56704.27
596.387	56729.36
596.746	56796.92
597.104	56659.98
597.463	56651.84
597.822	56826.75
598.18	56713.09
598.538	56638.28
598.897	56805.06
599.255	56590.6
599.613	56974.77
599.972	56746.76
600.33	56860.2
600.688	56775.23
601.046	56797.38
601.404	56899.52
601.762	56821.33
602.12	57011.61
602.478	56945.4
602.836	57033.98
603.194	56882.8
603.552	56976.81
603.91	56846.87
604.268	57137.48
604.625	56917.83
604.983	57048.44
605.341	56974.1
605.698	57099.06
606.056	57087.54
606.413	57075.56
606.771	57121.66
607.128	57153.75
607.485	57081.21
607.843	57100.87
608.2	57235.33
608.557	57269.68
608.914	57224.26
609.272	57227.87
609.629	57342.67
609.986	57445.72
610.343	57318.04
610.7	57436
611.057	57380.64
611.414	57349.68
611.771	57443.01
612.127	57474.87
612.484	57430.58
612.841	57577.24
613.198	57467.64
613.554	57556
613.911	57686.39
614.267	57602.33
614.624	57541.99
614.98	57679.16
615.337	57733.85
615.693	57661.76
616.05	57651.59
616.406	57736.34
616.762	57712.38
617.118	57728.43
617.475	57680.07
617.831	57709.67
618.187	57728.88
618.543	57808.42
618.899	57867.4
619.255	57811.81
619.611	57795.77
619.967	57820.17
620.323	57879.61
620.678	57771.14
621.034	57673.96
621.39	57723.91
621.746	57696.79
622.101	58001.19
622.457	57735.88
622.812	57817.24
623.168	57818.59
623.523	57783.34
623.879	57890.91
624.234	57608.2
624.589	57768.88
624.945	57808.65
625.3	57682.33
625.655	57683.46
626.01	57686.62
626.365	57795.99
626.72	57621.08
627.075	57710.35
627.43	57664.92
627.785	57643.46
628.14	57711.02
628.495	57625.83
628.85	57691.36
629.205	57551.26
629.559	57723.45
629.914	57527.07
630.269	57521.88
630.623	57370.92
630.978	57327.76
631.332	57503.12
631.687	57553.74
632.041	57431.03
632.396	57383.8
632.75	57209.8
633.104	57371.15
633.459	57210.25
633.813	57163.24
634.167	57153.07
634.521	57093.19
634.875	57136.35
635.229	57073.3
635.583	57008.44
635.937	56939.75
636.291	56894.1
636.645	56945.85
636.999	56822.23
637.352	56904.72
637.706	56665.85
638.06	56770.48
638.413	56745.63
638.767	56678.28
639.121	56742.69
639.474	56556.48
639.828	56609.81
640.181	56564.39
640.534	56518.29
640.888	56510.83
641.241	56344.28
641.594	56309.48
641.947	56362.59
642.301	56247.56
642.654	56269.93
643.007	56210.73
643.36	56188.58
643.713	56167.11
644.066	56198.52
644.419	55980.67
644.771	55830.4
645.124	55600.57
645.477	55581.59
645.83	55440.58
646.182	55271.77
646.535	55180.7
646.888	55210.53
647.24	55013.47
647.593	55092.56
647.945	55093.47
648.298	54839.46
648.65	54814.38
649.002	54794.94
649.355	54976.63
649.707	54748.39
650.059	54910.65
650.411	55258.89
650.763	55244.2
651.115	55478.54
651.467	55392.22
651.819	55384.31
652.171	55214.82
652.523	55199.45
652.875	55190.41
653.227	55078.33
653.578	55256.17
653.93	55163.07
654.282	54976.63
654.633	54913.81
654.985	54955.62
655.337	54907.48
655.688	54842.4
656.039	54926.47
656.391	54705.23
656.742	54788.39
657.094	54784.32
657.445	54883.53
657.796	54745.23
658.147	54657.77
658.498	54671.56
658.849	54730.09
659.2	54613.71
659.551	54549.98
659.902	54647.83
660.253	54509.53
660.604	54560.83
660.955	54382.75
661.306	54526.25
661.656	54354.95
662.007	54310.89
662.358	54378.91
662.708	54377.33
663.059	54309.53
663.409	54230.44
663.76	54350.44
664.11	54331.45
664.461	54287.16
664.811	54184.11
665.161	54164.23
665.511	54128.52
665.862	54158.58
666.212	54151.34
666.562	54190.89
666.912	54233.38
667.262	54225.47
667.612	54126.49
667.962	54138.46
668.312	53989.99
668.662	54177.33
669.011	54106.6
669.361	53950.45
669.711	53946.6
670.06	53977.79
670.41	53746.16
670.76	53770.79
671.109	53890.33
671.459	53815.31
671.808	53669.78
672.157	53781.41
672.507	53520.85
672.856	53427.3
673.205	53668.65
673.554	53625.93
673.904	53553.62
674.253	53604.47
674.602	53498.93
674.951	53157.02
675.3	52905.05
675.649	53411.03
675.998	53340.52
676.346	53290.58
676.695	53425.26
677.044	53190.24
677.393	53281.08
677.741	53253.74
678.09	53117.7
678.438	53110.92
678.787	53182.1
679.135	53138.04
679.484	52879.74
679.832	53026.4
680.181	52708.9
680.529	52869.8
680.877	52765.84
681.225	52761.32
681.573	52817.82
681.922	52588.9
682.27	52528.34
682.618	52484.27
682.966	52384.84
683.314	52526.3
683.661	52318.17
684.009	52260.32
684.357	52050.83
684.705	52156.59
685.053	52199.31
685.4	52051.29
685.748	51884.96
686.095	51826.21
686.443	51700.11
686.79	51567.01
687.138	51711.41
687.485	51549.15
687.832	51552.77
688.18	51488.36
688.527	51263.51
688.874	51213.12
689.221	51186
689.568	51104.87
689.915	50951.2
690.262	50982.16
690.609	50885.22
690.956	50750.08
691.303	50819.68
691.65	50522.74
691.997	50545.56
692.344	50129.98
692.69	50159.13
693.037	50279.81
693.383	49982.87
693.73	50038.23
694.077	49920.04
694.423	49781.06
694.769	49521.41
695.116	49456.78
695.462	49381.98
695.808	49262.21
696.155	49366.39
696.501	49030.35
696.847	49136.79
697.193	48815.44
697.539	48972.5
697.885	48580.87
698.231	48522.57
698.577	48526.18
698.923	48253.42
699.269	48151.05
699.614	48112.41
699.96	47999.19
700.306	47977.27
700.651	47653.89
700.997	47663.61
701.342	47558.75
701.688	47453.67
702.033	47436.27
702.379	47411.41
702.724	47291.41
703.069	47285.54
703.415	46887.58
703.76	46778.88
704.105	46744.08
704.45	46686
704.795	46339.57
705.14	46344.09
705.485	46238.78
705.83	46122.18
706.175	46242.63
706.52	45989.98
706.865	45788.63
707.209	45856.65
707.554	45738.23
707.899	45882.41
708.243	45578.69
708.588	45690.32
708.932	45285.14
709.277	45158.59
709.621	45145.03
709.966	44924.47
710.31	45083.11
710.654	44705.49
710.998	44784.36
711.342	44745.94
711.687	44423.69
712.031	44384.82
712.375	44145.28
712.719	44252.85
713.063	44082.23
713.407	44197.26
713.75	43958.39
714.094	43830.94
714.438	43602.92
714.782	43627.78
715.125	43417.62
715.469	43444.96
715.812	43144.63
716.156	43119.32
716.499	43163.84
716.843	43058.53
717.186	42706.9
717.53	43135.59
717.873	42921.36
718.216	42795.94
718.559	42470.3
718.902	42364.54
719.246	42549.62
719.589	42283.63
719.932	42056.3
720.275	42072.57
720.617	42045.67
720.96	42048.61
721.303	41897.88
721.646	42011.1
721.989	41778.34
722.331	41657.44
722.674	41707.15
723.016	41764.1
723.359	41669.41
723.701	41664.89
724.044	41271.23
724.386	41056.32
724.729	41210.89
725.071	41022.88
725.413	40949.66
725.755	40805.71
726.097	40724.8
726.439	40473.51
726.782	40564.81
727.124	40539.5
727.465	40446.85
727.807	40259.96
728.149	40126.18
728.491	40214.08
728.833	40200.75
729.175	40116.23
729.516	40146.74
729.858	40012.96
730.199	40043.92
730.541	39855.45
730.882	39630.82
731.224	39793.53
731.565	39418.4
731.906	39455.01
732.248	39496.59
732.589	39341.56
732.93	39251.85
733.271	39211.85
733.612	39112.42
733.953	39172.53
734.294	38878.98
734.635	38815.7
734.976	38869.03
735.317	38574.13
735.658	38570.96
735.999	38645.76
736.339	38532.77
736.68	38519.67
737.021	38396.28
737.361	38268.6
737.702	38453.23
738.042	38160.58
738.383	38086.46
738.723	38130.07
739.063	37935.27
739.404	38023.86
739.744	37895.05
740.084	37736.41
740.424	37735.28
740.764	37768.5
741.104	37602.18
741.444	37496.19
741.784	37313.6
742.124	37356.08
742.464	37375.97
742.804	37177.55
743.143	37224.11
743.483	37236.08
743.823	36961.06
744.162	36878.35
744.502	36926.03
744.841	36833.61
745.181	36835.64
745.52	36641.07
745.86	36653.05
746.199	36408.08
746.538	36276.79
746.877	36383.9
747.216	36503.9
747.556	36335.77
747.895	36340.06
748.234	36147.3
748.573	36250.8
748.911	36190.69
749.25	36058.94
749.589	35774.2
749.928	35917.7
750.267	35870.24
750.605	35623.47
750.944	35721.32
751.283	35384.83
751.621	35631.61
751.96	35300.77
752.298	35251.05
752.636	35389.13
752.975	35173.99
753.313	35040.21
753.651	35066.65
753.989	34757.05
754.327	34792.08
754.666	34568.58
755.004	34645.19
755.342	34669.37
755.679	34546.44
756.017	34269.38
756.355	34388.93
756.693	34100.57
757.031	34184.64
757.368	33960.24
757.706	33905.78
758.044	33906.23
758.381	33798.21
758.719	33554.82
759.056	33594.6
759.394	33502.62
759.731	33233.48
760.068	33163.65
760.405	33075.51
760.743	33104.89
761.08	33024.89
761.417	32788.06
761.754	32744
762.091	32713.26
762.428	32592.82
762.765	32461.29
763.102	32398.7
763.438	32218.14
763.775	32139.95
764.112	32144.92
764.449	32197.35
764.785	31845.26
765.122	31746.51
765.458	31543.13
765.795	31515.33
766.131	31458.38
766.467	31235.56
766.804	31097.49
767.14	30968.68
767.476	30945.85
767.812	30795.12
768.148	30784.95
768.485	30608.01
768.821	30370.27
769.157	30406.21
769.492	30235.82
769.828	30157.4
770.164	30048.7
770.5	29956.73
770.836	29820.68
771.171	29595.15
771.507	29663.17
771.842	29429.73
772.178	29493.01
772.513	29390.19
772.849	29226.12
773.184	29100.25
773.519	28982.51
773.855	28847.38
774.19	28618.68
774.525	28498.91
774.86	28535.75
775.195	28509.08
775.53	28159.49
775.865	28107.06
776.2	27952.26
776.535	27837.46
776.87	27762.21
777.205	27680.18
777.539	27464.14
777.874	27570.57
778.209	27313.63
778.543	27266.4
778.878	27202.22
779.212	27052.85
779.547	26958.39
779.881	26908.22
780.215	26713.65
780.55	26865.28
780.884	26523.14
781.218	26507.33
781.552	26423.03
781.886	26275.02
782.22	26081.35
782.554	25996.38
782.888	25803.62
783.222	25680.45
783.556	25602.04
783.889	25706.22
784.223	25411.76
784.557	25433.46
784.89	25457.86
785.224	25322.27
785.557	25165.44
785.891	25117.31
786.224	24958.44
786.558	24983.75
786.891	24761.61
787.224	24706.92
787.557	24561.84
787.891	24477.1
788.224	24447.27
788.557	24419.92
788.89	24316.42
789.223	24246.14
789.556	24017.67
789.888	23882.76
790.221	23887.73
790.554	23743.1
790.887	23810.67
791.219	23568.42
791.552	23610.45
791.884	23454.3
792.217	23444.58
792.549	23208.43
792.882	23025.38
793.214	23040.98
793.546	22998.27
793.879	22848.66
794.211	22798.95
794.543	22719.18
794.875	22557.82
795.207	22670.36
795.539	22453.42
795.871	22630.82
796.203	22272.18
796.535	22164.84
796.867	22248
797.198	22185.86
797.53	21967.78
797.862	21940.89
798.193	21925.98
798.525	21633.56
798.856	21751.52
799.188	21563.95
799.519	21443.05
799.85	21301.36
800.182	21358.08
800.513	21266.33
800.844	21178.65
801.175	21288.93
801.506	21259.78
801.837	21063.63
802.168	20989.05
802.499	20923.97
802.83	20769.62
803.161	20698.44
803.491	20779.57
803.822	20715.61
804.153	20513.81
804.483	20306.81
804.814	20320.82
805.145	20295.29
805.475	20301.39
805.805	20138.91
806.136	20140.49
806.466	20151.33
806.796	20091.45
807.126	20003.09
807.457	19840.61
807.787	19782.98
808.117	19753.38
808.447	19611.69
808.777	19663.44
809.107	19538.7
809.436	19608.3
809.766	19474.74
810.096	19512.48
810.426	19372.6
810.755	19399.94
811.085	19252.6
811.414	19298.7
811.744	19089.22
812.073	19031.59
812.403	19083.11
812.732	18945.94
813.061	18927.19
813.39	18768.55
813.719	18779.17
814.049	18882.67
814.378	18788.21
814.707	18789.79
815.036	18689.9
815.365	18555.22
815.693	18450.36
816.022	18376.69
816.351	18332.17
816.68	18201.78
817.008	18244.27
817.337	18081.78
817.665	18058.96
817.994	18049.02
818.322	17935.35
818.651	17883.15
818.979	17874.56
819.307	17973.76
819.636	17872.52
819.964	17727.9
820.292	17913.65
820.62	17832.75
820.948	17734.22
821.276	17847.44
821.604	17748.91
821.932	17817.61
822.259	17681.57
822.587	17701.46
822.915	17628.01
823.243	17772.64
823.57	17620.55
823.898	17658.29
824.225	17573.78
824.553	17642.47
824.88	17686.31
825.207	17550.27
825.535	17515.92
825.862	17713.88
826.189	17578.29
826.516	17678.63
826.843	17683.38
827.17	17630.95
827.497	17581.01
827.824	17664.17
828.151	17637.95
828.478	17534.23
828.805	17558.18
829.131	17511.18
829.458	17575.13
829.785	17497.85
830.111	17600.22
830.438	17619.65
830.764	17578.75
831.09	17576.49
831.417	17382.14
831.743	17447.45
832.069	17400.67
832.395	17317.06
832.722	17360.9
833.048	17359.54
833.374	17376.27
833.7	17306.66
834.026	17431.18
834.351	17421.24
834.677	17352.31
835.003	17332.2
835.329	17352.54
835.654	17239.55
835.98	17225.08
836.306	17287.46
836.631	17218.76
836.956	17294.69
837.282	17265.53
837.607	17147.8
837.932	17048.59
838.258	17042.04
838.583	17094.01
838.908	16908.71
839.233	17011.53
839.558	16993.45
839.883	16856.28
840.208	16860.12
840.533	16829.39
840.858	16823.06
841.182	16757.75
841.507	16802.04
841.832	16619.22
842.156	16734.93
842.481	16689.28
842.805	16651.99
843.13	16571.77
843.454	16499
843.778	16375.16
844.103	16515.72
844.427	16385.78
844.751	16398.21
845.075	16368.16
845.399	16316.63
845.723	16202.51
846.047	16282.28
846.371	16083.87
846.695	16038.22
847.019	15964.33
847.343	15944.44
847.666	15753.26
847.99	15610.66
848.313	15584
848.637	15568.18
848.96	15517.78
849.284	15476.88
849.607	15306.94
849.931	15373.83
850.254	15307.17
850.577	15287.28
850.9	15133.39
851.223	15091.58
851.546	14969.78
851.869	14963.22
852.192	15022.2
852.515	14898.14
852.838	14795.09
853.161	14767.07
853.483	14746.28
853.806	14615.89
854.129	14716.68
854.451	14576.11
854.774	14568.43
855.096	14500.64
855.419	14482.56
855.741	14439.17
856.063	14390.36
856.385	14354.42
856.708	14334.54
857.03	14139.52
857.352	14237.14
857.674	14081.21
857.996	14131.15
858.318	14024.49
858.64	14054.09
858.961	13949.24
859.283	13952.85
859.605	13793.76
859.926	13921.89
860.248	13938.84
860.57	13798.51
860.891	13859.75
861.212	13775.23
861.534	13776.59
861.855	13725.29
862.176	13754.67
862.498	13772.29
862.819	13673.31
863.14	13540.89
863.461	13499.98
863.782	13537.5
864.103	13488.01
864.424	13499.98
864.745	13532.98
865.065	13376.15
865.386	13352.19
865.707	13355.58
866.027	13433.55
866.348	13423.15
866.668	13429.7
866.989	13410.04
867.309	13237.17
867.63	13278.07
867.95	13255.92
868.27	13178.41
868.59	13196.26
868.91	13192.2
869.23	13166.89
869.55	13155.13
869.87	13177.96
870.19	13151.29
870.51	13117.17
870.83	13114.01
871.15	12996.27
871.469	13034.69
871.789	13000.34
872.109	13028.58
872.428	12914.91
872.748	12915.14
873.067	12955.59
873.386	13028.81
873.706	12940.22
874.025	12810.96
874.344	12850.96
874.663	12898.42
874.982	12836.72
875.301	12750.4
875.62	12782.04
875.939	12761.25
876.258	12787.23
876.577	12744.52
876.896	12676.05
877.214	12675.15
877.533	12732.32
877.852	12715.37
878.17	12726.9
878.489	12724.86
878.807	12739.78
879.125	12636.28
879.444	12648.26
879.762	12464.53
880.08	12464.08
880.398	12471.54
880.716	12484.87
881.034	12466.56
881.352	12504.3
881.67	12402.16
881.988	12359.9
882.306	12403.52
882.624	12335.27
882.941	12229.28
883.259	12274.25
883.577	12256.4
883.894	12184.76
884.212	12222.5
884.529	12129.85
884.846	12090.53
885.164	12136.4
885.481	12019.8
885.798	12151.54
886.115	12027.03
886.432	12021.6
886.75	11969.85
887.067	11920.14
887.383	11993.81
887.7	12006.92
888.017	11886.92
888.334	11990.87
888.651	11867.71
888.967	11747.94
889.284	11815.73
889.6	11813.93
889.917	11721.27
890.233	11740.71
890.55	11678.56
890.866	11643.76
891.182	11709.3
891.498	11598.34
891.815	11456.2
892.131	11460.72
892.447	11460.26
892.763	11420.72
893.079	11376.88
893.395	11323.09
893.71	11279.7
894.026	11255.52
894.342	11325.13
894.657	11220.04
894.973	11203.1
895.289	11196.32
895.604	11162.19
895.92	11112.25
896.235	11051.69
896.55	11096.66
896.865	10977.34
897.181	10979.6
897.496	10971.24
897.811	10906.61
898.126	10902.99
898.441	10886.27
898.756	10843.1
899.071	10834.97
899.386	10718.14
899.7	10664.35
900.015	10601.08
900.33	10601.53
900.644	10534.86
900.959	10621.42
901.273	10501.19
901.588	10516.79
901.902	10398.82
902.216	10363.57
902.531	10373.51
902.845	10368.54
903.159	10417.81
903.473	10388.88
903.787	10240.41
904.101	10133.29
904.415	10204.25
904.729	10111.15
905.042	10122.9
905.356	10000.64
905.67	9947.99
905.984	9956.57
906.297	9889.91
906.611	9933.98
906.924	9888.33
907.237	9807.2
907.551	9844.03
907.864	9720.87
908.177	9741.21
908.491	9679.75
908.804	9660.54
909.117	9611.72
909.43	9522.01
909.743	9498.96
910.056	9479.98
910.368	9422.58
910.681	9423.26
910.994	9380.32
911.307	9384.39
911.619	9334.44
911.932	9365.18
912.244	9289.02
912.557	9248.57
912.869	9226.88
913.181	9108.91
913.494	9236.37
913.806	9066.88
914.118	9072.76
914.43	9057.84
914.742	8937.84
915.054	9000.44
915.366	8987.11
915.678	8807.68
915.99	8786.89
916.302	8769.94
916.613	8691.97
916.925	8687.46
917.236	8731.52
917.548	8596.16
917.859	8588.02
918.171	8514.8
918.482	8452.43
918.794	8489.49
919.105	8468.03
919.416	8370.4
919.727	8392.55
920.038	8317.75
920.349	8266.9
920.66	8257.41
920.971	8209.95
921.282	8206.34
921.593	8111.2
921.903	8084.76
922.214	8117.98
922.525	8097.87
922.835	8018.09
923.146	8023.52
923.456	7955.05
923.767	7959.56
924.077	7938.32
924.387	8005.21
924.697	7894.03
925.008	7882.05
925.318	7766.58
925.628	7773.81
925.938	7775.39
926.248	7682.74
926.558	7729.29
926.867	7667.37
927.177	7599.35
927.487	7575.39
927.796	7469.86
928.106	7492.68
928.416	7464.89
928.725	7461.05
929.034	7401.61
929.344	7363.2
929.653	7390.31
929.962	7357.55
930.271	7280.26
930.581	7247.04
930.89	7191
931.199	7205.69
931.508	7105.8
931.817	7067.61
932.125	7082.3
932.434	7095.41
932.743	7023.54
933.051	7008.86
933.36	6941.06
933.669	6864.9
933.977	6903.55
934.286	6885.02
934.594	6830.1
934.902	6862.19
935.21	6838.92
935.519	6765.7
935.827	6749.43
936.135	6719.37
936.443	6683.89
936.751	6627.85
937.059	6601.63
937.367	6614.06
937.674	6590.79
937.982	6539.04
938.29	6554.63
938.597	6567.51
938.905	6384.46
939.213	6403.45
939.52	6404.13
939.827	6405.03
940.135	6304.69
940.442	6268.31
940.749	6328.87
941.056	6295.88
941.363	6249.78
941.67	6259.5
941.977	6220.4
942.284	6170.01
942.591	6133.4
942.898	6145.6
943.205	6078.03
943.511	6051.82
943.818	6020.86
944.125	5959.84
944.431	5943.8
944.738	5934.99
945.044	5914.65
945.35	5949
945.657	5927.98
945.963	5848.21
946.269	5863.57
946.575	5799.85
946.881	5792.16
947.187	5760.07
947.493	5710.81
947.799	5671.94
948.105	5623.81
948.41	5637.14
948.716	5625.16
949.022	5608.67
949.327	5614.77
949.633	5474.43
949.938	5502.91
950.244	5521.89
950.549	5433.98
950.854	5442.79
951.16	5419.07
951.465	5357.15
951.77	5391.04
952.075	5367.77
952.38	5362.8
952.685	5346.75
952.99	5246.87
953.294	5237.15
953.599	5163.71
953.904	5183.59
954.209	5135.68
954.513	5230.6
954.818	5075.35
955.122	5047.55
955.426	5117.38
955.731	5036.48
956.035	5041.45
956.339	5026.08
956.643	5001.9
956.948	5005.74
957.252	4978.63
957.556	4965.75
957.86	4943.37
958.163	4922.36
958.467	4893.66
958.771	4842.58
959.075	4854.79
959.378	4819.76
959.682	4890.94
959.985	4784.06
960.289	4748.35
960.592	4806.2
960.896	4669.48
961.199	4749.25
961.502	4701.57
961.805	4690.5
962.108	4634.23
962.411	4609.6
962.714	4603.04
963.017	4575.25
963.32	4587.68
963.623	4484.4
963.926	4543.16
964.228	4472.2
964.531	4478.98
964.833	4444.85
965.136	4429.04
965.438	4387.23
965.741	4404.63
966.043	4358.98
966.345	4371.86
966.648	4304.75
966.95	4326.67
967.252	4321.47
967.554	4271.75
967.856	4286.44
968.158	4263.62
968.46	4305.65
968.761	4200.79
969.063	4216.16
969.365	4149.27
969.666	4158.76
969.968	4090.51
970.269	4105.43
970.571	4114.69
970.872	4096.39
971.174	4085.77
971.475	4073.79
971.776	4018.65
972.077	3995.38
972.378	4026.56
972.679	4024.3
972.98	3989.05
973.281	3898.65
973.582	3916.51
973.883	3902.04
974.183	3875.15
974.484	3868.82
974.785	3837.19
975.085	3802.84
975.386	3850.07
975.686	3772.56
975.986	3758.09
976.287	3771.2
976.587	3730.07
976.887	3739.56
977.187	3744.76
977.487	3722.39
977.787	3674.25
978.087	3700.92
978.387	3654.14
978.687	3656.85
978.987	3632.22
979.286	3601.04
979.586	3582.28
979.885	3570.08
980.185	3535.5
980.484	3537.76
980.784	3548.38
981.083	3465.45
981.382	3507.48
981.682	3475.61
981.981	3446.01
982.28	3432.68
982.579	3403.3
982.878	3429.29
983.177	3381.61
983.475	3382.96
983.774	3355.17
984.073	3361.27
984.372	3294.6
984.67	3327.82
984.969	3316.97
985.267	3333.47
985.566	3276.75
985.864	3259.8
986.162	3239.69
986.461	3277.43
986.759	3215.28
987.057	3232.23
987.355	3219.35
987.653	3195.85
987.951	3212.12
988.249	3184.1
988.547	3135.74
988.844	3134.15
989.142	3135.74
989.44	3076.98
989.737	3071.56
990.035	3058.9
990.332	3064.78
990.63	3026.81
990.927	3006.7
991.224	3013.03
991.521	3020.03
991.819	2984.33
992.116	2952.69
992.413	2946.14
992.71	2942.97
993.006	2933.93
993.303	2908.17
993.6	2856.2
993.897	2843.99
994.193	2855.52
994.49	2811
994.787	2806.25
995.083	2789.08
995.379	2807.84
995.676	2771.9
995.972	2755.18
996.268	2725.58
996.565	2714.5
996.861	2737.56
997.157	2741.17
997.453	2707.5
997.749	2693.94
998.044	2667.95
998.34	2646.94
998.636	2623.43
998.932	2630.67
999.227	2599.48
999.523	2635.18
999.818	2614.62
1000.114	2576.2
1000.409	2558.12
1000.704	2516.77
1001	2590.67
1001.295	2515.41
1001.59	2526.94
1001.885	2470.44
1002.18	2465.02
1002.475	2454.62
1002.77	2463.66
1003.065	2434.29
1003.359	2448.75
1003.654	2434.06
1003.949	2398.36
1004.243	2431.35
1004.538	2384.57
1004.832	2370.11
1005.127	2376.89
1005.421	2350.45
1005.715	2341.63
1006.009	2328.98
1006.304	2308.87
1006.598	2305.7
1006.892	2282.65
1007.186	2240.17
1007.48	2275.19
1007.773	2223.44
1008.067	2249.21
1008.361	2186.61
1008.655	2222.54
1008.948	2170.34
1009.242	2182.54
1009.535	2156.78
1009.829	2138.25
1010.122	2151.58
1010.415	2158.36
1010.708	2100.96
1011.001	2102.77
1011.295	2084.24
1011.588	2089.21
1011.881	2025.48
1012.173	2055.09
1012.466	2023.9
1012.759	2013.96
1013.052	2040.4
1013.344	2036.33
1013.637	1989.55
1013.93	1966.28
1014.222	1981.87
1014.514	1932.15
1014.807	1922.21
1015.099	1902.32
1015.391	1912.04
1015.683	1881.53
1015.976	1912.94
1016.268	1845.38
1016.56	1873.62
1016.851	1883.57
1017.143	1876.79
1017.435	1863.91
1017.727	1811.93
1018.018	1812.38
1018.31	1829.56
1018.602	1830.23
1018.893	1761.54
1019.185	1772.38
1019.476	1746.17
1019.767	1703.23
1020.058	1764.02
1020.35	1704.36
1020.641	1725.38
1020.932	1707.98
1021.223	1687.41
1021.514	1684.02
1021.804	1649.9
1022.095	1652.84
1022.386	1665.27
1022.677	1634.08
1022.967	1618.26
1023.258	1625.27
1023.548	1622.78
1023.839	1592.95
1024.129	1579.39
1024.419	1530.13
1024.709	1541.2
1025	1547.76
1025.29	1536.91
1025.58	1537.36
1025.87	1491.03
1026.16	1470.7
1026.449	1481.32
1026.739	1493.07
1027.029	1471.6
1027.319	1446.74
1027.608	1433.41
1027.898	1428.89
1028.187	1419.4
1028.477	1414.43
1028.766	1420.75
1029.055	1377.14
1029.344	1401.77
1029.634	1396.8
1029.923	1359.06
1030.212	1376.69
1030.501	1373.75
1030.79	1363.13
1031.078	1319.51
1031.367	1337.82
1031.656	1299.4
1031.945	1326.74
1032.233	1293.3
1032.522	1290.14
1032.81	1283.58
1033.099	1258.95
1033.387	1259.18
1033.675	1237.71
1033.963	1230.25
1034.251	1264.83
1034.54	1239.06
1034.828	1235.67
1035.116	1218.95
1035.403	1193.87
1035.691	1183.7
1035.979	1209.01
1036.267	1185.05
1036.554	1185.28
1036.842	1188.67
1037.129	1172.85
1037.417	1155.45
1037.704	1127.88
1037.992	1164.26
1038.279	1119.97
1038.566	1108.9
1038.853	1108.9
1039.14	1108.9
