Data from foil_FLMS001491_092.txt Node
Date: Tue Feb 07 11:37:32 GMT 2017
User: dcchb
Spectrometer: FLMS00149
Trigger mode: 0
Integration Time (sec): 2.000000E-2
Scans to average: 10
Electric dark correction enabled: true
Nonlinearity correction enabled: false
Boxcar width: 0
XAxis mode: Wavelengths
Number of Pixels in Spectrum: 2048
>>>>>Begin Spectral Data<<<<<
341.393	-28.05
341.776	-28.05
342.16	-28.05
342.543	-59.46
342.927	-79.8
343.31	-81.83
343.693	-75.28
344.077	-74.6
344.46	-69.63
344.843	-56.3
345.226	-35.96
345.61	-12.91
345.993	-12.46
346.376	-0.71
346.759	20.99
347.142	14.43
347.525	34.55
347.908	60.76
348.291	70.48
348.674	96.69
349.057	121.78
349.44	139.18
349.823	122.45
350.206	168.33
350.588	251.72
350.971	267.08
351.354	255.11
351.737	264.37
352.119	296.69
352.502	320.42
352.884	328.78
353.267	317.03
353.65	345.73
354.032	344.37
354.414	380.75
354.797	360.87
355.179	391.6
355.562	373.3
355.944	385.72
356.326	394.76
356.709	402.45
357.091	396.8
357.473	398.83
357.855	406.51
358.238	399.74
358.62	434.54
359.002	424.14
359.384	416.46
359.766	419.17
360.148	418.72
360.53	411.26
360.912	407.19
361.294	418.49
361.676	408.77
362.057	401.54
362.439	430.24
362.821	402.9
363.203	387.31
363.584	422.11
363.966	409.9
364.348	425.95
364.729	425.05
365.111	419.4
365.493	416.23
365.874	417.36
366.256	428.21
366.637	414.42
367.019	422.33
367.4	393.41
367.781	416.46
368.163	415.1
368.544	434.99
368.925	426.18
369.306	438.38
369.688	431.6
370.069	446.97
370.45	428.44
370.831	459.85
371.212	457.59
371.593	435.21
371.974	463.01
372.355	459.17
372.736	454.65
373.117	444.25
373.498	484.7
373.879	454.2
374.26	418.72
374.641	434.76
375.021	450.81
375.402	472.5
375.783	486.51
376.163	529.22
376.544	514.08
376.925	517.25
377.305	485.38
377.686	494.42
378.066	500.3
378.447	525.83
378.827	511.37
379.208	513.86
379.588	518.83
379.968	519.96
380.349	544.82
380.729	534.19
381.109	524.48
381.489	557.25
381.87	575.32
382.25	555.21
382.63	578.94
383.01	563.12
383.39	559.05
383.77	587.75
384.15	588.43
384.53	586.62
384.91	613.51
385.29	621.2
385.67	614.42
386.049	646.73
386.429	623.23
386.809	632.27
387.189	646.28
387.568	660.97
387.948	646.28
388.328	680.86
388.707	667.07
389.087	682.67
389.466	686.73
389.846	702.78
390.225	708.88
390.605	722.44
390.984	721.99
391.363	728.31
391.743	730.8
392.122	757.92
392.501	761.31
392.881	750.01
393.26	754.08
393.639	777.35
394.018	785.49
394.397	788.2
394.776	809.89
395.155	809.44
395.534	814.19
395.913	802.21
396.292	833.62
396.671	871.36
397.05	841.08
397.429	844.7
397.808	864.81
398.186	852.15
398.565	889.21
398.944	865.26
399.323	907.52
399.701	912.72
400.08	926.95
400.458	909.78
400.837	946.16
401.215	937.8
401.594	950
401.972	984.35
402.351	962.21
402.729	993.39
403.107	1013.5
403.486	999.04
403.864	1041.75
404.242	1038.36
404.62	1061.64
404.999	1072.49
405.377	1062.32
405.755	1065.25
406.133	1096.89
406.511	1130.34
406.889	1113.61
407.267	1126.95
407.645	1157.91
408.023	1175.76
408.401	1187.29
408.779	1181.64
409.156	1206.04
409.534	1207.85
409.912	1259.83
410.29	1296.21
410.667	1258.92
411.045	1298.24
411.422	1316.1
411.8	1330.56
412.178	1357.45
412.555	1361.52
412.933	1386.6
413.31	1409.88
413.687	1405.81
414.065	1454.17
414.442	1458.69
414.819	1474.74
415.197	1506.6
415.574	1510.89
415.951	1516.54
416.328	1572.81
416.705	1561.06
417.082	1578.69
417.46	1595.64
417.837	1624.34
418.214	1599.7
418.591	1622.08
418.967	1648.52
419.344	1673.83
419.721	1706.82
420.098	1704.79
420.475	1727.16
420.852	1725.58
421.228	1746.14
421.605	1787.27
421.982	1799.02
422.358	1811.45
422.735	1856.42
423.111	1860.71
423.488	1865.01
423.864	1909.98
424.241	1917.66
424.617	1945.23
424.994	1924.67
425.37	1992.24
425.746	1994.04
426.123	2000.6
426.499	2003.99
426.875	2060.03
427.251	2104.78
427.627	2140.25
428.003	2169.86
428.379	2158.11
428.756	2197.65
429.132	2240.36
429.507	2286.92
429.883	2280.36
430.259	2310.42
430.635	2375.05
431.011	2396.97
431.387	2441.49
431.763	2460.47
432.138	2514.26
432.514	2530.3
432.89	2545.89
433.265	2613.69
433.641	2627.47
434.016	2684.42
434.392	2712.89
434.767	2793.34
435.143	2746.79
435.518	2792.21
435.894	2811.65
436.269	2854.36
436.644	2901.36
437.02	2941.59
437.395	2938.88
437.77	2956.5
438.145	3037.41
438.52	3015.71
438.895	3090.74
439.271	3099.78
439.646	3137.74
440.021	3172.09
440.395	3157.4
440.77	3118.08
441.145	3163.5
441.52	3309.04
441.895	3295.93
442.27	3305.2
442.645	3332.77
443.019	3383.16
443.394	3363.73
443.769	3455.7
444.143	3397.85
444.518	3462.71
444.892	3456.15
445.267	3525.3
445.641	3500.67
446.016	3544.06
446.39	3567.11
446.764	3616.37
447.139	3609.59
447.513	3643.94
447.887	3638.52
448.262	3686.88
448.636	3692.98
449.01	3792.87
449.384	3831.06
449.758	3780.21
450.132	3887.33
450.506	3955.12
450.88	3895.91
451.254	3961.68
451.628	4014.33
452.002	4071.5
452.376	4076.7
452.75	4131.61
453.123	4182.23
453.497	4232.85
453.871	4224.27
454.244	4318.5
454.618	4378.61
454.992	4425.39
455.365	4431.27
455.739	4579.51
456.112	4568.67
456.486	4587.2
456.859	4703.12
457.232	4766.85
457.606	4782.44
457.979	4826.29
458.352	4919.84
458.725	5018.6
459.099	5006.17
459.472	5124.36
459.845	5175.2
460.218	5257.23
460.591	5310.57
460.964	5315.99
461.337	5484.35
461.71	5554.18
462.083	5623.55
462.456	5594.85
462.829	5658.13
463.201	5744.23
463.574	5732.7
463.947	5914.39
464.32	5984.22
464.692	6024.9
465.065	6088.85
465.438	6196.42
465.81	6250.43
466.183	6340.6
466.555	6468.05
466.928	6473.47
467.3	6514.83
467.672	6584.21
468.045	6713.47
468.417	6769.51
468.789	6857.42
469.161	6957.08
469.534	7111.65
469.906	7206.34
470.278	7228.71
470.65	7347.58
471.022	7449.49
471.394	7720.67
471.766	7709.37
472.138	7763.61
472.51	7962.47
472.882	8048.57
473.253	8134.67
473.625	8279.08
473.997	8478.17
474.369	8546.41
474.74	8658.95
475.112	8765.84
475.484	8962.45
475.855	9094.65
476.227	9152.5
476.598	9445.6
476.97	9534.18
477.341	9759.04
477.713	9865.7
478.084	9905.93
478.455	10194.73
478.827	10266.14
479.198	10636.3
479.569	10585
479.94	10916.75
480.311	10982.06
480.682	11274.03
481.053	11524.64
481.424	11690.74
481.795	11841.47
482.166	12011.86
482.537	12173.89
482.908	12399.19
483.279	12546.53
483.65	12799.18
484.021	12967.54
484.391	13171.15
484.762	13353.52
485.133	13452.27
485.503	13650.46
485.874	13975.65
486.244	13983.78
486.615	14283.66
486.985	14460.83
487.356	14806.59
487.726	14808.62
488.097	15120.48
488.467	15138.78
488.837	15555.27
489.207	15741.25
489.578	15968.59
489.948	16150.96
490.318	16371.74
490.688	16374.46
491.058	16698.06
491.428	16945.74
491.798	17085.17
492.168	17391.15
492.538	17380.53
492.908	17609
493.278	17802.44
493.648	17964.7
494.017	18120.17
494.387	18357.23
494.757	18434.06
495.126	18696.88
495.496	18763.32
495.866	18902.53
496.235	19134.38
496.605	19336.64
496.974	19465.9
497.344	19613.92
497.713	19727.59
498.082	19785.44
498.452	20015.04
498.821	20078.31
499.19	20241.7
499.559	20441.69
499.928	20644.85
500.298	20784.96
500.667	20920.78
501.036	20921.23
501.405	21213.65
501.774	21130.26
502.143	21401.67
502.512	21471.95
502.88	21640.98
503.249	21768.66
503.618	21936.57
503.987	22097.47
504.356	22130.24
504.724	22335.66
505.093	22447.74
505.462	22695.19
505.83	22789.2
506.199	22972.25
506.567	23273.94
506.936	23248.4
507.304	23561.39
507.672	23514.16
508.041	23678.9
508.409	23898.78
508.777	24094.03
509.145	24338.31
509.514	24307.13
509.882	24559.78
510.25	24652.2
510.618	24793.44
510.986	24938.3
511.354	25007.9
511.722	25263.71
512.09	25479.75
512.458	25429.13
512.826	25809.69
513.193	25989.57
513.561	26122.45
513.929	26335.1
514.297	26594.53
514.664	26789.78
515.032	26806.72
515.4	27068.19
515.767	27243.55
516.135	27342.53
516.502	27214.17
516.869	27849.86
517.237	28003.98
517.604	27873.14
517.972	28329.62
518.339	28461.6
518.706	28566.23
519.073	28745.88
519.44	28903.84
519.808	29185.19
520.175	29224.29
520.542	29631.06
520.909	29821.79
521.276	29856.14
521.643	30131.38
522.009	30395.56
522.376	30518.94
522.743	30911.7
523.11	31180.62
523.477	31254.52
523.843	31533.38
524.21	31900.15
524.577	32155.28
524.943	32354.38
525.31	32391.89
525.676	32814.7
526.043	32913.91
526.409	33107.8
526.776	33562.48
527.142	33639.54
527.508	33720.22
527.874	34102.13
528.241	34161.33
528.607	34387.54
528.973	34619.17
529.339	34738.72
529.705	35103
530.071	35414.18
530.437	35581.41
530.803	35811.01
531.169	35908.41
531.535	35941.17
531.901	36088.97
532.267	36306.59
532.632	36489.18
532.998	36636.3
533.364	36906.8
533.73	37021.15
534.095	37177.53
534.461	37398.99
534.826	37570.96
535.192	37675.82
535.557	37955.81
535.923	37953.1
536.288	38127.33
536.653	38379.98
537.019	38347.21
537.384	38420.2
537.749	38662.23
538.114	38808.22
538.479	38850.48
538.845	39169.11
539.21	39014.99
539.575	39458.14
539.94	39485.26
540.305	39737.91
540.67	39723.22
541.034	39856.32
541.399	40063.78
541.764	40032.59
542.129	40235.75
542.494	40259.48
542.858	40481.17
543.223	40455.41
543.587	40690.2
543.952	40877.99
544.316	41148.49
544.681	40992.79
545.045	41195.95
545.41	41369.05
545.774	41535.6
546.138	41551.65
546.503	41672.77
546.867	41768.37
547.231	42000.68
547.595	42173.78
547.959	42235.25
548.324	42365.86
548.688	42515.01
549.052	42648.57
549.416	42674.78
549.779	42921.78
550.143	42858.51
550.507	43328.78
550.871	43299.17
551.235	43330.13
551.599	43673.63
551.962	43785.26
552.326	43963.11
552.689	44094.18
553.053	43962.66
553.417	44119.26
553.78	44579.36
554.143	44527.39
554.507	44662.07
554.87	44736.65
555.234	45389.06
555.597	44975.51
555.96	45301.15
556.323	45516.29
556.686	45459.79
557.05	45878.54
557.413	45858.2
557.776	45981.81
558.139	46329.15
558.502	46514.23
558.865	46450.95
559.228	46869.7
559.59	46906.54
559.953	47054.1
560.316	47446.86
560.679	47339.29
561.041	47623.58
561.404	47718.94
561.767	48071.48
562.129	47798.94
562.492	48390.34
562.854	48358.7
563.217	48345.37
563.579	48518.92
563.941	48767.28
564.304	48955.97
564.666	49154.84
565.028	49290.88
565.39	49422.4
565.753	49561.83
566.115	49751.66
566.477	49835.05
566.839	49913.01
567.201	50106
567.563	50172.44
567.925	50451.53
568.287	50491.53
568.648	50679.77
569.01	50731.52
569.372	50986.43
569.734	50952.98
570.095	51152.3
570.457	51370.82
570.819	51374.89
571.18	51334.44
571.542	51490.6
571.903	51613.76
572.265	51679.29
572.626	51758.38
572.987	51834.54
573.349	51952.73
573.71	52009
574.071	52198.83
574.432	52305.26
574.794	52494.64
575.155	52499.16
575.516	52418.93
575.877	52521.98
576.238	52606.27
576.599	52640.4
576.96	52703.22
577.32	52725.14
577.681	52796.78
578.042	52914.51
578.403	52932.37
578.763	53056.66
579.124	53022.53
579.485	53069.99
579.845	53298.91
580.206	53061.4
580.566	53177.78
580.927	53135.3
581.287	53249.87
581.648	53178.23
582.008	53359.25
582.368	53196.99
582.728	53429.53
583.089	53295.29
583.449	53332.35
583.809	53367.16
584.169	53372.35
584.529	53255.75
584.889	53540.03
585.249	53413.03
585.609	53321.28
585.969	53442.18
586.329	53420.94
586.688	53446.02
587.048	53436.08
587.408	53316.08
587.768	53394.5
588.127	53283.77
588.487	53338.23
588.846	53590.65
589.206	53365.12
589.565	53444.22
589.925	53445.35
590.284	53391.34
590.643	53474.5
591.003	53508.17
591.362	53545.68
591.721	53472.24
592.08	53559.69
592.44	53618
592.799	53524.44
593.158	53414.39
593.517	53402.18
593.876	53538
594.235	53542.52
594.593	53504.33
594.952	53564.67
595.311	53521.5
595.67	53460.49
596.029	53749.29
596.387	53733.47
596.746	53720.37
597.104	53595.62
597.463	53669.97
597.822	53767.6
598.18	53620.03
598.538	53603.76
598.897	53759.24
599.255	53579.13
599.613	53967.59
599.972	53804.88
600.33	53729.41
600.688	53734.6
601.046	53801.95
601.404	53899.57
601.762	53834.71
602.12	54008.5
602.478	53850.08
602.836	53950.42
603.194	53842.62
603.552	53970.3
603.91	53917.65
604.268	53954.94
604.625	53879.01
604.983	54026.35
605.341	53882.4
605.698	54084.88
606.056	54104.09
606.413	54041.49
606.771	54130.53
607.128	54158.55
607.485	54115.39
607.843	54101.37
608.2	54196.51
608.557	54294.59
608.914	54214.14
609.272	54416.62
609.629	54400.35
609.986	54394.7
610.343	54254.82
610.7	54493.23
611.057	54427.24
611.414	54423.17
611.771	54449.61
612.127	54626.78
612.484	54525.77
612.841	54614.58
613.198	54576.16
613.554	54608.25
613.911	54719.21
614.267	54642.38
614.624	54672.21
614.98	54763.28
615.337	54792.66
615.693	54804.86
616.05	54693.45
616.406	54894.35
616.762	54804.41
617.118	54806.89
617.475	54821.81
617.831	54867.68
618.187	54990.39
618.543	54919.21
618.899	55031.97
619.255	54937.74
619.611	54988.36
619.967	55094.57
620.323	55059.09
620.678	54997.17
621.034	54899.55
621.39	54924.63
621.746	54895.25
622.101	55160.56
622.457	54942.71
622.812	54940
623.168	55076.94
623.523	55031.29
623.879	55108.58
624.234	54976.38
624.589	54989.03
624.945	54987.23
625.3	55016.83
625.655	54962.37
626.01	55083.04
626.365	55142.02
626.72	54950.84
627.075	55056.6
627.43	54868.36
627.785	54838.76
628.14	54911.07
628.495	54923.73
628.85	54909.71
629.205	54711.75
629.559	55022.71
629.914	54693.22
630.269	54814.58
630.623	54683.05
630.978	54588.59
631.332	54731.87
631.687	54752.66
632.041	54602.38
632.396	54704.07
632.75	54512.44
633.104	54553.11
633.459	54514.47
633.813	54419.56
634.167	54411.42
634.521	54408.48
634.875	54390.41
635.229	54416.62
635.583	54255.95
635.937	54307.92
636.291	54228.6
636.645	54149.28
636.999	54099.11
637.352	54141.15
637.706	54005.56
638.06	54066.35
638.413	53948.38
638.767	53842.17
639.121	53966.24
639.474	53807.6
639.828	53857.54
640.181	53771.21
640.534	53788.39
640.888	53636.3
641.241	53553.82
641.594	53619.8
641.947	53716.53
642.301	53501.84
642.654	53492.35
643.007	53506.81
643.36	53429.08
643.713	53435.4
644.066	53455.97
644.419	53205.13
644.771	53036.09
645.124	52564.92
645.477	52596.33
645.83	52418.48
646.182	52314.53
646.535	52206.96
646.888	52338.93
647.24	52079.51
647.593	52319.27
647.945	52335.77
648.298	52138.26
648.65	51998.6
649.002	51799.51
649.355	51887.65
649.707	51858.95
650.059	51959.51
650.411	52301.65
650.763	52328.31
651.115	52653.28
651.467	52562.88
651.819	52469.1
652.171	52380.06
652.523	52291.48
652.875	52323.12
653.227	52268.65
653.578	52446.05
653.93	52487.41
654.282	52168.54
654.633	52106.85
654.985	52194.98
655.337	52185.27
655.688	52072.5
656.039	52151.14
656.391	51855.33
656.742	51998.6
657.094	51870.25
657.445	51989.34
657.796	51907.08
658.147	51845.61
658.498	51725.17
658.849	51862.79
659.2	51737.59
659.551	51660.99
659.902	51797.48
660.253	51678.16
660.604	51746.18
660.955	51599.52
661.306	51706.41
661.656	51616.69
662.007	51587.77
662.358	51500.09
662.708	51511.16
663.059	51481.78
663.409	51201.11
663.76	51546.41
664.11	51336.25
664.461	51435
664.811	51435
665.161	51401.11
665.511	51286.76
665.862	51298.96
666.212	51354.1
666.562	51374.67
666.912	51217.38
667.262	51234.56
667.612	51130.83
667.962	51181
668.312	51172.41
668.662	51281.56
669.011	51217.61
669.361	51087.89
669.711	51047.44
670.06	50937.39
670.41	50910.27
670.76	50952.3
671.109	50905.75
671.459	50877.5
671.808	50853.1
672.157	50886.77
672.507	50647.23
672.856	50716.83
673.205	50648.81
673.554	50755.47
673.904	50566.1
674.253	50881.35
674.602	50685.64
674.951	50199.33
675.3	49969.28
675.649	50442.49
675.998	50456.05
676.346	50454.24
676.695	50518.64
677.044	50212.21
677.393	50364.98
677.741	50500.11
678.09	50258.76
678.438	50196.17
678.787	50273.23
679.135	50254.92
679.484	49930.41
679.832	50079.33
680.181	49841.37
680.529	49990.97
680.877	49812.45
681.225	49776.29
681.573	49903.74
681.922	49592.79
682.27	49628.95
682.618	49570.19
682.966	49427.15
683.314	49419.92
683.661	49338.56
684.009	49104.44
684.357	49049.98
684.705	49074.84
685.053	49091.56
685.4	48989.64
685.748	48697.22
686.095	48847.95
686.443	48621.74
686.79	48593.04
687.138	48541.75
687.485	48540.84
687.832	48460.84
688.18	48517.79
688.527	48165.48
688.874	48210
689.221	48085.71
689.568	48012.49
689.915	47911.71
690.262	47882.33
690.609	47789.9
690.956	47613.18
691.303	47469.91
691.65	47330.48
691.997	47237.15
692.344	46985.4
692.69	47029.7
693.037	47020.66
693.383	46631.51
693.73	46789.02
694.077	46552.65
694.423	46498.18
694.769	46318.3
695.116	46217.29
695.462	46161.47
695.808	45969.61
696.155	46066.56
696.501	45716.51
696.847	45810.52
697.193	45455.5
697.539	45565.1
697.885	45335.95
698.231	45088.05
698.577	45087.15
698.923	45042.86
699.269	44819.58
699.614	44763.31
699.96	44660.72
700.306	44494.17
700.651	44469.08
700.997	44322.65
701.342	44159.71
701.688	44075.65
702.033	43958.82
702.379	43939.61
702.724	43909.55
703.069	43960.62
703.415	43437.93
703.76	43288.33
704.105	43314.99
704.45	43267.31
704.795	43085.62
705.14	42911.16
705.485	42912.97
705.83	42639.08
706.175	42788
706.52	42538.51
706.865	42468.69
707.209	42419.2
707.554	42114.57
707.899	42267.11
708.243	42105.76
708.588	41984.18
708.932	41776.27
709.277	41653.11
709.621	41787.12
709.966	41436.4
710.31	41558.2
710.654	41068.95
710.998	41164.77
711.342	41241.37
711.687	40968.84
712.031	40995.96
712.375	40796.19
712.719	40822.4
713.063	40776.53
713.407	40899.01
713.75	40554.84
714.094	40534.05
714.438	40367.5
714.782	40422.19
715.125	40190.33
715.469	40225.13
715.812	39784.69
716.156	39577.69
716.499	39671.02
716.843	39679.83
717.186	39480.29
717.53	39630.34
717.873	39658.36
718.216	39431.48
718.559	39370.01
718.902	39109.68
719.246	39170.47
719.589	39021.77
719.932	38866.97
720.275	38999.85
720.617	38852.74
720.96	38803.02
721.303	38669.01
721.646	38749.24
721.989	38433.54
722.331	38495.68
722.674	38416.59
723.016	38408.68
723.359	38247.55
723.701	38273.32
724.044	38150.16
724.386	37859.09
724.729	38043.72
725.071	37836.04
725.413	37751.75
725.755	37767.79
726.097	37529.15
726.439	37494.35
726.782	37406.45
727.124	37390.63
727.465	37261.14
727.807	37206.68
728.149	37136.85
728.491	37155.6
728.833	37157.19
729.175	36956.97
729.516	36982.95
729.858	36910.64
730.199	36864.77
730.541	36741.38
730.882	36668.16
731.224	36787.48
731.565	36437.66
731.906	36386.36
732.248	36499.58
732.589	36265.01
732.93	36032.02
733.271	36055.52
733.612	36097.33
733.953	36120.6
734.294	35801.52
734.635	35840.84
734.976	35860.5
735.317	35640.84
735.658	35659.6
735.999	35651.46
736.339	35509.55
736.68	35653.95
737.021	35410.79
737.361	35397.91
737.702	35445.14
738.042	35327.4
738.383	35264.58
738.723	35153.62
739.063	35038.37
739.404	35140.74
739.744	34888.32
740.084	34893.74
740.424	34953.4
740.764	34805.84
741.104	34842.67
741.444	34604.49
741.784	34507.31
742.124	34680.64
742.464	34343.48
742.804	34536.46
743.143	34359.52
743.483	34253.99
743.823	34112.07
744.162	34153.2
744.502	34131.5
744.841	33963.15
745.181	34057.61
745.52	33816.48
745.86	33891.28
746.199	33731.74
746.538	33670.05
746.877	33698.29
747.216	33678.41
747.556	33540.11
747.895	33514.57
748.234	33270.51
748.573	33278.42
748.911	33151.42
749.25	33236.61
749.589	32905.32
749.928	33085.2
750.267	33022.83
750.605	32874.14
750.944	32735.16
751.283	32796.17
751.621	32782.84
751.96	32423.3
752.298	32497.2
752.636	32417.65
752.975	32391.66
753.313	32235.28
753.651	32173.82
753.989	32064.44
754.327	32062.18
754.666	31946.02
755.004	31849.53
755.342	31867.61
755.679	31868.96
756.017	31640.04
756.355	31601.4
756.693	31459.71
757.031	31475.3
757.368	31273.73
757.706	31152.37
758.044	31106.72
758.381	31174.75
758.719	30977.24
759.056	31031.7
759.394	30897.01
759.731	30711.48
760.068	30660.63
760.405	30522.79
760.743	30389.68
761.08	30454.31
761.417	30312.17
761.754	30116.47
762.091	30161.66
762.428	29964.38
762.765	29738.4
763.102	29957.15
763.438	29683.26
763.775	29473.77
764.112	29653.43
764.449	29525.98
764.785	29391.97
765.122	29268.13
765.458	29027.91
765.795	28916.05
766.131	28957.4
766.467	28849.61
766.804	28644.64
767.14	28558.99
767.476	28430.18
767.812	28342.5
768.148	28392.67
768.485	28182.73
768.821	28071.78
769.157	27896.19
769.492	27852.8
769.828	27841.95
770.164	27513.37
770.5	27530.55
770.836	27495.52
771.171	27338.01
771.507	27229.76
771.842	27052.14
772.178	26973.05
772.513	26947.96
772.849	26841.53
773.184	26675.2
773.519	26677.24
773.855	26470.24
774.19	26398.83
774.525	26197.7
774.86	26225.04
775.195	26238.83
775.53	25994.09
775.865	25745.74
776.2	25756.81
776.535	25471.39
776.87	25411.51
777.205	25467.78
777.539	25247.9
777.874	25328.8
778.209	25084.51
778.543	25002.48
778.878	24873.89
779.212	24923.84
779.547	24828.25
779.881	24703.05
780.215	24647.23
780.55	24507.58
780.884	24393.68
781.218	24453.11
781.552	24331.54
781.886	24150.07
782.22	24020.13
782.554	23824.66
782.888	23628.73
783.222	23530.65
783.556	23563.19
783.889	23484.1
784.223	23305.57
784.557	23211.56
784.89	23148.29
785.224	23057.22
785.557	22882.76
785.891	22899.93
786.224	22933.15
786.558	22897.9
786.891	22603.22
787.224	22513.96
787.557	22516.22
787.891	22473.51
788.224	22262.44
788.557	22319.84
788.89	22181.08
789.223	22208.43
789.556	21883.01
789.888	21908.55
790.221	21844.37
790.554	21679.63
790.887	21722.79
791.219	21612.74
791.552	21588.33
791.884	21372.74
792.217	21395.79
792.549	21286.64
792.882	21090.04
793.214	20951.29
793.546	21020.44
793.879	20904.73
794.211	20716.72
794.543	20835.13
794.875	20661.58
795.207	20722.36
795.539	20549.04
795.871	20529.15
796.203	20362.6
796.535	20333
796.867	20265.2
797.198	20144.75
797.53	20051.42
797.862	19987.02
798.193	20008.71
798.525	19839.9
798.856	19897.08
799.188	19761.26
799.519	19668.38
799.85	19534.37
800.182	19586.8
800.513	19580.47
800.844	19342.51
801.175	19398.56
801.506	19382.29
801.837	19178.45
802.168	19129.64
802.499	19049.87
802.83	19033.82
803.161	18937.55
803.491	18872.02
803.822	18837.67
804.153	18697.11
804.483	18598.13
804.814	18449.88
805.145	18588.86
805.475	18453.95
805.805	18398.36
806.136	18449.43
806.466	18300.51
806.796	18315.87
807.126	18136.9
807.457	18159.27
807.787	18087.63
808.117	17962.44
808.447	17965.15
808.777	17900.52
809.107	17776.45
809.436	17804.93
809.766	17830.01
810.096	17784.14
810.426	17720.86
810.755	17771.26
811.085	17625.05
811.414	17562.22
811.744	17384.15
812.073	17331.27
812.403	17412.4
812.732	17277.03
813.061	17233.19
813.39	17116.36
813.719	17011.95
814.049	17239.74
814.378	17121.33
814.707	17096.02
815.036	16954.78
815.365	16811.96
815.693	16719.98
816.022	16749.59
816.351	16701.91
816.68	16627.78
817.008	16560.67
817.337	16468.01
817.665	16464.85
817.994	16529.48
818.322	16524.06
818.651	16219.88
818.979	16240.9
819.307	16359.99
819.636	16306.89
819.964	16301.69
820.292	16256.95
820.62	16120
820.948	16147.8
821.276	16216.49
821.604	16204.97
821.932	16114.12
822.259	16067.35
822.587	16096.72
822.915	15964.07
823.243	16051.3
823.57	16025.77
823.898	16085.65
824.225	15922.94
824.553	15956.61
824.88	16018.08
825.207	16024.18
825.535	15890.85
825.862	15997.52
826.189	15923.62
826.516	15955.94
826.843	15950.29
827.17	15943.06
827.497	15925.65
827.824	15881.59
828.151	15957.97
828.478	15923.62
828.805	15991.64
829.131	15876.62
829.458	15859.67
829.785	15755.04
830.111	15893.11
830.438	16034.8
830.764	15826.22
831.09	15911.64
831.417	15795.94
831.743	15836.62
832.069	15726.11
832.395	15657.19
832.722	15793.91
833.048	15713.46
833.374	15748.26
833.7	15673.91
834.026	15668.71
834.351	15708.26
834.677	15708.26
835.003	15729.05
835.329	15695.15
835.654	15632.1
835.98	15557.08
836.306	15608.37
836.631	15485.67
836.956	15562.05
837.282	15548.49
837.607	15418.32
837.932	15397.53
838.258	15467.36
838.583	15417.42
838.908	15305.56
839.233	15385.78
839.558	15330.87
839.883	15237.09
840.208	15135.62
840.533	15204.54
840.858	15265.56
841.182	15241.83
841.507	15174.71
841.832	15167.26
842.156	15096.07
842.481	15099.46
842.805	15071.21
843.13	14962.74
843.454	14952.12
843.778	14920.48
844.103	14884.78
844.427	14778.34
844.751	14765.91
845.075	14771.79
845.399	14712.81
845.723	14637.1
846.047	14715.97
846.371	14546.48
846.695	14532.02
847.019	14412.7
847.343	14361.63
847.666	14255.42
847.99	14161.63
848.313	14106.04
848.637	14046.83
848.96	14097.68
849.284	14087.28
849.607	13955.31
849.931	13913.73
850.254	13786.5
850.577	13752.6
850.9	13703.57
851.223	13643.91
851.546	13510.12
851.869	13525.27
852.192	13533.4
852.515	13507.19
852.838	13419.51
853.161	13384.03
853.483	13362.11
853.806	13319.85
854.129	13318.72
854.451	13189.46
854.774	13207.53
855.096	13038.27
855.419	13058.16
855.741	12947.88
856.063	12891.38
856.385	12928.9
856.708	12937.48
857.03	12837.37
857.352	12843.02
857.674	12847.09
857.996	12705.4
858.318	12710.6
858.64	12630.6
858.961	12659.07
859.283	12641.45
859.605	12596.7
859.926	12594.67
860.248	12523.94
860.57	12465.41
860.891	12537.95
861.212	12360.32
861.534	12507.89
861.855	12401.45
862.176	12466.08
862.498	12267.22
862.819	12421.79
863.14	12256.15
863.461	12248.92
863.782	12154
864.103	12224.28
864.424	12148.13
864.745	12176.15
865.065	12110.16
865.386	12111.97
865.707	12041.92
866.027	12059.77
866.348	12088.47
866.668	12073.55
866.989	11988.36
867.309	11937.51
867.63	12004.18
867.95	11945.87
868.27	11873.33
868.59	11890.51
868.91	11881.47
869.23	11840.79
869.55	11894.35
869.87	11917.62
870.19	11850.06
870.51	11894.35
870.83	11793.56
871.15	11737.52
871.469	11783.39
871.789	11688.93
872.109	11733
872.428	11613.45
872.748	11674.47
873.067	11628.59
873.386	11650.96
873.706	11612.55
874.025	11582.72
874.344	11476.51
874.663	11560.8
874.982	11559.22
875.301	11516.73
875.62	11446.45
875.939	11426.56
876.258	11436.73
876.577	11437.86
876.896	11413.23
877.214	11427.47
877.533	11457.07
877.852	11447.81
878.17	11397.41
878.489	11424.3
878.807	11380.46
879.125	11262.27
879.444	11304.76
879.762	11184.08
880.08	11215.72
880.398	11159.68
880.716	11255.95
881.034	11195.16
881.352	11224.76
881.67	11162.16
881.988	11180.47
882.306	11118.1
882.624	11095.95
882.941	11097.08
883.259	11003.3
883.577	10960.36
883.894	10990.87
884.212	10973.69
884.529	10960.59
884.846	10899.57
885.164	10872.91
885.481	10844.43
885.798	10884.43
886.115	10803.98
886.432	10748.16
886.75	10819.57
887.067	10788.16
887.383	10676.08
887.7	10744.77
888.017	10660.48
888.334	10703.65
888.651	10568.73
888.967	10559.69
889.284	10568.51
889.6	10515.85
889.917	10473.37
890.233	10484.89
890.55	10462.3
890.866	10446.02
891.182	10447.15
891.498	10438.12
891.815	10275.18
892.131	10363.32
892.447	10251.68
892.763	10174.17
893.079	10184.56
893.395	10177.56
893.71	10152.02
894.026	10133.26
894.342	10097.79
894.657	10037.67
894.973	10089.65
895.289	9986.83
895.604	10008.3
895.92	9952.48
896.235	9874.74
896.55	9867.51
896.865	9844.91
897.181	9829.09
897.496	9814.85
897.811	9762.88
898.126	9760.17
898.441	9700.06
898.756	9698.93
899.071	9642.66
899.386	9684.69
899.7	9602.43
900.015	9605.14
900.33	9451.25
900.644	9483.79
900.959	9458.25
901.273	9444.24
901.588	9420.06
901.902	9383.23
902.216	9319.5
902.531	9304.81
902.845	9224.59
903.159	9236.11
903.473	9174.42
903.787	9193.63
904.101	9037.25
904.415	9080.41
904.729	9020.3
905.042	8996.35
905.356	8981.2
905.67	8982.33
905.984	8945.95
906.297	8911.15
906.611	8869.34
906.924	8874.99
907.237	8852.62
907.551	8790.7
907.864	8778.27
908.177	8740.53
908.491	8744.37
908.804	8651.72
909.117	8587.99
909.43	8591.61
909.743	8533.31
910.056	8507.32
910.368	8382.12
910.681	8423.25
910.994	8429.35
911.307	8392.75
911.619	8325.18
911.932	8361.33
912.244	8315.23
912.557	8322.69
912.869	8174.67
913.181	8221.9
913.494	8123.37
913.806	8106.2
914.118	8070.27
914.43	8068.69
914.742	7981.46
915.054	8008.12
915.366	7944.17
915.678	7859.88
915.99	7897.17
916.302	7856.71
916.613	7788.02
916.925	7835.7
917.236	7744.85
917.548	7691.52
917.859	7807.68
918.171	7642.26
918.482	7585.54
918.794	7591.64
919.105	7571.75
919.416	7484.52
919.727	7459.44
920.038	7479.55
920.349	7352.32
920.66	7394.13
920.971	7450.62
921.282	7398.42
921.593	7338.76
921.903	7283.4
922.214	7237.3
922.525	7233.45
922.835	7166.79
923.146	7163.17
923.456	7202.72
923.767	7139.45
924.077	7075.94
924.387	7048.83
924.697	6960.47
925.008	7050.41
925.318	6920.47
925.628	6868.72
925.938	6889.96
926.248	6793.01
926.558	6790.75
926.867	6782.39
927.177	6753.24
927.487	6752.34
927.796	6663.07
928.106	6688.38
928.416	6681.83
928.725	6679.8
929.034	6595.5
929.344	6618.78
929.653	6532.91
929.962	6480.03
930.271	6496.75
930.581	6506.02
930.89	6403.65
931.199	6416.98
931.508	6381.5
931.817	6396.19
932.125	6367.49
932.434	6352.57
932.743	6252.24
933.051	6248.17
933.36	6148.06
933.669	6159.13
933.977	6124.33
934.286	6163.2
934.594	6147.38
934.902	6106.48
935.21	6084.56
935.519	6026.25
935.827	5958.23
936.135	5963.2
936.443	5917.78
936.751	5899.93
937.059	5915.07
937.367	5901.29
937.674	5899.7
937.982	5832.59
938.29	5797.33
938.597	5776.54
938.905	5711.01
939.213	5706.26
939.52	5694.29
939.827	5674.17
940.135	5634.17
940.442	5593.72
940.749	5607.73
941.056	5644.57
941.363	5512.82
941.67	5516.66
941.977	5556.21
942.284	5507.85
942.591	5464.01
942.898	5411.35
943.205	5422.43
943.511	5435.54
943.818	5346.72
944.125	5355.76
944.431	5353.96
944.738	5318.25
945.044	5271.47
945.35	5242.32
945.657	5219.04
945.963	5199.84
946.269	5127.75
946.575	5194.41
946.881	5135.66
947.187	5126.62
947.493	5113.74
947.799	5097.92
948.105	5014.76
948.41	5023.12
948.716	5029.9
949.022	5011.14
949.327	4993.29
949.633	4925.49
949.938	4907.64
950.244	4871.03
950.549	4891.37
950.854	4863.57
951.16	4855.44
951.465	4885.04
951.77	4746.97
952.075	4716.91
952.38	4724.37
952.685	4684.59
952.99	4698.15
953.294	4691.37
953.599	4619.74
953.904	4654.76
954.209	4602.34
954.513	4622.68
954.818	4558.95
955.122	4585.16
955.426	4578.38
955.731	4485.96
956.035	4540.19
956.339	4515.33
956.643	4448.89
956.948	4430.14
957.252	4420.19
957.556	4389.91
957.86	4382.68
958.163	4310.59
958.467	4341.33
958.771	4348.78
959.075	4345.62
959.378	4286.19
959.682	4301.33
959.985	4243.7
960.289	4182.46
960.592	4215.68
960.896	4217.04
961.199	4187.43
961.502	4163.7
961.805	4152.4
962.108	4108.11
962.411	4084.84
962.714	4060.88
963.017	4111.5
963.32	4071.96
963.623	4076.7
963.926	4022.46
964.228	3989.92
964.531	3996.02
964.833	3957.83
965.136	3956.03
965.438	3914.22
965.741	3901.79
966.043	3903.37
966.345	3884.39
966.648	3874.67
966.95	3812.3
967.252	3833.09
967.554	3830.61
967.856	3815.69
968.158	3771.85
968.46	3777.73
968.761	3750.83
969.063	3751.74
969.365	3694.34
969.666	3688.46
969.968	3687.56
970.269	3683.26
970.571	3677.84
970.872	3648.69
971.174	3605.3
971.475	3611.85
971.776	3613.66
972.077	3586.09
972.378	3609.14
972.679	3549.71
972.98	3554
973.281	3533.21
973.582	3528.92
973.883	3494.12
974.183	3458.41
974.484	3468.36
974.785	3439.43
975.085	3389.49
975.386	3421.8
975.686	3400.56
975.986	3368.02
976.287	3346.55
976.587	3358.75
976.887	3302.03
977.187	3307
977.487	3302.26
977.787	3288.47
978.087	3276.04
978.387	3231.07
978.687	3249.15
978.987	3219.55
979.286	3204.86
979.586	3194.69
979.885	3174.35
980.185	3157.63
980.484	3159.21
980.784	3104.97
981.083	3089.38
981.382	3091.64
981.682	3116.27
981.981	3052.32
982.28	3051.87
982.579	3026.78
982.878	3036.28
983.177	3018.2
983.475	2996.73
983.774	2996.05
984.073	2984.53
984.372	2956.05
984.67	2959.89
984.969	2951.31
985.267	2941.14
985.566	2952.89
985.864	2924.87
986.162	2903.4
986.461	2859.78
986.759	2860.01
987.057	2831.54
987.355	2875.38
987.653	2817.3
987.951	2839.67
988.249	2795.15
988.547	2768.49
988.844	2770.29
989.142	2768.03
989.44	2752.44
989.737	2703.63
990.035	2738.88
990.332	2706.12
990.63	2715.38
990.927	2682.61
991.224	2675.38
991.521	2680.58
991.819	2637.87
992.116	2665.66
992.413	2625.44
992.71	2608.72
993.006	2547.48
993.303	2590.64
993.6	2567.81
993.897	2569.85
994.193	2561.26
994.49	2549.74
994.787	2509.74
995.083	2506.8
995.379	2493.47
995.676	2457.99
995.972	2492.56
996.268	2479.91
996.565	2457.31
996.861	2398.1
997.157	2434.94
997.453	2444.65
997.749	2426.35
998.044	2404.2
998.34	2387.03
998.636	2378.67
998.932	2354.49
999.227	2361.49
999.523	2316.75
999.818	2304.77
1000.114	2290.08
1000.409	2300.93
1000.704	2293.47
1001	2259.12
1001.295	2232
1001.59	2237.65
1001.885	2250.76
1002.18	2200.59
1002.475	2215.51
1002.77	2185
1003.065	2196.52
1003.359	2174.15
1003.654	2174.83
1003.949	2142.06
1004.243	2137.32
1004.538	2097.77
1004.832	2107.03
1005.127	2119.24
1005.421	2101.84
1005.715	2066.81
1006.009	2069.75
1006.304	2064.78
1006.598	2038.11
1006.892	2025.46
1007.186	2018.68
1007.48	2028.39
1007.773	1996.76
1008.067	1985.91
1008.361	1968.28
1008.655	1953.37
1008.948	1930.54
1009.242	1933.48
1009.535	1958.56
1009.829	1911.79
1010.122	1900.49
1010.415	1894.61
1010.708	1874.27
1011.001	1841.73
1011.295	1859.36
1011.588	1841.51
1011.881	1836.99
1012.173	1783.2
1012.466	1807.38
1012.759	1785.01
1013.052	1792.47
1013.344	1780.49
1013.637	1779.13
1013.93	1765.8
1014.222	1778.46
1014.514	1724.67
1014.807	1742.52
1015.099	1701.85
1015.391	1715.18
1015.683	1715.86
1015.976	1665.92
1016.268	1698.46
1016.56	1690.1
1016.851	1657.78
1017.143	1660.72
1017.435	1622.75
1017.727	1639.93
1018.018	1610.78
1018.31	1610.32
1018.602	1589.53
1018.893	1592.25
1019.185	1584.34
1019.476	1594.05
1019.767	1576.43
1020.058	1539.59
1020.35	1522.42
1020.641	1509.99
1020.932	1524.9
1021.223	1526.71
1021.514	1493.27
1021.804	1471.8
1022.095	1486.26
1022.386	1465.7
1022.677	1470.44
1022.967	1432.48
1023.258	1432.93
1023.548	1429.99
1023.839	1425.7
1024.129	1389.77
1024.419	1410.56
1024.709	1401.97
1025	1342.31
1025.29	1379.6
1025.58	1360.84
1025.87	1364.68
1026.16	1342.99
1026.449	1334.85
1026.739	1316.1
1027.029	1313.16
1027.319	1303.89
1027.608	1309.77
1027.898	1279.26
1028.187	1296.66
1028.477	1281.75
1028.766	1299.6
1029.055	1248.98
1029.344	1235.42
1029.634	1243.78
1029.923	1200.84
1030.212	1221.86
1030.501	1215.31
1030.79	1179.83
1031.078	1197.68
1031.367	1192.03
1031.656	1173.27
1031.945	1168.08
1032.233	1172.82
1032.522	1144.57
1032.81	1112.71
1033.099	1126.72
1033.387	1155.87
1033.675	1126.72
1033.963	1129.21
1034.251	1112.94
1034.54	1102.54
1034.828	1106.16
1035.116	1079.94
1035.403	1072.03
1035.691	1088.3
1035.979	1065.71
1036.267	1063.9
1036.554	1039.72
1036.842	1044.24
1037.129	1032.26
1037.417	1052.15
1037.704	1029.55
1037.992	1014.63
1038.279	1007.4
1038.566	1011.47
1038.853	1011.47
1039.14	1011.47
