Data from foil_FLMS001491_003.txt Node
Date: Tue Feb 07 11:25:16 GMT 2017
User: dcchb
Spectrometer: FLMS00149
Trigger mode: 0
Integration Time (sec): 2.000000E-2
Scans to average: 10
Electric dark correction enabled: true
Nonlinearity correction enabled: false
Boxcar width: 0
XAxis mode: Wavelengths
Number of Pixels in Spectrum: 2048
>>>>>Begin Spectral Data<<<<<
341.393	-21.68
341.776	-21.68
342.16	-21.68
342.543	-66.88
342.927	-66.42
343.31	-79.08
343.693	-80.66
344.077	-56.71
344.46	-57.39
344.843	-40.21
345.226	-49.7
345.61	-31.85
345.993	-20.32
346.376	-4.05
346.759	18.54
347.142	33.69
347.525	30.07
347.908	69.62
348.291	86.34
348.674	92.22
349.057	89.5
349.44	123.85
349.823	138.32
350.206	179.9
350.588	291.31
350.971	301.7
351.354	329.5
351.737	313
352.119	328.14
352.502	355.26
352.884	356.84
353.267	371.53
353.65	387.8
354.032	414.92
354.414	374.92
354.797	388.93
355.179	439.78
355.562	422.15
355.944	432.09
356.326	439.55
356.709	430.29
357.091	432.55
357.473	434.58
357.855	466.67
358.238	457.18
358.62	451.75
359.002	455.6
359.384	455.6
359.766	477.52
360.148	458.53
360.53	470.96
360.912	447.23
361.294	474.35
361.676	445.88
362.057	474.35
362.439	452.88
362.821	472.32
363.203	444.3
363.584	459.44
363.966	482.26
364.348	473.67
364.729	468.25
365.111	469.38
365.493	475.71
365.874	484.75
366.256	469.61
366.637	478.65
367.019	496.5
367.4	483.17
367.781	488.14
368.163	496.5
368.544	484.97
368.925	506.44
369.306	501.47
369.688	505.09
370.069	492.2
370.45	521.36
370.831	540.11
371.212	508.48
371.593	532.43
371.974	529.72
372.355	535.37
372.736	507.35
373.117	521.58
373.498	517.51
373.879	551.86
374.26	519.32
374.641	519.77
375.021	550.51
375.402	564.29
375.783	592.77
376.163	638.42
376.544	618.98
376.925	597.74
377.305	589.38
377.686	608.13
378.066	612.43
378.447	594.35
378.827	622.14
379.208	601.58
379.588	646.55
379.968	636.38
380.349	636.61
380.729	642.71
381.109	675.7
381.489	662.82
381.87	672.54
382.25	674.8
382.63	696.27
383.01	692.65
383.39	698.98
383.77	711.86
384.15	716.83
384.53	729.49
384.91	704.85
385.29	725.64
385.67	749.37
386.049	777.62
386.429	748.92
386.809	774.46
387.189	788.02
387.568	797.06
387.948	812.2
388.328	808.13
388.707	823.95
389.087	854.23
389.466	855.81
389.846	855.81
390.225	864.85
390.605	865.3
390.984	864.85
391.363	898.07
391.743	911.18
392.122	908.46
392.501	926.09
392.881	963.6
393.26	941.46
393.639	931.06
394.018	976.49
394.397	987.78
394.776	1022.36
395.155	997.5
395.534	1014
395.913	998.41
396.292	1025.07
396.671	1058.07
397.05	1039.53
397.429	1069.14
397.808	1069.82
398.186	1077.95
398.565	1105.07
398.944	1076.37
399.323	1126.09
399.701	1096.93
400.08	1145.29
400.458	1171.51
400.837	1157.72
401.215	1185.29
401.594	1220.55
401.972	1220.55
402.351	1230.26
402.729	1252.41
403.107	1248.57
403.486	1248.34
403.864	1268
404.242	1279.75
404.62	1304.16
404.999	1335.12
405.377	1305.97
405.755	1364.05
406.133	1413.99
406.511	1416.7
406.889	1434.55
407.267	1446.76
407.645	1462.57
408.023	1494.89
408.401	1509.58
408.779	1498.28
409.156	1551.16
409.534	1560.65
409.912	1571.5
410.29	1602.91
410.667	1646.07
411.045	1648.33
411.422	1665.73
411.8	1677.03
412.178	1700.31
412.555	1738.5
412.933	1731.95
413.31	1777.14
413.687	1830.7
414.065	1848.55
414.442	1831.83
414.819	1866.86
415.197	1884.48
415.574	1913.64
415.951	1967.87
416.328	1932.17
416.705	1946.4
417.082	1983.46
417.46	2012.16
417.837	2034.08
418.214	2078.83
418.591	2070.47
418.967	2092.39
419.344	2097.36
419.721	2166.51
420.098	2158.15
420.475	2180.97
420.852	2238.37
421.228	2209.22
421.605	2251.48
421.982	2278.15
422.358	2274.53
422.735	2331.93
423.111	2351.36
423.488	2379.61
423.864	2418.26
424.241	2407.63
424.617	2444.7
424.994	2482.21
425.37	2485.82
425.746	2502.77
426.123	2599.49
426.499	2572.83
426.875	2641.53
427.251	2683.11
427.627	2702.54
428.003	2726.27
428.379	2739.38
428.756	2792.94
429.132	2832.26
429.507	2887.85
429.883	2899.15
430.259	2993.16
430.635	2988.41
431.011	3045.13
431.387	3091.68
431.763	3118.12
432.138	3170.78
432.514	3226.6
432.89	3197.44
433.265	3279.93
433.641	3357.44
434.016	3362.64
434.392	3410.55
434.767	3444.44
435.143	3524.67
435.518	3515.18
435.894	3537.32
436.269	3603.99
436.644	3651.44
437.02	3684.21
437.395	3718.79
437.77	3785.23
438.145	3840.59
438.52	3857.77
438.895	3927.59
439.271	3865.9
439.646	3951.32
440.021	4008.27
440.395	4067.48
440.77	3974.15
441.145	4085.78
441.52	4206.46
441.895	4171.66
442.27	4227.7
442.645	4221.15
443.019	4278.77
443.394	4300.92
443.769	4317.64
444.143	4326.68
444.518	4402.16
444.892	4356.51
445.267	4438.99
445.641	4503.62
446.016	4526.67
446.39	4566
446.764	4558.09
447.139	4550.18
447.513	4647.8
447.887	4678.08
448.262	4683.28
448.636	4712.43
449.01	4824.29
449.384	4853.67
449.758	4874.01
450.132	4947.91
450.506	4961.92
450.88	4963.05
451.254	4977.28
451.628	5119.65
452.002	5188.13
452.376	5186.54
452.75	5205.53
453.123	5265.64
453.497	5356.71
453.871	5368.01
454.244	5496.82
454.618	5530.04
454.992	5620.66
455.365	5577.49
455.739	5803.93
456.112	5801.44
456.486	5879.63
456.859	5894.32
457.232	6002.57
457.606	5968.9
457.979	6138.16
458.352	6304.48
458.725	6237.59
459.099	6334.99
459.472	6452.05
459.845	6425.38
460.218	6564.14
460.591	6642.33
460.964	6626.05
461.337	6796.22
461.71	6880.29
462.083	7000.06
462.456	6996.89
462.829	7054.74
463.201	7196.89
463.574	7192.59
463.947	7373.15
464.32	7439.14
464.692	7531.57
465.065	7575.63
465.438	7689.08
465.81	7803.2
466.183	7809.98
466.555	8061.5
466.928	8091.55
467.3	8050.42
467.672	8237.54
468.045	8424.65
468.417	8370.64
468.789	8499.9
469.161	8554.14
469.534	8803.4
469.906	8919.55
470.278	9024.41
470.65	9105.09
471.022	9240.68
471.394	9512.08
471.766	9525.41
472.138	9653.09
472.51	9850.38
472.882	9976.02
473.253	10084.04
473.625	10294.66
473.997	10460.08
474.369	10519.96
474.74	10616.91
475.112	10864.14
475.484	10981.19
475.855	11140.96
476.227	11293.95
476.598	11586.15
476.97	11702.76
477.341	11883.54
477.713	12104.1
478.084	12218
478.455	12542.06
478.827	12627.93
479.198	13034.25
479.569	12992.89
479.94	13333.22
480.311	13435.59
480.682	13796.26
481.053	14040.1
481.424	14255.46
481.795	14387.66
482.166	14718.5
482.537	14806.4
482.908	15164.59
483.279	15363.9
483.65	15593.28
484.021	15908.75
484.391	16026.03
484.762	16202.98
485.133	16413.37
485.503	16636.86
485.874	16990.98
486.244	17181.26
486.615	17460.12
486.985	17603.85
487.356	18021.46
487.726	18141.91
488.097	18532.41
488.467	18516.36
488.837	18885.39
489.207	19154.09
489.578	19393.18
489.948	19636.56
490.318	19860.51
490.688	19874.97
491.058	20167.39
491.428	20508.63
491.798	20655.06
492.168	21100.93
492.538	21199.23
492.908	21445.1
493.278	21657.75
493.648	21791.53
494.017	22091.64
494.387	22223.84
494.757	22342.48
495.126	22662.7
495.496	22703.37
495.866	22977.04
496.235	23205.73
496.605	23445.05
496.974	23470.81
497.344	23692.5
497.713	23826.51
498.082	23976.11
498.452	24264.91
498.821	24368.86
499.19	24496.09
499.559	24798.68
499.928	24863.32
500.298	25108.96
500.667	25313.02
501.036	25285.45
501.405	25544.43
501.774	25544.2
502.143	25824.42
502.512	26019.22
502.88	26222.83
503.249	26127.69
503.618	26413.56
503.987	26605.64
504.356	26870.27
504.724	26998.4
505.093	27091.73
505.462	27190.03
505.83	27440.42
506.199	27622.56
506.567	28030.92
506.936	27998.6
507.304	28399.72
507.672	28443.79
508.041	28772.82
508.409	28765.59
508.777	29060.27
509.145	29124.9
509.514	29206.48
509.882	29471.78
510.25	29647.6
510.618	29817.54
510.986	29879.91
511.354	30284.64
511.722	30501.36
512.09	30748.81
512.458	30791.29
512.826	31188.57
513.193	31215.01
513.561	31343.37
513.929	31681.22
514.297	31872.62
514.664	32180.86
515.032	32267.87
515.4	32520.29
515.767	32683
516.135	32986.94
516.502	32688.42
516.869	33391
517.237	33547.83
517.604	33496.99
517.972	33826.92
518.339	34292.45
518.706	34298.55
519.073	34399.34
519.44	34676.62
519.808	35113.44
520.175	35034.57
520.542	35664.39
520.909	35613.99
521.276	35783.48
521.643	36229.12
522.009	36392.96
522.376	36745.04
522.743	36857.58
523.11	37239.94
523.477	37778.68
523.843	37760.6
524.21	38208.05
524.577	38457.08
524.943	38658.43
525.31	38920.8
525.676	39120.57
526.043	39433.55
526.409	39700.21
526.776	40133.65
527.142	40203.7
527.508	40375.22
527.874	40671.71
528.241	40834.19
528.607	41140.18
528.973	41298.82
529.339	41314.86
529.705	41756.2
530.071	42159.36
530.437	42252.46
530.803	42467.6
531.169	42626.92
531.535	42800.02
531.901	43041.82
532.267	43188.71
532.632	43462.6
532.998	43592.54
533.364	43928.12
533.73	43957.05
534.095	44407.66
534.461	44350.94
534.826	44699.4
535.192	44829.34
535.557	45117.92
535.923	45192.05
536.288	45326.05
536.653	45539.16
537.019	45535.54
537.384	45672.94
537.749	45825.02
538.114	45844.46
538.479	45960.84
538.845	46177.56
539.21	46196.31
539.575	46454.84
539.94	46575.06
540.305	46873.58
540.67	46817.99
541.034	47081.71
541.399	47236.51
541.764	47348.6
542.129	47449.61
542.494	47488.03
542.858	47551.76
543.223	47885.99
543.587	48113.78
543.952	48040.56
544.316	48169.82
544.681	48216.83
545.045	48493.43
545.41	48733.65
545.774	48743.14
546.138	48803.7
546.503	48893.87
546.867	48905.62
547.231	49366.85
547.595	49325.95
547.959	49488.43
548.324	49632.61
548.688	49703.57
549.052	49833.05
549.416	49923.45
549.779	50068.53
550.143	50206.83
550.507	50492.25
550.871	50556.42
551.235	50490.44
551.599	50810.88
551.962	50847.94
552.326	50966.13
552.689	51217.42
553.053	51081.38
553.417	51134.49
553.78	51642.5
554.143	51487.47
554.507	51710.74
554.87	51828.26
555.234	52108.7
555.597	51957.29
555.96	52243.61
556.323	52290.39
556.686	52432.08
557.05	52677.5
557.413	52729.02
557.776	52760.66
558.139	53032.52
558.502	53057.6
558.865	53057.15
559.228	53355.45
559.59	53467.31
559.953	53591.6
560.316	53776.68
560.679	53820.07
561.041	54071.81
561.404	54247.18
561.767	54366.04
562.129	54281.98
562.492	54678.12
562.854	54721.06
563.217	54691.91
563.579	54778.23
563.941	55046.02
564.304	55090.32
564.666	55312.01
565.028	55276.07
565.39	55434.49
565.753	55643.52
566.115	55624.31
566.477	55822.5
566.839	55855.49
567.201	56068.6
567.563	56103.85
567.925	56232.66
568.287	56256.84
568.648	56390.85
569.01	56565.76
569.372	56700.22
569.734	56605.76
570.095	56812.76
570.457	56982.47
570.819	56944.51
571.18	56950.61
571.542	57087.33
571.903	57062.69
572.265	57161.45
572.626	57265.18
572.987	57243.48
573.349	57445.74
573.71	57532.06
574.071	57642.34
574.432	57716.01
574.794	57844.59
575.155	57945.38
575.516	57886.85
575.877	57982.22
576.238	57967.76
576.599	58069.67
576.96	58153.74
577.32	58140.63
577.681	58301.76
578.042	58221.31
578.403	58252.95
578.763	58317.58
579.124	58340.85
579.485	58462.43
579.845	58547.18
580.206	58461.75
580.566	58392.15
580.927	58411.81
581.287	58611.58
581.648	58483.9
582.008	58579.26
582.368	58529.32
582.728	58574.29
583.089	58550.34
583.449	58559.15
583.809	58620.39
584.169	58615.87
584.529	58571.58
584.889	58771.35
585.249	58625.82
585.609	58661.07
585.969	58705.36
586.329	58642.54
586.688	58730.9
587.048	58685.48
587.408	58581.07
587.768	58687.06
588.127	58619.49
588.487	58572.94
588.846	58798.02
589.206	58617.23
589.565	58645.48
589.925	58732.03
590.284	58635.99
590.643	58664.01
591.003	58799.15
591.362	58824.46
591.721	58704.23
592.08	58760.73
592.44	58879.82
592.799	58797.79
593.158	58740.84
593.517	58694.29
593.876	58779.71
594.235	58730
594.593	58832.82
594.952	58837.11
595.311	58748.98
595.67	58839.82
596.029	58943.32
596.387	58897.67
596.746	58909.65
597.104	58728.19
597.463	58843.66
597.822	58921.63
598.18	58826.04
598.538	58795.08
598.897	58929.09
599.255	58754.85
599.613	59119.59
599.972	58954.17
600.33	58967.05
600.688	58902.65
601.046	58976.32
601.404	59020.38
601.762	59042.76
602.12	59102.41
602.478	59167.27
602.836	59154.84
603.194	59066.71
603.552	59089.53
603.91	58983.1
604.268	59181.06
604.625	59099.93
604.983	59202.75
605.341	59042.53
605.698	59221.06
606.056	59265.8
606.413	59231.9
606.771	59322.3
607.128	59304.67
607.485	59227.61
607.843	59188.51
608.2	59285.69
608.557	59357.78
608.914	59223.54
609.272	59401.16
609.629	59408.85
609.986	59490.65
610.343	59394.38
610.7	59592.35
611.057	59604.1
611.414	59567.04
611.771	59555.74
612.127	59658.33
612.484	59645.68
612.841	59650.2
613.198	59608.39
613.554	59657.43
613.911	59728.16
614.267	59732.45
614.624	59746.92
614.98	59811.55
615.337	59822.62
615.693	59854.94
616.05	59840.02
616.406	60023.97
616.762	59842.51
617.118	59869.17
617.475	59855.84
617.831	59976.97
618.187	59883.41
618.543	59886.12
618.899	60043.86
619.255	60006.35
619.611	59920.47
619.967	60010.41
620.323	60049.28
620.678	59960.25
621.034	59932.45
621.39	59873.02
621.746	59853.36
622.101	60137.19
622.457	59984.2
622.812	59913.02
623.168	59967.7
623.523	60012.67
623.879	59983.3
624.234	59871.89
624.589	59941.49
624.945	59927.93
625.3	59983.3
625.655	59949.17
626.01	59978.55
626.365	60017.19
626.72	59978.32
627.075	59910.98
627.43	59941.26
627.785	59820.14
628.14	59922.28
628.495	59904.2
628.85	59867.82
629.205	59839.57
629.559	59919.79
629.914	59798.44
630.269	59779.91
630.623	59675.06
630.978	59648.39
631.332	59797.99
631.687	59809.51
632.041	59653.81
632.396	59655.85
632.75	59596.19
633.104	59635.06
633.459	59568.39
633.813	59500.6
634.167	59517.77
634.521	59497.66
634.875	59493.59
635.229	59388.06
635.583	59272.35
635.937	59227.16
636.291	59223.09
636.645	59209.76
636.999	59191
637.352	59238.23
637.706	59052.47
638.06	59128.18
638.413	59001.85
638.767	58961.85
639.121	58982.64
639.474	58869.43
639.828	58834.4
640.181	58880.73
640.534	58890.44
640.888	58779.03
641.241	58751.46
641.594	58765.93
641.947	58775.42
642.301	58708.07
642.654	58652.03
643.007	58668.53
643.36	58624.91
643.713	58605.48
644.066	58715.98
644.419	58408.42
644.771	58126.17
645.124	57860.64
645.477	57855.44
645.83	57711.27
646.182	57647.54
646.535	57642.79
646.888	57779.96
647.24	57633.08
647.593	57892.5
647.945	57723.69
648.298	57593.98
648.65	57598.5
649.002	57511.5
649.355	57513.08
649.707	57389.01
650.059	57410.26
650.411	57598.73
650.763	57702
651.115	57990.58
651.467	57860.41
651.819	57875.33
652.171	57826.97
652.523	57704.26
652.875	57750.36
653.227	57598.95
653.578	57812.96
653.93	57634.2
654.282	57550.59
654.633	57460.88
654.985	57609.57
655.337	57539.29
655.688	57500.42
656.039	57567.77
656.391	57331.84
656.742	57369.81
657.094	57403.02
657.445	57557.82
657.796	57319.86
658.147	57290.71
658.498	57311.05
658.849	57397.6
659.2	57264.27
659.551	57265.85
659.902	57261.11
660.253	57228.34
660.604	57219.75
660.955	57090.04
661.306	57216.14
661.656	57190.6
662.007	57158.96
662.358	57103.37
662.708	57048.01
663.059	57062.69
663.409	56816.15
663.76	57085.52
664.11	57034.22
664.461	57107.44
664.811	57092.3
665.161	56972.75
665.511	56913.77
665.862	56935.01
666.212	56968.69
666.562	56960.55
666.912	56942.25
667.262	56888.24
667.612	56813.66
667.962	56812.98
668.312	56736.38
668.662	56842.36
669.011	56774.34
669.361	56709.48
669.711	56719.88
670.06	56699.54
670.41	56597.4
670.76	56534.35
671.109	56619.54
671.459	56626.1
671.808	56540.67
672.157	56634.01
672.507	56392.43
672.856	56451.19
673.205	56500.68
673.554	56479.66
673.904	56464.74
674.253	56549.49
674.602	56401.47
674.951	56033.12
675.3	55883.06
675.649	56386.1
675.998	56210.74
676.346	56335.26
676.695	56333
677.044	56110.63
677.393	56149.72
677.741	56119.22
678.09	56065.66
678.438	55960.12
678.787	56005.55
679.135	55980.46
679.484	55816.63
679.832	55934.14
680.181	55762.84
680.529	55816.63
680.877	55681.94
681.225	55660.7
681.573	55831.54
681.922	55606.46
682.27	55420.25
682.618	55643.97
682.966	55423.19
683.314	55501.61
683.661	55480.82
684.009	55303.87
684.357	55235.62
684.705	55208.05
685.053	55192.69
685.4	55190.65
685.748	55026.82
686.095	55036.76
686.443	54907.04
686.79	54835.63
687.138	54888.51
687.485	54837.22
687.832	54798.57
688.18	54730.1
688.527	54616.21
688.874	54581.4
689.221	54453.5
689.568	54446.27
689.915	54280.85
690.262	54299.38
690.609	54287.4
690.956	54096.44
691.303	54092.38
691.65	53999.72
691.997	53884.7
692.344	53802.89
692.69	53686.51
693.037	53662.78
693.383	53436.12
693.73	53545.95
694.077	53350.02
694.423	53230.48
694.769	53120.2
695.116	53092.4
695.462	53044.72
695.808	52938.74
696.155	52912.75
696.501	52755.24
696.847	52753.66
697.193	52535.81
697.539	52688.57
697.885	52451.29
698.231	52346.21
698.577	52302.14
698.923	52271.41
699.269	52157.74
699.614	51806.11
699.96	51911.42
700.306	51876.84
700.651	51713.68
700.997	51600.92
701.342	51494.48
701.688	51555.95
702.033	51466.46
702.379	51439.34
702.724	51333.58
703.069	51363.86
703.415	50874.16
703.76	50911.22
704.105	50864.21
704.45	50723.65
704.795	50648.85
705.14	50457.9
705.485	50412.47
705.83	50293.83
706.175	50220.39
706.52	50239.82
706.865	50080.28
707.209	50119.83
707.554	49949.44
707.899	49946.27
708.243	49712.61
708.588	49668.54
708.932	49461.09
709.277	49381.09
709.621	49485.27
709.966	49154.65
710.31	49379.28
710.654	49069.23
710.998	48961.44
711.342	49010.7
711.687	48821.78
712.031	48610.49
712.375	48490.49
712.719	48636.25
713.063	48517.16
713.407	48634.67
713.75	48277.61
714.094	48290.04
714.438	48080.11
714.782	48046.21
715.125	47892.99
715.469	48029.49
715.812	47749.04
716.156	47600.12
716.499	47542.72
716.843	47535.94
717.186	47242.61
717.53	47274.48
717.873	47331.42
718.216	47246.23
718.559	46941.15
718.902	46797.88
719.246	46935.28
719.589	46725.57
719.932	46530.99
720.275	46535.74
720.617	46518.56
720.96	46508.4
721.303	46420.49
721.646	46342.75
721.989	46171.23
722.331	46363.31
722.674	46098.24
723.016	46062.76
723.359	46068.86
723.701	46124.23
724.044	45594.52
724.386	45389.1
724.729	45561.98
725.071	45394.98
725.413	45385.94
725.755	45467.07
726.097	45202.44
726.439	45063.69
726.782	45153.86
727.124	45342.32
727.465	44951.15
727.807	44910.25
728.149	44870.92
728.491	44809.91
728.833	44875.9
729.175	44540.09
729.516	44711.38
729.858	44555.23
730.199	44534.21
730.541	44368.34
730.882	44304.39
731.224	44342.35
731.565	44114.79
731.906	44144.16
732.248	43955.69
732.589	43725.87
732.93	43587.34
733.271	43680
733.612	43650.62
733.953	43614.91
734.294	43451.75
734.635	43424.86
734.976	43471.64
735.317	43154.36
735.658	43102.38
735.999	43141.03
736.339	43011.09
736.68	43039.56
737.021	42992.1
737.361	42858.1
737.702	42921.6
738.042	42755.27
738.383	42685.22
738.723	42675.5
739.063	42626.01
739.404	42684.54
739.744	42511.44
740.084	42329.3
740.424	42314.61
740.764	42210.2
741.104	42402.97
741.444	42066.48
741.784	41976.54
742.124	42109.64
742.464	41950.32
742.804	41793.49
743.143	41747.62
743.483	41861.96
743.823	41492.48
744.162	41707.17
744.502	41661.29
744.841	41507.62
745.181	41594.63
745.52	41292.71
745.86	41331.81
746.199	41154.64
746.538	40890.01
746.877	41127.52
747.216	41044.58
747.556	40894.31
747.895	40834.19
748.234	40717.59
748.573	40614.31
748.911	40511.27
749.25	40488.67
749.589	40347.65
749.928	40276.24
750.267	40257.71
750.605	40048
750.944	39948.34
751.283	39808.01
751.621	39954.22
751.96	39767.33
752.298	39595.81
752.636	39642.14
752.975	39438.98
753.313	39404.85
753.651	39653.66
753.989	39323.5
754.327	39327.12
754.666	38977.52
755.004	38926.9
755.342	38940.23
755.679	38809.84
756.017	38665.21
756.355	38797.19
756.693	38440.59
757.031	38493.69
757.368	38369.4
757.706	38221.16
758.044	38077.43
758.381	38067.26
758.719	37963.99
759.056	37963.76
759.394	37801.96
759.731	37478.35
760.068	37435.41
760.405	37341.41
760.743	37203.56
761.08	37442.65
761.417	36927.86
761.754	36984.58
762.091	36835.88
762.428	36601.09
762.765	36526.29
763.102	36660.97
763.438	36312.51
763.775	36191.6
764.112	36206.29
764.449	36110.25
764.785	35929.92
765.122	35602.69
765.458	35460.1
765.795	35494.22
766.131	35593.43
766.467	35318.41
766.804	35188.47
767.14	34952.77
767.476	35039.77
767.812	34989.15
768.148	34787.57
768.485	34486.56
768.821	34354.59
769.157	34301.49
769.492	34348.49
769.828	34194.6
770.164	33977.2
770.5	33860.59
770.836	33953.92
771.171	33700.37
771.507	33528.4
771.842	33356.43
772.178	33303.77
772.513	33212.25
772.849	33124.57
773.184	32972.48
773.519	33023.33
773.855	32742.66
774.19	32625.14
774.525	32346.28
774.86	32434.42
775.195	32332.05
775.53	32086.85
775.865	31917.14
776.2	31680.31
776.535	31421.56
776.87	31495.68
777.205	31354.9
777.539	31099.31
777.874	31327.1
778.209	31064.06
778.543	30851.18
778.878	30692.77
779.212	30656.16
779.547	30489.61
779.881	30516.73
780.215	30309.05
780.55	30249.84
780.884	30051.43
781.218	29914.93
781.552	29879
781.886	29674.49
782.22	29652.34
782.554	29516.07
782.888	29249.19
783.222	29168.06
783.556	28976.65
783.889	28845.58
784.223	28702.54
784.557	28728.52
784.89	28717.68
785.224	28523.33
785.557	28439.04
785.891	28324.47
786.224	28102.78
786.558	28236.56
786.891	28062.78
787.224	27986.62
787.557	27856.23
787.891	27945.95
788.224	27722.22
788.557	27623.92
788.89	27554.54
789.223	27413.3
789.556	27153.42
789.888	27110.04
790.221	27085.18
790.554	26852.64
790.887	26799.31
791.219	26762.47
791.552	26777.84
791.884	26608.35
792.217	26483.16
792.549	26338.76
792.882	26270.51
793.214	26099.89
793.546	25969.95
793.879	25896.96
794.211	25746.91
794.543	25805.66
794.875	25745.33
795.207	25738.09
795.539	25500.13
795.871	25584.2
796.203	25289.52
796.535	25123.42
796.867	24954.16
797.198	24901.96
797.53	25021.96
797.862	24802.98
798.193	24867.16
798.525	24560.95
798.856	24609.54
799.188	24518.24
799.519	24497.22
799.85	24270.11
800.182	24275.53
800.513	24448.86
800.844	24122.09
801.175	24204.58
801.506	24133.84
801.837	23916.22
802.168	23974.52
802.499	23982.66
802.83	23793.96
803.161	23662.67
803.491	23663.57
803.822	23519.85
804.153	23408.44
804.483	23272.17
804.814	23204.38
805.145	23133.87
805.475	23063.59
805.805	22996.7
806.136	22940.2
806.466	22901.33
806.796	22817.72
807.126	22542.92
807.457	22551.51
807.787	22525.75
808.117	22458.63
808.447	22440.78
808.777	22359.43
809.107	22168.92
809.436	22229.26
809.766	22267.9
810.096	22131.86
810.426	21919.66
810.755	21973.45
811.085	21862.94
811.414	21776.16
811.744	21552.67
812.073	21580.69
812.403	21646.45
812.732	21463.4
813.061	21543.4
813.39	21409.62
813.719	21255.73
814.049	21533.23
814.378	21282.39
814.707	21102.51
815.036	21189.29
815.365	21137.54
815.693	20881.5
816.022	20953.81
816.351	20866.13
816.68	20778.9
817.008	20811.22
817.337	20559.7
817.665	20575.52
817.994	20558.57
818.322	20580.04
818.651	20397.22
818.979	20306.15
819.307	20478.12
819.636	20347.28
819.964	20167.17
820.292	20355.19
820.62	20208.97
820.948	20108.86
821.276	20291.91
821.604	20172.59
821.932	20230.67
822.259	20103.21
822.587	20062.76
822.915	20097.34
823.243	20109.09
823.57	20065.48
823.898	20073.38
824.225	19963.78
824.553	19923.33
824.88	20007.4
825.207	19986.61
825.535	19809.44
825.862	19923.56
826.189	19881.98
826.516	20001.75
826.843	19938.92
827.17	20019.37
827.497	20096.89
827.824	19992.03
828.151	20035.42
828.478	19884.46
828.805	20056.89
829.131	19854.86
829.458	19862.99
829.785	19701.42
830.111	19729.44
830.438	19813.5
830.764	19887.63
831.09	19948.19
831.417	19849.89
831.743	19878.36
832.069	19803.11
832.395	19743.22
832.722	19807.63
833.048	19674.53
833.374	19740.06
833.7	19686.73
834.026	19699.61
834.351	19812.6
834.677	19792.94
835.003	19747.74
835.329	19759.49
835.654	19687.41
835.98	19633.4
836.306	19517.69
836.631	19546.17
836.956	19513.17
837.282	19636.11
837.607	19454.87
837.932	19495.32
838.258	19440.63
838.583	19439.05
838.908	19324.25
839.233	19304.59
839.558	19324.93
839.883	19151.15
840.208	19057.59
840.533	19132.84
840.858	19115.9
841.182	19083.81
841.507	19025.5
841.832	19013.98
842.156	18866.86
842.481	18973.53
842.805	18775.11
843.13	18770.82
843.454	18777.6
843.778	18752.97
844.103	18724.72
844.427	18609.02
844.751	18702.12
845.075	18639.98
845.399	18511.17
845.723	18536.25
846.047	18498.06
846.371	18342.81
846.695	18310.95
847.019	18227.56
847.343	18149.59
847.666	17974.91
847.99	17918.87
848.313	17868.24
848.637	17840
848.96	17769.94
849.284	17838.42
849.607	17599.33
849.931	17570.17
850.254	17446.79
850.577	17408.82
850.9	17197.98
851.223	17253.57
851.546	17244.53
851.869	17075.27
852.192	17048.61
852.515	16995.73
852.838	16930.87
853.161	16976.06
853.483	16864.2
853.806	16817.2
854.129	16767.93
854.451	16696.07
854.774	16586.7
855.096	16462.63
855.419	16572.23
855.741	16457.89
856.063	16315.07
856.385	16294.05
856.708	16292.02
857.03	16198.68
857.352	16220.6
857.674	16153.71
857.996	15989.2
858.318	15928.18
858.64	15925.02
858.961	15913.72
859.283	15847.73
859.605	15717.57
859.926	15814.29
860.248	15809.77
860.57	15773.84
860.891	15764.57
861.212	15661.52
861.534	15789.2
861.855	15682.99
862.176	15626.72
862.498	15685.25
862.819	15643.22
863.14	15576.55
863.461	15553.5
863.782	15544.69
864.103	15412.04
864.424	15444.58
864.745	15344.47
865.065	15275.09
865.386	15228.77
865.707	15232.38
866.027	15391.93
866.348	15253.62
866.668	15279.39
866.989	15154.64
867.309	15021.77
867.63	15099.73
867.95	15016.79
868.27	14996.46
868.59	15147.86
868.91	14984.48
869.23	15010.47
869.55	14919.62
869.87	14978.38
870.19	15019.05
870.51	14964.59
870.83	14968.43
871.15	14910.13
871.469	14881.2
871.789	14956.68
872.109	14789.91
872.428	14716.01
872.748	14813.86
873.067	14773.41
873.386	14791.72
873.706	14726.63
874.025	14686.86
874.344	14604.6
874.663	14646.41
874.982	14652.06
875.301	14700.87
875.62	14663.58
875.939	14640.08
876.258	14642.12
876.577	14593.75
876.896	14610.7
877.214	14498.39
877.533	14497.26
877.852	14502.46
878.17	14486.19
878.489	14433.53
878.807	14437.37
879.125	14284.61
879.444	14435.34
879.762	14230.37
880.08	14271.28
880.398	14201.67
880.716	14266.53
881.034	14227.44
881.352	14260.2
881.67	14181.34
881.988	14193.77
882.306	14101.56
882.624	14138.63
882.941	14029.48
883.259	13948.8
883.577	13969.82
883.894	13988.12
884.212	14036.93
884.529	13925.07
884.846	13935.01
885.164	13938.4
885.481	13849.82
885.798	13873.77
886.115	13829.93
886.432	13706.09
886.75	13697.51
887.067	13749.26
887.383	13653.21
887.7	13742.25
888.017	13634.23
888.334	13623.61
888.651	13506.55
888.967	13483.5
889.284	13392.43
889.6	13347.01
889.917	13328.03
890.233	13393.79
890.55	13302.26
890.866	13277.41
891.182	13293.45
891.498	13236.95
891.815	13133.68
892.131	13152.89
892.447	13023.4
892.763	13028.37
893.079	13030.41
893.395	13006.45
893.71	12961.26
894.026	12927.58
894.342	12846
894.657	12784.54
894.973	12795.16
895.289	12823.18
895.604	12811.43
895.92	12644.65
896.235	12594.94
896.55	12624.54
896.865	12488.05
897.181	12509.74
897.496	12540.93
897.811	12402.17
898.126	12408.95
898.441	12317.43
898.756	12350.2
899.071	12272.01
899.386	12293.02
899.7	12242.18
900.015	12147.72
900.33	12123.09
900.644	11979.81
900.959	12109.98
901.273	12060.04
901.588	11991.79
901.902	11971.45
902.216	11945.46
902.531	11843.77
902.845	11856.2
903.159	11771.23
903.473	11778.24
903.787	11653.94
904.101	11618.69
904.415	11621.63
904.729	11539.82
905.042	11492.82
905.356	11431.58
905.67	11398.36
905.984	11377.12
906.297	11411.92
906.611	11307.97
906.924	11259.61
907.237	11102.77
907.551	11079.04
907.864	11118.37
908.177	11078.59
908.491	10933.96
908.804	11020.29
909.117	10905.49
909.43	10882.44
909.743	10866.4
910.056	10872.5
910.368	10736.68
910.681	10780.75
910.994	10658.26
911.307	10664.14
911.619	10588.66
911.932	10572.84
912.244	10535.33
912.557	10560.41
912.869	10427.99
913.181	10412.85
913.494	10437.03
913.806	10378.27
914.118	10323.58
914.43	10262.34
914.742	10279.52
915.054	10143.02
915.366	10092.18
915.678	10058.73
915.99	10027.1
916.302	9969.7
916.613	9878.17
916.925	9971.5
917.236	9897.16
917.548	9883.6
917.859	9823.26
918.171	9687.44
918.482	9731.96
918.794	9634.34
919.105	9582.81
919.416	9486.32
919.727	9585.75
920.038	9545.75
920.349	9448.13
920.66	9401.12
920.971	9443.83
921.282	9322.71
921.593	9275.25
921.903	9284.74
922.214	9221.01
922.525	9230.05
922.835	9226.44
923.146	9136.72
923.456	9121.58
923.767	9099.21
924.077	9050.62
924.387	9036.84
924.697	8971.76
925.008	8850.63
925.318	8934.47
925.628	8835.26
925.938	8746.45
926.248	8689.96
926.558	8600.92
926.867	8645.44
927.177	8666.45
927.487	8587.36
927.796	8537.64
928.106	8466.23
928.416	8385.78
928.725	8401.38
929.034	8343.07
929.344	8355.73
929.653	8365.22
929.962	8239.35
930.271	8284.32
930.581	8193.25
930.89	8168.84
931.199	8186.01
931.508	8101.27
931.817	8152.57
932.125	8072.57
932.434	8062.85
932.743	7987.6
933.051	7955.29
933.36	7969.52
933.669	7912.12
933.977	7768.17
934.286	7816.08
934.594	7800.94
934.902	7734.73
935.21	7703.99
935.519	7693.37
935.827	7722.75
936.135	7588.52
936.443	7565.24
936.751	7487.27
937.059	7510.1
937.367	7446.6
937.674	7435.98
937.982	7383.32
938.29	7352.59
938.597	7353.72
938.905	7265.13
939.213	7249.32
939.52	7184.23
939.827	7240.95
940.135	7170.45
940.442	7160.28
940.749	7151.69
941.056	7140.17
941.363	7062.65
941.67	6998.93
941.977	6980.4
942.284	6913.05
942.591	6884.35
942.898	6863.56
943.205	6864.92
943.511	6806.84
943.818	6833.28
944.125	6779.5
944.431	6715.77
944.738	6712.15
945.044	6649.1
945.35	6637.35
945.657	6642.1
945.963	6555.77
946.269	6593.97
946.575	6582.89
946.881	6527.3
947.187	6469.67
947.493	6461.31
947.799	6419.96
948.105	6417.25
948.41	6371.15
948.716	6320.3
949.022	6270.36
949.327	6269.68
949.633	6212.73
949.938	6238.95
950.244	6221.32
950.549	6167.76
950.854	6156.46
951.16	6119.63
951.465	6056.13
951.77	6066.3
952.075	6049.12
952.38	6029.91
952.685	5981.33
952.99	5949.46
953.294	5959.41
953.599	5832.86
953.904	5882.57
954.209	5830.6
954.513	5843.48
954.818	5808.45
955.122	5790.6
955.426	5736.81
955.731	5745.17
956.035	5726.87
956.339	5723.93
956.643	5653.2
956.948	5616.82
957.252	5604.84
957.556	5612.52
957.86	5535.01
958.163	5520.55
958.467	5506.31
958.771	5497.04
959.075	5498.4
959.378	5438.29
959.682	5435.8
959.985	5383.6
960.289	5325.52
960.592	5299.54
960.896	5304.51
961.199	5281.68
961.502	5279.2
961.805	5245.07
962.108	5196.49
962.411	5175.25
962.714	5138.18
963.017	5127.11
963.32	5071.52
963.623	5081.46
963.926	5103.16
964.228	5051.41
964.531	5068.13
964.833	5038.98
965.136	4956.04
965.438	4998.53
965.741	4914.01
966.043	4902.03
966.345	4872.65
966.648	4848.93
966.95	4839.66
967.252	4770.06
967.554	4809.15
967.856	4787.01
968.158	4713.79
968.46	4742.94
968.761	4732.09
969.063	4732.32
969.365	4648.03
969.666	4683.28
969.968	4620.46
970.269	4591.53
970.571	4623.4
970.872	4578.88
971.174	4539.56
971.475	4574.13
971.776	4482.38
972.077	4501.82
972.378	4424.76
972.679	4456.39
972.98	4460.01
973.281	4382.5
973.582	4449.84
973.883	4354.02
974.183	4372.55
974.484	4355.15
974.785	4283.74
975.085	4290.07
975.386	4288.71
975.686	4249.17
975.986	4284.87
976.287	4233.35
976.587	4224.99
976.887	4165.1
977.187	4193.35
977.487	4133.46
977.787	4111.32
978.087	4113.58
978.387	4112.9
978.687	4083.97
978.987	4055.95
979.286	4034.26
979.586	4047.82
979.885	4033.81
980.185	3937.99
980.484	3988.61
980.784	3976.63
981.083	3946.13
981.382	3914.49
981.682	3871.1
981.981	3894.38
982.28	3890.08
982.579	3781.16
982.878	3834.94
983.177	3762.63
983.475	3806.24
983.774	3791.55
984.073	3727.37
984.372	3707.26
984.67	3729.18
984.969	3722.4
985.267	3682.63
985.566	3686.7
985.864	3671.56
986.162	3634.95
986.461	3586.59
986.759	3578.45
987.057	3575.74
987.355	3536.19
987.653	3498.45
987.951	3546.81
988.249	3489.64
988.547	3488.74
988.844	3499.81
989.142	3465.91
989.44	3452.13
989.737	3391.34
990.035	3339.14
990.332	3394.05
990.63	3406.25
990.927	3360.6
991.224	3356.08
991.521	3326.71
991.819	3332.36
992.116	3296.42
992.413	3300.72
992.71	3235.64
993.006	3219.82
993.303	3214.62
993.6	3185.69
993.897	3185.92
994.193	3143.66
994.49	3148.18
994.787	3131.91
995.083	3081.52
995.379	3116.54
995.676	3100.5
995.972	3046.49
996.268	3051.91
996.565	3086.94
996.861	3010.1
997.157	3055.08
997.453	3029.99
997.749	2980.05
998.044	2993.16
998.34	2942.31
998.636	2959.71
998.932	2935.53
999.227	2867.51
999.523	2883.1
999.818	2861.41
1000.114	2854.63
1000.409	2844.91
1000.704	2811.47
1001	2803.78
1001.295	2770.56
1001.59	2771.01
1001.885	2773.95
1002.18	2751.58
1002.475	2764.24
1002.77	2738.7
1003.065	2696.21
1003.359	2704.58
1003.654	2665.48
1003.949	2625.71
1004.243	2653.5
1004.538	2632.04
1004.832	2594.97
1005.127	2660.96
1005.421	2573.51
1005.715	2593.39
1006.009	2561.3
1006.304	2516.78
1006.598	2526.95
1006.892	2503.45
1007.186	2498.03
1007.48	2470.46
1007.773	2480.85
1008.067	2419.39
1008.361	2428.2
1008.655	2404.7
1008.948	2408.31
1009.242	2358.14
1009.535	2366.05
1009.829	2341.87
1010.122	2345.49
1010.415	2348.2
1010.708	2344.13
1011.001	2288.54
1011.295	2291.71
1011.588	2273.85
1011.881	2253.51
1012.173	2248.09
1012.466	2229.11
1012.759	2211.03
1013.052	2217.58
1013.344	2198.15
1013.637	2183.01
1013.93	2200.86
1014.222	2156.57
1014.514	2115.89
1014.807	2123.35
1015.099	2148.66
1015.391	2116.12
1015.683	2084.25
1015.976	2054.2
1016.268	2070.69
1016.56	2016.91
1016.851	2031.15
1017.143	2012.84
1017.435	2003.35
1017.727	1975.33
1018.018	1974.2
1018.31	1940.75
1018.602	1951.15
1018.893	1915.22
1019.185	1952.73
1019.476	1879.74
1019.767	1896.01
1020.058	1873.19
1020.35	1864.15
1020.641	1824.37
1020.932	1850.81
1021.223	1838.16
1021.514	1812.4
1021.804	1780.76
1022.095	1775.79
1022.386	1774.2
1022.677	1760.42
1022.967	1722.23
1023.258	1742.57
1023.548	1729.01
1023.839	1711.83
1024.129	1688.11
1024.419	1665.51
1024.709	1666.86
1025	1660.54
1025.29	1641.1
1025.58	1629.35
1025.87	1600.2
1026.16	1620.31
1026.449	1597.49
1026.739	1580.54
1027.029	1587.77
1027.319	1570.59
1027.608	1573.76
1027.898	1560.65
1028.187	1530.6
1028.477	1512.06
1028.766	1519.07
1029.055	1475
1029.344	1500.54
1029.634	1502.12
1029.923	1473.87
1030.212	1494.89
1030.501	1452.63
1030.79	1439.52
1031.078	1439.07
1031.367	1425.29
1031.656	1433.87
1031.945	1411.73
1032.233	1395.23
1032.522	1380.09
1032.81	1367.21
1033.099	1363.59
1033.387	1365.18
1033.675	1327.89
1033.963	1330.83
1034.251	1324.05
1034.54	1317.49
1034.828	1288.57
1035.116	1282.01
1035.403	1293.77
1035.691	1288.12
1035.979	1299.87
1036.267	1265.52
1036.554	1272.3
1036.842	1245.63
1037.129	1239.08
1037.417	1229.81
1037.704	1210.38
1037.992	1210.83
1038.279	1187.33
1038.566	1193.66
1038.853	1193.66
1039.14	1193.66
