Data from foil_FLMS001491_072.txt Node
Date: Tue Feb 07 11:36:42 GMT 2017
User: dcchb
Spectrometer: FLMS00149
Trigger mode: 0
Integration Time (sec): 2.000000E-2
Scans to average: 10
Electric dark correction enabled: true
Nonlinearity correction enabled: false
Boxcar width: 0
XAxis mode: Wavelengths
Number of Pixels in Spectrum: 2048
>>>>>Begin Spectral Data<<<<<
341.393	-22.61
341.776	-22.61
342.16	-22.61
342.543	-57.87
342.927	-51.99
343.31	-73.01
343.693	-42.27
344.077	-59.22
344.46	-43.4
344.843	-46.34
345.226	-50.63
345.61	-45.66
345.993	-14.48
346.376	-13.57
346.759	18.52
347.142	13.54
347.525	43.6
347.908	54.22
348.291	67.78
348.674	87.67
349.057	103.26
349.44	128.34
349.823	153.43
350.206	184.61
350.588	244.05
350.971	258.06
351.354	291.73
351.737	300.09
352.119	338.73
352.502	325.4
352.884	347.32
353.267	336.7
353.65	352.97
354.032	364.27
354.414	373.08
354.797	358.85
355.179	390.94
355.562	387.77
355.944	415.57
356.326	407.66
356.709	418.96
357.091	406.53
357.473	430.03
357.855	435.23
358.238	408.79
358.62	431.61
359.002	414.89
359.384	423.25
359.766	423.93
360.148	426.19
360.53	425.06
360.912	415.57
361.294	423.25
361.676	419.64
362.057	422.57
362.439	433.65
362.821	425.06
363.203	429.35
363.584	416.25
363.966	411.5
364.348	409.69
364.729	434.78
365.111	416.7
365.493	420.31
365.874	415.12
366.256	427.55
366.637	418.96
367.019	442.69
367.4	420.77
367.781	439.3
368.163	412.18
368.544	406.3
368.925	435.23
369.306	450.82
369.688	440.88
370.069	454.66
370.45	428.22
370.831	445.62
371.212	452.4
371.593	444.27
371.974	453.53
372.355	456.47
372.736	457.15
373.117	466.87
373.498	474.78
373.879	478.39
374.26	459.86
374.641	459.63
375.021	453.76
375.402	493.98
375.783	509.35
376.163	542.34
376.544	538.95
376.925	490.37
377.305	507.09
377.686	502.8
378.066	518.16
378.447	518.84
378.827	513.42
379.208	522.23
379.588	550.03
379.968	513.19
380.349	509.13
380.729	553.19
381.109	547.54
381.489	570.14
381.87	552.51
382.25	564.94
382.63	555.23
383.01	589.12
383.39	587.32
383.77	592.74
384.15	583.47
384.53	616.01
384.91	585.51
385.29	622.34
385.67	626.41
386.049	631.83
386.429	631.16
386.809	616.01
387.189	657.82
387.568	646.75
387.948	637.26
388.328	665.05
388.707	658.05
389.087	682
389.466	684.26
389.846	672.06
390.225	694.88
390.605	685.39
390.984	703.7
391.363	686.97
391.743	736.01
392.122	708.67
392.501	721.1
392.881	736.01
393.26	736.24
393.639	765.62
394.018	752.51
394.397	781.66
394.776	770.81
395.155	778.27
395.534	769.46
395.913	783.92
396.292	807.2
396.671	819.85
397.05	815.33
397.429	823.02
397.808	844.03
398.186	843.81
398.565	833.18
398.944	866.18
399.323	863.24
399.701	879.74
400.08	882.67
400.458	890.81
400.837	886.52
401.215	903.46
401.594	904.37
401.972	930.36
402.351	929.9
402.729	926.29
403.107	946.18
403.486	954.54
403.864	967.64
404.242	961.32
404.62	976.68
404.999	1002.22
405.377	1005.84
405.755	1041.31
406.133	1035.66
406.511	1071.6
406.889	1066.85
407.267	1070.24
407.645	1080.18
408.023	1081.99
408.401	1112.95
408.779	1148.43
409.156	1174.64
409.534	1158.37
409.912	1158.37
410.29	1199.95
410.667	1194.3
411.045	1235.43
411.422	1227.52
411.8	1249.9
412.178	1274.3
412.555	1292.83
412.933	1298.93
413.31	1304.13
413.687	1332.15
414.065	1358.14
414.442	1376.67
414.819	1374.19
415.197	1381.42
415.574	1410.8
415.951	1417.8
416.328	1424.81
416.705	1408.54
417.082	1466.16
417.46	1455.31
417.837	1470.46
418.214	1485.14
418.591	1564.24
418.967	1530.12
419.344	1530.12
419.721	1546.16
420.098	1537.57
420.475	1594.97
420.852	1627.29
421.228	1638.13
421.605	1620.73
421.982	1633.84
422.358	1668.19
422.735	1668.42
423.111	1676.78
423.488	1708.19
423.864	1738.02
424.241	1732.6
424.617	1758.13
424.994	1801.52
425.37	1804.23
425.746	1795.42
426.123	1846.27
426.499	1872.48
426.875	1875.19
427.251	1924.91
427.627	1913.38
428.003	1987.28
428.379	1981.63
428.756	2026.83
429.132	1991.12
429.507	2045.81
429.883	2054.62
430.259	2103.66
430.635	2112.7
431.011	2134.84
431.387	2211
431.763	2243.32
432.138	2233.6
432.514	2294.84
432.89	2284.45
433.265	2336.42
433.641	2369.42
434.016	2346.82
434.392	2413.03
434.767	2449.64
435.143	2443.09
435.518	2459.13
435.894	2498.23
436.269	2540.03
436.644	2561.5
437.02	2569.41
437.395	2623.87
437.77	2645.79
438.145	2679.92
438.52	2724.43
438.895	2723.53
439.271	2755.85
439.646	2810.99
440.021	2812.12
440.395	2819.12
440.77	2814.6
441.145	2848.72
441.52	2895.95
441.895	2912
442.27	2894.83
442.645	2914.03
443.019	2958.78
443.394	2942.28
443.769	2981.15
444.143	2947.03
444.518	3046.46
444.892	3008.04
445.267	3054.14
445.641	3101.6
446.016	3119.68
446.39	3130.07
446.764	3143.63
447.139	3172.78
447.513	3227.47
447.887	3203.29
448.262	3241.03
448.636	3269.96
449.01	3265.89
449.384	3290.29
449.758	3313.8
450.132	3351.99
450.506	3376.17
450.88	3410.07
451.254	3408.48
451.628	3526.22
452.002	3526.9
452.376	3561.02
452.75	3593.79
453.123	3572.1
453.497	3658.19
453.871	3661.36
454.244	3767.57
454.618	3783.39
454.992	3806.89
455.365	3854.57
455.739	3930.05
456.112	3947
456.486	4007.11
456.859	4018.86
457.232	4061.12
457.606	4122.82
457.979	4136.83
458.352	4270.38
458.725	4286.43
459.099	4281.46
459.472	4368.23
459.845	4472.18
460.218	4501.34
460.591	4529.36
460.964	4560.54
461.337	4669.69
461.71	4669.24
462.083	4749.01
462.456	4788.79
462.829	4807.54
463.201	4891.61
463.574	4907.2
463.947	4963.7
464.32	5095.45
464.692	5138.16
465.065	5200.98
465.438	5193.75
465.81	5258.15
466.183	5379.73
466.555	5428.09
466.928	5497.24
467.3	5501.76
467.672	5624.92
468.045	5753.05
468.417	5776.33
468.789	5803
469.161	5896.1
469.534	5981.52
469.906	6085.93
470.278	6139.03
470.65	6210.22
471.022	6318.01
471.394	6433.04
471.766	6511.45
472.138	6588.06
472.51	6667.38
472.882	6810.65
473.253	6802.52
473.625	6946.47
473.997	7138.1
474.369	7101.04
474.74	7204.09
475.112	7383.29
475.484	7464.2
475.855	7629.84
476.227	7714.13
476.598	7861.25
476.97	7913.45
477.341	8161.81
477.713	8256.94
478.084	8294.91
478.455	8541.91
478.827	8580.55
479.198	8828.45
479.569	8810.83
479.94	9116.36
480.311	9207.65
480.682	9400.64
481.053	9584.37
481.424	9730.13
481.795	9816.9
482.166	10014.41
482.537	10060.51
482.908	10321.07
483.279	10385.02
483.65	10553.61
484.021	10816.88
484.391	10897.33
484.762	10994.73
485.133	11147.49
485.503	11256.87
485.874	11530.3
486.244	11644.88
486.615	11719.9
486.985	11959.45
487.356	12223.17
487.726	12330.06
488.097	12527.34
488.467	12553.78
488.837	12823.6
489.207	12959.87
489.578	13204.61
489.948	13274.21
490.318	13442.12
490.688	13484.38
491.058	13710.13
491.428	13977.92
491.798	14081.88
492.168	14333.62
492.538	14378.59
492.908	14603.44
493.278	14792.59
493.648	14754.63
494.017	14814.96
494.387	15073.26
494.757	15262.18
495.126	15402.74
495.496	15342.63
495.866	15522.29
496.235	15753.02
496.605	15866.91
496.974	15974.71
497.344	16122.05
497.713	16207.92
498.082	16373.79
498.452	16495.37
498.821	16546.9
499.19	16655.59
499.559	16773.56
499.928	17022.36
500.298	16967.9
500.667	17168.57
501.036	17147.11
501.405	17475.01
501.774	17364.95
502.143	17609.47
502.512	17659.18
502.88	17807.43
503.249	17950.02
503.618	17957.93
503.987	17998.83
504.356	18217.36
504.724	18253.07
505.093	18315.89
505.462	18491.48
505.83	18596.33
506.199	18858.7
506.567	19039.49
506.936	19066.6
507.304	19201.97
507.672	19356.09
508.041	19399.7
508.409	19515.4
508.777	19703.42
509.145	19829.97
509.514	19887.82
509.882	20026.35
510.25	20192
510.618	20362.16
510.986	20338.89
511.354	20585.43
511.722	20794.92
512.09	20976.84
512.458	20950.62
512.826	21114.01
513.193	21224.96
513.561	21398.97
513.929	21466.77
514.297	21569.59
514.664	21873.99
515.032	22099.52
515.4	22095.9
515.767	22205.73
516.135	22406.18
516.502	22399.62
516.869	22789.67
517.237	22890.68
517.604	22807.07
517.972	23124.58
518.339	23290.67
518.706	23365.02
519.073	23534.96
519.44	23653.83
519.808	23917.78
520.175	23963.42
520.542	24307.6
520.909	24407.93
521.276	24409.74
521.643	24684.99
522.009	24985.77
522.376	24992.55
522.743	25204.29
523.11	25384.63
523.477	25681.34
523.843	25807.67
524.21	26090.37
524.577	26267.32
524.943	26402
525.31	26587.76
525.676	26826.17
526.043	27000.41
526.409	27102.55
526.776	27395.2
527.142	27515.19
527.508	27637.9
527.874	27887.61
528.241	27896.2
528.607	28138.68
528.973	28368.73
529.339	28375.06
529.705	28723.3
530.071	28882.62
530.437	29140.24
530.803	29239.9
531.169	29426.33
531.535	29388.14
531.901	29499.32
532.267	29665.87
532.632	29959.65
532.998	30007.78
533.364	30141.79
533.73	30266.99
534.095	30499.52
534.461	30587.2
534.826	30824.03
535.192	30831.27
535.557	31143.35
535.923	31167.75
536.288	31199.62
536.653	31470.34
537.019	31336.79
537.384	31728.19
537.749	31743.11
538.114	31804.35
538.479	31850.9
538.845	31992.82
539.21	32034.85
539.575	32309.87
539.94	32339.47
540.305	32496.76
540.67	32562.52
541.034	32717.77
541.399	32749.41
541.764	32950.08
542.129	32949.18
542.494	33249.06
542.858	33289.73
543.223	33281.37
543.587	33593
543.952	33543.74
544.316	33821.02
544.681	33781.92
545.045	33881.13
545.41	34131.29
545.774	34159.31
546.138	34334.68
546.503	34281.34
546.867	34308.01
547.231	34681.56
547.595	34696.7
547.959	34820.31
548.324	34945.06
548.688	34973.98
549.052	35065.73
549.416	35359.06
549.779	35406.74
550.143	35438.15
550.507	35689.67
550.871	35789.55
551.235	35806.95
551.599	36030.68
551.962	36170.79
552.326	36287.85
552.689	36501.62
553.053	36474.28
553.417	36671.79
553.78	37017.32
554.143	36877.89
554.507	37125.34
554.87	37026.36
555.234	37540.47
555.597	37313.36
555.96	37513.35
556.323	37717.41
556.686	37852.78
557.05	38145.88
557.413	38245.76
557.776	38435.81
558.139	38648.91
558.502	38626.09
558.865	38718.52
559.228	38963.93
559.59	39149.01
559.953	39357.82
560.316	39623.35
560.679	39626.06
561.041	40033.06
561.404	40047.52
561.767	40534.97
562.129	40353.28
562.492	40640.5
562.854	40671.46
563.217	40765.02
563.579	40831.91
563.941	41265.57
564.304	41365
564.666	41447.26
565.028	41682.28
565.39	41910.3
565.753	42094.25
566.115	42333.34
566.477	42481.81
566.839	42482.26
567.201	42774.91
567.563	42905.98
567.925	43030.04
568.287	43183.94
568.648	43132.64
569.01	43613.75
569.372	43768.1
569.734	43614.21
570.095	43965.16
570.457	44049.9
570.819	44114.53
571.18	44039.96
571.542	44409.44
571.903	44476.33
572.265	44653.5
572.626	44548.65
572.987	44825.02
573.349	44855.08
573.71	44996.99
574.071	45180.49
574.432	45290.77
574.794	45618
575.155	45456.42
575.516	45604.89
575.877	45710.87
576.238	45830.65
576.599	45910.42
576.96	46048.27
577.32	46061.83
577.681	46172.11
578.042	46269.73
578.403	46243.06
578.763	46124.87
579.124	46435.15
579.485	46567.12
579.845	46582.49
580.206	46547.69
580.566	46572.32
580.927	46554.47
581.287	46839.43
581.648	46738.64
582.008	46824.74
582.368	46705.65
582.728	46765.31
583.089	46794.01
583.449	46699.77
583.809	46848.7
584.169	46942.03
584.529	46656.39
584.889	47096.83
585.249	46823.84
585.609	46851.64
585.969	46900.9
586.329	46856.15
586.688	46960.78
587.048	46967.79
587.408	46921.24
587.768	47114.91
588.127	46960.11
588.487	46785.87
588.846	47172.08
589.206	46839.21
589.565	46886.89
589.925	47105.19
590.284	46896.83
590.643	47002.14
591.003	47022.03
591.362	47206.88
591.721	47005.98
592.08	47027.22
592.44	47154.45
592.799	47142.25
593.158	47097.73
593.517	47092.53
593.876	47121.23
594.235	46961.69
594.593	47089.6
594.952	47120.1
595.311	47118.75
595.67	47298.63
596.029	47356.03
596.387	47375.24
596.746	47415.01
597.104	47178.63
597.463	47188.58
597.822	47258.4
598.18	47284.84
598.538	47242.59
598.897	47487.1
599.255	47129.14
599.613	47815
599.972	47412.75
600.33	47454.11
600.688	47366.65
601.046	47536.82
601.404	47649.81
601.762	47611.62
602.12	47734.32
602.478	47750.82
602.836	47604.84
603.194	47530.71
603.552	47627.89
603.91	47429.25
604.268	47771.16
604.625	47521.67
604.983	47735.45
605.341	47643.93
605.698	47889.12
606.056	47923.25
606.413	47808.22
606.771	48050.7
607.128	48046.86
607.485	48062.68
607.843	47980.42
608.2	48181.32
608.557	48244.14
608.914	48082.11
609.272	48316
609.629	48178.15
609.986	48399.17
610.343	48232.16
610.7	48602.1
611.057	48389
611.414	48399.17
611.771	48426.96
612.127	48542.44
612.484	48578.6
612.841	48617.24
613.198	48515.55
613.554	48516.68
613.911	48751.02
614.267	48560.29
614.624	48636.22
614.98	48814.75
615.337	48869.21
615.693	48841.41
616.05	48736.11
616.406	49012.71
616.762	48964.12
617.118	48893.62
617.475	48899.94
617.831	49051.13
618.187	49041.18
618.543	49060.39
618.899	49184.91
619.255	49141.52
619.611	49022.65
619.967	49283.44
620.323	49248.41
620.678	49166.6
621.034	49061.52
621.39	48962.31
621.746	48904.01
622.101	49415.64
622.457	49019.49
622.812	49170.22
623.168	49118.47
623.523	49054.52
623.879	49260.61
624.234	49037.11
624.589	49194.85
624.945	49154.63
625.3	49271.68
625.655	49295.64
626.01	49208.41
626.365	49279.14
626.72	49162.54
627.075	49242.53
627.43	49131.12
627.785	49023.33
628.14	49082.31
628.495	49052.03
628.85	48993.5
629.205	48839.38
629.559	49031.92
629.914	48797.57
630.269	48834.18
630.623	48685.26
630.978	48613.62
631.332	49038.47
631.687	48921.19
632.041	48780.17
632.396	48731.13
632.75	48664.24
633.104	48585.83
633.459	48648.65
633.813	48516.22
634.167	48511.48
634.521	48391.26
634.875	48484.81
635.229	48437.36
635.583	48257.7
635.937	48237.59
636.291	48147.42
636.645	48072.85
636.999	47990.81
637.352	47993.53
637.706	47774.32
638.06	47958.27
638.413	47914.66
638.767	47719.86
639.121	47910.59
639.474	47711.27
639.828	47616.13
640.181	47743.82
640.534	47633.31
640.888	47510.6
641.241	47383.82
641.594	47335.01
641.947	47365.75
642.301	47319.65
642.654	47307.89
643.007	47246.2
643.36	47273.09
643.713	47173.89
644.066	47145.19
644.419	46866.1
644.771	46332.33
645.124	45920.36
645.477	45896.41
645.83	45785
646.182	45831.78
646.535	45701.61
646.888	45894.6
647.24	45678.33
647.593	45917.2
647.945	45850.98
648.298	45543.87
648.65	45557.88
649.002	45395.18
649.355	45469.98
649.707	45303.43
650.059	45412.58
650.411	45769.63
650.763	45740.48
651.115	46126.23
651.467	46184.31
651.819	45952.9
652.171	45918.55
652.523	45827.03
652.875	45797.65
653.227	45732.79
653.578	45972.56
653.93	45916.97
654.282	45778.22
654.633	45679.91
654.985	45696.64
655.337	45672.91
655.688	45625.23
656.039	45683.98
656.391	45417.1
656.742	45496.42
657.094	45309.3
657.445	45513.37
657.796	45315.18
658.147	45229.98
658.498	45193.37
658.849	45241.73
659.2	45306.59
659.551	45165.8
659.902	45234.73
660.253	45084.22
660.604	45121.29
660.955	45032.47
661.306	45023.89
661.656	45043.32
662.007	44933.72
662.358	44933.27
662.708	44770.11
663.059	44810.11
663.409	44630.22
663.76	44886.49
664.11	44808.75
664.461	44884.23
664.811	44816.43
665.161	44667.74
665.511	44616.21
665.862	44706.38
666.212	44781.63
666.562	44683.33
666.912	44702.31
667.262	44468.42
667.612	44472.71
667.962	44514.52
668.312	44425.26
668.662	44650.34
669.011	44512.94
669.361	44572.6
669.711	44381.42
670.06	44393.62
670.41	44215.55
670.76	44161.76
671.109	44321.31
671.459	44233.17
671.808	44033.63
672.157	44176
672.507	43973.52
672.856	43959.96
673.205	43956.34
673.554	44122.89
673.904	43895.33
674.253	44173.97
674.602	43891.71
674.951	43294.67
675.3	43283.82
675.649	43820.98
675.998	43634.32
676.346	43789.57
676.695	43833.18
677.044	43593.87
677.393	43639.97
677.741	43686.52
678.09	43405.4
678.438	43361.56
678.787	43375.57
679.135	43385.51
679.484	43190.94
679.832	43190.94
680.181	43124.05
680.529	43236.36
680.877	43088.57
681.225	43063.49
681.573	43223.71
681.922	42755.25
682.27	42764.29
682.618	42762.25
682.966	42923.83
683.314	42697.39
683.661	42735.36
684.009	42368.14
684.357	42393.9
684.705	42225.54
685.053	42357.74
685.4	42260.8
685.748	41891.77
686.095	42139.89
686.443	41790.53
686.79	41758.89
687.138	42007.69
687.485	41906.45
687.832	41567.93
688.18	41664.2
688.527	41472.12
688.874	41420.82
689.221	41263.53
689.568	41193.25
689.915	40972.47
690.262	41032.13
690.609	40917.78
690.956	40771.34
691.303	40679.82
691.65	40463.78
691.997	40440.28
692.344	40185.14
692.69	40243.9
693.037	40299.72
693.383	39960.29
693.73	40098.82
694.077	39673.29
694.423	39778.83
694.769	39647.53
695.116	39625.38
695.462	39594.65
695.808	39329.57
696.155	39284.38
696.501	39229.91
696.847	39001.67
697.193	38726.2
697.539	39001.9
697.885	38722.58
698.231	38630.16
698.577	38479.43
698.923	38323.72
699.269	38153.78
699.614	38163.28
699.96	37957.18
700.306	38104.07
700.651	37809.16
700.997	37653.46
701.342	37547.93
701.688	37551.54
702.033	37465.89
702.379	37426.57
702.724	37317.42
703.069	37388.61
703.415	36964.66
703.76	36949.75
704.105	36959.47
704.45	36763.99
704.795	36645.8
705.14	36496.88
705.485	36525.81
705.83	36358.58
706.175	36321.74
706.52	36346.83
706.865	36125.14
707.209	36094.18
707.554	35867.07
707.899	35906.39
708.243	35849.66
708.588	35816.45
708.932	35544.59
709.277	35522.22
709.621	35488.77
709.966	35187.08
710.31	35206.29
710.654	34970.82
710.998	35041.78
711.342	35140.08
711.687	34807.88
712.031	34821.22
712.375	34768.11
712.719	34704.84
713.063	34660.77
713.407	34856.7
713.75	34440.44
714.094	34399.99
714.438	34265.53
714.782	34334.22
715.125	34145.75
715.469	34197.5
715.812	33868.02
716.156	33877.51
716.499	33794.58
716.843	33635.94
717.186	33506.45
717.53	33723.84
717.873	33749.61
718.216	33552.1
718.559	33493.57
718.902	33305.55
719.246	33376.51
719.589	33115.95
719.932	33044.99
720.275	33092.9
720.617	32992.11
720.96	33005.67
721.303	32897.65
721.646	32860.14
721.989	32681.61
722.331	32708.73
722.674	32695.4
723.016	32644.78
723.359	32536.31
723.701	32632.57
724.044	32321.17
724.386	32164.34
724.729	32244.56
725.071	32120.05
725.413	32195.98
725.755	32217.44
726.097	32010.22
726.439	31813.61
726.782	31883.67
727.124	31989.43
727.465	31789.66
727.807	31763.44
728.149	31597.35
728.491	31616.78
728.833	31607.74
729.175	31432.83
729.516	31390.35
729.858	31379.5
730.199	31279.39
730.541	31263.57
730.882	31055.67
731.224	31241.2
731.565	31046.4
731.906	30958.27
732.248	31005.5
732.589	30899.51
732.93	30702
733.271	30807.31
733.612	30878.72
733.953	30755.79
734.294	30699.52
734.635	30556.02
734.976	30677.6
735.317	30648.67
735.658	30470.82
735.999	30342.01
736.339	30338.85
736.68	30342.69
737.021	30321.9
737.361	30107.22
737.702	30268.34
738.042	30199.64
738.383	30054.11
738.723	30012.53
739.063	30017.95
739.404	30025.19
739.744	29852.99
740.084	29901.57
740.424	29878.97
740.764	29758.07
741.104	29883.95
741.444	29574.8
741.784	29539.32
742.124	29518.31
742.464	29391.76
742.804	29357.18
743.143	29438.08
743.483	29401.92
743.823	29069.73
744.162	29080.13
744.502	29111.76
744.841	29016.85
745.181	29061.14
745.52	28934.59
745.86	28961.71
746.199	28882.84
746.538	28848.94
746.877	28877.42
747.216	28884.65
747.556	28664.32
747.895	28583.42
748.234	28403.31
748.573	28527.6
748.911	28447.6
749.25	28424.1
749.589	28190.43
749.928	28204.89
750.267	28179.13
750.605	28178.91
750.944	28072.24
751.283	28107.27
751.621	28009.19
751.96	27920.16
752.298	27935.97
752.636	27851.91
752.975	27669.77
753.313	27549.54
753.651	27710.22
753.989	27563.33
754.327	27402.43
754.666	27324.01
755.004	27352.26
755.342	27425.03
755.679	27286.95
756.017	27039.5
756.355	27238.82
756.693	26972.38
757.031	27012.16
757.368	26884.25
757.706	26810.58
758.044	26751.15
758.381	26773.75
758.719	26595.9
759.056	26602.9
759.394	26536.01
759.731	26293.08
760.068	26207.66
760.405	26099.64
760.743	26097.38
761.08	26183.93
761.417	26034.78
761.754	25910.04
762.091	25805.18
762.428	25748.91
762.765	25512.99
763.102	25603.38
763.438	25531.97
763.775	25345.76
764.112	25359.32
764.449	25283.61
764.785	25186.44
765.122	24996.84
765.458	24889.95
765.795	24879.56
766.131	24750.97
766.467	24714.82
766.804	24721.6
767.14	24420.13
767.476	24514.37
767.812	24366.58
768.148	24340.59
768.485	24242.29
768.821	24067.38
769.157	24111.22
769.492	23984.44
769.828	23885.23
770.164	23773.15
770.5	23760.94
770.836	23724.56
771.171	23580.83
771.507	23470.1
771.842	23206.38
772.178	23209.55
772.513	23254.97
772.849	23180.85
773.184	22998.7
773.519	22975.65
773.855	22880.06
774.19	22812.27
774.525	22632.16
774.86	22674.87
775.195	22537.47
775.53	22482.56
775.865	22484.82
776.2	22311.72
776.535	22034.89
776.87	22120.31
777.205	21944.27
777.539	22036.92
777.874	21904.27
778.209	21707.21
778.543	21725.29
778.878	21515.58
779.212	21582.02
779.547	21406.65
779.881	21441.68
780.215	21166.66
780.55	21313.55
780.884	20962.15
781.218	21055.93
781.552	21032.88
781.886	20841.92
782.22	20763.73
782.554	20722.15
782.888	20479
783.222	20415.49
783.556	20369.39
783.889	20246.46
784.223	20219.79
784.557	20138.67
784.89	20114.94
785.224	20033.81
785.557	19918.78
785.891	19837.88
786.224	19782.06
786.558	19738.22
786.891	19641.96
787.224	19545.46
787.557	19420.49
787.891	19336.43
788.224	19329.2
788.557	19336.43
788.89	19227.5
789.223	19168.75
789.556	18946.61
789.888	18974.18
790.221	18900.28
790.554	18822.32
790.887	18762.2
791.219	18622.55
791.552	18705.03
791.884	18537.13
792.217	18532.38
792.549	18530.35
792.882	18421.42
793.214	18236.34
793.546	18260.3
793.879	18181.88
794.211	18084.26
794.543	18143.01
794.875	18009
795.207	18034.77
795.539	17882.23
795.871	17849.91
796.203	17802.46
796.535	17655.57
796.867	17595.68
797.198	17512.97
797.53	17454.44
797.862	17507.32
798.193	17433.2
798.525	17330.83
798.856	17419.41
799.188	17160.21
799.519	17126.99
799.85	16978.75
800.182	17067.11
800.513	17019.65
800.844	16864.4
801.175	16894.46
801.506	16788.02
801.837	16699.43
802.168	16802.48
802.499	16756.83
802.83	16583.96
803.161	16580.34
803.491	16552.32
803.822	16471.64
804.153	16386.22
804.483	16283.63
804.814	16232.33
805.145	16242.95
805.475	16236.17
805.805	16115.95
806.136	16132.67
806.466	16075.5
806.796	15946.69
807.126	15844.99
807.457	15900.13
807.787	15813.58
808.117	15723.87
808.447	15635.28
808.777	15715.05
809.107	15667.37
809.436	15639.12
809.766	15573.36
810.096	15517.54
810.426	15488.62
810.755	15471.9
811.085	15323.2
811.414	15422.63
811.744	15117.1
812.073	15249.53
812.403	15138.12
812.732	15074.84
813.061	15089.98
813.39	14948.75
813.719	14884.34
814.049	15079.14
814.378	15018.57
814.707	14930.67
815.036	14901.51
815.365	14809.99
815.693	14617.91
816.022	14683.44
816.351	14670.33
816.68	14611.35
817.008	14647.96
817.337	14473.96
817.665	14501.3
817.994	14530.9
818.322	14436.22
818.651	14407.29
818.979	14353.51
819.307	14437.12
819.636	14329.78
819.964	14116.9
820.292	14245.49
820.62	14205.26
820.948	14152.61
821.276	14227.41
821.604	14176.11
821.932	14226.28
822.259	14114.42
822.587	14092.95
822.915	14086.4
823.243	14195.54
823.57	14064.25
823.898	14137.24
824.225	14000.75
824.553	14087.98
824.88	14030.58
825.207	14043.01
825.535	14076.23
825.862	14106.73
826.189	14068.99
826.516	14124.81
826.843	14028.32
827.17	14008.43
827.497	14086.4
827.824	13962.33
828.151	14008.21
828.478	14005.04
828.805	14038.71
829.131	13982.9
829.458	13987.87
829.785	13915.55
830.111	13914.42
830.438	13984.93
830.764	14012.5
831.09	14031.03
831.417	13884.37
831.743	13970.92
832.069	13908.77
832.395	13799.62
832.722	13861.32
833.048	13878.72
833.374	13864.71
833.7	13864.25
834.026	13892.73
834.351	13973.86
834.677	13906.51
835.003	13887.53
835.329	13853.41
835.654	13773.64
835.98	13702.68
836.306	13748.32
836.631	13740.64
836.956	13777.48
837.282	13771.15
837.607	13713.75
837.932	13676.69
838.258	13688.67
838.583	13579.97
838.908	13605.05
839.233	13622.9
839.558	13495.45
839.883	13448.9
840.208	13422.23
840.533	13452.74
840.858	13457.03
841.182	13403.02
841.507	13436.69
841.832	13402.35
842.156	13379.75
842.481	13316.02
842.805	13257.04
843.13	13271.95
843.454	13270.37
843.778	13265.17
844.103	13132.97
844.427	13113.54
844.751	13175.91
845.075	13062.24
845.399	12971.17
845.723	12919.87
846.047	13019.53
846.371	12870.83
846.695	12910.38
847.019	12777.28
847.343	12683.95
847.666	12632.2
847.99	12570.95
848.313	12545.87
848.637	12494.8
848.96	12493.22
849.284	12478.53
849.607	12342.71
849.931	12389.94
850.254	12280.57
850.577	12228.36
850.9	12213.45
851.223	12161.25
851.546	12077.86
851.869	11951.08
852.192	12050.97
852.515	11968.94
852.838	12026.56
853.161	11848.94
853.483	11848.71
853.806	11713.58
854.129	11760.58
854.451	11727.36
854.774	11605.33
855.096	11537.08
855.419	11566.91
855.741	11568.95
856.063	11528.72
856.385	11473.58
856.708	11474.71
857.03	11418.67
857.352	11407.6
857.674	11292.34
857.996	11340.93
858.318	11203.31
858.64	11243.08
858.961	11165.12
859.283	11231.33
859.605	11135.51
859.926	11144.55
860.248	11168.51
860.57	11082.18
860.891	11050.77
861.212	10942.3
861.534	10974.39
861.855	10963.54
862.176	11043.09
862.498	10944.78
862.819	11000.15
863.14	10943.2
863.461	10931.9
863.782	10876.76
864.103	10843.32
864.424	10806.48
864.745	10827.95
865.065	10713.38
865.386	10812.81
865.707	10832.7
866.027	10806.03
866.348	10715.18
866.668	10742.3
866.989	10629.08
867.309	10608.07
867.63	10587.73
867.95	10644
868.27	10588.41
868.59	10602.42
868.91	10617.11
869.23	10517.22
869.55	10563.1
869.87	10595.87
870.19	10520.39
870.51	10521.07
870.83	10485.59
871.15	10414.18
871.469	10454.63
871.789	10442.65
872.109	10384.57
872.428	10361.75
872.748	10413.05
873.067	10373.05
873.386	10325.14
873.706	10369.88
874.025	10282.43
874.344	10266.38
874.663	10379.83
874.982	10319.26
875.301	10253.95
875.62	10264.35
875.939	10264.8
876.258	10155.43
876.577	10231.58
876.896	10172.83
877.214	10130.34
877.533	10164.69
877.852	10136.67
878.17	10177.8
878.489	10100.06
878.807	10020.51
879.125	10064.13
879.444	10070
879.762	10038.37
880.08	10089.89
880.398	9978.93
880.716	9985.94
881.034	9996.79
881.352	9982.1
881.67	9963.11
881.988	9969.22
882.306	9963.79
882.624	9895.09
882.941	9858.48
883.259	9866.85
883.577	9835.89
883.894	9857.13
884.212	9822.33
884.529	9828.88
884.846	9781.42
885.164	9773.29
885.481	9755.66
885.798	9749.79
886.115	9718.37
886.432	9693.97
886.75	9631.15
887.067	9638.6
887.383	9566.06
887.7	9635.44
888.017	9530.13
888.334	9563.12
888.651	9557.93
888.967	9454.2
889.284	9475.67
889.6	9417.37
889.917	9450.13
890.233	9468.44
890.55	9392.28
890.866	9319.97
891.182	9321.55
891.498	9289.01
891.815	9278.61
892.131	9226.64
892.447	9260.76
892.763	9182.12
893.079	9176.92
893.395	9162.91
893.71	9129.01
894.026	9092.85
894.342	8989.13
894.657	9012.86
894.973	9006.3
895.289	9020.09
895.604	8964.95
895.92	8985.06
896.235	8875.46
896.55	8849.02
896.865	8868.91
897.181	8778.51
897.496	8840.21
897.811	8736.48
898.126	8679.98
898.441	8623.26
898.756	8664.84
899.071	8624.39
899.386	8636.82
899.7	8544.17
900.015	8557.5
900.33	8444.74
900.644	8506.65
900.959	8462.59
901.273	8451.97
901.588	8365.42
901.902	8373.33
902.216	8363.83
902.531	8312.99
902.845	8334.23
903.159	8295.81
903.473	8300.56
903.787	8227.57
904.101	8207
904.415	8192.54
904.729	8124.07
905.042	8108.25
905.356	8102.37
905.67	8048.36
905.984	8044.52
906.297	8029.61
906.611	7931.98
906.924	7953.68
907.237	7934.24
907.551	7943.73
907.864	7853.79
908.177	7838.42
908.491	7797.07
908.804	7714.36
909.117	7729.95
909.43	7679.33
909.743	7576.51
910.056	7627.58
910.368	7626.23
910.681	7600.69
910.994	7550.75
911.307	7547.81
911.619	7433.01
911.932	7459
912.244	7428.27
912.557	7390.3
912.869	7343.07
913.181	7389.17
913.494	7315.27
913.806	7190.76
914.118	7281.15
914.43	7192.57
914.742	7150.53
915.054	7172.68
915.366	7160.25
915.678	7089.29
915.99	7080.03
916.302	7005.23
916.613	7040.7
916.925	7009.75
917.236	6964.1
917.548	6918.45
917.859	6919.58
918.171	6845.68
918.482	6861.73
918.794	6755.51
919.105	6852.46
919.416	6756.19
919.727	6744.89
920.038	6712.8
920.349	6657.44
920.66	6638.91
920.971	6623.99
921.282	6661.28
921.593	6588.29
921.903	6533.6
922.214	6543.32
922.525	6464.22
922.835	6459.48
923.146	6448.63
923.456	6379.71
923.767	6303.32
924.077	6365.02
924.387	6314.62
924.697	6289.76
925.008	6307.16
925.318	6231.46
925.628	6239.37
925.938	6216.77
926.248	6133.38
926.558	6136.55
926.867	6139.49
927.177	6119.37
927.487	6055.19
927.796	5992.82
928.106	6003.22
928.416	6039.15
928.725	6012.03
929.034	5928.87
929.344	5943.11
929.653	5950.11
929.962	5868.98
930.271	5851.13
930.581	5836.44
930.89	5849.32
931.199	5800.06
931.508	5748.08
931.817	5733.62
932.125	5726.39
932.434	5702.21
932.743	5611.59
933.051	5645.49
933.36	5559.84
933.669	5551.03
933.977	5553.29
934.286	5525.72
934.594	5468.09
934.902	5444.81
935.21	5421.09
935.519	5389.45
935.827	5360.97
936.135	5390.35
936.443	5358.94
936.751	5370.47
937.059	5281.43
937.367	5267.42
937.674	5278.72
937.982	5286.63
938.29	5229.45
938.597	5207.08
938.905	5178.15
939.213	5136.35
939.52	5127.08
939.827	5156.46
940.135	5107.65
940.442	5085.95
940.749	5023.13
941.056	5046.41
941.363	4964.6
941.67	4939.97
941.977	4943.81
942.284	4879.41
942.591	4936.13
942.898	4870.82
943.205	4880.54
943.511	4822.91
943.818	4790.82
944.125	4825.4
944.431	4779.07
944.738	4781.56
945.044	4817.49
945.35	4782.46
945.657	4719.86
945.963	4677.38
946.269	4634.89
946.575	4632.63
946.881	4660.88
947.187	4643.93
947.493	4603.25
947.799	4559.64
948.105	4567.78
948.41	4538.62
948.716	4510.15
949.022	4494.1
949.327	4491.85
949.633	4464.73
949.938	4445.74
950.244	4476.03
950.549	4390.83
950.854	4425.63
951.16	4387.22
951.465	4303.83
951.77	4363.94
952.075	4288.01
952.38	4330.49
952.685	4260.21
952.99	4217.05
953.294	4242.59
953.599	4234.68
953.904	4183.83
954.209	4163.94
954.513	4178.86
954.818	4114.91
955.122	4146.77
955.426	4128.01
955.731	4109.71
956.035	4061.12
956.339	4039.43
956.643	4078.97
956.948	3979.09
957.252	3968.47
957.556	4001.91
957.86	3967.11
958.163	3938.19
958.467	3907.91
958.771	3931.41
959.075	3873.78
959.378	3898.41
959.682	3864.29
959.985	3853.67
960.289	3817.96
960.592	3844.18
960.896	3786.55
961.199	3745.2
961.502	3782.71
961.805	3800.56
962.108	3702.26
962.411	3702.26
962.714	3685.99
963.017	3668.59
963.32	3705.2
963.623	3675.14
963.926	3659.1
964.228	3634.47
964.531	3567.12
964.833	3611.19
965.136	3593.56
965.438	3591.76
965.741	3576.16
966.043	3518.54
966.345	3515.15
966.648	3547.69
966.95	3531.19
967.252	3487.13
967.554	3469.95
967.856	3443.06
968.158	3380.24
968.46	3384.3
968.761	3385.21
969.063	3378.43
969.365	3333.46
969.666	3342.04
969.968	3327.58
970.269	3312.89
970.571	3295.27
970.872	3287.81
971.174	3302.95
971.475	3251.88
971.776	3258.43
972.077	3201.03
972.378	3231.77
972.679	3213.01
972.98	3224.08
973.281	3175.95
973.582	3175.95
973.883	3153.8
974.183	3129.85
974.484	3114.48
974.785	3119.68
975.085	3132.33
975.386	3077.87
975.686	3123.97
975.986	3083.97
976.287	3084.42
976.587	3046.01
976.887	3044.2
977.187	2995.84
977.487	3019.57
977.787	2968.5
978.087	2921.49
978.387	2940.93
978.687	2944.32
978.987	2889.63
979.286	2890.08
979.586	2911.1
979.885	2879.68
980.185	2890.31
980.484	2839.91
980.784	2859.12
981.083	2817.99
981.382	2834.49
981.682	2858.89
981.981	2805.34
982.28	2799.69
982.579	2787.71
982.878	2783.87
983.177	2723.76
983.475	2741.61
983.774	2719.46
984.073	2679.46
984.372	2720.14
984.67	2668.16
984.969	2684.21
985.267	2651.44
985.566	2675.4
985.864	2640.14
986.162	2658.22
986.461	2623.19
986.759	2627.04
987.057	2602.18
987.355	2567.38
987.653	2589.75
987.951	2554.04
988.249	2538.45
988.547	2537.77
988.844	2495.29
989.142	2526.25
989.44	2516.76
989.737	2454.16
990.035	2506.59
990.332	2483.76
990.63	2466.81
990.927	2465.68
991.224	2434.95
991.521	2447.61
991.819	2406.25
992.116	2420.71
992.413	2384.33
992.71	2389.53
993.006	2351.34
993.303	2359.25
993.6	2337.55
993.897	2346.82
994.193	2381.17
994.49	2325.12
994.787	2288.74
995.083	2324.44
995.379	2292.81
995.676	2259.36
995.972	2238.35
996.268	2239.48
996.565	2195.86
996.861	2218.23
997.157	2202.41
997.453	2214.39
997.749	2175.3
998.044	2182.3
998.34	2168.29
998.636	2191.79
998.932	2145.47
999.227	2160.83
999.523	2155.18
999.818	2135.3
1000.114	2084
1000.409	2084.45
1000.704	2088.29
1001	2057.56
1001.295	2030.44
1001.59	2050.78
1001.885	2032.7
1002.18	2006.71
1002.475	2048.97
1002.77	2004.45
1003.065	2014.62
1003.359	1982.98
1003.654	1980.05
1003.949	1937.56
1004.243	1952.02
1004.538	1900.73
1004.832	1921.29
1005.127	1907.96
1005.421	1911.57
1005.715	1902.99
1006.009	1890.56
1006.304	1883.1
1006.598	1873.83
1006.892	1835.64
1007.186	1831.35
1007.48	1840.16
1007.773	1804.91
1008.067	1806.04
1008.361	1807.4
1008.655	1803.55
1008.948	1790.22
1009.242	1761.97
1009.535	1775.08
1009.829	1777.57
1010.122	1734.63
1010.415	1722.65
1010.708	1737.57
1011.001	1715.87
1011.295	1693.5
1011.588	1705.48
1011.881	1669.55
1012.173	1681.07
1012.466	1714.52
1012.759	1660.96
1013.052	1654.86
1013.344	1615.08
1013.637	1592.03
1013.93	1620.06
1014.222	1609.89
1014.514	1575.09
1014.807	1573.5
1015.099	1585.03
1015.391	1580.96
1015.683	1565.37
1015.976	1579.61
1016.268	1547.06
1016.56	1540.06
1016.851	1552.04
1017.143	1520.62
1017.435	1492.6
1017.727	1464.58
1018.018	1495.54
1018.31	1468.2
1018.602	1469.55
1018.893	1473.39
1019.185	1454.41
1019.476	1428.65
1019.767	1419.61
1020.058	1432.04
1020.35	1396.11
1020.641	1420.74
1020.932	1387.29
1021.223	1392.49
1021.514	1398.82
1021.804	1353.17
1022.095	1343.23
1022.386	1339.61
1022.677	1335.54
1022.967	1328.76
1023.258	1345.49
1023.548	1308.65
1023.839	1292.16
1024.129	1281.08
1024.419	1295.09
1024.709	1274.53
1025	1251.93
1025.29	1268.2
1025.58	1264.36
1025.87	1262.1
1026.16	1261.87
1026.449	1188.88
1026.739	1220.29
1027.029	1233.63
1027.319	1179.16
1027.608	1204.47
1027.898	1188.88
1028.187	1180.29
1028.477	1182.78
1028.766	1144.81
1029.055	1165.6
1029.344	1161.99
1029.634	1127.64
1029.923	1133.29
1030.212	1115.89
1030.501	1129.22
1030.79	1131.71
1031.078	1107.3
1031.367	1112.05
1031.656	1102.56
1031.945	1083.12
1032.233	1093.97
1032.522	1066.17
1032.81	1036.34
1033.099	1036.12
1033.387	1040.64
1033.675	1046.51
1033.963	1044.93
1034.251	1021.43
1034.54	1005.38
1034.828	996.12
1035.116	990.47
1035.403	1022.56
1035.691	995.21
1035.979	985.27
1036.267	999.96
1036.554	1001.54
1036.842	967.87
1037.129	971.94
1037.417	975.78
1037.704	934.65
1037.992	962.45
1038.279	938.49
1038.566	939.62
1038.853	939.62
1039.14	939.62
