Data from foil_FLMS001491_005.txt Node
Date: Tue Feb 07 11:25:16 GMT 2017
User: dcchb
Spectrometer: FLMS00149
Trigger mode: 0
Integration Time (sec): 2.000000E-2
Scans to average: 10
Electric dark correction enabled: true
Nonlinearity correction enabled: false
Boxcar width: 0
XAxis mode: Wavelengths
Number of Pixels in Spectrum: 2048
>>>>>Begin Spectral Data<<<<<
341.393	-15.44
341.776	-15.44
342.16	-15.44
342.543	-85.72
342.927	-42.78
343.31	-83.91
343.693	-51.59
344.077	-68.32
344.46	-76.45
344.843	-56.34
345.226	-42.78
345.61	-48.66
345.993	-7.08
346.376	4.45
346.759	2.42
347.142	9.87
347.525	49.42
347.908	67.72
348.291	87.16
348.674	91
349.057	123.09
349.44	141.62
349.823	163.09
350.206	178.91
350.588	247.38
350.971	304.33
351.354	294.84
351.737	315.4
352.119	345.91
352.502	360.82
352.884	368.51
353.267	360.37
353.65	373.03
354.032	392.01
354.414	406.7
354.797	406.92
355.179	402.63
355.562	418.22
355.944	423.65
356.326	414.61
356.709	436.98
357.091	432.01
357.473	438.11
357.855	431.33
358.238	474.27
358.62	462.06
359.002	465
359.384	448.51
359.766	463.87
360.148	464.32
360.53	468.62
360.912	470.88
361.294	484.21
361.676	469.97
362.057	457.32
362.439	460.93
362.821	461.61
363.203	450.09
363.584	471.1
363.966	486.02
364.348	468.62
364.729	472.46
365.111	489.18
365.493	478.79
365.874	474.49
366.256	480.14
366.637	493.25
367.019	479.01
367.4	502.29
367.781	502.06
368.163	498.45
368.544	508.16
368.925	494.15
369.306	495.06
369.688	497.09
370.069	512.91
370.45	508.84
370.831	534.38
371.212	522.18
371.593	525.57
371.974	512.68
372.355	527.37
372.736	541.38
373.117	529.63
373.498	552.23
373.879	530.76
374.26	576.86
374.641	518.33
375.021	525.11
375.402	573.47
375.783	579.35
376.163	645.11
376.544	615.51
376.925	600.59
377.305	602.63
377.686	605.34
378.066	591.78
378.447	604.89
378.827	606.24
379.208	632.91
379.588	624.77
379.968	620.93
380.349	638.1
380.729	641.95
381.109	662.06
381.489	651.44
381.87	686.47
382.25	679.91
382.63	668.16
383.01	688.72
383.39	701.61
383.77	721.49
384.15	702.74
384.53	707.93
384.91	739.34
385.29	723.98
385.67	722.17
386.049	782.51
386.429	767.14
386.809	766.91
387.189	781.83
387.568	791.77
387.948	769.17
388.328	829.96
388.707	806.46
389.087	821.15
389.466	848.27
389.846	857.99
390.225	853.92
390.605	867.03
390.984	897.53
391.363	904.76
391.743	914.71
392.122	913.8
392.501	932.79
392.881	956.29
393.26	978.21
393.639	972.11
394.018	969.17
394.397	959.23
394.776	975.95
395.155	1012.33
395.534	1017.98
395.913	1008.04
396.292	1045.33
396.671	1053.69
397.05	1056.85
397.429	1064.31
397.808	1096.62
398.186	1088.71
398.565	1098.88
398.944	1122.39
399.323	1104.31
399.701	1144.53
400.08	1152.22
400.458	1166
400.837	1173.68
401.215	1190.41
401.594	1199.22
401.972	1229.28
402.351	1238.54
402.729	1217.52
403.107	1231.31
403.486	1268.82
403.864	1270.86
404.242	1297.52
404.62	1297.52
404.999	1323.74
405.377	1353.11
405.755	1350.4
406.133	1371.19
406.511	1390.4
406.889	1415.71
407.267	1443.51
407.645	1444.19
408.023	1505.43
408.401	1495.94
408.779	1489.83
409.156	1540.91
409.534	1548.14
409.912	1584.75
410.29	1595.37
410.667	1634.01
411.045	1648.47
411.422	1676.04
411.8	1690.73
412.178	1726.44
412.555	1758.75
412.933	1746.1
413.31	1794.23
413.687	1803.27
414.065	1828.13
414.442	1846.66
414.819	1894.34
415.197	1860.45
415.574	1903.61
415.951	1951.97
416.328	1961.69
416.705	1993.1
417.082	1976.37
417.46	1991.52
417.837	2067.45
418.214	2052.76
418.591	2095.47
418.967	2078.52
419.344	2116.94
419.721	2140.66
420.098	2133.88
420.475	2175.92
420.852	2168.01
421.228	2247.78
421.605	2269.25
421.982	2262.69
422.358	2284.84
422.735	2348.34
423.111	2319.19
423.488	2385.18
423.864	2376.82
424.241	2429.47
424.617	2467.21
424.994	2480.77
425.37	2489.81
425.746	2508.79
426.123	2567.32
426.499	2576.58
426.875	2586.98
427.251	2641.44
427.627	2707.65
428.003	2760.53
428.379	2796.47
428.756	2772.51
429.132	2843.92
429.507	2854.54
429.883	2876.01
430.259	2942.45
430.635	2961.21
431.011	2992.85
431.387	3090.47
431.763	3173.63
432.138	3115.33
432.514	3223.8
432.89	3207.75
433.265	3297.92
433.641	3294.08
434.016	3364.81
434.392	3420.63
434.767	3499.05
435.143	3470.12
435.518	3523
435.894	3562.77
436.269	3609.78
436.644	3649.1
437.02	3656.1
437.395	3759.15
437.77	3736.1
438.145	3795.54
438.52	3866.95
438.895	3907.17
439.271	3896.55
439.646	4009.09
440.021	4040.5
440.395	4039.6
440.77	4040.95
441.145	4080.95
441.52	4139.03
441.895	4169.09
442.27	4220.16
442.645	4200.72
443.019	4258.12
443.394	4289.53
443.769	4350.78
444.143	4294.51
444.518	4446.82
444.892	4338.8
445.267	4467.38
445.641	4521.17
446.016	4522.97
446.39	4524.33
446.764	4585.35
447.139	4533.82
447.513	4635.51
447.887	4710.99
448.262	4720.26
448.636	4726.81
449.01	4810.88
449.384	4853.36
449.758	4868.05
450.132	4966.8
450.506	4934.49
450.88	4987.14
451.254	4979.69
451.628	5101.49
452.002	5141.94
452.376	5170.19
452.75	5217.87
453.123	5298.55
453.497	5372.67
453.871	5429.17
454.244	5509.16
454.618	5508.94
454.992	5622.38
455.365	5600.23
455.739	5762.49
456.112	5849.72
456.486	5855.37
456.859	5894.46
457.232	6035.48
457.606	6018.98
457.979	6095.36
458.352	6170.61
458.725	6302.81
459.099	6297.39
459.472	6380.55
459.845	6441.57
460.218	6583.94
460.591	6580.77
460.964	6658.96
461.337	6775.57
461.71	6905.96
462.083	6966.75
462.456	6974.66
462.829	7000.2
463.201	7188.21
463.574	7154.32
463.947	7302.79
464.32	7393.18
464.692	7464.82
465.065	7645.38
465.438	7632.72
465.81	7813.96
466.183	7857.58
466.555	8024.58
466.928	8103.22
467.3	8114.07
467.672	8232.26
468.045	8421.4
468.417	8387.96
468.789	8470.22
469.161	8629.76
469.534	8740.04
469.906	8947.72
470.278	8927.6
470.65	9083.76
471.022	9188.61
471.394	9435.16
471.766	9566.46
472.138	9672.22
472.51	9851.65
472.882	9957.18
473.253	10042.15
473.625	10245.08
473.997	10473.55
474.369	10554.45
474.74	10593.1
475.112	10835.35
475.484	10959.42
475.855	11131.16
476.227	11308.56
476.598	11548.55
476.97	11626.97
477.341	11884.81
477.713	12099.5
478.084	12181.98
478.455	12487.28
478.827	12644.34
479.198	12983.09
479.569	12909.42
479.94	13353.25
480.311	13433.7
480.682	13812.67
481.053	14092.44
481.424	14244.75
481.795	14418.76
482.166	14574.69
482.537	14863.95
482.908	15096.93
483.279	15265.29
483.65	15605.39
484.021	15861.43
484.391	15996.34
484.762	16200.41
485.133	16352.04
485.503	16604.24
485.874	16935.98
486.244	17158.8
486.615	17473.37
486.985	17674.27
487.356	17917.42
487.726	18121.49
488.097	18548.82
488.467	18415.72
488.837	18980.9
489.207	19093.44
489.578	19272.42
489.948	19482.35
490.318	19895.45
490.688	19890.03
491.058	20296.12
491.428	20501.99
491.798	20710.12
492.168	21153.05
492.538	21279.14
492.908	21408.41
493.278	21736.98
493.648	21738.57
494.017	22025.79
494.387	22198.67
494.757	22266.01
495.126	22669.84
495.496	22583.06
495.866	22895.6
496.235	23181.69
496.605	23344.17
496.974	23466.66
497.344	23781
497.713	23799.3
498.082	24091.27
498.452	24260.31
498.821	24322.23
499.19	24443.35
499.559	24664.59
499.928	24832.5
500.298	25032.04
500.667	25335.99
501.036	25221.87
501.405	25543.21
501.774	25617.56
502.143	25809.42
502.512	25822.3
502.88	26260.03
503.249	26245.57
503.618	26450.99
503.987	26612.11
504.356	26766.01
504.724	26868.83
505.093	27119.44
505.462	27194.24
505.83	27375.48
506.199	27610.95
506.567	28035.58
506.936	27984.73
507.304	28236.93
507.672	28470.37
508.041	28558.73
508.409	28761.88
508.777	29090.46
509.145	29187.18
509.514	29214.98
509.882	29458.14
510.25	29534.97
510.618	29829.43
510.986	29953.27
511.354	30203.43
511.722	30367.49
512.09	30762.06
512.458	30705.79
512.826	31078.66
513.193	31113.46
513.561	31322.72
513.929	31626.22
514.297	31886.32
514.664	32149.82
515.032	32241.79
515.4	32454.22
515.767	32629.58
516.135	32845.62
516.502	32676.81
516.869	33353.63
517.237	33562.21
517.604	33398.6
517.972	33793.62
518.339	34163.32
518.706	34274.06
519.073	34491
519.44	34713.14
519.808	35125.56
520.175	35080.36
520.542	35540.01
520.909	35699.1
521.276	35710.4
521.643	36286.88
522.009	36496.82
522.376	36635.8
522.743	36847.77
523.11	37220.65
523.477	37611.37
523.843	37776.79
524.21	38151.24
524.577	38390.11
524.943	38545.36
525.31	38763.88
525.676	39152.35
526.043	39511.43
526.409	39602.05
526.776	40070.74
527.142	40198.19
527.508	40378.75
527.874	40695.81
528.241	40843.15
528.607	40795.01
528.973	41322.23
529.339	41313.65
529.705	41813.29
530.071	42089.67
530.437	42340.29
530.803	42585.48
531.169	42705.47
531.535	42656.66
531.901	43026.37
532.267	43242.63
532.632	43434.27
532.998	43458.9
533.364	43902.73
533.73	43935.72
534.095	44208.71
534.461	44392.66
534.826	44662.71
535.192	44806.66
535.557	45085.98
535.923	45181.11
536.288	45339.3
536.653	45526.42
537.019	45470.82
537.384	45727.99
537.749	45833.3
538.114	45991.94
538.479	45956.46
538.845	46228.54
539.21	46158.04
539.575	46371.14
539.94	46555.77
540.305	46851.35
540.67	46810.68
541.034	47148.52
541.399	47175.86
541.764	47197.11
542.129	47540.37
542.494	47573.37
542.858	47687.04
543.223	47644.78
543.587	48033.02
543.952	48059.68
544.316	48137.19
544.681	48213.12
545.045	48539.22
545.41	48705.54
545.774	48784.64
546.138	48665.32
546.503	48981.47
546.867	48939.89
547.231	49216.94
547.595	49283.38
547.959	49534.45
548.324	49487.89
548.688	49656.25
549.052	49847.43
549.416	49885.62
549.779	50140.53
550.143	50157.71
550.507	50278.61
550.871	50498.49
551.235	50349.34
551.599	50746.17
551.962	50834.07
552.326	50856.67
552.689	51057.8
553.053	50992.49
553.417	51133.27
553.78	51499.82
554.143	51461.18
554.507	51677.89
554.87	51747.95
555.234	52006.47
555.597	51972.35
555.96	52123.53
556.323	52298.89
556.686	52388.61
557.05	52635.61
557.413	52677.87
557.776	52809.61
558.139	52994.92
558.502	53022.04
558.865	53017.29
559.228	53354.01
559.59	53389.94
559.953	53456.38
560.316	53812.53
560.679	53778.63
561.041	54025.85
561.404	54197.37
561.767	54346.07
562.129	54307.65
562.492	54598.72
562.854	54568.44
563.217	54658.61
563.579	54765.27
563.941	54991.48
564.304	55141.98
564.666	55252.71
565.028	55334.52
565.39	55422.88
565.753	55552.14
566.115	55670.33
566.477	55739.71
566.839	55807.5
567.201	56037.1
567.563	56078
567.925	56268.51
568.287	56348.96
568.648	56377.2
569.01	56457.65
569.372	56702.39
569.734	56621.04
570.095	56814.03
570.457	56918.66
570.819	56996.4
571.18	56944.19
571.542	57116.85
571.903	57096.73
572.265	57158.43
572.626	57293.56
572.987	57333.56
573.349	57422.83
573.71	57558.87
574.071	57594.8
574.432	57693.78
574.794	57875.47
575.155	57893.32
575.516	57791.63
575.877	57960.44
576.238	58019.65
576.599	58058.52
576.96	58005.86
577.32	58198.17
577.681	58225.97
578.042	58280.2
578.403	58236.82
578.763	58239.08
579.124	58329.7
579.485	58362.91
579.845	58524.04
580.206	58438.17
580.566	58427.77
580.927	58483.36
581.287	58534.44
581.648	58468.45
582.008	58595.9
582.368	58484.04
582.728	58515.23
583.089	58546.41
583.449	58508.9
583.809	58623.47
584.169	58649.01
584.529	58560.88
584.889	58842
585.249	58641.1
585.609	58551.84
585.969	58706.18
586.329	58623.25
586.688	58764.94
587.048	58675.22
587.408	58627.09
587.768	58590.25
588.127	58628.9
588.487	58584.83
588.846	58795.67
589.206	58569.69
589.565	58608.11
589.925	58702.11
590.284	58616.47
590.643	58646.75
591.003	58773.75
591.362	58806.52
591.721	58759.74
592.08	58728.33
592.44	58792.06
592.799	58816.69
593.158	58684.26
593.517	58733.75
593.876	58738.5
594.235	58685.62
594.593	58749.35
594.952	58865.05
595.311	58685.62
595.67	58816.69
596.029	58903.92
596.387	58944.14
596.746	58923.8
597.104	58727.42
597.463	58763.36
597.822	58935.33
598.18	58886.74
598.538	58755.67
598.897	58922.9
599.255	58762
599.613	59086.74
599.972	58943.69
600.33	59002.22
600.688	58861.66
601.046	58967.19
601.404	59012.16
601.762	59005.84
602.12	59090.35
602.478	59052.16
602.836	59052.39
603.194	59042.9
603.552	59050.58
603.91	58997.7
604.268	59108.43
604.625	59056.46
604.983	59186.4
605.341	59047.87
605.698	59186.85
606.056	59262.33
606.413	59184.81
606.771	59255.55
607.128	59263.91
607.485	59103.69
607.843	59232.72
608.2	59278.6
608.557	59338.93
608.914	59251.7
609.272	59354.75
609.629	59387.75
609.986	59479.72
610.343	59401.53
610.7	59611.02
611.057	59516.1
611.414	59570.11
611.771	59535.54
612.127	59629.1
612.484	59603.79
612.841	59674.52
613.198	59570.34
613.554	59671.35
613.911	59721.3
614.267	59735.76
614.624	59727.62
614.98	59739.15
615.337	59895.08
615.693	59793.39
616.05	59838.13
616.406	59953.38
616.762	59825.7
617.118	59818.24
617.475	59859.6
617.831	59933.49
618.187	59872.03
618.543	59880.39
618.899	60055.98
619.255	59961.74
619.611	59940.5
619.967	59974.4
620.323	60057.33
620.678	59930.33
621.034	59897.56
621.39	59865.25
621.746	59828.64
622.101	60129.87
622.457	59908.64
622.812	59905.47
623.168	59983.21
623.523	60028.86
623.879	59978.01
624.234	59836.1
624.589	59935.75
624.945	59962.65
625.3	59955.64
625.655	59925.36
626.01	59967.62
626.365	59961.74
626.72	59986.6
627.075	59909.99
627.43	59850.56
627.785	59843.1
628.14	59914.96
628.495	59862.54
628.85	59841.07
629.205	59816.21
629.559	59880.84
629.914	59770.11
630.269	59787.74
630.623	59680.17
630.978	59672.71
631.332	59743.44
631.687	59763.56
632.041	59693.5
632.396	59673.39
632.75	59588.42
633.104	59647.4
633.459	59517.01
633.813	59538.25
634.167	59432.72
634.521	59471.13
634.875	59465.71
635.229	59341.19
635.583	59211.25
635.937	59252.61
636.291	59207.64
636.645	59185.49
636.999	59129.45
637.352	59216.23
637.706	59043.8
638.06	59084.03
638.413	58996.34
638.767	58920.19
639.121	59063.69
639.474	58893.52
639.828	58831.38
640.181	58884.26
640.534	58889.45
640.888	58789.34
641.241	58664.6
641.594	58683.13
641.947	58743.24
642.301	58627.31
642.654	58660.76
643.007	58603.81
643.36	58571.04
643.713	58568.56
644.066	58650.36
644.419	58385.29
644.771	58133.77
645.124	57862.81
645.477	57775.36
645.83	57702.14
646.182	57697.17
646.535	57679.54
646.888	57797.28
647.24	57669.6
647.593	57864.4
647.945	57753.89
648.298	57649.49
648.65	57613.33
649.002	57423.96
649.355	57485.2
649.707	57364.3
650.059	57432.32
650.411	57589.6
650.763	57686.77
651.115	57963.83
651.467	57843.83
651.819	57848.35
652.171	57738.98
652.523	57751.18
652.875	57733.33
653.227	57601.35
653.578	57753.89
653.93	57666.44
654.282	57572.2
654.633	57473.9
654.985	57495.37
655.337	57561.35
655.688	57497.63
656.039	57584.63
656.391	57416.5
656.742	57399.1
657.094	57400.68
657.445	57464.18
657.796	57398.87
658.147	57270.29
658.498	57247.01
658.849	57304.64
659.2	57220.8
659.551	57208.14
659.902	57237.97
660.253	57150.52
660.604	57198.2
660.955	57099.22
661.306	57168.14
661.656	57173.12
662.007	57190.97
662.358	57035.94
662.708	57053.57
663.059	57072.33
663.409	56862.84
663.76	57024.64
664.11	57030.97
664.461	57041.59
664.811	57048.82
665.161	57051.31
665.511	56871.88
665.862	56917.08
666.212	56954.59
666.562	56874.59
666.912	56868.72
667.262	56887.47
667.612	56770.64
667.962	56781.94
668.312	56706.23
668.662	56865.33
669.011	56759.57
669.361	56655.84
669.711	56732.9
670.06	56663.98
670.41	56499.01
670.76	56446.58
671.109	56611.77
671.459	56555.73
671.808	56525.22
672.157	56574.04
672.507	56326.36
672.856	56321.61
673.205	56425.79
673.554	56568.16
673.904	56362.74
674.253	56534.04
674.602	56462.63
674.951	56072.35
675.3	55883.66
675.649	56289.97
675.998	56238.45
676.346	56253.59
676.695	56210.2
677.044	56080.04
677.393	56147.15
677.741	56133.82
678.09	56084.78
678.438	55964.33
678.787	56041.17
679.135	56014.05
679.484	55768.41
679.832	55946.25
680.181	55672.82
680.529	55801.17
680.877	55655.87
681.225	55668.97
681.573	55828.52
681.922	55562.54
682.27	55515.53
682.618	55562.54
682.966	55443.9
683.314	55513.95
683.661	55450.45
684.009	55310.34
684.357	55238.02
684.705	55130.01
685.053	55218.14
685.4	55136.11
685.748	55023.34
686.095	55037.8
686.443	54924.13
686.79	54873.29
687.138	54939.73
687.485	54891.14
687.832	54757.81
688.18	54711.03
688.527	54532.96
688.874	54617.93
689.221	54417.26
689.568	54374.32
689.915	54334.09
690.262	54297.48
690.609	54215.68
690.956	54047.55
691.303	54075.8
691.65	53935.01
691.997	53912.41
692.344	53682.59
692.69	53714.68
693.037	53567.11
693.383	53363.95
693.73	53530.73
694.077	53325.98
694.423	53233.78
694.769	53150.62
695.116	53076.05
695.462	52962.83
695.808	52964.41
696.155	52893.23
696.501	52731.88
696.847	52729.39
697.193	52535.95
697.539	52574.37
697.885	52410.75
698.231	52282.4
698.577	52305.45
698.923	52287.59
699.269	52088.05
699.614	51900.49
699.96	51801.96
700.306	51865.46
700.651	51674.5
700.997	51631.57
701.342	51539.37
701.688	51551.79
702.033	51420.5
702.379	51324.68
702.724	51223.89
703.069	51302.31
703.415	50937.8
703.76	50890.12
704.105	50861.87
704.45	50693.29
704.795	50513.18
705.14	50473.86
705.485	50436.12
705.83	50182.11
706.175	50367.42
706.52	50236.57
706.865	50111.15
707.209	49995
707.554	49904.83
707.899	50035.45
708.243	49830.03
708.588	49736.93
708.932	49434.34
709.277	49409.48
709.621	49377.61
709.966	49049.49
710.31	49314.11
710.654	49007.68
710.998	49040.45
711.342	48802.94
711.687	48818.31
712.031	48630.06
712.375	48621.93
712.719	48575.6
713.063	48560.01
713.407	48590.97
713.75	48352.78
714.094	48188.27
714.438	48090.87
714.782	48143.75
715.125	47970.65
715.469	47910.76
715.812	47666.02
716.156	47445.24
716.499	47537.21
716.843	47560.03
717.186	47253.83
717.53	47363.88
717.873	47366.82
718.216	47278.91
718.559	47049.54
718.902	46838.47
719.246	47026.04
719.589	46799.15
719.932	46553.51
720.275	46461.53
720.617	46520.29
720.96	46408.43
721.303	46520.74
721.646	46488.42
721.989	46112.84
722.331	46204.59
722.674	46026.52
723.016	46031.04
723.359	45937.7
723.701	46037.36
724.044	45734.55
724.386	45472.41
724.729	45642.8
725.071	45480.99
725.413	45376.59
725.755	45323.71
726.097	45265.41
726.439	45107.44
726.782	45047.56
727.124	45280.09
727.465	45000.1
727.807	44804.18
728.149	44740.45
728.491	44758.07
728.833	44770.28
729.175	44674.23
729.516	44624.74
729.858	44525.99
730.199	44536.16
730.541	44384.75
730.882	44188.82
731.224	44292.1
731.565	44038.55
731.906	44083.06
732.248	43957.64
732.589	43621.38
732.93	43552.23
733.271	43645.79
733.612	43596.98
733.953	43735.95
734.294	43510.2
734.635	43425
734.976	43452.12
735.317	43214.84
735.658	43211.45
735.999	43094.62
736.339	43160.83
736.68	43041.28
737.021	42956.54
737.361	42665.7
737.702	42930.55
738.042	42825.92
738.383	42762.19
738.723	42728.75
739.063	42519.49
739.404	42638.36
739.744	42441.75
740.084	42344.58
740.424	42397.68
740.764	42307.97
741.104	42307.97
741.444	42171.7
741.784	41937.81
742.124	42056.45
742.464	41955.89
742.804	41803.35
743.143	41715.67
743.483	41685.16
743.823	41486.07
744.162	41547.99
744.502	41661.43
744.841	41377.6
745.181	41585.28
745.52	41254.44
745.86	41169.24
746.199	41027.33
746.538	40860.78
746.877	41088.11
747.216	40981.45
747.556	40766.77
747.895	40787.33
748.234	40658.3
748.573	40556.15
748.911	40394.35
749.25	40353.67
749.589	40382.82
749.928	40262.6
750.267	40237.29
750.605	39988.48
750.944	39905.77
751.283	39871.42
751.621	39993.45
751.96	39670.07
752.298	39657.19
752.636	39699.9
752.975	39488.38
753.313	39289.29
753.651	39521.83
753.989	39138.79
754.327	39129.07
754.666	39111.44
755.004	38863.99
755.342	39031.45
755.679	38821.51
756.017	38821.96
756.355	38624.68
756.693	38410.22
757.031	38475.98
757.368	38183.11
757.706	38179.94
758.044	38159.15
758.381	38050.68
758.719	37901.53
759.056	37934.75
759.394	37758.71
759.731	37341.32
760.068	37562.56
760.405	37141.1
760.743	37194.43
761.08	37244.15
761.417	37021.1
761.754	36923.48
762.091	36686.42
762.428	36758.28
762.765	36565.3
763.102	36694.33
763.438	36375.92
763.775	36110.17
764.112	36127.34
764.449	36146.55
764.785	35852.55
765.122	35611.87
765.458	35664.53
765.795	35605.32
766.131	35395.16
766.467	35230.87
766.804	35110.42
767.14	34988.61
767.476	34867.94
767.812	34945.23
768.148	34866.36
768.485	34599.92
768.821	34386.6
769.157	34445.35
769.492	34149.54
769.828	34265.02
770.164	33955.87
770.5	33853.28
770.836	33891.47
771.171	33773.96
771.507	33544.13
771.842	33338.49
772.178	33358.6
772.513	33183.92
772.849	33082.22
773.184	32808.56
773.519	33011.72
773.855	32765.85
774.19	32648.11
774.525	32456.25
774.86	32483.6
775.195	32331.51
775.53	32135.36
775.865	31812.88
776.2	31649.27
776.535	31462.83
776.87	31442.49
777.205	31345.09
777.539	31150.75
777.874	31327.24
778.209	30907.37
778.543	30819.23
778.878	30724.09
779.212	30734.71
779.547	30629.18
779.881	30546.92
780.215	30294.73
780.55	30265.8
780.884	29990.1
781.218	29813.83
781.552	29954.85
781.886	29733.84
782.22	29528.42
782.554	29523.9
782.888	29234.41
783.222	29220.86
783.556	28981.54
783.889	28936.12
784.223	28719.4
784.557	28713.3
784.89	28810.25
785.224	28512.63
785.557	28419.75
785.891	28275.12
786.224	28271.95
786.558	28292.52
786.891	27988.57
787.224	27930.04
787.557	27817.28
787.891	27823.38
788.224	27760.1
788.557	27710.39
788.89	27607.79
789.223	27376.84
789.556	27178.2
789.888	27182.72
790.221	27030.63
790.554	26894.36
790.887	26914.93
791.219	26660.47
791.552	26741.15
791.884	26532.34
792.217	26379.12
792.549	26253.48
792.882	26139.13
793.214	26086.02
793.546	26079.02
793.879	25835.86
794.211	25694.17
794.543	25773.49
794.875	25759.03
795.207	25698.91
795.539	25399.04
795.871	25487.39
796.203	25249.89
796.535	25093.05
796.867	25107.29
797.198	25022.32
797.53	24916.34
797.862	24735.1
798.193	24756.57
798.525	24616.23
798.856	24737.81
799.188	24541.43
799.519	24385.95
799.85	24308.89
800.182	24398.84
800.513	24362.45
800.844	24055.79
801.175	24326.52
801.506	24061.22
801.837	24096.47
802.168	24031.84
802.499	23801.56
802.83	23748.23
803.161	23680.66
803.491	23691.28
803.822	23385.08
804.153	23452.42
804.483	23134.46
804.814	23232.31
805.145	23013.34
805.475	23038.87
805.805	22994.58
806.136	22880.23
806.466	22951.64
806.796	22841.59
807.126	22589.17
807.457	22562.73
807.787	22592.78
808.117	22416.97
808.447	22359.57
808.777	22344.88
809.107	22341.94
809.436	22200.93
809.766	22140.59
810.096	21963.42
810.426	21906.7
810.755	21901.73
811.085	21793.93
811.414	21784.22
811.744	21542.41
812.073	21522.08
812.403	21527.27
812.732	21468.97
813.061	21506.26
813.39	21440.95
813.719	21415.86
814.049	21425.58
814.378	21262.65
814.707	21184.68
815.036	21183.78
815.365	21059.71
815.693	20739.95
816.022	21002.99
816.351	20977.91
816.68	20760.51
817.008	20804.35
817.337	20664.92
817.665	20593.29
817.994	20630.57
818.322	20518.26
818.651	20425.16
818.979	20357.36
819.307	20429
819.636	20306.51
819.964	20165.05
820.292	20168.89
820.62	20228.55
820.948	20050.7
821.276	20200.3
821.604	20146.97
821.932	20185.39
822.259	20162.11
822.587	20092.06
822.915	19991.72
823.243	20116.91
823.57	20004.83
823.898	20089.57
824.225	19922.34
824.553	19949.91
824.88	19981.32
825.207	19946.75
825.535	19944.49
825.862	19964.6
826.189	19897.49
826.516	19996.92
826.843	20007.31
827.17	19999.18
827.497	19922.8
827.824	19900.2
828.151	20013.41
828.478	19849.58
828.805	19996.01
829.131	19814.1
829.458	19711.28
829.785	19733.42
830.111	19753.76
830.438	19954.66
830.764	19774.78
831.09	19959.4
831.417	19753.31
831.743	19872.63
832.069	19736.13
832.395	19669.02
832.722	19748.56
833.048	19732.74
833.374	19741.33
833.7	19678.06
834.026	19662.92
834.351	19704.27
834.677	19715.57
835.003	19829.92
835.329	19732.52
835.654	19666.3
835.98	19610.26
836.306	19598.51
836.631	19498.63
836.956	19588.57
837.282	19523.26
837.607	19544.5
837.932	19408.01
838.258	19396.48
838.583	19376.37
838.908	19246.2
839.233	19287.56
839.558	19244.4
839.883	19121.91
840.208	19149.03
840.533	19242.36
840.858	19057.06
841.182	19072.2
841.507	19196.26
841.832	18993.78
842.156	18995.36
842.481	18949.71
842.805	18881.69
843.13	18837.85
843.454	18808.25
843.778	18726.67
844.103	18754.24
844.427	18664.52
844.751	18688.48
845.075	18600.8
845.399	18445.32
845.723	18397.19
846.047	18447.81
846.371	18310.41
846.695	18345.66
847.019	18173.91
847.343	18170.53
847.666	17963.52
847.99	17838.78
848.313	17890.53
848.637	17838.1
848.96	17765.79
849.284	17716.53
849.607	17623.65
849.931	17521.73
850.254	17407.61
850.577	17393.82
850.9	17311.56
851.223	17280.38
851.546	17205.35
851.869	17136.88
852.192	17163.09
852.515	17122.64
852.838	16930.78
853.161	16962.42
853.483	16909.99
853.806	16785.02
854.129	16772.37
854.451	16590.91
854.774	16604.01
855.096	16533.05
855.419	16508.65
855.741	16387.07
856.063	16293.96
856.385	16304.13
856.708	16253.29
857.03	16278.82
857.352	16322.89
857.674	16050.35
857.996	16029.34
858.318	15969
858.64	15864.37
858.961	15842.9
859.283	15762.45
859.605	15656.01
859.926	15849.91
860.248	15815.11
860.57	15742.57
860.891	15793.19
861.212	15767.88
861.534	15621.21
861.855	15639.97
862.176	15702.34
862.498	15593.64
862.819	15713.87
863.14	15569.69
863.461	15514.32
863.782	15534.44
864.103	15472.29
864.424	15404.04
864.745	15390.71
865.065	15318.4
865.386	15282.69
865.707	15338.96
866.027	15324.5
866.348	15273.2
866.668	15255.12
866.989	15108.01
867.309	15091.28
867.63	15092.64
867.95	15058.74
868.27	14986.43
868.59	15032.08
868.91	15043.15
869.23	14995.24
869.55	14949.59
869.87	15041.57
870.19	15011.29
870.51	15032.53
870.83	15039.53
871.15	14839.54
871.469	14866.43
871.789	14864.17
872.109	14774.46
872.428	14673.22
872.748	14826.88
873.067	14802.03
873.386	14737.62
873.706	14730.16
874.025	14649.49
874.344	14575.59
874.663	14614.01
874.982	14666.21
875.301	14705.53
875.62	14644.06
875.939	14475.25
876.258	14666.89
876.577	14590.96
876.896	14568.81
877.214	14465.76
877.533	14554.35
877.852	14589.6
878.17	14509.38
878.489	14455.37
878.807	14497.18
879.125	14279.33
879.444	14379.44
879.762	14287.69
880.08	14207.47
880.398	14214.92
880.716	14310.97
881.034	14147.58
881.352	14145.32
881.67	14130.18
881.988	14123.4
882.306	14052.67
882.624	14112.78
882.941	14054.48
883.259	14089.73
883.577	13991.2
883.894	13957.53
884.212	13915.04
884.529	13972.9
884.846	13942.16
885.164	13880.92
885.481	13874.82
885.798	13988.94
886.115	13718.44
886.432	13805.67
886.75	13730.87
887.067	13755.05
887.383	13639.34
887.7	13651.32
888.017	13591.66
888.334	13569.74
888.651	13499.69
888.967	13492.23
889.284	13349.63
889.6	13380.14
889.917	13323.19
890.233	13379.46
890.55	13325.68
890.866	13346.25
891.182	13289.75
891.498	13219.24
891.815	13166.59
892.131	13134.73
892.447	12985.8
892.763	13024.45
893.079	12985.12
893.395	13002.98
893.71	12929.31
894.026	12916.65
894.342	12889.08
894.657	12753.94
894.973	12749.65
895.289	12748.97
895.604	12721.18
895.92	12655.87
896.235	12616.55
896.55	12630.78
896.865	12622.87
897.181	12542.42
897.496	12473.5
897.811	12417.23
898.126	12394.41
898.441	12294.97
898.756	12302.66
899.071	12230.12
899.386	12334.75
899.7	12200.96
900.015	12194.41
900.33	12110.8
900.644	12097.92
900.959	12023.34
901.273	12056.56
901.588	11934.08
901.902	11914.42
902.216	11945.38
902.531	11894.98
902.845	11871.03
903.159	11779.05
903.473	11733.41
903.787	11689.57
904.101	11584.26
904.415	11557.14
904.729	11531.38
905.042	11499.97
905.356	11464.49
905.67	11393.75
905.984	11499.97
906.297	11412.06
906.611	11303.59
906.924	11240.76
907.237	11220.65
907.551	11154.89
907.864	11038.96
908.177	11108.34
908.491	11019.98
908.804	10985.4
909.117	10995.35
909.43	10852.75
909.743	10822.7
910.056	10803.71
910.368	10718.97
910.681	10684.17
910.994	10647.33
911.307	10721
911.619	10592.19
911.932	10603.72
912.244	10517.62
912.557	10535.92
912.869	10459.77
913.181	10410.05
913.494	10358.3
913.806	10340.22
914.118	10349.26
914.43	10275.82
914.742	10272.88
915.054	10209.6
915.366	10197.85
915.678	10093.9
915.99	10050.29
916.302	9908.37
916.613	9892.55
916.925	9901.14
917.236	9890.29
917.548	9850.74
917.859	9842.83
918.171	9728.71
918.482	9696.62
918.794	9613.46
919.105	9625.89
919.416	9506.8
919.727	9510.41
920.038	9563.97
920.349	9477.65
920.66	9388.84
920.971	9414.15
921.282	9310.19
921.593	9295.05
921.903	9191.55
922.214	9307.48
922.525	9161.27
922.835	9117.2
923.146	9152.46
923.456	9109.97
923.767	9045.12
924.077	9011.22
924.387	8953.59
924.697	8888.74
925.008	8886.25
925.318	8849.87
925.628	8755.18
925.938	8701.4
926.248	8657.33
926.558	8643.77
926.867	8623.88
927.177	8583.88
927.487	8636.99
927.796	8534.17
928.106	8511.12
928.416	8440.61
928.725	8361.07
929.034	8381.18
929.344	8432.7
929.653	8281.07
929.962	8281.29
930.271	8252.59
930.581	8182.54
930.89	8213.27
931.199	8100.06
931.508	8147.96
931.817	8160.84
932.125	8140.51
932.434	8003.56
932.743	7978.02
933.051	7915.65
933.36	7814.64
933.669	7813.28
933.977	7859.84
934.286	7781.87
934.594	7839.05
934.902	7703.68
935.21	7739.61
935.519	7670.69
935.827	7672.72
936.135	7545.72
936.443	7557.7
936.751	7520.18
937.059	7501.43
937.367	7376.46
937.674	7440.41
937.982	7373.07
938.29	7390.24
938.597	7366.52
938.905	7298.95
939.213	7216.69
939.52	7235.67
939.827	7179.63
940.135	7155.45
940.442	7159.29
940.749	7082.91
941.056	7129.46
941.363	7027.09
941.67	6923.82
941.977	6963.14
942.284	6903.02
942.591	6942.35
942.898	6858.51
943.205	6863.03
943.511	6842.01
943.818	6833.2
944.125	6785.74
944.431	6744.84
944.738	6689.92
945.044	6623.26
945.35	6651.73
945.657	6589.59
945.963	6637.04
946.269	6549.59
946.575	6562.02
946.881	6457.39
947.187	6477.5
947.493	6441.79
947.799	6385.98
948.105	6354.34
948.41	6375.81
948.716	6312.53
949.022	6296.94
949.327	6252.87
949.633	6206.09
949.938	6190.28
950.244	6244.28
950.549	6187.79
950.854	6146.21
951.16	6134.46
951.465	6067.11
951.77	6020.34
952.075	5979.89
952.38	6003.39
952.685	5995.48
952.99	5910.28
953.294	5901.7
953.599	5877.06
953.904	5913.67
954.209	5823.96
954.513	5824.86
954.818	5795.71
955.122	5790.51
955.426	5759.55
955.731	5699.67
956.035	5710.06
956.339	5712.55
956.643	5717.29
956.948	5625.09
957.252	5591.87
957.556	5586.45
957.86	5484.98
958.163	5539.67
958.467	5487.02
958.771	5459.67
959.075	5485.43
959.378	5430.3
959.682	5429.39
959.985	5336.74
960.289	5329.96
960.592	5355.49
960.896	5314.59
961.199	5270.07
961.502	5267.14
961.805	5246.8
962.108	5218.55
962.411	5195.5
962.714	5135.16
963.017	5131.09
963.32	5153.69
963.623	5095.84
963.926	5094.94
964.228	5059.91
964.531	5046.12
964.833	4968.16
965.136	4973.36
965.438	4982.4
965.741	4907.37
966.043	4889.97
966.345	4888.84
966.648	4866.24
966.95	4825.57
967.252	4858.33
967.554	4813.36
967.856	4760.71
968.158	4702.4
968.46	4740.6
968.761	4723.42
969.063	4682.07
969.365	4657.43
969.666	4652.69
969.968	4633.71
970.269	4614.05
970.571	4586.48
970.872	4610.66
971.174	4539.92
971.475	4565.01
971.776	4511.68
972.077	4472.58
972.378	4490.88
972.679	4499.47
972.98	4440.04
973.281	4398.91
973.582	4421.28
973.883	4358.91
974.183	4360.94
974.484	4268.97
974.785	4318.46
975.085	4317.56
975.386	4317.78
975.686	4277.33
975.986	4216.32
976.287	4231.91
976.587	4207.28
976.887	4207.28
977.187	4156.88
977.487	4143.55
977.787	4090.22
978.087	4122.53
978.387	4107.39
978.687	4107.39
978.987	4021.07
979.286	4063.55
979.586	4031.01
979.885	3999.15
980.185	3945.14
980.484	3960.28
980.784	3951.01
981.083	3910.79
981.382	3937.68
981.682	3923.44
981.981	3857.46
982.28	3825.82
982.579	3793.28
982.878	3853.39
983.177	3781.52
983.475	3816.78
983.774	3753.05
984.073	3765.25
984.372	3712.37
984.67	3710.57
984.969	3691.58
985.267	3700.17
985.566	3690.45
985.864	3607.07
986.162	3633.73
986.461	3600.51
986.759	3617.91
987.057	3599.61
987.355	3532.27
987.653	3513.51
987.951	3512.61
988.249	3495.43
988.547	3500.4
988.844	3475.32
989.142	3438.03
989.44	3415.88
989.737	3428.99
990.035	3382.44
990.332	3425.38
990.63	3377.92
990.927	3358.94
991.224	3340.41
991.521	3338.6
991.819	3323.68
992.116	3298.15
992.413	3276.23
992.71	3261.31
993.006	3213.86
993.303	3209.79
993.6	3183.8
993.897	3219.28
994.193	3168.21
994.49	3181.54
994.787	3115.1
995.083	3140.19
995.379	3106.06
995.676	3094.99
995.972	3085.05
996.268	3062.67
996.565	3037.14
996.861	3051.15
997.157	3029.91
997.453	2991.49
997.749	2974.77
998.044	2982
998.34	2962.11
998.636	2932.51
998.932	2902.45
999.227	2921.89
999.523	2920.76
999.818	2881.21
1000.114	2841.21
1000.409	2834.21
1000.704	2860.87
1001	2807.99
1001.295	2796.01
1001.59	2779.97
1001.885	2766.41
1002.18	2741.33
1002.475	2748.78
1002.77	2727.54
1003.065	2705.85
1003.359	2704.04
1003.654	2679.86
1003.949	2660.65
1004.243	2665.17
1004.538	2612.74
1004.832	2630.82
1005.127	2566.42
1005.421	2586.08
1005.715	2575.68
1006.009	2577.04
1006.304	2535.46
1006.598	2516.7
1006.892	2523.48
1007.186	2488.45
1007.48	2494.1
1007.773	2482.8
1008.067	2446.42
1008.361	2417.94
1008.655	2407.1
1008.948	2393.09
1009.242	2405.74
1009.535	2363.94
1009.829	2394.44
1010.122	2335.46
1010.415	2335.69
1010.708	2309.47
1011.001	2306.54
1011.295	2274.22
1011.588	2279.87
1011.881	2257.95
1012.173	2272.86
1012.466	2248.68
1012.759	2243.94
1013.052	2239.19
1013.344	2189.02
1013.637	2166.2
1013.93	2163.94
1014.222	2168.91
1014.514	2129.59
1014.807	2111.74
1015.099	2106.77
1015.391	2089.82
1015.683	2093.89
1015.976	2056.15
1016.268	2066.32
1016.56	2085.07
1016.851	2028.58
1017.143	1996.26
1017.435	1998.07
1017.727	1978.18
1018.018	1974.34
1018.31	1973.89
1018.602	1951.06
1018.893	1931.18
1019.185	1897.28
1019.476	1888.92
1019.767	1898.64
1020.058	1880.11
1020.35	1888.02
1020.641	1838.75
1020.932	1826.32
1021.223	1846.43
1021.514	1851.86
1021.804	1797.4
1022.095	1788.58
1022.386	1773.44
1022.677	1754.46
1022.967	1763.72
1023.258	1726.44
1023.548	1737.74
1023.839	1734.35
1024.129	1718.98
1024.419	1681.47
1024.709	1688.7
1025	1648.7
1025.29	1653.9
1025.58	1638.53
1025.87	1654.35
1026.16	1628.81
1026.449	1598.53
1026.739	1598.08
1027.029	1635.37
1027.319	1568.25
1027.608	1559.66
1027.898	1582.26
1028.187	1540.68
1028.477	1533
1028.766	1530.51
1029.055	1484.18
1029.344	1498.65
1029.634	1487.8
1029.923	1480.12
1030.212	1462.94
1030.501	1455.48
1030.79	1443.73
1031.078	1450.29
1031.367	1420.23
1031.656	1404.19
1031.945	1394.24
1032.233	1409.38
1032.522	1385.88
1032.81	1385.43
1033.099	1373.23
1033.387	1348.37
1033.675	1332.32
1033.963	1325.09
1034.251	1356.96
1034.54	1330.97
1034.828	1308.82
1035.116	1295.04
1035.403	1280.35
1035.691	1287.13
1035.979	1264.75
1036.267	1270.4
1036.554	1257.75
1036.842	1264.3
1037.129	1249.39
1037.417	1241.48
1037.704	1211.2
1037.992	1199.67
1038.279	1234.25
1038.566	1176.85
1038.853	1176.85
1039.14	1176.85
