Data from foil_FLMS001491_051.txt Node
Date: Tue Feb 07 11:27:10 GMT 2017
User: dcchb
Spectrometer: FLMS00149
Trigger mode: 0
Integration Time (sec): 2.000000E-2
Scans to average: 10
Electric dark correction enabled: true
Nonlinearity correction enabled: false
Boxcar width: 0
XAxis mode: Wavelengths
Number of Pixels in Spectrum: 2048
>>>>>Begin Spectral Data<<<<<
341.393	1.21
341.776	1.21
342.16	1.21
342.543	-42.63
342.927	-75.17
343.31	-71.55
343.693	-78.56
344.077	-41.72
344.46	-52.34
344.843	-42.63
345.226	-64.09
345.61	-42.4
345.993	-5.56
346.376	-7.37
346.759	-14.6
347.142	41.89
347.525	42.57
347.908	71.5
348.291	77.14
348.674	72.85
349.057	114.88
349.44	135.45
349.823	124.38
350.206	164.37
350.588	236.91
350.971	251.6
351.354	268.78
351.737	246.86
352.119	294.77
352.502	300.42
352.884	308.78
353.267	318.72
353.65	334.09
354.032	334.31
354.414	343.8
354.797	354.88
355.179	391.94
355.562	366.85
355.944	375.67
356.326	374.31
356.709	403.46
357.091	388.1
357.473	405.72
357.855	415.22
358.238	393.97
358.62	419.51
359.002	421.77
359.384	410.47
359.766	407.98
360.148	407.08
360.53	409.57
360.912	416.57
361.294	398.04
361.676	402.56
362.057	423.12
362.439	405.05
362.821	379.74
363.203	411.6
363.584	393.75
363.966	399.85
364.348	409.79
364.729	404.37
365.111	403.46
365.493	401.43
365.874	410.92
366.256	406.63
366.637	392.62
367.019	402.33
367.4	386.52
367.781	419.96
368.163	425.38
368.544	408.66
368.925	423.35
369.306	426.51
369.688	418.83
370.069	421.32
370.45	409.11
370.831	439.4
371.212	442.11
371.593	435.78
371.974	428.32
372.355	443.91
372.736	465.38
373.117	438.49
373.498	451.37
373.879	457.93
374.26	457.47
374.641	432.84
375.021	461.99
375.402	475.78
375.783	490.02
376.163	511.26
376.544	503.8
376.925	491.15
377.305	489.56
377.686	504.03
378.066	495.44
378.447	508.55
378.827	519.39
379.208	493.63
379.588	533.18
379.968	503.8
380.349	517.13
380.729	538.15
381.109	545.61
381.489	523.91
381.87	530.69
382.25	547.87
382.63	563.46
383.01	556.23
383.39	581.09
383.77	558.71
384.15	576.79
384.53	617.24
384.91	601.42
385.29	612.05
385.67	613.18
386.049	603.01
386.429	611.59
386.809	599.62
387.189	609.11
387.568	603.23
387.948	632.38
388.328	636.9
388.707	647.53
389.087	669.67
389.466	645.49
389.846	680.52
390.225	710.57
390.605	683.68
390.984	678.03
391.363	708.31
391.743	717.81
392.122	721.87
392.501	744.02
392.881	761.87
393.26	748.09
393.639	760.52
394.018	768.2
394.397	763.45
394.776	777.24
395.155	800.29
395.534	795.09
395.913	800.52
396.292	820.4
396.671	839.84
397.05	826.5
397.429	837.58
397.808	849.55
398.186	862.66
398.565	867.86
398.944	868.31
399.323	884.13
399.701	875.77
400.08	914.86
400.458	945.37
400.837	946.27
401.215	939.27
401.594	970.23
401.972	958.25
402.351	935.43
402.729	1009.55
403.107	980.62
403.486	1021.75
403.864	1001.87
404.242	1005.26
404.62	1040.96
404.999	1038.93
405.377	1029.66
405.755	1055.65
406.133	1090.68
406.511	1114.41
406.889	1108.53
407.267	1138.13
407.645	1153.5
408.023	1178.81
408.401	1194.4
408.779	1186.49
409.156	1223.78
409.534	1236.89
409.912	1263.55
410.29	1265.14
410.667	1289.09
411.045	1294.29
411.422	1308.98
411.8	1345.36
412.178	1360.27
412.555	1364.57
412.933	1385.81
413.31	1405.92
413.687	1434.85
414.065	1416.09
414.442	1427.84
414.819	1502.42
415.197	1489.54
415.574	1521.17
415.951	1533.6
416.328	1549.87
416.705	1582.42
417.082	1551.46
417.46	1610.89
417.837	1630.1
418.214	1643.88
418.591	1650.66
418.967	1678.23
419.344	1693.83
419.721	1725.01
420.098	1730.21
420.475	1739.47
420.852	1764.33
421.228	1786.25
421.605	1811.79
421.982	1806.59
422.358	1867.83
422.735	1863.99
423.111	1878
423.488	1940.82
423.864	1937.21
424.241	1976.76
424.617	1993.25
424.994	1983.76
425.37	2047.49
425.746	2051.78
426.123	2084.1
426.499	2066.92
426.875	2101.95
427.251	2177.2
427.627	2221.5
428.003	2235.96
428.379	2259.23
428.756	2285.9
429.132	2300.36
429.507	2391.66
429.883	2370.87
430.259	2441.15
430.635	2429.4
431.011	2477.31
431.387	2508.72
431.763	2572.67
432.138	2625.78
432.514	2613.8
432.89	2659.68
433.265	2694.93
433.641	2762.95
434.016	2771.09
434.392	2808.37
434.767	2906.45
435.143	2906
435.518	2963.85
435.894	2947.13
436.269	3003.85
436.644	3077.97
437.02	3089.72
437.395	3096.05
437.77	3155.93
438.145	3218.76
438.52	3261.47
438.895	3270.96
439.271	3302.6
439.646	3391.63
440.021	3399.54
440.395	3417.4
440.77	3430.5
441.145	3452.2
441.52	3546.43
441.895	3530.61
442.27	3572.87
442.645	3614.23
443.019	3675.47
443.394	3707.56
443.769	3684.73
444.143	3709.14
444.518	3802.02
444.892	3772.64
445.267	3833.2
445.641	3889.93
446.016	3948.46
446.39	3951.17
446.764	3958.17
447.139	4023.48
447.513	4063.71
447.887	4073.42
448.262	4083.59
448.636	4113.2
449.01	4186.42
449.384	4256.24
449.758	4265.74
450.132	4334.43
450.506	4407.43
450.88	4382.12
451.254	4357.03
451.628	4480.19
452.002	4542.56
452.376	4583.92
452.75	4619.4
453.123	4654.43
453.497	4743.01
453.871	4813.07
454.244	4891.48
454.618	4935.77
454.992	4980.07
455.365	5003.12
455.739	5110.23
456.112	5153.62
456.486	5215.54
456.859	5193.62
457.232	5329.44
457.606	5348.87
457.979	5431.35
458.352	5486.04
458.725	5547.06
459.099	5626.15
459.472	5702.31
459.845	5795.86
460.218	5810.78
460.591	5884.9
460.964	5936.43
461.337	6034.28
461.71	6157.44
462.083	6195.63
462.456	6252.12
462.829	6224.1
463.201	6399.46
463.574	6389.75
463.947	6486.02
464.32	6587.26
464.692	6699.8
465.065	6702.73
465.438	6811.88
465.81	6982.27
466.183	6973.69
466.555	7194.92
466.928	7184.98
467.3	7191.08
467.672	7336.39
468.045	7523.95
468.417	7476.5
468.789	7615.03
469.161	7724.4
469.534	7823.16
469.906	8022.25
470.278	8011.63
470.65	8131.17
471.022	8319.87
471.394	8503.14
471.766	8541.33
472.138	8635.34
472.51	8803.02
472.882	8938.83
473.253	9111.26
473.625	9263.8
473.997	9450.91
474.369	9424.47
474.74	9581.3
475.112	9714.18
475.484	9929.99
475.855	10057.45
476.227	10230.1
476.598	10521.84
476.97	10553.48
477.341	10775.39
477.713	10899.46
478.084	10937.88
478.455	11296.96
478.827	11374.7
479.198	11742.15
479.569	11789.61
479.94	12148.92
480.311	12267.56
480.682	12559.75
481.053	12775.34
481.424	12959.97
481.795	13108.44
482.166	13402.9
482.537	13489.22
482.908	13868.19
483.279	13939.15
483.65	14126.27
484.021	14471.57
484.391	14669.08
484.762	14842.18
485.133	14940.71
485.503	15200.14
485.874	15532.33
486.244	15682.38
486.615	15896.84
486.985	16175.93
487.356	16536.6
487.726	16605.98
488.097	16936.36
488.467	16961.45
488.837	17340.87
489.207	17564.14
489.578	17786.96
489.948	18032.38
490.318	18310.11
490.688	18296.78
491.058	18617.67
491.428	18905.35
491.798	19062.63
492.168	19458.78
492.538	19544.2
492.908	19796.85
493.278	20103.74
493.648	20213.56
494.017	20365.42
494.387	20524.97
494.757	20883.6
495.126	20953.88
495.496	21068.23
495.866	21213.31
496.235	21461.22
496.605	21710.93
496.974	21882.67
497.344	22049.45
497.713	22216.45
498.082	22292.15
498.452	22729.43
498.821	22673.16
499.19	22784.34
499.559	23026.6
499.928	23301.62
500.298	23481.28
500.667	23572.35
501.036	23663.19
501.405	23930.98
501.774	24026.35
502.143	24202.61
502.512	24244.65
502.88	24636.73
503.249	24607.12
503.618	24786.1
503.987	24997.85
504.356	25093.66
504.724	25331.17
505.093	25397.16
505.462	25400.55
505.83	25730.48
506.199	25984.26
506.567	26435.1
506.936	26313.07
507.304	26575.88
507.672	26704.92
508.041	26842.32
508.409	27017.91
508.777	27293.38
509.145	27409.31
509.514	27623.99
509.882	27932.46
510.25	27893.59
510.618	28115.73
510.986	28123.19
511.354	28480.92
511.722	28715.49
512.09	28975.37
512.458	28994.12
512.826	29508.24
513.193	29640.89
513.561	29740.55
513.929	30034.55
514.297	30126.98
514.664	30381.88
515.032	30433.41
515.4	30721.31
515.767	30827.97
516.135	31058.48
516.502	31104.13
516.869	31576.43
517.237	31631.34
517.604	31647.84
517.972	32101.61
518.339	32354.04
518.706	32452.34
519.073	32543.18
519.44	32907.69
519.808	33233.34
520.175	33282.37
520.542	33746.09
520.909	33837.61
521.276	33959.87
521.643	34249.58
522.009	34500.87
522.376	34613.41
522.743	34906.96
523.11	35220.4
523.477	35658.13
523.843	35852.93
524.21	36183.77
524.577	36517.32
524.943	36565.23
525.31	36936.97
525.676	37124.76
526.043	37365.2
526.409	37532.43
526.776	37919.77
527.142	38044.51
527.508	38275.01
527.874	38614.89
528.241	38752.96
528.607	38919.97
528.973	39239.05
529.339	39319.05
529.705	39726.27
530.071	39961.07
530.437	40093.27
530.803	40344.79
531.169	40671.78
531.535	40706.81
531.901	40836.75
532.267	41111.32
532.632	41316.29
532.998	41502.95
533.364	41548.37
533.73	41732.55
534.095	42055.7
534.461	42102.03
534.826	42333.66
535.192	42553.77
535.557	42937.94
535.923	42970.03
536.288	43159.63
536.653	43217.71
537.019	43250.25
537.384	43431.71
537.749	43603.68
538.114	43706.05
538.479	43886.16
538.845	43989.89
539.21	43968.19
539.575	44139.49
539.94	44271.46
540.305	44581.51
540.67	44665.58
541.034	44720.04
541.399	44799.58
541.764	45117.77
542.129	45275.5
542.494	45154.38
542.858	45440.02
543.223	45491.09
543.587	45783.29
543.952	45814.7
544.316	45794.59
544.681	46033
545.045	46146.44
545.41	46394.57
545.774	46515.7
546.138	46508.24
546.503	46675.92
546.867	46690.83
547.231	47097.38
547.595	46982.35
547.959	47219.41
548.324	47288.56
548.688	47331.95
549.052	47548.67
549.416	47579.4
549.779	47609.23
550.143	47675.44
550.507	48093.06
550.871	48173.96
551.235	48030.69
551.599	48390.22
551.962	48375.08
552.326	48452.14
552.689	48772.14
553.053	48652.14
553.417	48781.63
553.78	49273.59
554.143	49186.59
554.507	49352.46
554.87	49570.31
555.234	49897.98
555.597	49750.42
555.96	49799.91
556.323	50065.44
556.686	50122.61
557.05	50364.86
557.413	50468.81
557.776	50503.16
558.139	50797.85
558.502	50813.21
558.865	50902.7
559.228	51133.43
559.59	51290.94
559.953	51308.79
560.316	51675.11
560.679	51630.59
561.041	51778.84
561.404	51900.42
561.767	52111.26
562.129	52084.59
562.492	52369.1
562.854	52435.32
563.217	52440.97
563.579	52627.85
563.941	52791.24
564.304	52917.11
564.666	53133.6
565.028	53158.69
565.39	53242.98
565.753	53325.46
566.115	53501.73
566.477	53643.65
566.839	53740.82
567.201	53868.95
567.563	53929.29
567.925	54182.16
568.287	54214.7
568.648	54181.71
569.01	54323.85
569.372	54564.98
569.734	54452.44
570.095	54710.06
570.457	54790.28
570.819	54855.82
571.18	54867.79
571.542	54973.55
571.903	54968.58
572.265	55144.4
572.626	55243.15
572.987	55308.69
573.349	55409.02
573.71	55436.37
574.071	55416.25
574.432	55703.03
574.794	55803.14
575.155	55743.7
575.516	55725.85
575.877	55894.21
576.238	55889.46
576.599	55926.3
576.96	55965.62
577.32	55981.21
577.681	56011.04
578.042	56209.68
578.403	56193.86
578.763	56200.19
579.124	56259.62
579.485	56332.61
579.845	56385.49
580.206	56311.6
580.566	56371.48
580.927	56411.71
581.287	56521.54
581.648	56404.48
582.008	56493.29
582.368	56487.64
582.728	56454.19
583.089	56418.04
583.449	56415.32
583.809	56466.4
584.169	56515.21
584.529	56513.4
584.889	56627.97
585.249	56429.11
585.609	56401.31
585.969	56581.87
586.329	56451.03
586.688	56487.64
587.048	56530.58
587.408	56453.97
587.768	56510.92
588.127	56439.05
588.487	56535.32
588.846	56734.19
589.206	56517.47
589.565	56500.52
589.925	56654.41
590.284	56574.64
590.643	56520.86
591.003	56637.69
591.362	56723.34
591.721	56584.59
592.08	56620.74
592.44	56613.06
592.799	56714.98
593.158	56588.43
593.517	56608.99
593.876	56628.43
594.235	56619.16
594.593	56652.38
594.952	56732.15
595.311	56626.84
595.67	56632.27
596.029	56754.75
596.387	56846.73
596.746	56766.28
597.104	56681.98
597.463	56703.9
597.822	56793.17
598.18	56698.71
598.538	56685.37
598.897	56785.71
599.255	56601.31
599.613	56967.85
599.972	56804.47
600.33	56956.55
600.688	56719.5
601.046	56782.77
601.404	56924.92
601.762	56862.32
602.12	57008.08
602.478	56999.04
602.836	57072.03
603.194	56904.13
603.552	56958.14
603.91	56902.32
604.268	57024.12
604.625	56942.32
604.983	57046.04
605.341	56869.78
605.698	57051.24
606.056	57100.73
606.413	57083.56
606.771	57212.14
607.128	57126.27
607.485	57052.82
607.843	57091.01
608.2	57191.12
608.557	57227.05
608.914	57102.09
609.272	57283.32
609.629	57281.52
609.986	57461.17
610.343	57315.41
610.7	57506.14
611.057	57399.48
611.414	57373.04
611.771	57377.56
612.127	57542.53
612.484	57486.26
612.841	57568.97
613.198	57529.42
613.554	57555.86
613.911	57597.89
614.267	57616.42
614.624	57627.72
614.98	57676.76
615.337	57686.48
615.693	57695.06
616.05	57576.42
616.406	57805.57
616.762	57628.85
617.118	57673.37
617.475	57722.41
617.831	57722.41
618.187	57745.23
618.543	57751.11
618.899	57889.64
619.255	57856.19
619.611	57755.85
619.967	57849.86
620.323	57859.35
620.678	57753.14
621.034	57727.15
621.39	57783.2
621.746	57720.83
622.101	58013.02
622.457	57711.79
622.812	57772.58
623.168	57861.39
623.523	57852.8
623.879	57844.67
624.234	57663.65
624.589	57781.62
624.945	57718.79
625.3	57780.03
625.655	57686.93
626.01	57666.59
626.365	57674.5
626.72	57720.37
627.075	57693.93
627.43	57729.64
627.785	57604.22
628.14	57652.13
628.495	57721.28
628.85	57621.62
629.205	57581.85
629.559	57652.81
629.914	57547.5
630.269	57517.44
630.623	57314.28
630.978	57327.84
631.332	57474.51
631.687	57509.53
632.041	57373.94
632.396	57396.54
632.75	57201.74
633.104	57290.33
633.459	57069.77
633.813	57154.74
634.167	57166.04
634.521	57121.07
634.875	57079.26
635.229	57083.1
635.583	56963.33
635.937	56918.36
636.291	56942.77
636.645	56974.41
636.999	56860.51
637.352	56919.72
637.706	56745.94
638.06	56809.44
638.413	56704.36
638.767	56754.52
639.121	56728.76
639.474	56528.99
639.828	56553.4
640.181	56563.57
640.534	56533.06
640.888	56415.1
641.241	56335.1
641.594	56346.85
641.947	56355.44
642.301	56214.65
642.654	56188.66
643.007	56272.5
643.36	56130.81
643.713	56083.81
644.066	56183.47
644.419	56014.43
644.771	55869.12
645.124	55579.41
645.477	55533.09
645.83	55399.53
646.182	55278.18
646.535	55179.42
646.888	55264.62
647.24	55013.1
647.593	55121.57
647.945	54976.72
648.298	54811.98
648.65	54767.23
649.002	54827.57
649.355	54873.9
649.707	54802.94
650.059	54899.43
650.411	55178.52
650.763	55217.62
651.115	55537.61
651.467	55341.23
651.819	55302.81
652.171	55214
652.523	55126.09
652.875	55170.61
653.227	55043.38
653.578	55170.84
653.93	55128.58
654.282	55042.71
654.633	54827.12
654.985	54917.06
655.337	54872.99
655.688	54926.32
656.039	54952.09
656.391	54653.79
656.742	54753.22
657.094	54812.88
657.445	54861.24
657.796	54732.43
658.147	54626.67
658.498	54657.18
658.849	54729.27
659.2	54569.72
659.551	54574.47
659.902	54586.9
660.253	54503.74
660.604	54505.32
660.955	54389.16
661.306	54548.93
661.656	54343.29
662.007	54382.84
662.358	54417.18
662.708	54366.79
663.059	54334.48
663.409	54117.53
663.76	54221.03
664.11	54342.38
664.461	54251.99
664.811	54275.95
665.161	54164.31
665.511	54171.99
665.862	54153.01
666.212	54192.11
666.562	54159.79
666.912	54132.22
667.262	54096.97
667.612	54092.9
667.962	54129.96
668.312	54056.74
668.662	54164.54
669.011	54052.67
669.361	53931.32
669.711	53890.42
670.06	53853.13
670.41	53762.96
670.76	53760.71
671.109	53885
671.459	53825.56
671.808	53646.13
672.157	53766.35
672.507	53539.02
672.856	53522.07
673.205	53620.6
673.554	53699.24
673.904	53366.82
674.253	53579.47
674.602	53554.16
674.951	53074.4
675.3	52957.11
675.649	53449.75
675.998	53184
676.346	53268.74
676.695	53377.44
677.044	53080.27
677.393	53259.7
677.741	53261.51
678.09	53101.51
678.438	53049.76
678.787	53093.38
679.135	53080.27
679.484	52899.48
679.832	53027.84
680.181	52737
680.529	52881.41
680.877	52764.35
681.225	52672.15
681.573	52803.22
681.922	52528.2
682.27	52491.59
682.618	52530.45
682.966	52394.87
683.314	52482.55
683.661	52363
684.009	52268.09
684.357	52156.23
684.705	52036.68
685.053	52107.87
685.4	52032.61
685.748	51889.57
686.095	51777.71
686.443	51739.97
686.79	51653.64
687.138	51592.4
687.485	51568.67
687.832	51454.1
688.18	51517.6
688.527	51321.45
688.874	51305.85
689.221	51071.06
689.568	51063.15
689.915	51016.6
690.262	50995.35
690.609	50925.53
690.956	50711.29
691.303	50700.22
691.65	50539.32
691.997	50567.57
692.344	50223.62
692.69	50191.76
693.037	50181.36
693.383	49934.59
693.73	50068.37
694.077	49719.91
694.423	49729.62
694.769	49570.98
695.116	49485.11
695.462	49297.32
695.808	49181.16
696.155	49292.57
696.501	49026.82
696.847	49117.66
697.193	48840.38
697.539	48902.98
697.885	48604
698.231	48436.33
698.577	48244.69
698.923	48281.08
699.269	48102.77
699.614	47934.42
699.96	47900.75
700.306	47947.07
700.651	47846.96
700.997	47550.92
701.342	47604.48
701.688	47481.55
702.033	47423.92
702.379	47380.08
702.724	47310.48
703.069	47296.92
703.415	46888.8
703.76	46936.03
704.105	46780.32
704.45	46617.62
704.795	46338.75
705.14	46318.64
705.485	46146.67
705.83	46231.86
706.175	46090.17
706.52	46066.22
706.865	45779.45
707.209	45827.58
707.554	45622.39
707.899	45839.33
708.243	45533.8
708.588	45459
708.932	45029.64
709.277	45157.77
709.621	45172.46
709.966	44925.91
710.31	44968.39
710.654	44631.91
710.998	44761.17
711.342	44703.09
711.687	44334.51
712.031	44243.22
712.375	44123.22
712.719	44215.87
713.063	44055.65
713.407	44020.17
713.75	43896.78
714.094	43725.71
714.438	43532.73
714.782	43618.6
715.125	43396.68
715.469	43531.14
715.812	43187.88
716.156	42953.53
716.499	42957.15
716.843	43036.02
717.186	42855.68
717.53	42805.29
717.873	42912.18
718.216	42874.66
718.559	42496.59
718.902	42419.08
719.246	42482.81
719.589	42339.54
719.932	42123.04
720.275	42094.8
720.617	42104.51
720.96	42075.59
721.303	42027.68
721.646	41897.97
721.989	41762.6
722.331	41645.09
722.674	41526
723.016	41540.24
723.359	41537.75
723.701	41559.67
724.044	41223.63
724.386	40956.07
724.729	41080.13
725.071	41037.88
725.413	40933.92
725.755	40887.37
726.097	40611.22
726.439	40409.64
726.782	40484.67
727.124	40495.74
727.465	40461.17
727.807	40362.87
728.149	40199.03
728.491	40093.72
728.833	40231.8
729.175	40067.05
729.516	40087.17
729.858	39923.1
730.199	40031.8
730.541	39847.4
730.882	39726.05
731.224	39851.24
731.565	39446.73
731.906	39340.29
732.248	39433.4
732.589	39225.49
732.93	39213.74
733.271	39109.56
733.612	39125.16
733.953	38997.7
734.294	38802.91
734.635	38853.75
734.976	38889.68
735.317	38532.86
735.658	38738.95
735.999	38484.72
736.339	38478.4
736.68	38535.34
737.021	38235.92
737.361	38170.61
737.702	38378.51
738.042	38214.22
738.383	38220.77
738.723	38141
739.063	37880.67
739.404	38005.41
739.744	37783.5
740.084	37673.67
740.424	37787.34
740.764	37645.2
741.104	37738.08
741.444	37505.31
741.784	37305.77
742.124	37332.89
742.464	37227.81
742.804	37251.08
743.143	37173.12
743.483	37004.99
743.823	36875.05
744.162	36870.98
744.502	36872.79
744.841	36776.74
745.181	36755.05
745.52	36554.38
745.86	36649.74
746.199	36651.78
746.538	36383.08
746.877	36412.69
747.216	36417.88
747.556	36294.5
747.895	36324.1
748.234	36166.14
748.573	36191.68
748.911	36085.69
749.25	36032.81
749.589	35814.28
749.928	35802.31
750.267	35761.18
750.605	35611.35
750.944	35653.61
751.283	35408.19
751.621	35604.57
751.96	35183.34
752.298	35294.52
752.636	35292.72
752.975	35130.46
753.313	34907.42
753.651	34971.37
753.989	34759.62
754.327	34753.97
754.666	34456.13
755.004	34594.66
755.342	34579.29
755.679	34426.52
756.017	34225.63
756.355	34294.32
756.693	34117.38
757.031	34152.63
757.368	33983.15
757.706	33903.15
758.044	33844.39
758.381	33764.85
758.719	33609.37
759.056	33617.51
759.394	33572.99
759.731	33162.15
760.068	33096.39
760.405	33043.96
760.743	32894.59
761.08	32973.46
761.417	32768.94
761.754	32636.97
762.091	32658.44
762.428	32601.04
762.765	32287.15
763.102	32473.81
763.438	32302.51
763.775	32092.8
764.112	32164.44
764.449	32166.47
764.785	31824.78
765.122	31749.53
765.458	31532.59
765.795	31459.82
766.131	31348.19
766.467	31200.39
766.804	31090.34
767.14	30878.82
767.476	30884.47
767.812	30663.23
768.148	30753.4
768.485	30454.2
768.821	30323.36
769.157	30439.74
769.492	30269.8
769.828	30289.01
770.164	29948
770.5	29952.74
770.836	29853.76
771.171	29718.85
771.507	29631.4
771.842	29331.97
772.178	29343.27
772.513	29283.61
772.849	29145.99
773.184	28997.74
773.519	28980.34
773.855	28855.6
774.19	28504.19
774.525	28494.25
774.86	28485.89
775.195	28445.21
775.53	28228.5
775.865	27962.06
776.2	27935.4
776.535	27798
776.87	27718
777.205	27697.21
777.539	27506.48
777.874	27538.34
778.209	27285.02
778.543	27315.75
778.878	27096.1
779.212	27101.29
779.547	26914.86
779.881	26914.18
780.215	26740.62
780.55	26649.33
780.884	26579.95
781.218	26539.95
781.552	26391.93
781.886	26263.35
782.22	26090.02
782.554	25926.18
782.888	25830.59
783.222	25685.96
783.556	25559.41
783.889	25581.78
784.223	25439.64
784.557	25428.79
784.89	25417.04
785.224	25259.08
785.557	25120.1
785.891	24951.52
786.224	24948.58
786.558	24831.07
786.891	24623.39
787.224	24663.39
787.557	24597.63
787.891	24549.5
788.224	24432.44
788.557	24478.31
788.89	24323.96
789.223	24215.04
789.556	24042.84
789.888	23909.06
790.221	23827.71
790.554	23700.03
790.887	23690.76
791.219	23572.35
791.552	23644.43
791.884	23364.67
792.217	23310.66
792.549	23248.29
792.882	23153.15
793.214	22991.8
793.546	23052.36
793.879	22725.81
794.211	22738.24
794.543	22820.5
794.875	22707.74
795.207	22679.71
795.539	22447.63
795.871	22451.7
796.203	22317.92
796.535	22143.91
796.867	22186.17
797.198	22060.75
797.53	22081.54
797.862	21890.13
798.193	21810.36
798.525	21572.62
798.856	21731.72
799.188	21508.22
799.519	21433.87
799.85	21358.17
800.182	21380.99
800.513	21416.47
800.844	21151.17
801.175	21264.61
801.506	21198.4
801.837	20990.95
802.168	20969.25
802.499	20814.45
802.83	20910.5
803.161	20718.18
803.491	20665.3
803.822	20634.34
804.153	20552.76
804.483	20389.83
804.814	20269.16
805.145	20190.97
805.475	20225.77
805.805	20214.02
806.136	20130.63
806.466	20100.8
806.796	20050.41
807.126	19952.55
807.457	19797.53
807.787	19869.84
808.117	19684.76
808.447	19672.34
808.777	19648.38
809.107	19515.05
809.436	19541.72
809.766	19517.76
810.096	19410.42
810.426	19355.51
810.755	19273.48
811.085	19233.25
811.414	19169.98
811.744	19064.44
812.073	19046.59
812.403	19003.43
812.732	18951.22
813.061	18872.13
813.39	18696.54
813.719	18746.26
814.049	18890.66
814.378	18746.48
814.707	18681.85
815.036	18616.54
815.365	18577.22
815.693	18326.61
816.022	18365.93
816.351	18354.86
816.68	18177.91
817.008	18197.8
817.337	18068.31
817.665	18061.3
817.994	18063.34
818.322	18012.49
818.651	17946.73
818.979	17863.12
819.307	17946.96
819.636	17940.86
819.964	17799.39
820.292	17805.04
820.62	17826.73
820.948	17783.12
821.276	17730.01
821.604	17751.48
821.932	17789
822.259	17695.89
822.587	17628.1
822.915	17574.54
823.243	17769.11
823.57	17594.88
823.898	17651.82
824.225	17541.09
824.553	17560.53
824.88	17521.66
825.207	17604.59
825.535	17505.16
825.862	17599.17
826.189	17458.83
826.516	17633.75
826.843	17726.4
827.17	17645.04
827.497	17607.08
827.824	17509.23
828.151	17538.38
828.478	17474.2
828.805	17496.12
829.131	17570.92
829.458	17530.02
829.785	17470.59
830.111	17547.65
830.438	17543.8
830.764	17483.92
831.09	17490.47
831.417	17377.25
831.743	17457.03
832.069	17455.22
832.395	17351.04
832.722	17409.34
833.048	17326.63
833.374	17452.28
833.7	17366.86
834.026	17380.42
834.351	17396.92
834.677	17358.05
835.003	17247.99
835.329	17223.81
835.654	17240.54
835.98	17210.71
836.306	17209.35
836.631	17174.77
836.956	17212.29
837.282	17104.72
837.607	17163.48
837.932	17166.19
838.258	16933.88
838.583	16976.36
838.908	16917.61
839.233	16918.74
839.558	16892.07
839.883	16860.66
840.208	16891.84
840.533	16764.62
840.858	16789.47
841.182	16737.5
841.507	16864.73
841.832	16700.66
842.156	16669.7
842.481	16696.37
842.805	16609.59
843.13	16555.58
843.454	16500.22
843.778	16399.2
844.103	16420.9
844.427	16347.68
844.751	16413.44
845.075	16344.74
845.399	16309.49
845.723	16167.12
846.047	16313.1
846.371	16170.06
846.695	16106.78
847.019	16001.25
847.343	15864.98
847.666	15814.13
847.99	15602.84
848.313	15610.97
848.637	15577.98
848.96	15450.53
849.284	15497.76
849.607	15409.4
849.931	15360.58
850.254	15295.05
850.577	15183.19
850.9	15078.11
851.223	15059.8
851.546	14987.26
851.869	14968.73
852.192	15034.72
852.515	14908.17
852.838	14760.6
853.161	14793.59
853.483	14757.21
853.806	14703.43
854.129	14676.99
854.451	14690.09
854.774	14566.03
855.096	14475.18
855.419	14399.03
855.741	14396.09
856.063	14303.66
856.385	14332.36
856.708	14283.78
857.03	14220.95
857.352	14165.59
857.674	14175.98
857.996	14135.98
858.318	13964.01
858.64	14042.65
858.961	13978.7
859.283	13820.29
859.605	13873.39
859.926	13917.91
860.248	13881.3
860.57	13825.94
860.891	13841.08
861.212	13821.42
861.534	13684.7
861.855	13661.42
862.176	13746.62
862.498	13747.29
862.819	13723.79
863.14	13633.17
863.461	13519.73
863.782	13532.84
864.103	13603.12
864.424	13463.01
864.745	13462.33
865.065	13461.2
865.386	13353.18
865.707	13421.88
866.027	13365.38
866.348	13368.09
866.668	13403.12
866.989	13306.4
867.309	13250.13
867.63	13270.92
867.95	13166.97
868.27	13195.67
868.59	13258.04
868.91	13172.62
869.23	13178.04
869.55	13097.14
869.87	13186.86
870.19	13059.4
870.51	13131.94
870.83	13100.76
871.15	12972.85
871.469	13087.2
871.789	13015.11
872.109	12990.7
872.428	13025.96
872.748	13005.39
873.067	13047.2
873.386	13059.85
873.706	12988.22
874.025	12830.03
874.344	12842.46
874.663	12849.92
874.982	12782.12
875.301	12785.74
875.62	12790.71
875.939	12750.03
876.258	12795.91
876.577	12749.35
876.896	12644.27
877.214	12715.23
877.533	12791.84
877.852	12703.93
878.17	12768.56
878.489	12697.38
878.807	12656.02
879.125	12627.1
879.444	12642.92
879.762	12458.06
880.08	12477.72
880.398	12456.48
880.716	12468.23
881.034	12452.19
881.352	12433.43
881.67	12355.69
881.988	12422.58
882.306	12329.25
882.624	12272.08
882.941	12217.84
883.259	12211.74
883.577	12195.02
883.894	12233.21
884.212	12115.47
884.529	12139.65
884.846	12084.06
885.164	12178.07
885.481	12046.55
885.798	12003.61
886.115	12001.8
886.432	11949.6
886.75	11942.14
887.067	11986.66
887.383	11937.4
887.7	11978.07
888.017	11851.07
888.334	11886.55
888.651	11797.97
888.967	11967.68
889.284	11782.83
889.6	11764.07
889.917	11689.04
890.233	11701.25
890.55	11668.93
890.866	11685.43
891.182	11667.8
891.498	11575.37
891.815	11521.36
892.131	11443.85
892.447	11402.95
892.763	11346.45
893.079	11366.34
893.395	11331.76
893.71	11290.86
894.026	11314.59
894.342	11275.49
894.657	11205.67
894.973	11137.19
895.289	11181.71
895.604	11168.6
895.92	11109.17
896.235	10981.04
896.55	10999.34
896.865	11018.1
897.181	10957.54
897.496	10971.55
897.811	10926.58
898.126	10920.25
898.441	10866.01
898.756	10734.49
899.071	10739.69
899.386	10736.98
899.7	10699.24
900.015	10617.21
900.33	10553.03
900.644	10579.92
900.959	10657.43
901.273	10521.84
901.588	10460.83
901.902	10395.74
902.216	10396.65
902.531	10384.22
902.845	10364.78
903.159	10287.95
903.473	10323.43
903.787	10258.8
904.101	10168.63
904.415	10168.86
904.729	10108.75
905.042	10000.27
905.356	10011.57
905.67	9911.01
905.984	9974.51
906.297	9933.38
906.611	9881.63
906.924	9806.15
907.237	9834.18
907.551	9797.12
907.864	9694.07
908.177	9690
908.491	9613.84
908.804	9671.02
909.117	9577.01
909.43	9486.39
909.743	9488.2
910.056	9485.49
910.368	9510.8
910.681	9399.16
910.994	9409.33
911.307	9378.14
911.619	9274.19
911.932	9397.35
912.244	9245.27
912.557	9257.24
912.869	9191.48
913.181	9150.8
913.494	9199.16
913.806	9077.81
914.118	9000.98
914.43	9016.57
914.742	8960.08
915.054	8908.55
915.366	8931.38
915.678	8819.51
915.99	8816.35
916.302	8714.66
916.613	8709.46
916.925	8671.5
917.236	8630.14
917.548	8607.99
917.859	8633.08
918.171	8529.58
918.482	8484.83
918.794	8464.49
919.105	8403.25
919.416	8366.42
919.727	8323.03
920.038	8386.98
920.349	8246.2
920.66	8278.29
920.971	8259.75
921.282	8188.57
921.593	8162.58
921.903	8122.36
922.214	8087.56
922.525	8043.49
922.835	8116.26
923.146	8033.77
923.456	7976.82
923.767	7965.07
924.077	8034.45
924.387	7971.85
924.697	7883.49
925.008	7812.31
925.318	7803.72
925.628	7761.46
925.938	7724.18
926.248	7716.27
926.558	7696.83
926.867	7621.81
927.177	7563.05
927.487	7545.88
927.796	7542.03
928.106	7473.79
928.416	7456.39
928.725	7485.76
929.034	7348.14
929.344	7300.68
929.653	7336.84
929.962	7310.4
930.271	7260.46
930.581	7189.95
930.89	7195.83
931.199	7140.01
931.508	7143.85
931.817	7129.39
932.125	7110.63
932.434	7067.24
932.743	6982.27
933.051	6975.27
933.36	6922.16
933.669	6914.25
933.977	6899.11
934.286	6832.22
934.594	6822.96
934.902	6805.78
935.21	6759.91
935.519	6742.51
935.827	6744.99
936.135	6692.34
936.443	6602.85
936.751	6560.82
937.059	6659.57
937.367	6580.93
937.674	6563.08
937.982	6501.61
938.29	6480.14
938.597	6493.25
938.905	6409.63
939.213	6353.36
939.52	6366.02
939.827	6361.95
940.135	6312.01
940.442	6234.5
940.749	6291.44
941.056	6295.74
941.363	6237.89
941.67	6234.95
941.977	6201.28
942.284	6133.03
942.591	6118.34
942.898	6057.33
943.205	6092.81
943.511	6049.19
943.818	6013.94
944.125	5968.29
944.431	5958.57
944.738	5935.3
945.044	5923.77
945.35	5928.06
945.657	5871.12
945.963	5858.91
946.269	5825.92
946.575	5836.32
946.881	5788.86
947.187	5745.7
947.493	5674.29
947.799	5670.22
948.105	5603.1
948.41	5642.65
948.716	5637.22
949.022	5593.38
949.327	5555.42
949.633	5505.02
949.938	5496.66
950.244	5521.52
950.549	5438.81
950.854	5456.66
951.16	5422.32
951.465	5383.22
951.77	5349.55
952.075	5350.9
952.38	5328.08
952.685	5329.66
952.99	5273.39
953.294	5228.65
953.599	5213.28
953.904	5218.93
954.209	5160.18
954.513	5150.23
954.818	5135.77
955.122	5100.74
955.426	5064.58
955.731	5070.23
956.035	5034.3
956.339	5047.64
956.643	5043.79
956.948	4985.94
957.252	4942.33
957.556	4936.9
957.86	4854.65
958.163	4903.23
958.467	4836.79
958.771	4816.91
959.075	4847.64
959.378	4759.06
959.682	4823.91
959.985	4789.79
960.289	4786.85
960.592	4785.5
960.896	4725.38
961.199	4705.05
961.502	4709.34
961.805	4660.3
962.108	4663.01
962.411	4604.94
962.714	4576.91
963.017	4566.74
963.32	4577.59
963.623	4500.08
963.926	4531.72
964.228	4488.1
964.531	4498.5
964.833	4483.58
965.136	4404.49
965.438	4372.85
965.741	4346.86
966.043	4346.41
966.345	4344.38
966.648	4307.99
966.95	4320.42
967.252	4263.7
967.554	4257.15
967.856	4215.34
968.158	4212.86
968.46	4244.27
968.761	4213.99
969.063	4199.97
969.365	4157.26
969.666	4121.33
969.968	4088.56
970.269	4094.21
970.571	4050.15
970.872	4052.63
971.174	4070.94
971.475	3993.65
971.776	4061.67
972.077	3993.43
972.378	4029.36
972.679	3986.42
972.98	3970.83
973.281	3892.19
973.582	3903.71
973.883	3848.12
974.183	3852.19
974.484	3860.32
974.785	3826.42
975.085	3830.04
975.386	3841.57
975.686	3809.25
975.986	3762.7
976.287	3753.43
976.587	3760.44
976.887	3695.81
977.187	3692.19
977.487	3708.91
977.787	3689.48
978.087	3668.01
978.387	3640.44
978.687	3637.05
978.987	3623.72
979.286	3582.36
979.586	3591.18
979.885	3559.31
980.185	3535.13
980.484	3552.08
980.784	3492.42
981.083	3471.86
981.382	3472.76
981.682	3443.38
981.981	3488.35
982.28	3391.86
982.579	3381.92
982.878	3373.33
983.177	3372.43
983.475	3386.44
983.774	3387.11
984.073	3348.92
984.372	3315.48
984.67	3298.53
984.969	3310.28
985.267	3274.8
985.566	3308.25
985.864	3312.54
986.162	3245.65
986.461	3238.87
986.759	3262.37
987.057	3206.78
987.355	3157.74
987.653	3170.4
987.951	3196.38
988.249	3172.88
988.547	3153.9
988.844	3155.93
989.142	3094.47
989.44	3061.7
989.737	3048.82
990.035	3086.33
990.332	3039.1
990.63	3013.11
990.927	3000.46
991.224	3018.54
991.521	2979.89
991.819	2969.27
992.116	2945.09
992.413	2939.89
992.71	2894.47
993.006	2890.4
993.303	2891.53
993.6	2845.89
993.897	2859.67
994.193	2860.57
994.49	2799.79
994.787	2799.56
995.083	2833.46
995.379	2768.37
995.676	2768.83
995.972	2733.8
996.268	2736.51
996.565	2717.08
996.861	2690.86
997.157	2741.03
997.453	2717.53
997.749	2674.82
998.044	2668.49
998.34	2624.87
998.636	2646.34
998.932	2598.89
999.227	2635.04
999.523	2589.17
999.818	2541.26
1000.114	2557.76
1000.409	2580.58
1000.704	2550.53
1001	2521.83
1001.295	2518.66
1001.59	2502.39
1001.885	2505.78
1002.18	2478.89
1002.475	2461.04
1002.77	2426.69
1003.065	2453.35
1003.359	2428.72
1003.654	2402.06
1003.949	2382.17
1004.243	2391.43
1004.538	2362.06
1004.832	2383.98
1005.127	2373.13
1005.421	2341.49
1005.715	2316.86
1006.009	2334.49
1006.304	2299.23
1006.598	2291.78
1006.892	2268.73
1007.186	2237.31
1007.48	2222.85
1007.773	2219.91
1008.067	2241.83
1008.361	2202.96
1008.655	2180.59
1008.948	2181.72
1009.242	2171.1
1009.535	2159.12
1009.829	2122.97
1010.122	2142.4
1010.415	2129.29
1010.708	2095.85
1011.001	2091.78
1011.295	2075.74
1011.588	2075.51
1011.881	2058.79
1012.173	2027.15
1012.466	2029.86
1012.759	2005
1013.052	2016.3
1013.344	1975.17
1013.637	1971.78
1013.93	1969.75
1014.222	1954.16
1014.514	1953.71
1014.807	1918.45
1015.099	1916.64
1015.391	1893.59
1015.683	1916.87
1015.976	1869.87
1016.268	1857.44
1016.56	1855.4
1016.851	1847.95
1017.143	1811.79
1017.435	1830.32
1017.727	1824.22
1018.018	1809.53
1018.31	1809.98
1018.602	1803.88
1018.893	1752.58
1019.185	1758
1019.476	1748.97
1019.767	1734.95
1020.058	1744.67
1020.35	1702.86
1020.641	1714.39
1020.932	1666.26
1021.223	1670.1
1021.514	1663.54
1021.804	1635.52
1022.095	1649.31
1022.386	1623.54
1022.677	1654.96
1022.967	1595.75
1023.258	1558.91
1023.548	1626.03
1023.839	1574.73
1024.129	1573.38
1024.419	1561.85
1024.709	1542.87
1025	1538.8
1025.29	1484.11
1025.58	1483.66
1025.87	1473.04
1026.16	1485.47
1026.449	1508.75
1026.739	1465.58
1027.029	1445.47
1027.319	1465.36
1027.608	1453.15
1027.898	1413.38
1028.187	1427.17
1028.477	1386.94
1028.766	1422.87
1029.055	1362.99
1029.344	1388.07
1029.634	1375.19
1029.923	1356.21
1030.212	1345.13
1030.501	1367.05
1030.79	1371.12
1031.078	1322.08
1031.367	1323.89
1031.656	1311.91
1031.945	1302.88
1032.233	1321.63
1032.522	1297.45
1032.81	1286.83
1033.099	1246.61
1033.387	1254.74
1033.675	1256.77
1033.963	1258.36
1034.251	1223.33
1034.54	1204.57
1034.828	1231.24
1035.116	1186.72
1035.403	1196.21
1035.691	1197.79
1035.979	1140.85
1036.267	1162.31
1036.554	1132.48
1036.842	1177.68
1037.129	1146.95
1037.417	1143.33
1037.704	1140.85
1037.992	1109.43
1038.279	1135.42
1038.566	1108.98
1038.853	1108.98
1039.14	1108.98
