Data from foil_FLMS001491_019.txt Node
Date: Tue Feb 07 11:25:28 GMT 2017
User: dcchb
Spectrometer: FLMS00149
Trigger mode: 0
Integration Time (sec): 2.000000E-2
Scans to average: 10
Electric dark correction enabled: true
Nonlinearity correction enabled: false
Boxcar width: 0
XAxis mode: Wavelengths
Number of Pixels in Spectrum: 2048
>>>>>Begin Spectral Data<<<<<
341.393	-9.08
341.776	-9.08
342.16	-9.08
342.543	-52.92
342.927	-53.37
343.31	-62.19
343.693	-71.9
344.077	-55.41
344.46	-55.41
344.843	-66.93
345.226	-9.31
345.61	-32.81
345.993	-10.21
346.376	-20.83
346.759	9.9
347.142	24.82
347.525	35.89
347.908	55.1
348.291	74.98
348.674	73.63
349.057	110.69
349.44	113.4
349.823	140.29
350.206	155.21
350.588	243.12
350.971	262.32
351.354	240.4
351.737	290.8
352.119	288.09
352.502	286.96
352.884	328.31
353.267	312.49
353.65	358.14
354.032	369.89
354.414	350.68
354.797	354.75
355.179	381.42
355.562	381.87
355.944	375.09
356.326	379.38
356.709	385.71
357.091	403.56
357.473	387.07
357.855	395.2
358.238	385.03
358.62	386.39
359.002	413.73
359.384	416.44
359.766	398.59
360.148	411.7
360.53	408.76
360.912	428.19
361.294	403.34
361.676	410.12
362.057	416.67
362.439	418.7
362.821	423.9
363.203	408.53
363.584	396.33
363.966	398.82
364.348	423.22
364.729	421.19
365.111	391.81
365.493	402.88
365.874	413.28
366.256	415.54
366.637	424.58
367.019	409.44
367.4	419.16
367.781	420.29
368.163	425.48
368.544	393.17
368.925	415.09
369.306	425.26
369.688	421.19
370.069	427.29
370.45	446.95
370.831	451.7
371.212	450.12
371.593	439.04
371.974	465.03
372.355	444.69
372.736	449.66
373.117	447.18
373.498	457.35
373.879	439.95
374.26	443.79
374.641	441.53
375.021	458.48
375.402	466.84
375.783	480.17
376.163	517.91
376.544	498.02
376.925	504.8
377.305	486.72
377.686	486.27
378.066	504.13
378.447	500.96
378.827	504.58
379.208	520.17
379.588	515.2
379.968	513.39
380.349	527.85
380.729	495.99
381.109	544.12
381.489	526.95
381.87	554.29
382.25	559.04
382.63	553.16
383.01	579.6
383.39	584.58
383.77	556.55
384.15	572.6
384.53	578.02
384.91	594.07
385.29	599.72
385.67	584.58
386.049	616.66
386.429	619.15
386.809	625.03
387.189	642.2
387.568	634.97
387.948	625.03
388.328	650.79
388.707	665.48
389.087	662.54
389.466	664.12
389.846	694.85
390.225	702.99
390.605	717.9
390.984	746.83
391.363	720.62
391.743	723.1
392.122	756.55
392.501	749.32
392.881	760.16
393.26	756.32
393.639	769.88
394.018	761.07
394.397	808.75
394.776	801.52
395.155	778.24
395.534	804.91
395.913	796.55
396.292	787.06
396.671	823.66
397.05	847.39
397.429	849.88
397.808	825.7
398.186	866.6
398.565	865.02
398.944	858.01
399.323	895.98
399.701	914.51
400.08	884.45
400.458	902.08
400.837	907.5
401.215	902.76
401.594	950.44
401.972	952.7
402.351	970.55
402.729	969.65
403.107	978.69
403.486	988.18
403.864	993.38
404.242	1000.84
404.62	1013.72
404.999	1039.48
405.377	1045.35
405.755	1066.37
406.133	1081.96
406.511	1109.98
406.889	1115.41
407.267	1146.14
407.645	1138.68
408.023	1148.85
408.401	1165.12
408.779	1200.38
409.156	1213.49
409.534	1209.42
409.912	1219.13
410.29	1252.58
410.667	1278.79
411.045	1268.62
411.422	1293.93
411.8	1281.05
412.178	1342.75
412.555	1330.77
412.933	1375.74
413.31	1413.93
413.687	1407.83
414.065	1449.86
414.442	1423.87
414.819	1425.68
415.197	1451.22
415.574	1517.43
415.951	1489.64
416.328	1501.16
416.705	1542.74
417.082	1537.09
417.46	1545.45
417.837	1567.15
418.214	1590.42
418.591	1592.68
418.967	1654.6
419.344	1658.22
419.721	1686.24
420.098	1660.25
420.475	1690.08
420.852	1722.4
421.228	1749.97
421.605	1743.64
421.982	1782.96
422.358	1799.91
422.735	1835.62
423.111	1797.42
423.488	1853.24
423.864	1836.07
424.241	1872.9
424.617	1882.85
424.994	1938.66
425.37	1940.02
425.746	1945.9
426.123	1984.31
426.499	1975.72
426.875	2034.25
427.251	2081.26
427.627	2104.08
428.003	2118.09
428.379	2122.84
428.756	2177.08
429.132	2203.06
429.507	2242.61
429.883	2257.98
430.259	2323.29
430.635	2326.68
431.011	2318.09
431.387	2403.74
431.763	2449.84
432.138	2470.63
432.514	2443.51
432.89	2524.64
433.265	2562.83
433.641	2635.82
434.016	2632.2
434.392	2652.77
434.767	2738.19
435.143	2721.69
435.518	2752.43
435.894	2797.4
436.269	2819.32
436.644	2867.9
437.02	2870.84
437.395	2908.58
437.77	2963.27
438.145	3019.31
438.52	3024.28
438.895	3048.24
439.271	3094.79
439.646	3178.41
440.021	3203.94
440.395	3161.91
440.77	3189.7
441.145	3189.48
441.52	3281.91
441.895	3262.7
442.27	3305.41
442.645	3328.01
443.019	3387.44
443.394	3375.46
443.769	3460.21
444.143	3456.82
444.518	3488
444.892	3481.9
445.267	3522.12
445.641	3565.51
446.016	3577.04
446.39	3629.24
446.764	3663.82
447.139	3657.49
447.513	3713.53
447.887	3734.32
448.262	3769.8
448.636	3767.09
449.01	3804.83
449.384	3897.93
449.758	3946.07
450.132	3959.18
450.506	4020.19
450.88	3975.67
451.254	3994.2
451.628	4090.92
452.002	4131.37
452.376	4170.7
452.75	4177.25
453.123	4236.91
453.497	4271.94
453.871	4292.27
454.244	4437.81
454.618	4433.06
454.992	4479.84
455.365	4554.19
455.739	4622.21
456.112	4623.34
456.486	4707.18
456.859	4708.99
457.232	4770.68
457.606	4811.58
457.979	4882.77
458.352	4959.38
458.725	5044.8
459.099	5051.58
459.472	5126.6
459.845	5177.22
460.218	5204.34
460.591	5288.41
460.964	5278.69
461.337	5368.86
461.71	5514.16
462.083	5538.34
462.456	5550.55
462.829	5603.88
463.201	5662.86
463.574	5748.96
463.947	5788.73
464.32	5915.28
464.692	5945.56
465.065	6042.51
465.438	6128.84
465.81	6206.12
466.183	6231.21
466.555	6336.97
466.928	6385.1
467.3	6425.1
467.672	6536.06
468.045	6685.21
468.417	6736.28
468.789	6748.93
469.161	6856.73
469.534	6900.34
469.906	7110.73
470.278	7106.21
470.65	7230.28
471.022	7313.66
471.394	7490.38
471.766	7546.2
472.138	7658.74
472.51	7833.42
472.882	7898.73
473.253	7988
473.625	8092.85
473.997	8313.41
474.369	8326.97
474.74	8401.09
475.112	8576.68
475.484	8702.33
475.855	8882.44
476.227	8925.15
476.598	9176.67
476.97	9260.96
477.341	9461.4
477.713	9613.49
478.084	9703.66
478.455	9920.37
478.827	10001.73
479.198	10216.86
479.569	10267.03
479.94	10581.15
480.311	10678.55
480.682	10932.33
481.053	11131.64
481.424	11328.02
481.795	11480.11
482.166	11718.97
482.537	11852.08
482.908	12041.45
483.279	12127.1
483.65	12452.96
484.021	12603.69
484.391	12760.53
484.762	12839.85
485.133	13052.72
485.503	13203.68
485.874	13540.84
486.244	13629.43
486.615	13833.27
486.985	13990.32
487.356	14250.43
487.726	14385.34
488.097	14771.32
488.467	14715.05
488.837	15051.54
489.207	15226.9
489.578	15482.26
489.948	15506.67
490.318	15837.73
490.688	15845.42
491.058	16175.13
491.428	16354.56
491.798	16622.8
492.168	16894.2
492.538	16973.52
492.908	17185.27
493.278	17416.9
493.648	17411.03
494.017	17676.55
494.387	17803.56
494.757	17877.23
495.126	18140.5
495.496	18192.7
495.866	18453.26
496.235	18505.01
496.605	18709.75
496.974	18869.29
497.344	19077.65
497.713	19147.93
498.082	19400.35
498.452	19499.56
498.821	19668.59
499.19	19695.48
499.559	19874.24
499.928	20067.45
500.298	20204.85
500.667	20506.99
501.036	20415.24
501.405	20554.9
501.774	20751.73
502.143	20906.75
502.512	21083.25
502.88	21252.28
503.249	21203.92
503.618	21366.85
503.987	21551.03
504.356	21593.06
504.724	21843.68
505.093	21912.15
505.462	22066.5
505.83	22263.33
506.199	22318.69
506.567	22735.63
506.936	22710.09
507.304	22945.57
507.672	23125
508.041	23148.28
508.409	23338.78
508.777	23549.85
509.145	23777.41
509.514	23820.35
509.882	24079.78
510.25	23965.88
510.618	24329.04
510.986	24383.95
511.354	24593.66
511.722	24804.73
512.09	24936.03
512.458	25072.97
512.826	25322.46
513.193	25487.88
513.561	25540.53
513.929	25750.69
514.297	26025.04
514.664	26151.59
515.032	26232.49
515.4	26611.01
515.767	26708.41
516.135	26751.34
516.502	26672.93
516.869	27237.89
517.237	27358.56
517.604	27305
517.972	27759.23
518.339	27971.88
518.706	28127.58
519.073	28136.84
519.44	28464.52
519.808	28726.89
520.175	28702.48
520.542	29092.53
520.909	29291.84
521.276	29323.71
521.643	29699.97
522.009	29829.23
522.376	30006.85
522.743	30227.64
523.11	30612.26
523.477	30854.74
523.843	31046.6
524.21	31343.54
524.577	31664.89
524.943	31717.54
525.31	31755.51
525.676	32140.58
526.043	32291.99
526.409	32577.86
526.776	32919.54
527.142	32918.87
527.508	33273.88
527.874	33530.15
528.241	33705.29
528.607	33730.14
528.973	34095.56
529.339	34014.43
529.705	34416
530.071	34655.54
530.437	34800.85
530.803	35062.54
531.169	35269.99
531.535	35214.62
531.901	35441.96
532.267	35611.9
532.632	35812.35
532.998	36045.56
533.364	36291.88
533.73	36322.17
534.095	36579.11
534.461	36716.73
534.826	36825.66
535.192	37057.74
535.557	37357.39
535.923	37349.26
536.288	37432.87
536.653	37709.25
537.019	37596.94
537.384	37917.83
537.749	37973.2
538.114	38061.56
538.479	38209.8
538.845	38417.03
539.21	38368.67
539.575	38627.19
539.94	38833.29
540.305	38926.84
540.67	38923.68
541.034	39135.2
541.399	39450.22
541.764	39585.13
542.129	39518.92
542.494	39811.11
542.858	39894.73
543.223	39916.87
543.587	40078
543.952	40045.01
544.316	40283.87
544.681	40281.84
545.045	40502.17
545.41	40762.5
545.774	40819.45
546.138	40958.65
546.503	41003.85
546.867	41086.56
547.231	41470.96
547.595	41418.98
547.959	41621.24
548.324	41637.51
548.688	41880.66
549.052	42007.21
549.416	42074.56
549.779	42078.85
550.143	42257.15
550.507	42538.05
550.871	42664.82
551.235	42679.06
551.599	42910.02
551.962	43085.83
552.326	43061.2
552.689	43326.05
553.053	43239.5
553.417	43390.68
553.78	43925.58
554.143	43864.79
554.507	43843.1
554.87	44074.5
555.234	44538
555.597	44430.88
555.96	44531.89
556.323	44796.97
556.686	44834.03
557.05	45086
557.413	45224.76
557.776	45326.22
558.139	45583.62
558.502	45634.01
558.865	45699.55
559.228	46027.67
559.59	46357.38
559.953	46217.05
560.316	46632.86
560.679	46746.75
561.041	47018.16
561.404	47092.73
561.767	47367.75
562.129	47205.5
562.492	47647.29
562.854	47651.13
563.217	47689.1
563.579	47852.26
563.941	48200.95
564.304	48285.02
564.666	48501.51
565.028	48578.34
565.39	48653.59
565.753	48997.77
566.115	49157.76
566.477	49284.99
566.839	49235.95
567.201	49525.44
567.563	49522.27
567.925	49885.43
568.287	49832.09
568.648	49922.26
569.01	50156.83
569.372	50357.05
569.734	50277.73
570.095	50450.61
570.457	50567.44
570.819	50599.98
571.18	50755.91
571.542	50879.52
571.903	50999.29
572.265	50976.24
572.626	50994.77
572.987	51226.86
573.349	51343.69
573.71	51457.36
574.071	51519.73
574.432	51546.85
574.794	51817.13
575.155	51811.93
575.516	51724.02
575.877	51881.31
576.238	51959.27
576.599	52030.91
576.96	52034.3
577.32	52036.1
577.681	52190.22
578.042	52230.22
578.403	52404.46
578.763	52258.7
579.124	52421.18
579.485	52353.38
579.845	52630.89
580.206	52535.98
580.566	52498.24
580.927	52444.23
581.287	52697.56
581.648	52573.04
582.008	52740.94
582.368	52688.29
582.728	52763.99
583.089	52606.94
583.449	52611.23
583.809	52584.56
584.169	52677.22
584.529	52616.65
584.889	52866.36
585.249	52667.27
585.609	52574.39
585.969	52803.99
586.329	52674.96
586.688	52786.37
587.048	52660.72
587.408	52616.65
587.768	52558.12
588.127	52605.81
588.487	52552.25
588.846	52836.76
589.206	52659.36
589.565	52691
589.925	52807.16
590.284	52665.69
590.643	52751.56
591.003	52818.46
591.362	52870.43
591.721	52762.19
592.08	52766.48
592.44	52767.16
592.799	52863.65
593.158	52724.67
593.517	52695.07
593.876	52738.68
594.235	52815.97
594.593	52769.42
594.952	52785.69
595.311	52661.85
595.67	52820.49
596.029	52903.88
596.387	52919.24
596.746	52961.28
597.104	52726.25
597.463	52801.06
597.822	52879.47
598.18	52776.2
598.538	52782.07
598.897	52975.97
599.255	52739.59
599.613	53141.16
599.972	52944.33
600.33	52949.98
600.688	52838.34
601.046	52992.46
601.404	53092.8
601.762	53005.12
602.12	53152.23
602.478	53030.88
602.836	53056.42
603.194	52958.79
603.552	53011.67
603.91	53026.81
604.268	53170.54
604.625	53022.74
604.983	53242.63
605.341	53074.72
605.698	53237.2
606.056	53252.34
606.413	53261.61
606.771	53254.15
607.128	53348.39
607.485	53182.29
607.843	53221.84
608.2	53391.1
608.557	53399.46
608.914	53322.4
609.272	53475.84
609.629	53548.61
609.986	53519.45
610.343	53395.39
610.7	53660.47
611.057	53585.22
611.414	53594.93
611.771	53583.18
612.127	53615.72
612.484	53568.72
612.841	53741.82
613.198	53628.6
613.554	53620.24
613.911	53780.69
614.267	53745.44
614.624	53715.61
614.98	53731.43
615.337	53855.26
615.693	53811.88
616.05	53879.67
616.406	54013
616.762	53862.04
617.118	53900.91
617.475	53882.16
617.831	53980.23
618.187	53824.31
618.543	53910.86
618.899	54046.45
619.255	53980.01
619.611	53916.05
619.967	54040.57
620.323	54066.56
620.678	53997.86
621.034	53861.14
621.39	53890.29
621.746	53836.96
622.101	54192.43
622.457	53852.78
622.812	53940.91
623.168	53924.64
623.523	54012.77
623.879	54051.64
624.234	53861.37
624.589	53934.58
624.945	53969.39
625.3	53883.74
625.655	53902.27
626.01	53951.99
626.365	53954.25
626.72	53890.07
627.075	53877.86
627.43	53829.95
627.785	53685.1
628.14	53821.82
628.495	53832.44
628.85	53860.01
629.205	53732.1
629.559	53853.23
629.914	53665.21
630.269	53704.99
630.623	53616.4
630.978	53665.89
631.332	53687.36
631.687	53727.13
632.041	53463.64
632.396	53502.05
632.75	53471.32
633.104	53509.06
633.459	53336.41
633.813	53272.23
634.167	53243.53
634.521	53265.68
634.875	53238.11
635.229	53183.87
635.583	53076.08
635.937	53021.16
636.291	52968.51
636.645	52882.41
636.999	52775.97
637.352	52842.18
637.706	52641.06
638.06	52808.74
638.413	52709.31
638.767	52689.65
639.121	52665.92
639.474	52454.4
639.828	52498.92
640.181	52489.65
640.534	52452.59
640.888	52280.16
641.241	52120.17
641.594	52288.75
641.947	52287.4
642.301	52220.51
642.654	52168.53
643.007	52112.71
643.36	52127.4
643.713	52014.64
644.066	52096.21
644.419	51895.99
644.771	51711.14
645.124	51292.17
645.477	51250.36
645.83	50917.94
646.182	50844.95
646.535	50748.91
646.888	50781.67
647.24	50595.46
647.593	50868
647.945	50831.84
648.298	50640.21
648.65	50458.97
649.002	50377.39
649.355	50520.66
649.707	50386.66
650.059	50526.31
650.411	50838.62
650.763	50967.21
651.115	51108.44
651.467	51050.37
651.819	50983.48
652.171	50999.07
652.523	50835.23
652.875	50800.2
653.227	50667.55
653.578	50855.34
653.93	50808.57
654.282	50592.53
654.633	50488.57
654.985	50518.18
655.337	50572.64
655.688	50471.62
656.039	50605.41
656.391	50239.77
656.742	50356.6
657.094	50292.87
657.445	50497.84
657.796	50297.84
658.147	50270.27
658.498	50178.07
658.849	50277.73
659.2	50201.12
659.551	50101.92
659.902	50034.12
660.253	50026.89
660.604	50106.21
660.955	49821.02
661.306	50129.26
661.656	50000.9
662.007	49854.24
662.358	49868.02
662.708	49721.14
663.059	49901.7
663.409	49601.82
663.76	49809.95
664.11	49760.01
664.461	49741.47
664.811	49833.68
665.161	49673.45
665.511	49508.03
665.862	49654.92
666.212	49645.66
666.562	49585.09
666.912	49537.86
667.262	49379.45
667.612	49582.16
667.962	49522.72
668.312	49374.03
668.662	49532.67
669.011	49413.35
669.361	49301.03
669.711	49221.26
670.06	49194.37
670.41	49133.81
670.76	49022.62
671.109	49180.81
671.459	49155.28
671.808	49029.18
672.157	48987.82
672.507	48805
672.856	48753.93
673.205	48851.1
673.554	49042.74
673.904	48770.2
674.253	48901.72
674.602	48975.62
674.951	48352.36
675.3	48037.56
675.649	48709.19
675.998	48634.84
676.346	48588.51
676.695	48682.29
677.044	48529.76
677.393	48563.43
677.741	48570.88
678.09	48327.95
678.438	48309.2
678.787	48312.59
679.135	48316.88
679.484	47933.61
679.832	48085.7
680.181	48024.23
680.529	48130.44
680.877	47794.86
681.225	47788.31
681.573	47970
681.922	47744.92
682.27	47751.02
682.618	47655.65
682.966	47435.77
683.314	47631.25
683.661	47435.32
684.009	47253.18
684.357	47180.64
684.705	47102.9
685.053	47108.78
685.4	47081.21
685.748	46870.59
686.095	46838.05
686.443	46629.24
686.79	46658.62
687.138	46674.21
687.485	46613.65
687.832	46539.75
688.18	46439.87
688.527	46281.68
688.874	46271.96
689.221	46020.22
689.568	45930.5
689.915	45824.29
690.262	45789.94
690.609	45805.08
690.956	45654.58
691.303	45565.31
691.65	45413.23
691.997	45441.25
692.344	45070.86
692.69	45047.36
693.037	44974.82
693.383	44650.31
693.73	44794.49
694.077	44427.04
694.423	44456.42
694.769	44321.05
695.116	44213.94
695.462	44099.82
695.808	43906.15
696.155	44000.61
696.501	43811.24
696.847	43746.15
697.193	43411.92
697.539	43635.87
697.885	43306.84
698.231	43131.93
698.577	43289.67
698.923	43106.39
699.269	42771.94
699.614	42592.51
699.96	42545.05
700.306	42535.79
700.651	42327.21
700.997	42317.04
701.342	42199.53
701.688	42065.52
702.033	41947.1
702.379	42048.57
702.724	41863.26
703.069	41937.61
703.415	41471.64
703.76	41303.05
704.105	41328.59
704.45	41217.63
704.795	40891.09
705.14	40955.04
705.485	40943.29
705.83	40663.75
706.175	40685.67
706.52	40540.36
706.865	40515.95
707.209	40487.03
707.554	40175.85
707.899	40430.98
708.243	40112.12
708.588	40023.76
708.932	39782.64
709.277	39525.47
709.621	39678.91
709.966	39471.69
710.31	39475.98
710.654	39054.07
710.998	39251.81
711.342	39162.32
711.687	39057.91
712.031	39031.47
712.375	38676
712.719	38960.74
713.063	38629.22
713.407	38852.04
713.75	38602.11
714.094	38540.41
714.438	38370.7
714.782	38394.88
715.125	38358.27
715.469	38163.7
715.812	38008
716.156	37755.35
716.499	37809.13
716.843	37819.3
717.186	37479.88
717.53	37705.86
717.873	37669.48
718.216	37592.19
718.559	37347.22
718.902	37201.01
719.246	37366.21
719.589	37051.19
719.932	36983.17
720.275	36997.63
720.617	36898.65
720.96	36779.1
721.303	36851.87
721.646	36906.11
721.989	36580.46
722.331	36692.78
722.674	36467.93
723.016	36560.13
723.359	36356.29
723.701	36446.68
724.044	36180.7
724.386	36033.36
724.729	36102.51
725.071	35999.92
725.413	35829.52
725.755	35942.06
726.097	35677.21
726.439	35645.57
726.782	35471.34
727.124	35643.54
727.465	35486.26
727.807	35458.91
728.149	35291.69
728.491	35252.82
728.833	35411.91
729.175	35152.03
729.516	35120.39
729.858	35125.14
730.199	35013.73
730.541	34944.35
730.882	34760.17
731.224	34984.12
731.565	34678.82
731.906	34616.45
732.248	34799.04
732.589	34594.53
732.93	34320.64
733.271	34310.69
733.612	34404.25
733.953	34383.46
734.294	34203.8
734.635	34086.74
734.976	34164.03
735.317	34014.43
735.658	34042.9
735.999	33955.67
736.339	33844.27
736.68	33851.5
737.021	33670.26
737.361	33666.42
737.702	33777.37
738.042	33743.25
738.383	33460.77
738.723	33565.63
739.063	33358.63
739.404	33417.16
739.744	33327.44
740.084	33176.94
740.424	33221.23
740.764	33217.62
741.104	33255.81
741.444	33075.92
741.784	32949.15
742.124	33046.77
742.464	32908.47
742.804	32778.98
743.143	32624.41
743.483	32636.61
743.823	32503.06
744.162	32489.95
744.502	32522.04
744.841	32459.22
745.181	32465.32
745.52	32216.06
745.86	32183.74
746.199	32109.85
746.538	32123.18
746.877	32204.31
747.216	32106.46
747.556	31874.15
747.895	31969.29
748.234	31733.13
748.573	31724.32
748.911	31664.21
749.25	31534.27
749.589	31383.54
749.928	31498.79
750.267	31617.66
750.605	31355.97
750.944	31359.13
751.283	31246.14
751.621	31217.67
751.96	31011.57
752.298	30994.17
752.636	30969.54
752.975	30881.63
753.313	30629.21
753.651	30876.89
753.989	30772.48
754.327	30653.61
754.666	30450.23
755.004	30535.88
755.342	30315.77
755.679	30374.98
756.017	30088.21
756.355	30133.18
756.693	30046.85
757.031	30134.98
757.368	29844.37
757.706	29731.15
758.044	29681.66
758.381	29711.04
758.719	29600.76
759.056	29600.31
759.394	29302.92
759.731	29244.84
760.068	29271.28
760.405	29083.49
760.743	29022.02
761.08	28949.48
761.417	28766.66
761.754	28827.45
762.091	28712.2
762.428	28578.64
762.765	28379.32
763.102	28514.46
763.438	28391.53
763.775	28178.88
764.112	28253.45
764.449	28175.49
764.785	28085.32
765.122	27753.8
765.458	27691.66
765.795	27716.07
766.131	27588.38
766.467	27504.09
766.804	27336.87
767.14	27252.57
767.476	27103.65
767.812	27086.7
768.148	27057.55
768.485	27032.69
768.821	26826.6
769.157	26749.08
769.492	26588.41
769.828	26721.29
770.164	26446.27
770.5	26334.63
770.836	26305.03
771.171	26009.67
771.507	26035.43
771.842	25915.43
772.178	25897.81
772.513	25771.03
772.849	25678.83
773.184	25655.1
773.519	25491.94
773.855	25284.49
774.19	25208.56
774.525	25259.18
774.86	25211.27
775.195	25245.85
775.53	24906.42
775.865	24889.47
776.2	24675.02
776.535	24582.81
776.87	24576.71
777.205	24432.54
777.539	24219.21
777.874	24375.81
778.209	24074.13
778.543	24014.47
778.878	23961.59
779.212	23848.6
779.547	23725.44
779.881	23803.4
780.215	23550.52
780.55	23570.19
780.884	23396.86
781.218	23334.03
781.552	23427.82
781.886	23230.31
782.22	23032.35
782.554	22978.34
782.888	22704.45
783.222	22655.86
783.556	22668.06
783.889	22510.33
784.223	22255.42
784.557	22355.98
784.89	22477.56
785.224	22323.44
785.557	22018.59
785.891	21990.11
786.224	22025.59
786.558	21989.21
786.891	21738.6
787.224	21753.74
787.557	21623.8
787.891	21570.92
788.224	21611.59
788.557	21379.51
788.89	21387.19
789.223	21352.16
789.556	21146.97
789.888	21029.01
790.221	21062
790.554	20937.49
790.887	20907.43
791.219	20843.7
791.552	20789.24
791.884	20695.46
792.217	20579.3
792.549	20522.81
792.882	20367.33
793.214	20260.67
793.546	20228.35
793.879	20205.3
794.211	19989.94
794.543	20035.59
794.875	19956.95
795.207	20005.08
795.539	19856.16
795.871	19939.77
796.203	19645.54
796.535	19648.48
796.867	19553.34
797.198	19449.39
797.53	19474.47
797.862	19308.38
798.193	19275.61
798.525	19167.14
798.856	19183.41
799.188	19044.65
799.519	19010.31
799.85	18819.8
800.182	18945.22
800.513	18908.16
800.844	18625.91
801.175	18781.38
801.506	18688.05
801.837	18559.47
802.168	18534.16
802.499	18495.74
802.83	18380.27
803.161	18353.6
803.491	18334.84
803.822	18257.1
804.153	18153.38
804.483	17982.08
804.814	17861.86
805.145	17932.37
805.475	17873.39
805.805	17775.08
806.136	17919.94
806.466	17861.41
806.796	17792.26
807.126	17553.85
807.457	17521.98
807.787	17522.43
808.117	17409.9
808.447	17402.89
808.777	17372.38
809.107	17378.71
809.436	17249.9
809.766	17282.22
810.096	17199.96
810.426	17155.66
810.755	17082.22
811.085	16989.79
811.414	16881.55
811.744	16730.82
812.073	16856.46
812.403	16846.75
812.732	16763.36
813.061	16697.6
813.39	16514.33
813.719	16647.66
814.049	16624.38
814.378	16557.04
814.707	16489.24
815.036	16400.66
815.365	16331.28
815.693	16241.34
816.022	16242.02
816.351	16107.33
816.68	16138.29
817.008	16143.26
817.337	15973.77
817.665	15899.65
817.994	15972.42
818.322	15916.6
818.651	15833.67
818.979	15794.8
819.307	15884.51
819.636	15737.62
819.964	15709.6
820.292	15705.31
820.62	15792.08
820.948	15662.6
821.276	15645.42
821.604	15642.03
821.932	15646.1
822.259	15625.99
822.587	15557.51
822.915	15553
823.243	15635.93
823.57	15549.83
823.898	15586.67
824.225	15501.92
824.553	15563.39
824.88	15504.41
825.207	15533.33
825.535	15473
825.862	15493.11
826.189	15489.95
826.516	15522.04
826.843	15495.6
827.17	15597.74
827.497	15499.21
827.824	15381.7
828.151	15485.88
828.478	15439.1
828.805	15496.27
829.131	15385.32
829.458	15413.11
829.785	15345.77
830.111	15307.35
830.438	15470.96
830.764	15347.58
831.09	15510.06
831.417	15308.03
831.743	15372.43
832.069	15335.37
832.395	15239.33
832.722	15333.57
833.048	15363.85
833.374	15354.36
833.7	15214.92
834.026	15259.22
834.351	15271.42
834.677	15289.95
835.003	15279.78
835.329	15255.15
835.654	15214.7
835.98	15164.76
836.306	15192.78
836.631	15162.95
836.956	15172.67
837.282	15155.27
837.607	15047.02
837.932	15079.56
838.258	15010.18
838.583	15050.41
838.908	14985.55
839.233	14933.35
839.558	14931.32
839.883	14822.84
840.208	14826.01
840.533	14858.78
840.858	14766.12
841.182	14862.39
841.507	14741.72
841.832	14705.79
842.156	14650.42
842.481	14579.24
842.805	14588.5
843.13	14517.09
843.454	14588.73
843.778	14527.49
844.103	14454.27
844.427	14459.01
844.751	14425.34
845.075	14447.71
845.399	14309.86
845.723	14273.93
846.047	14268.73
846.371	14184.22
846.695	14203.43
847.019	14087.04
847.343	14035.75
847.666	13986.48
847.99	13884.79
848.313	13781.29
848.637	13721.4
848.96	13736.09
849.284	13742.2
849.607	13657.45
849.931	13632.59
850.254	13621.52
850.577	13488.64
850.9	13364.35
851.223	13418.59
851.546	13256.78
851.869	13200.29
852.192	13289.1
852.515	13112.61
852.838	13056.11
853.161	12991.93
853.483	12981.54
853.806	12865.83
854.129	12901.54
854.451	12965.04
854.774	12783.58
855.096	12783.8
855.419	12770.92
855.741	12776.57
856.063	12707.19
856.385	12601.21
856.708	12590.81
857.03	12589.68
857.352	12553.53
857.674	12526.18
857.996	12480.99
858.318	12405.28
858.64	12384.94
858.961	12259.3
859.283	12262.23
859.605	12211.39
859.926	12305.85
860.248	12262.69
860.57	12200.09
860.891	12232.63
861.212	12131.39
861.534	12137.94
861.855	12090.71
862.176	12104.95
862.498	12128
862.819	12126.64
863.14	12001
863.461	11869.48
863.782	11972.75
864.103	11964.16
864.424	11927.33
864.745	12040.09
865.065	11935.01
865.386	11884.16
865.707	11831.06
866.027	11831.06
866.348	11885.29
866.668	11886.88
866.989	11734.11
867.309	11626.54
867.63	11675.81
867.95	11613.89
868.27	11609.6
868.59	11682.81
868.91	11553.33
869.23	11610.05
869.55	11545.64
869.87	11680.55
870.19	11685.75
870.51	11576.83
870.83	11582.03
871.15	11453.67
871.469	11517.17
871.789	11554.23
872.109	11518.3
872.428	11448.24
872.748	11346.1
873.067	11361.24
873.386	11400.34
873.706	11362.37
874.025	11358.76
874.344	11243.5
874.663	11356.72
874.982	11278.98
875.301	11249.38
875.62	11294.12
875.939	11268.14
876.258	11325.08
876.577	11272.88
876.896	11183.84
877.214	11160.79
877.533	11178.19
877.852	11114.02
878.17	11229.04
878.489	11142.04
878.807	11146.78
879.125	11153.79
879.444	11104.75
879.762	11094.36
880.08	11014.36
880.398	11050.29
880.716	11006
881.034	10980.46
881.352	10963.06
881.67	10967.8
881.988	10938.43
882.306	10910.63
882.624	10888.71
882.941	10786.79
883.259	10816.85
883.577	10794.93
883.894	10806
884.212	10831.76
884.529	10796.51
884.846	10750.86
885.164	10716.29
885.481	10608.27
885.798	10754.03
886.115	10661.37
886.432	10622.05
886.75	10559
887.067	10551.09
887.383	10512.68
887.7	10586.35
888.017	10479.46
888.334	10559
888.651	10401.04
888.967	10501.15
889.284	10432.9
889.6	10315.39
889.917	10307.94
890.233	10282.17
890.55	10294.83
890.866	10336.41
891.182	10184.77
891.498	10176.87
891.815	10175.74
892.131	10156.98
892.447	10092.35
892.763	10119.69
893.079	10116.75
893.395	10005.12
893.71	9961.73
894.026	9917.66
894.342	9999.47
894.657	9833.37
894.973	9912.47
895.289	9882.18
895.604	9827.72
895.92	9774.39
896.235	9750.44
896.55	9743.88
896.865	9743.88
897.181	9664.34
897.496	9648.52
897.811	9608.97
898.126	9573.49
898.441	9497.79
898.756	9540.95
899.071	9479.03
899.386	9439.94
899.7	9416.43
900.015	9372.59
900.33	9256.89
900.644	9311.8
900.959	9273.39
901.273	9193.84
901.588	9253.73
901.902	9203.78
902.216	9220.96
902.531	9175.31
902.845	9150.9
903.159	9058.25
903.473	9013.05
903.787	9038.36
904.101	8961.08
904.415	8990.68
904.729	8913.17
905.042	8861.42
905.356	8797.01
905.67	8811.48
905.984	8803.57
906.297	8768.77
906.611	8767.64
906.924	8776.22
907.237	8689.67
907.551	8645.61
907.864	8627.53
908.177	8632.95
908.491	8529
908.804	8493.07
909.117	8479.06
909.43	8383.47
909.743	8440.19
910.056	8438.38
910.368	8355.22
910.681	8276.12
910.994	8335.78
911.307	8227.99
911.619	8147.31
911.932	8231.15
912.244	8125.85
912.557	8113.87
912.869	8117.03
913.181	8049.01
913.494	8021.22
913.806	7920.65
914.118	7929.92
914.43	7899.64
914.742	7923.59
915.054	7872.29
915.366	7832.29
915.678	7770.6
915.99	7758.85
916.302	7745.06
916.613	7717.95
916.925	7689.92
917.236	7694.22
917.548	7651.51
917.859	7590.49
918.171	7548.23
918.482	7515.92
918.794	7435.69
919.105	7420.55
919.416	7457.61
919.727	7376.03
920.038	7364.96
920.349	7360.44
920.66	7290.61
920.971	7278.41
921.282	7227.56
921.593	7131.97
921.903	7148.7
922.214	7164.29
922.525	7084.52
922.835	7108.7
923.146	7035.03
923.456	7009.49
923.767	6982.82
924.077	6991.86
924.387	6950.96
924.697	6880.45
925.008	6818.99
925.318	6828.93
925.628	6801.13
925.938	6796.62
926.248	6741.7
926.558	6678.88
926.867	6722.72
927.177	6715.49
927.487	6655.83
927.796	6612.67
928.106	6585.32
928.416	6562.72
928.725	6509.39
929.034	6499.9
929.344	6503.06
929.653	6464.87
929.962	6410.86
930.271	6387.36
930.581	6322.05
930.89	6301.71
931.199	6275.05
931.508	6264.65
931.817	6295.84
932.125	6276.18
932.434	6214.94
932.743	6144.43
933.051	6160.02
933.36	6088.39
933.669	6116.41
933.977	6074.15
934.286	6044.77
934.594	6025.56
934.902	5973.81
935.21	6020.36
935.519	5924.32
935.827	5952.12
936.135	5893.81
936.443	5822.63
936.751	5788.51
937.059	5849.97
937.367	5773.14
937.674	5784.21
937.982	5733.14
938.29	5710.32
938.597	5708.51
938.905	5678.9
939.213	5657.89
939.52	5603.2
939.827	5612.24
940.135	5621.28
940.442	5593.71
940.749	5530.43
941.056	5566.82
941.363	5497.89
941.67	5467.16
941.977	5421.51
942.284	5401.62
942.591	5384
942.898	5355.97
943.205	5378.57
943.511	5335.18
943.818	5281.4
944.125	5218.35
944.431	5240.05
944.738	5243.21
945.044	5215.41
945.35	5195.3
945.657	5125.02
945.963	5151.23
946.269	5087.51
946.575	5095.87
946.881	5067.17
947.187	5028.3
947.493	5032.37
947.799	4984.23
948.105	5001.63
948.41	4966.38
948.716	4927.74
949.022	4864.69
949.327	4885.03
949.633	4822.66
949.938	4912.14
950.244	4842.09
950.549	4791.02
950.854	4794.41
951.16	4772.26
951.465	4775.43
951.77	4759.61
952.075	4683
952.38	4684.58
952.685	4691.59
952.99	4648.87
953.294	4592.38
953.599	4617.01
953.904	4593.96
954.209	4529.56
954.513	4578.82
954.818	4506.28
955.122	4486.85
955.426	4448.88
955.731	4485.04
956.035	4444.81
956.339	4456.34
956.643	4403.23
956.948	4394.64
957.252	4315.55
957.556	4341.54
957.86	4334.31
958.163	4269.22
958.467	4295.21
958.771	4250.24
959.075	4280.75
959.378	4227.19
959.682	4239.39
959.985	4236.91
960.289	4148.32
960.592	4159.85
960.896	4127.53
961.199	4133.63
961.502	4111.71
961.805	4079.85
962.108	4073.52
962.411	4065.61
962.714	4024.03
963.017	3993.52
963.32	4034.43
963.623	3973.86
963.926	3950.59
964.228	3918.05
964.531	3930.25
964.833	3890.48
965.136	3883.25
965.438	3914.2
965.741	3841.66
966.043	3857.48
966.345	3841.44
966.648	3794.43
966.95	3829.46
967.252	3787.2
967.554	3759.18
967.856	3785.62
968.158	3715.11
968.46	3764.38
968.761	3716.7
969.063	3683.25
969.365	3633.76
969.666	3596.47
969.968	3636.7
970.269	3608.68
970.571	3610.03
970.872	3582.24
971.174	3597.6
971.475	3584.72
971.776	3553.08
972.077	3566.87
972.378	3530.49
972.679	3495.68
972.98	3486.65
973.281	3463.82
973.582	3468.12
973.883	3416.14
974.183	3410.72
974.484	3427.89
974.785	3390.6
975.085	3396.93
975.386	3416.36
975.686	3379.76
975.986	3295.46
976.287	3291.4
976.587	3296.37
976.887	3282.58
977.187	3268.35
977.487	3258.63
977.787	3255.01
978.087	3235.35
978.387	3237.39
978.687	3218.63
978.987	3177.05
979.286	3165.75
979.586	3172.3
979.885	3120.78
980.185	3132.76
980.484	3122.81
980.784	3061.12
981.083	3054.57
981.382	3064.28
981.682	3035.36
981.981	3054.79
982.28	3034.23
982.579	3019.99
982.878	3004.62
983.177	3001.01
983.475	2981.12
983.774	2950.16
984.073	2924.17
984.372	2881.01
984.67	2899.09
984.969	2926.66
985.267	2896.15
985.566	2865.19
985.864	2865.42
986.162	2850.96
986.461	2839.66
986.759	2833.1
987.057	2817.06
987.355	2755.82
987.653	2769.38
987.951	2761.47
988.249	2763.5
988.547	2756.95
988.844	2718.98
989.142	2739.09
989.44	2702.03
989.737	2671.98
990.035	2710.62
990.332	2677.85
990.63	2673.11
990.927	2663.84
991.224	2665.88
991.521	2629.49
991.819	2633.11
992.116	2588.59
992.413	2618.19
992.71	2625.65
993.006	2590.62
993.303	2540
993.6	2571.42
993.897	2544.07
994.193	2523.06
994.49	2509.95
994.787	2491.87
995.083	2463.62
995.379	2448.93
995.676	2423.17
995.972	2441.93
996.268	2434.92
996.565	2431.31
996.861	2380.46
997.157	2413
997.453	2362.83
997.749	2351.53
998.044	2347.01
998.34	2335.49
998.636	2320.12
998.932	2314.7
999.227	2290.07
999.523	2282.38
999.818	2293.91
1000.114	2257.75
1000.409	2252.33
1000.704	2229.5
1001	2227.02
1001.295	2223.63
1001.59	2229.96
1001.885	2189.96
1002.18	2184.08
1002.475	2171.88
1002.77	2199.45
1003.065	2170.97
1003.359	2158.32
1003.654	2121.94
1003.949	2121.03
1004.243	2141.6
1004.538	2103.63
1004.832	2068.6
1005.127	2082.61
1005.421	2043.75
1005.715	2067.7
1006.009	2019.34
1006.304	2032.67
1006.598	2013.01
1006.892	1991.77
1007.186	1960.58
1007.48	1983.86
1007.773	1933.01
1008.067	1910.64
1008.361	1946.8
1008.655	1956.97
1008.948	1903.64
1009.242	1906.57
1009.535	1901.15
1009.829	1911.09
1010.122	1867.93
1010.415	1892.34
1010.708	1872.22
1011.001	1832.23
1011.295	1842.4
1011.588	1813.24
1011.881	1781.61
1012.173	1811.21
1012.466	1787.71
1012.759	1782.51
1013.052	1804.43
1013.344	1776.86
1013.637	1764.88
1013.93	1715.17
1014.222	1719.91
1014.514	1739.12
1014.807	1717.65
1015.099	1703.64
1015.391	1684.89
1015.683	1686.01
1015.976	1692.12
1016.268	1642.85
1016.56	1643.3
1016.851	1662.74
1017.143	1620.93
1017.435	1629.52
1017.727	1603.98
1018.018	1571.44
1018.31	1578
1018.602	1564.89
1018.893	1583.64
1019.185	1518.79
1019.476	1560.37
1019.767	1536.87
1020.058	1513.36
1020.35	1502.29
1020.641	1505.23
1020.932	1483.53
1021.223	1502.74
1021.514	1510.65
1021.804	1471.33
1022.095	1433.37
1022.386	1442.63
1022.677	1444.21
1022.967	1416.42
1023.258	1416.64
1023.548	1410.09
1023.839	1388.4
1024.129	1412.58
1024.419	1384.33
1024.709	1381.84
1025	1373.93
1025.29	1354.72
1025.58	1334.84
1025.87	1321.28
1026.16	1329.64
1026.449	1317.66
1026.739	1325.12
1027.029	1320.37
1027.319	1277.44
1027.608	1250.32
1027.898	1259.81
1028.187	1260.72
1028.477	1288.06
1028.766	1246.93
1029.055	1231.34
1029.344	1241.51
1029.634	1243.77
1029.923	1246.48
1030.212	1211.9
1030.501	1210.55
1030.79	1170.77
1031.078	1176.88
1031.367	1207.16
1031.656	1183.66
1031.945	1171.23
1032.233	1143.88
1032.522	1135.3
1032.81	1126.93
1033.099	1117.67
1033.387	1129.42
1033.675	1123.77
1033.963	1096.43
1034.251	1117.44
1034.54	1100.72
1034.828	1092.36
1035.116	1067.5
1035.403	1087.61
1035.691	1085.35
1035.979	1082.64
1036.267	1032.25
1036.554	1025.02
1036.842	1006.03
1037.129	1070.66
1037.417	1011
1037.704	1012.81
1037.992	1010.1
1038.279	1016.88
1038.566	1008.07
1038.853	1008.07
1039.14	1008.07
