Data from foil_FLMS001491_084.txt Node
Date: Tue Feb 07 11:36:55 GMT 2017
User: dcchb
Spectrometer: FLMS00149
Trigger mode: 0
Integration Time (sec): 2.000000E-2
Scans to average: 10
Electric dark correction enabled: true
Nonlinearity correction enabled: false
Boxcar width: 0
XAxis mode: Wavelengths
Number of Pixels in Spectrum: 2048
>>>>>Begin Spectral Data<<<<<
341.393	-8.49
341.776	-8.49
342.16	-8.49
342.543	-76.28
342.927	-46.68
343.31	-58.88
343.693	-63.18
344.077	-65.21
344.46	-53.69
344.843	-36.28
345.226	-30.18
345.61	-37.87
345.993	-40.58
346.376	5.75
346.759	27.44
347.142	24.51
347.525	45.75
347.908	37.84
348.291	62.47
348.674	87.78
349.057	94.33
349.44	122.81
349.823	138.17
350.206	192.18
350.588	283.03
350.971	308.34
351.354	344.04
351.737	338.4
352.119	352.18
352.502	370.71
352.884	373.2
353.267	383.59
353.65	398.05
354.032	421.78
354.414	425.17
354.797	449.13
355.179	416.59
355.562	444.83
355.944	435.57
356.326	444.38
356.709	467.88
357.091	463.36
357.473	468.34
357.855	479.86
358.238	477.15
358.62	482.57
359.002	464.95
359.384	487.54
359.766	492.29
360.148	472.63
360.53	457.94
360.912	471.05
361.294	503.14
361.676	491.61
362.057	495.23
362.439	484.83
362.821	510.37
363.203	482.8
363.584	500.65
363.966	516.02
364.348	492.74
364.729	502.46
365.111	494.1
365.493	497.49
365.874	506.75
366.256	505.17
366.637	514.66
367.019	520.09
367.4	512.63
367.781	529.35
368.163	541.33
368.544	532.06
368.925	509.69
369.306	550.14
369.688	522.35
370.069	535.9
370.45	518.73
370.831	545.4
371.212	561.67
371.593	533.64
371.974	556.47
372.355	544.49
372.736	579.97
373.117	554.66
373.498	556.24
373.879	562.57
374.26	544.04
374.641	529.58
375.021	560.54
375.402	597.82
375.783	623.59
376.163	688.67
376.544	628.33
376.925	614.77
377.305	626.75
377.686	634.43
378.066	638.5
378.447	650.48
378.827	652.06
379.208	654.09
379.588	675.34
379.968	664.49
380.349	664.26
380.729	669.91
381.109	701.32
381.489	680.31
381.87	683.92
382.25	717.14
382.63	717.59
383.01	717.82
383.39	737.03
383.77	711.04
384.15	756.69
384.53	756.46
384.91	774.09
385.29	793.52
385.67	788.78
386.049	803.02
386.429	803.02
386.809	826.07
387.189	855.67
387.568	835.11
387.948	834.43
388.328	840.53
388.707	869.91
389.087	887.76
389.466	898.83
389.846	879.85
390.225	912.17
390.605	913.52
390.984	923.24
391.363	950.58
391.743	939.28
392.122	985.61
392.501	979.51
392.881	970.47
393.26	1001.43
393.639	1015.89
394.018	1024.93
394.397	1045.95
394.776	1024.7
395.155	1090.01
395.534	1069.68
395.913	1072.61
396.292	1083.23
396.671	1123.46
397.05	1123.23
397.429	1115.55
397.808	1134.08
398.186	1142.22
398.565	1155.32
398.944	1177.7
399.323	1162.55
399.701	1195.55
400.08	1230.8
400.458	1233.96
400.837	1213.17
401.215	1246.17
401.594	1247.98
401.972	1258.14
402.351	1275.32
402.729	1292.95
403.107	1294.3
403.486	1316.22
403.864	1346.28
404.242	1357.8
404.62	1384.92
404.999	1387.18
405.377	1426.95
405.755	1436.67
406.133	1444.81
406.511	1445.94
406.889	1456.33
407.267	1510.34
407.645	1497.91
408.023	1533.62
408.401	1559.61
408.779	1585.59
409.156	1631.69
409.534	1630.34
409.912	1648.87
410.29	1657.23
410.667	1674.86
411.045	1706.04
411.422	1742.88
411.8	1739.49
412.178	1792.59
412.555	1802.76
412.933	1818.36
413.31	1871.91
413.687	1872.14
414.065	1879.6
414.442	1871.01
414.819	1955.3
415.197	1960.95
415.574	1980.61
415.951	1994.62
416.328	2040.27
416.705	2019.93
417.082	2054.28
417.46	2077.78
417.837	2118.24
418.214	2142.87
418.591	2156.2
418.967	2189.65
419.344	2181.06
419.721	2237.55
420.098	2233.26
420.475	2291.34
420.852	2253.82
421.228	2289.08
421.605	2289.08
421.982	2363.2
422.358	2363.65
422.735	2381.96
423.111	2409.53
423.488	2418.57
423.864	2463.99
424.241	2519.81
424.617	2516.87
424.994	2558.22
425.37	2603.87
425.746	2576.3
426.123	2598.22
426.499	2632.8
426.875	2673.25
427.251	2748.95
427.627	2777.65
428.003	2804.09
428.379	2871.66
428.756	2844.32
429.132	2894.49
429.507	2972
429.883	3020.58
430.259	3020.13
430.635	3027.82
431.011	3071.88
431.387	3154.14
431.763	3196.62
432.138	3194.82
432.514	3258.77
432.89	3277.07
433.265	3395.94
433.641	3425.09
434.016	3409.05
434.392	3470.06
434.767	3533.57
435.143	3505.77
435.518	3586.22
435.894	3626.44
436.269	3652.21
436.644	3710.51
437.02	3760.23
437.395	3729.27
437.77	3814.69
438.145	3816.04
438.52	3875.7
438.895	3958.19
439.271	3960.9
439.646	4016.94
440.021	4055.36
440.395	4052.42
440.77	4044.96
441.145	4096.26
441.52	4151.85
441.895	4135.13
442.27	4230.04
442.645	4216.49
443.019	4272.08
443.394	4253.09
443.769	4315.92
444.143	4305.3
444.518	4354.33
444.892	4364.73
445.267	4432.07
445.641	4444.5
446.016	4490.15
446.39	4529.02
446.764	4514.78
447.139	4501.45
447.513	4601.33
447.887	4630.71
448.262	4589.36
448.636	4669.58
449.01	4735.79
449.384	4786.64
449.758	4800.88
450.132	4802.46
450.506	4880.87
450.88	4875.9
451.254	4914.32
451.628	5017.37
452.002	5040.42
452.376	5097.14
452.75	5129.91
453.123	5183.24
453.497	5219.62
453.871	5272.95
454.244	5347.08
454.618	5414.42
454.992	5484.02
455.365	5507.3
455.739	5646.5
456.112	5697.8
456.486	5752.04
456.859	5820.06
457.232	5876.33
457.606	5956.78
457.979	6040.84
458.352	6129.43
458.725	6156.55
459.099	6223.21
459.472	6331.01
459.845	6349.31
460.218	6423.88
460.591	6453.04
460.964	6494.84
461.337	6698.68
461.71	6758.34
462.083	6816.42
462.456	6875.17
462.829	6888.51
463.201	7020.48
463.574	7023.87
463.947	7139.57
464.32	7300.25
464.692	7383.63
465.065	7402.84
465.438	7551.99
465.81	7634.7
466.183	7745.66
466.555	7899.1
466.928	7940.68
467.3	7914.24
467.672	8067.23
468.045	8242.82
468.417	8276.49
468.789	8374.57
469.161	8463.15
469.534	8572.98
469.906	8807.78
470.278	8842.13
470.65	8931.62
471.022	9101.33
471.394	9304.94
471.766	9337.71
472.138	9439.62
472.51	9613.41
472.882	9731.37
473.253	9900.18
473.625	9976.79
473.997	10182.2
474.369	10307.85
474.74	10438.24
475.112	10609.99
475.484	10811.11
475.855	10942.18
476.227	11013.37
476.598	11360.93
476.97	11481.83
477.341	11648.83
477.713	11873.68
478.084	11922.72
478.455	12241.81
478.827	12372.88
479.198	12727.67
479.569	12678.64
479.94	13075.69
480.311	13153.88
480.682	13589.12
481.053	13754.31
481.424	13951.82
481.795	14086.51
482.166	14292.38
482.537	14486.5
482.908	14744.57
483.279	14924.23
483.65	15285.8
484.021	15494.38
484.391	15705.67
484.762	15801.04
485.133	15952.22
485.503	16189.05
485.874	16648.47
486.244	16709.49
486.615	17001.69
486.985	17227.89
487.356	17537.72
487.726	17695.68
488.097	17946.29
488.467	18087.31
488.837	18388.54
489.207	18638.48
489.578	18871.24
489.948	19145.58
490.318	19364.79
490.688	19404.79
491.058	19798.45
491.428	19915.51
491.798	20133.58
492.168	20537.41
492.538	20496.74
492.908	20790.96
493.278	21097.4
493.648	21100.34
494.017	21459.87
494.387	21640.89
494.757	21735.12
495.126	22007.66
495.496	22082.46
495.866	22336.01
496.235	22485.61
496.605	22707.75
496.974	22872.72
497.344	22960.17
497.713	23152.26
498.082	23227.06
498.452	23617.11
498.821	23799.47
499.19	23780.49
499.559	24066.13
499.928	24244.21
500.298	24315.84
500.667	24584.31
501.036	24558.78
501.405	24819.33
501.774	24754.93
502.143	25038.08
502.512	25116.95
502.88	25513.33
503.249	25487.34
503.618	25765.3
503.987	25761.91
504.356	26028.12
504.724	26211.16
505.093	26375.22
505.462	26422.45
505.83	26724.14
506.199	26792.16
506.567	27224.47
506.936	27082.78
507.304	27525.93
507.672	27497
508.041	27867.84
508.409	27969.76
508.777	28260.82
509.145	28371.78
509.514	28491.55
509.882	28676.63
510.25	28741.26
510.618	29031.43
510.986	29249.95
511.354	29527.91
511.722	29694.01
512.09	29875.92
512.458	29868.47
512.826	30249.92
513.193	30374.89
513.561	30474.55
513.929	30821.89
514.297	31166.06
514.664	31428.2
515.032	31465.26
515.4	31733.28
515.767	31857.79
516.135	32071.57
516.502	31908.41
516.869	32543.42
517.237	32784.32
517.604	32793.13
517.972	33029.74
518.339	33339.11
518.706	33449.39
519.073	33614.36
519.44	33823.16
519.808	34174.12
520.175	34283.49
520.542	34801.22
520.909	34834.89
521.276	34938.39
521.643	35421.99
522.009	35735.43
522.376	35948.31
522.743	36102.2
523.11	36518.69
523.477	36873.71
523.843	37025.79
524.21	37448.38
524.577	37699.22
524.943	38003.17
525.31	38155.03
525.676	38455.36
526.043	38761.11
526.409	38868
526.776	39391.61
527.142	39360.65
527.508	39743.23
527.874	39984.81
528.241	40204.92
528.607	40379.6
528.973	40838.35
529.339	40742.53
529.705	41307.71
530.071	41716.29
530.437	41669.29
530.803	41888.71
531.169	42166.67
531.535	42114.02
531.901	42253.68
532.267	42629.94
532.632	42845.75
532.998	42982.25
533.364	43412.06
533.73	43480.09
534.095	43929.34
534.461	44063.8
534.826	44145.15
535.192	44271.7
535.557	44702.88
535.923	44678.92
536.288	44820.16
536.653	45007.73
537.019	45045.47
537.384	45323.88
537.749	45543.99
538.114	45693.59
538.479	45735.17
538.845	46074.59
539.21	45985.56
539.575	46304.87
539.94	46541.02
540.305	46702.15
540.67	46613.11
541.034	46810.17
541.399	47009.71
541.764	47115.92
542.129	47399.76
542.494	47491.73
542.858	47502.35
543.223	47665.06
543.587	47980.76
543.952	47946.86
544.316	48075.44
544.681	48247.19
545.045	48410.13
545.41	48647.18
545.774	48725.82
546.138	48813.73
546.503	48953.39
546.867	48926.27
547.231	49412.58
547.595	49251.46
547.959	49494.39
548.324	49547.95
548.688	49716.76
549.052	49856.64
549.416	49999.01
549.779	50145.9
550.143	50211.43
550.507	50546.79
550.871	50694.36
551.235	50641.93
551.599	50954.24
551.962	50911.53
552.326	51070.85
552.689	51371.18
553.053	51239.88
553.417	51378.63
553.78	51766.87
554.143	51668.8
554.507	51777.49
554.87	52048.67
555.234	52352.62
555.597	52243.02
555.96	52553.29
556.323	52648.88
556.686	52741.08
557.05	52963
557.413	53022.43
557.776	53136.55
558.139	53349.2
558.502	53406.6
558.865	53555.07
559.228	53730.89
559.59	53858.8
559.953	53993.48
560.316	54291.55
560.679	54289.07
561.041	54421.04
561.404	54582.62
561.767	54823.74
562.129	54801.37
562.492	55103.06
562.854	55024.87
563.217	55209.49
563.579	55360.9
563.941	55473.67
564.304	55622.82
564.666	55731.06
565.028	55856.48
565.39	56021
565.753	56113.43
566.115	56204.04
566.477	56279.3
566.839	56437.94
567.201	56613.07
567.563	56726.06
567.925	56819.85
568.287	56829.11
568.648	56905.27
569.01	57107.75
569.372	57194.98
569.734	57222.55
570.095	57423.9
570.457	57540.96
570.819	57598.13
571.18	57614.86
571.542	57823.44
571.903	57902.76
572.265	57943.21
572.626	57995.86
572.987	57996.31
573.349	58147.72
573.71	58250.32
574.071	58321.28
574.432	58424.55
574.794	58574.83
575.155	58545
575.516	58475.62
575.877	58647.14
576.238	58657.09
576.599	58822.73
576.96	58759.23
577.32	58781.15
577.681	58907.02
578.042	59030.19
578.403	59068.6
578.763	59028.6
579.124	59129.17
579.485	59173.23
579.845	59220.69
580.206	59181.59
580.566	59231.76
580.927	59261.82
581.287	59352.44
581.648	59250.97
582.008	59471.53
582.368	59398.54
582.728	59438.99
583.089	59401.93
583.449	59376.16
583.809	59407.35
584.169	59503.62
584.529	59349.05
584.889	59587.68
585.249	59456.39
585.609	59415.71
585.969	59532.77
586.329	59429.5
586.688	59510.85
587.048	59551.98
587.408	59506.1
587.768	59520.34
588.127	59562.83
588.487	59550.85
588.846	59655.03
589.206	59537.52
589.565	59549.04
589.925	59687.57
590.284	59604.86
590.643	59624.75
591.003	59672.65
591.362	59804.85
591.721	59650.96
592.08	59650.51
592.44	59721.47
592.799	59658.64
593.158	59645.31
593.517	59714.46
593.876	59736.61
594.235	59695.93
594.593	59761.01
594.952	59695.03
595.311	59671.98
595.67	59735.48
596.029	59854.8
596.387	59906.77
596.746	59884.17
597.104	59784.74
597.463	59810.96
597.822	59934.34
598.18	59836.72
598.538	59881.69
598.897	59939.77
599.255	59816.15
599.613	60104.73
599.972	59931.18
600.33	59939.54
600.688	59888.24
601.046	60007.79
601.404	60117.16
601.762	60045.75
602.12	60177.95
602.478	60123.26
602.836	60073.55
603.194	59990.84
603.552	60093.21
603.91	60014.11
604.268	60265.41
604.625	60146.31
604.983	60227.67
605.341	60131.85
605.698	60252.53
606.056	60319.87
606.413	60300.66
606.771	60376.36
607.128	60358.96
607.485	60280.32
607.843	60305.86
608.2	60404.39
608.557	60445.97
608.914	60455.68
609.272	60519.64
609.629	60598.51
609.986	60618.39
610.343	60525.74
610.7	60720.54
611.057	60710.82
611.414	60652.29
611.771	60659.97
612.127	60813.19
612.484	60753.98
612.841	60782
613.198	60739.07
613.554	60792.62
613.911	60955.33
614.267	60920.76
614.624	60866.75
614.98	60959.63
615.337	61034.88
615.693	61034.43
616.05	60951.04
616.406	61170.69
616.762	61031.49
617.118	61062.45
617.475	61050.92
617.831	61169.11
618.187	61111.94
618.543	61190.35
618.899	61291.37
619.255	61206.63
619.611	61160.52
619.967	61236.23
620.323	61315.55
620.678	61183.12
621.034	61151.49
621.39	61134.08
621.746	61130.92
622.101	61405.49
622.457	61114.88
622.812	61232.16
623.168	61266.51
623.523	61252.27
623.879	61326.4
624.234	61193.74
624.589	61293.63
624.945	61257.47
625.3	61274.87
625.655	61276
626.01	61227.19
626.365	61320.29
626.72	61273.29
627.075	61294.53
627.43	61217.02
627.785	61234.2
628.14	61220.64
628.495	61234.65
628.85	61160.3
629.205	61137.7
629.559	61210.92
629.914	61152.84
630.269	61101.09
630.623	61034.88
630.978	60998.04
631.332	61072.39
631.687	61153.97
632.041	60993.3
632.396	61046.86
632.75	60940.64
633.104	61012.05
633.459	60901.55
633.813	60929.57
634.167	60834.88
634.521	60900.19
634.875	60937.71
635.229	60892.74
635.583	60800.99
635.937	60724.6
636.291	60752.85
636.645	60777.03
636.999	60674.89
637.352	60757.6
637.706	60543.82
638.06	60636.24
638.413	60598.05
638.767	60554.66
639.121	60599.41
639.474	60410.49
639.828	60480.99
640.181	60504.04
640.534	60443.71
640.888	60406.42
641.241	60302.92
641.594	60299.76
641.947	60372.3
642.301	60226.76
642.654	60280.1
643.007	60285.97
643.36	60209.82
643.713	60210.72
644.066	60279.87
644.419	60034.23
644.771	59675.82
645.124	59292.33
645.477	59262.27
645.83	59192.89
646.182	59253.68
646.535	59356.73
646.888	59553.56
647.24	59420.01
647.593	59650.06
647.945	59513.56
648.298	59444.19
648.65	59365.32
649.002	59213.01
649.355	59178.43
649.707	59030.19
650.059	59057.76
650.411	59276.96
650.763	59373
651.115	59720.79
651.467	59647.12
651.819	59648.93
652.171	59506.56
652.523	59561.24
652.875	59447.12
653.227	59304.3
653.578	59509.72
653.93	59476.73
654.282	59284.87
654.633	59259.11
654.985	59314.25
655.337	59357.18
655.688	59408.03
656.039	59407.12
656.391	59137.98
656.742	59215.27
657.094	59196.73
657.445	59316.73
657.796	59168.49
658.147	59136.62
658.498	59138.66
658.849	59122.61
659.2	59110.86
659.551	59055.5
659.902	59146.11
660.253	59070.18
660.604	59106.57
660.955	58965.1
661.306	59061.6
661.656	58984.08
662.007	58963.97
662.358	58972.79
662.708	58910.41
663.059	58879
663.409	58769.4
663.76	58917.65
664.11	58947.25
664.461	58966.01
664.811	58940.24
665.161	58834.48
665.511	58757.65
665.862	58789.06
666.212	58928.27
666.562	58867.03
666.912	58747.48
667.262	58822.51
667.612	58780.02
667.962	58727.59
668.312	58638.11
668.662	58779.34
669.011	58742.06
669.361	58665.67
669.711	58609.41
670.06	58643.3
670.41	58589.74
670.76	58555.85
671.109	58695.05
671.459	58625
671.808	58602.85
672.157	58496.19
672.507	58374.16
672.856	58472.46
673.205	58438.79
673.554	58598.56
673.904	58430.43
674.253	58596.98
674.602	58457.32
674.951	58107.95
675.3	57954.51
675.649	58412.12
675.998	58329.41
676.346	58429.52
676.695	58366.47
677.044	58230.43
677.393	58337.1
677.741	58274.95
678.09	58265.69
678.438	58164.22
678.787	58187.72
679.135	58199.25
679.484	58022.53
679.832	58130.55
680.181	57892.36
680.529	58039.93
680.877	57978.69
681.225	57965.35
681.573	57955.64
681.922	57840.84
682.27	57735.3
682.618	57782.31
682.966	57620.05
683.314	57652.37
683.661	57584.12
684.009	57475.65
684.357	57386.61
684.705	57377.57
685.053	57412.15
685.4	57390.91
685.748	57269.55
686.095	57289.67
686.443	57131.7
686.79	57075.66
687.138	57139.16
687.485	57070.91
687.832	57011.48
688.18	57036.11
688.527	56892.16
688.874	56858.49
689.221	56764.48
689.568	56693.75
689.915	56589.35
690.262	56596.35
690.609	56530.82
690.956	56433.19
691.303	56427.32
691.65	56298.96
691.997	56342.57
692.344	56213.76
692.69	56116.82
693.037	56081.11
693.383	55927.22
693.73	55995.46
694.077	55807.67
694.423	55805.64
694.769	55673.66
695.116	55588.47
695.462	55621.69
695.808	55450.84
696.155	55521.58
696.501	55307.35
696.847	55350.51
697.193	55131.3
697.539	55178.54
697.885	54996.17
698.231	54937.64
698.577	54880.24
698.923	54861.03
699.269	54725.89
699.614	54682.28
699.96	54399.35
700.306	54471.43
700.651	54344.21
700.997	54243.64
701.342	54190.09
701.688	54160.48
702.033	54068.28
702.379	54008.17
702.724	53977.44
703.069	53976.53
703.415	53619.03
703.76	53672.81
704.105	53560.05
704.45	53430.56
704.795	53250.45
705.14	53325.7
705.485	53299.49
705.83	53264.01
706.175	53187.4
706.52	53153.96
706.865	53023.11
707.209	52907.18
707.554	52788.09
707.899	52966.39
708.243	52632.39
708.588	52693.63
708.932	52357.82
709.277	52417.48
709.621	52357.59
709.966	52319.85
710.31	52297.03
710.654	52023.59
710.998	52113.08
711.342	52006.87
711.687	51910.37
712.031	51816.59
712.375	51567.78
712.719	51677.16
713.063	51518.29
713.407	51573.43
713.75	51554.9
714.094	51539.99
714.438	51341.12
714.782	51278.3
715.125	51191.75
715.469	51229.71
715.812	51006.22
716.156	50871.08
716.499	50910.17
716.843	50940.45
717.186	50721.25
717.53	50882.38
717.873	50883.05
718.216	50653.23
718.559	50436.06
718.902	50318.32
719.246	50308.15
719.589	50230.64
719.932	50140.02
720.275	50101.38
720.617	50022.74
720.96	49890.09
721.303	49982.74
721.646	49888.5
721.989	49623.65
722.331	49760.6
722.674	49543.43
723.016	49707.49
723.359	49455.07
723.701	49505.01
724.044	49244.45
724.386	49196.32
724.729	49408.29
725.071	49184.12
725.413	49149.54
725.755	49051.24
726.097	48833.84
726.439	48726.28
726.782	48831.13
727.124	48882.2
727.465	48657.12
727.807	48568.09
728.149	48541.2
728.491	48382.1
728.833	48399.96
729.175	48241.54
729.516	48099.85
729.858	48106.18
730.199	48079.51
730.541	47921.32
730.882	48076.12
731.224	48086.52
731.565	47805.62
731.906	47704.38
732.248	47786.41
732.589	47588.68
732.93	47511.84
733.271	47466.42
733.612	47292.87
733.953	47449.02
734.294	47248.57
734.635	47073.66
734.976	47308.69
735.317	46980.11
735.658	46982.14
735.999	46906.21
736.339	46752.32
736.68	46931.29
737.021	46659.44
737.361	46525.88
737.702	46730.4
738.042	46551.19
738.383	46467.35
738.723	46542.38
739.063	46186
739.404	46291.54
739.744	46144.42
740.084	46009.74
740.424	46105.55
740.764	46001.6
741.104	46169.96
741.444	45905.33
741.784	45781.04
742.124	45757.99
742.464	45797.54
742.804	45696.07
743.143	45573.36
743.483	45569.3
743.823	45492.24
744.162	45362.3
744.502	45560.48
744.841	45343.99
745.181	45224.45
745.52	45053.6
745.86	45020.61
746.199	44930.89
746.538	44698.13
746.877	44859.48
747.216	44711.47
747.556	44614.07
747.895	44602.09
748.234	44340.63
748.573	44345.37
748.911	44318.48
749.25	44163.91
749.589	44031.71
749.928	44048.88
750.267	44104.7
750.605	43833.75
750.944	43899.96
751.283	43740.42
751.621	43756.69
751.96	43583.36
752.298	43470.59
752.636	43357.6
752.975	43115.58
753.313	42999.42
753.651	43241.22
753.989	42981.79
754.327	42973.21
754.666	42762.14
755.004	42873.55
755.342	42754.45
755.679	42612.09
756.017	42397.4
756.355	42578.64
756.693	42177.52
757.031	42180.68
757.368	41956.28
757.706	41948.37
758.044	41876.06
758.381	41874.93
758.719	41660.02
759.056	41670.19
759.394	41340.25
759.731	41138.9
760.068	41098.23
760.405	40922.41
760.743	40763.55
761.08	40897.78
761.417	40601.97
761.754	40585.25
762.091	40367.4
762.428	40290.34
762.765	40088.99
763.102	40047.41
763.438	39836.11
763.775	39635.21
764.112	39857.81
764.449	39743.01
764.785	39695.33
765.122	39261.44
765.458	39096.92
765.795	39086.08
766.131	39005.17
766.467	38864.39
766.804	38556.37
767.14	38479.54
767.476	38442.7
767.812	38237.51
768.148	38265.99
768.485	38043.17
768.821	37743.74
769.157	37763.4
769.492	37612.44
769.828	37697.41
770.164	37220.36
770.5	37105.11
770.836	37149.4
771.171	36714.16
771.507	36787.61
771.842	36579.02
772.178	36523.43
772.513	36479.82
772.849	36351.01
773.184	36137.91
773.519	36114.4
773.855	35969.55
774.19	35837.35
774.525	35622.67
774.86	35540.41
775.195	35476.91
775.53	35371.15
775.865	35215.9
776.2	34932.74
776.535	34723.25
776.87	34678.06
777.205	34515.58
777.539	34339.76
777.874	34396.26
778.209	34112.87
778.543	34127.56
778.878	34031.97
779.212	33850.96
779.547	33517.41
779.881	33662.49
780.215	33512.21
780.55	33465.89
780.884	33158.78
781.218	33127.36
781.552	33002.17
781.886	32840.37
782.22	32812.12
782.554	32500.26
782.888	32247.16
783.222	32256.43
783.556	32056.21
783.889	31986.38
784.223	31730.34
784.557	31755.2
784.89	31741.41
785.224	31389.33
785.557	31443.34
785.891	31339.16
786.224	31328.54
786.558	31097.36
786.891	31010.81
787.224	30846.07
787.557	30698.73
787.891	30553.42
788.224	30507.09
788.557	30561.78
788.89	30479.75
789.223	30470.48
789.556	30178.51
789.888	29992.3
790.221	29834.57
790.554	29582.37
790.887	29670.51
791.219	29671.18
791.552	29486.78
791.884	29345.32
792.217	29230.06
792.549	28994.82
792.882	29015.38
793.214	28848.15
793.546	28932.9
793.879	28793.69
794.211	28489.07
794.543	28676.63
794.875	28426.02
795.207	28444.1
795.539	28256.98
795.871	28313.03
796.203	27944.67
796.535	27932.02
796.867	27808.18
797.198	27671.46
797.53	27666.26
797.862	27494.97
798.193	27437.57
798.525	27144.92
798.856	27326.16
799.188	27075.32
799.519	26843.23
799.85	26871.48
800.182	26821.99
800.513	26842.33
800.844	26611.38
801.175	26579.06
801.506	26538.84
801.837	26417.94
802.168	26278.96
802.499	26226.98
802.83	26028.57
803.161	25972.75
803.491	25909.02
803.822	25882.81
804.153	25775.69
804.483	25589.26
804.814	25518.07
805.145	25571.86
805.475	25408.92
805.805	25456.83
806.136	25323.95
806.466	25288.25
806.796	25248.47
807.126	25071.98
807.457	24940.69
807.787	24939.1
808.117	24844.87
808.447	24688.94
808.777	24749.05
809.107	24633.58
809.436	24594.71
809.766	24549.51
810.096	24514.93
810.426	24469.29
810.755	24410.08
811.085	24213.93
811.414	24255.73
811.744	24058.45
812.073	24120.59
812.403	24220.93
812.732	23943.88
813.061	23815.29
813.39	23774.61
813.719	23657.78
814.049	23898.23
814.378	23582.98
814.707	23441.74
815.036	23499.82
815.365	23410.78
815.693	23057.12
816.022	23207.4
816.351	22998.14
816.68	22873.4
817.008	23023.9
817.337	22716.11
817.665	22703.91
817.994	22823.68
818.322	22731.7
818.651	22633.85
818.979	22481.32
819.307	22619.84
819.636	22539.62
819.964	22309.34
820.292	22483.8
820.62	22359.51
820.948	22327.2
821.276	22482.9
821.604	22337.14
821.932	22466.85
822.259	22390.24
822.587	22217.37
822.915	22143.25
823.243	22360.64
823.57	22263.92
823.898	22304.37
824.225	22156.35
824.553	22200.19
824.88	22132.4
825.207	22220.53
825.535	22070.25
825.862	22105.28
826.189	22009.69
826.516	22159.29
826.843	22207.65
827.17	22200.87
827.497	22126.97
827.824	22161.55
828.151	22096.92
828.478	22037.49
828.805	22143.47
829.131	22037.49
829.458	22013.08
829.785	21902.35
830.111	22007.2
830.438	22142.12
830.764	21972.85
831.09	22100.53
831.417	21938.96
831.743	22133.3
832.069	22075.68
832.395	22026.64
832.722	21984.83
833.048	21846.76
833.374	21973.08
833.7	21771.28
834.026	21908
834.351	21918.62
834.677	21893.08
835.003	21902.8
835.329	21667.78
835.654	21620.77
835.98	21638.85
836.306	21667.55
836.631	21548.46
836.956	21692.86
837.282	21540.32
837.607	21538.29
837.932	21499.19
838.258	21501.68
838.583	21539.65
838.908	21349.59
839.233	21319.31
839.558	21294.91
839.883	21341.68
840.208	21179.88
840.533	21216.94
840.858	21297.39
841.182	21216.94
841.507	21212.42
841.832	21121.58
842.156	21070.51
842.481	21107.34
842.805	20955.25
843.13	20953.22
843.454	20935.82
843.778	20845.65
844.103	20791.19
844.427	20678.65
844.751	20828.25
845.075	20699.44
845.399	20529.05
845.723	20484.53
846.047	20540.58
846.371	20353.24
846.695	20382.61
847.019	20184.2
847.343	20123.19
847.666	19986.24
847.99	19836.87
848.313	19791.22
848.637	19722.07
848.96	19765.91
849.284	19688.62
849.607	19583.54
849.931	19522.3
850.254	19353.49
850.577	19253.6
850.9	19108.52
851.223	19081.86
851.546	19040.05
851.869	18903.78
852.192	18984.46
852.515	18901.75
852.838	18823.78
853.161	18784.92
853.483	18728.65
853.806	18669.21
854.129	18646.16
854.451	18515.32
854.774	18435.77
855.096	18403
855.419	18321.2
855.741	18322.55
856.063	18188.55
856.385	18158.72
856.708	18116.46
857.03	18100.41
857.352	18078.49
857.674	18034.43
857.996	17953.3
858.318	17665.17
858.64	17797.82
858.961	17776.81
859.283	17610.71
859.605	17573.87
859.926	17712.63
860.248	17639.18
860.57	17440.09
860.891	17537.72
861.212	17428.79
861.534	17342.47
861.855	17352.64
862.176	17479.87
862.498	17406.87
862.819	17334.56
863.14	17293.88
863.461	17197.61
863.782	17145.41
864.103	17186.09
864.424	17160.55
864.745	17188.57
865.065	17057.05
865.386	16956.26
865.707	16949.03
866.027	16957.17
866.348	17001.01
866.668	16942.7
866.989	16905.87
867.309	16854.8
867.63	16794.69
867.95	16819.54
868.27	16770.96
868.59	16797.4
868.91	16617.29
869.23	16735.48
869.55	16603.73
869.87	16807.34
870.19	16637.63
870.51	16656.84
870.83	16610.51
871.15	16596.05
871.469	16460.68
871.789	16554.92
872.109	16519.21
872.428	16430.4
872.748	16590.4
873.067	16457.52
873.386	16433.11
873.706	16365.77
874.025	16265.21
874.344	16178.43
874.663	16326.22
874.982	16269.05
875.301	16396.28
875.62	16218.88
875.939	16149.05
876.258	16211.42
876.577	16136.85
876.896	16250.29
877.214	16075.83
877.533	15981.83
877.852	15978.21
878.17	16076.51
878.489	16045.78
878.807	16036.29
879.125	15975.27
879.444	15996.06
879.762	15958.78
880.08	15978.66
880.398	15831.55
880.716	15911.54
881.034	15748.61
881.352	15821.38
881.67	15847.59
881.988	15693.92
882.306	15681.95
882.624	15647.82
882.941	15580.03
883.259	15578.45
883.577	15637.43
883.894	15535.51
884.212	15488.96
884.529	15459.58
884.846	15483.99
885.164	15412.35
885.481	15256.87
885.798	15406.93
886.115	15267.04
886.432	15329.41
886.75	15173.71
887.067	15322.86
887.383	15208.29
887.7	15198.57
888.017	15053.26
888.334	15142.98
888.651	14966.26
888.967	15013.04
889.284	14960.38
889.6	14887.39
889.917	14884.68
890.233	14866.6
890.55	14867.5
890.866	14847.84
891.182	14823.21
891.498	14747.06
891.815	14603.1
892.131	14533.28
892.447	14533.73
892.763	14510.23
893.079	14529.21
893.395	14509.77
893.71	14500.06
894.026	14478.59
894.342	14378.48
894.657	14331.47
894.973	14323.11
895.289	14225.49
895.604	14305.71
895.92	14054.42
896.235	14006.51
896.55	14005.38
896.865	13972.61
897.181	14006.28
897.496	13921.54
897.811	13887.87
898.126	13827.98
898.441	13779.4
898.756	13750.47
899.071	13698.95
899.386	13708.21
899.7	13604.03
900.015	13502.57
900.33	13404.49
900.644	13449.91
900.959	13444.27
901.273	13426.41
901.588	13305.51
901.902	13263.48
902.216	13242.01
902.531	13258.96
902.845	13181.45
903.159	13091.96
903.473	13109.13
903.787	13117.95
904.101	12963.15
904.415	12927.44
904.729	12956.82
905.042	12815.36
905.356	12793.21
905.67	12690.84
905.984	12669.82
906.297	12697.84
906.611	12555.7
906.924	12534.68
907.237	12557.06
907.551	12505.98
907.864	12449.94
908.177	12392.77
908.491	12290.62
908.804	12267.35
909.117	12173.34
909.43	12096.05
909.743	12084.98
910.056	12034.13
910.368	12028.03
910.681	12024.87
910.994	11952.33
911.307	11825.32
911.619	11816.96
911.932	11877.75
912.244	11746.68
912.557	11679.57
912.869	11709.17
913.181	11659.45
913.494	11608.83
913.806	11517.08
914.118	11479.8
914.43	11390.08
914.742	11370.42
915.054	11364.09
915.366	11287.26
915.678	11231.44
915.99	11230.31
916.302	11210.43
916.613	11105.57
916.925	11126.59
917.236	11020.15
917.548	10953.48
917.859	10972.92
918.171	10832.58
918.482	10826.48
918.794	10667.84
919.105	10775.41
919.416	10643.89
919.727	10642.98
920.038	10544.91
920.349	10553.72
920.66	10450.45
920.971	10512.14
921.282	10347.85
921.593	10339.04
921.903	10243.9
922.214	10247.74
922.525	10270.79
922.835	10254.29
923.146	10148.53
923.456	10099.49
923.767	10094.52
924.077	10118.7
924.387	10067.86
924.697	9978.14
925.008	9958.71
925.318	9858.37
925.628	9882.78
925.938	9826.51
926.248	9683.46
926.558	9707.87
926.867	9618.38
927.177	9617.7
927.487	9569.56
927.796	9461.77
928.106	9511.94
928.416	9445.05
928.725	9474.43
929.034	9430.59
929.344	9386.97
929.653	9327.76
929.962	9323.02
930.271	9241.44
930.581	9215.9
930.89	9160.99
931.199	9120.31
931.508	9027.88
931.817	9016.36
932.125	9025.17
932.434	9009.58
932.743	8895.46
933.051	8824.73
933.36	8804.39
933.669	8734.56
933.977	8709.7
934.286	8740.66
934.594	8717.38
934.902	8578.4
935.21	8608.46
935.519	8598.74
935.827	8483.49
936.135	8509.93
936.443	8311.97
936.751	8431.97
937.059	8409.82
937.367	8312.87
937.674	8308.35
937.982	8260.67
938.29	8169.83
938.597	8189.71
938.905	8116.27
939.213	8067.01
939.52	8069.27
939.827	8089.6
940.135	7969.61
940.442	7955.14
940.749	7982.49
941.056	7923.51
941.363	7903.17
941.67	7892.09
941.977	7772.32
942.284	7716.73
942.591	7764.87
942.898	7656.39
943.205	7694.59
943.511	7650.07
943.818	7574.81
944.125	7528.49
944.431	7536.4
944.738	7517.64
945.044	7484.42
945.35	7454.59
945.657	7412.11
945.963	7415.27
946.269	7276.97
946.575	7323.3
946.881	7254.37
947.187	7215.95
947.493	7130.76
947.799	7203.98
948.105	7132.11
948.41	7071.1
948.716	7089.4
949.022	7007.6
949.327	7052.34
949.633	6974.6
949.938	6943.65
950.244	6951.78
950.549	6880.14
950.854	6850.31
951.16	6840.37
951.465	6756.31
951.77	6758.11
952.075	6749.75
952.38	6700.26
952.685	6695.52
952.99	6625.91
953.294	6659.58
953.599	6589.76
953.904	6524.22
954.209	6529.64
954.513	6561.51
954.818	6437.22
955.122	6427.05
955.426	6423.66
955.731	6311.57
956.035	6288.52
956.339	6334.85
956.643	6308.86
956.948	6254.62
957.252	6211.91
957.556	6238.35
957.86	6182.31
958.163	6157.23
958.467	6164
958.771	6106.38
959.075	6046.49
959.378	6055.31
959.682	6025.7
959.985	5989.09
960.289	5955.65
960.592	6000.39
960.896	5882.66
961.199	5920.17
961.502	5906.61
961.805	5838.59
962.108	5799.27
962.411	5802.88
962.714	5761.53
963.017	5782.77
963.32	5746.84
963.623	5677.24
963.926	5683.57
964.228	5655.09
964.531	5627.07
964.833	5608.54
965.136	5544.59
965.438	5543
965.741	5499.16
966.043	5435.21
966.345	5441.99
966.648	5448.54
966.95	5432.05
967.252	5389.34
967.554	5346.62
967.856	5361.09
968.158	5272.05
968.46	5266.63
968.761	5259.85
969.063	5244.93
969.365	5227.31
969.666	5187.08
969.968	5194.54
970.269	5144.6
970.571	5117.93
970.872	5132.62
971.174	5086.52
971.475	5053.98
971.776	5010.81
972.077	5017.37
972.378	4995.22
972.679	4986.63
972.98	4958.84
973.281	4885.39
973.582	4898.5
973.883	4881.55
974.183	4857.15
974.484	4850.59
974.785	4824.15
975.085	4818.05
975.386	4797.71
975.686	4767.43
975.986	4730.82
976.287	4699.18
976.587	4648.34
976.887	4641.33
977.187	4666.64
977.487	4578.96
977.787	4616.25
978.087	4525.4
978.387	4587.32
978.687	4569.02
978.987	4515.23
979.286	4462.58
979.586	4501.45
979.885	4439.3
980.185	4446.99
980.484	4406.31
980.784	4359.53
981.083	4326.31
981.382	4334.45
981.682	4343.26
981.981	4348.91
982.28	4302.58
982.579	4210.61
982.878	4242.7
983.177	4242.93
983.475	4176.71
983.774	4194.34
984.073	4147.56
984.372	4111.86
984.67	4117.28
984.969	4101.46
985.267	4103.72
985.566	4055.81
985.864	4079.09
986.162	4035.47
986.461	3997.28
986.759	3974.46
987.057	3977.17
987.355	3974.91
987.653	3936.27
987.951	3943.95
988.249	3930.39
988.547	3878.41
988.844	3818.53
989.142	3855.14
989.44	3784.86
989.737	3807.91
990.035	3799.77
990.332	3738.76
990.63	3795.71
990.927	3751.19
991.224	3749.83
991.521	3720.68
991.819	3706.67
992.116	3680.45
992.413	3675.26
992.71	3615.37
993.006	3635.48
993.303	3610.17
993.6	3589.61
993.897	3546.9
994.193	3538.76
994.49	3507.13
994.787	3518.88
995.083	3478.88
995.379	3503.51
995.676	3458.31
995.972	3447.24
996.268	3428.03
996.565	3397.3
996.861	3386.68
997.157	3389.39
997.453	3360.69
997.749	3348.49
998.044	3313.01
998.34	3311.42
998.636	3291.09
998.932	3272.56
999.227	3214.48
999.523	3174.93
999.818	3233.91
1000.114	3167.02
1000.409	3173.8
1000.704	3147.13
1001	3092.22
1001.295	3118.66
1001.59	3093.58
1001.885	3082.05
1002.18	3077.53
1002.475	3009.29
1002.77	3032.34
1003.065	3034.6
1003.359	2985.78
1003.654	2967.03
1003.949	2984.43
1004.243	2933.13
1004.538	2910.3
1004.832	2911.21
1005.127	2866.92
1005.421	2863.07
1005.715	2875.73
1006.009	2857.42
1006.304	2851.32
1006.598	2820.82
1006.892	2796.18
1007.186	2786.01
1007.48	2773.59
1007.773	2731.78
1008.067	2684.1
1008.361	2656.98
1008.655	2658.56
1008.948	2657.43
1009.242	2656.75
1009.535	2653.14
1009.829	2618.79
1010.122	2592.35
1010.415	2581.27
1010.708	2585.12
1011.001	2533.59
1011.295	2539.69
1011.588	2546.25
1011.881	2482.52
1012.173	2536.3
1012.466	2507.15
1012.759	2471.45
1013.052	2466.7
1013.344	2463.54
1013.637	2426.02
1013.93	2393.48
1014.222	2368.62
1014.514	2388.51
1014.807	2375.18
1015.099	2327.27
1015.391	2324.56
1015.683	2314.84
1015.976	2256.31
1016.268	2273.71
1016.56	2255.63
1016.851	2261.28
1017.143	2240.72
1017.435	2217.44
1017.727	2212.47
1018.018	2209.31
1018.31	2178.12
1018.602	2167.05
1018.893	2164.34
1019.185	2159.36
1019.476	2096.77
1019.767	2115.07
1020.058	2091.57
1020.35	2060.16
1020.641	2042.53
1020.932	2045.69
1021.223	2008.41
1021.514	1995.3
1021.804	2003.44
1022.095	1965.92
1022.386	1965.7
1022.677	1933.83
1022.967	1929.54
1023.258	1916.43
1023.548	1937.22
1023.839	1873.27
1024.129	1896.55
1024.419	1842.08
1024.709	1866.26
1025	1805.93
1025.29	1802.31
1025.58	1818.58
1025.87	1817.23
1026.16	1789.43
1026.449	1792.59
1026.739	1761.41
1027.029	1773.39
1027.319	1730.9
1027.608	1725.03
1027.898	1697.46
1028.187	1683.9
1028.477	1676.89
1028.766	1701.07
1029.055	1663.33
1029.344	1673.95
1029.634	1625.37
1029.923	1621.07
1030.212	1628.76
1030.501	1600.51
1030.79	1593.05
1031.078	1560.06
1031.367	1574.52
1031.656	1534.52
1031.945	1555.54
1032.233	1518.7
1032.522	1535.65
1032.81	1480.51
1033.099	1510.34
1033.387	1481.87
1033.675	1514.86
1033.963	1453.85
1034.251	1425.6
1034.54	1451.81
1034.828	1423.56
1035.116	1409.78
1035.403	1381.08
1035.691	1372.49
1035.979	1410.01
1036.267	1403.68
1036.554	1370.46
1036.842	1344.24
1037.129	1356.9
1037.417	1331.59
1037.704	1320.52
1037.992	1306.05
1038.279	1282.33
1038.566	1288.43
1038.853	1288.43
1039.14	1288.43
