Data from foil_FLMS001491_081.txt Node
Date: Tue Feb 07 11:36:55 GMT 2017
User: dcchb
Spectrometer: FLMS00149
Trigger mode: 0
Integration Time (sec): 2.000000E-2
Scans to average: 10
Electric dark correction enabled: true
Nonlinearity correction enabled: false
Boxcar width: 0
XAxis mode: Wavelengths
Number of Pixels in Spectrum: 2048
>>>>>Begin Spectral Data<<<<<
341.393	-20.45
341.776	-20.45
342.16	-20.45
342.543	-43.95
342.927	-66.55
343.31	-68.13
343.693	-70.85
344.077	-68.81
344.46	-67.46
344.843	-66.55
345.226	-44.86
345.61	-41.69
345.993	-16.61
346.376	5.99
346.759	18.64
347.142	31.07
347.525	52.09
347.908	62.03
348.291	81.24
348.674	93.44
349.057	100.45
349.44	135.48
349.823	154.69
350.206	183.61
350.588	282.59
350.971	310.61
351.354	313.1
351.737	321.69
352.119	351.52
352.502	351.74
352.884	389.48
353.267	395.81
353.65	406.88
354.032	411.85
354.414	431.97
354.797	451.4
355.179	455.47
355.562	432.87
355.944	455.24
356.326	463.83
356.709	470.16
357.091	472.19
357.473	452.53
357.855	470.16
358.238	443.72
358.62	482.36
359.002	466.32
359.384	484.17
359.766	496.6
360.148	476.26
360.53	480.78
360.912	478.97
361.294	505.86
361.676	483.26
362.057	491.4
362.439	477.16
362.821	489.14
363.203	525.97
363.584	488.46
363.966	503.15
364.348	487.11
364.729	494.79
365.111	518.29
365.493	490.27
365.874	510.38
366.256	489.59
366.637	504.05
367.019	510.38
367.4	517.39
367.781	512.42
368.163	527.33
368.544	532.08
368.925	537.73
369.306	548.35
369.688	529.14
370.069	545.86
370.45	541.79
370.831	536.37
371.212	542.47
371.593	551.74
371.974	569.14
372.355	560.55
372.736	564.17
373.117	593.54
373.498	593.32
373.879	573.66
374.26	563.49
374.641	539.53
375.021	557.16
375.402	597.61
375.783	626.31
376.163	669.7
376.544	639.87
376.925	629.93
377.305	641.45
377.686	630.83
378.066	631.28
378.447	645.52
378.827	659.76
379.208	654.56
379.588	669.25
379.968	691.17
380.349	681
380.729	659.53
381.109	703.15
381.489	692.07
381.87	697.72
382.25	702.47
382.63	725.74
383.01	743.6
383.39	722.58
383.77	743.37
384.15	740.43
384.53	761.22
384.91	781.34
385.29	789.7
385.67	803.48
386.049	768
386.429	801.9
386.809	825.4
387.189	806.42
387.568	821.11
387.948	852.29
388.328	857.27
388.707	879.41
389.087	882.12
389.466	895.68
389.846	909.69
390.225	905.17
390.605	930.03
390.984	951.27
391.363	931.84
391.743	966.64
392.122	944.27
392.501	966.87
392.881	1000.09
393.26	1007.09
393.639	1019.75
394.018	1031.27
394.397	1032.63
394.776	1053.19
395.155	1075.11
395.534	1074.44
395.913	1104.04
396.292	1106.75
396.671	1096.36
397.05	1095.68
397.429	1115.56
397.808	1153.98
398.186	1139.52
398.565	1171.16
398.944	1147.2
399.323	1168.9
399.701	1220.87
400.08	1193.75
400.458	1200.76
400.837	1226.97
401.215	1233.07
401.594	1248.44
401.972	1271.04
402.351	1312.62
402.729	1304.71
403.107	1301.32
403.486	1325.28
403.864	1308.33
404.242	1367.08
404.62	1365.5
404.999	1377.03
405.377	1418.15
405.755	1434.43
406.133	1426.74
406.511	1471.26
406.889	1465.84
407.267	1513.29
407.645	1514.65
408.023	1551.26
408.401	1565.27
408.779	1572.28
409.156	1608.43
409.534	1603.23
409.912	1636.91
410.29	1669.45
410.667	1686.85
411.045	1724.14
411.422	1741.99
411.8	1762.78
412.178	1776.34
412.555	1822.66
412.933	1815.66
413.31	1881.19
413.687	1882.55
414.065	1891.81
414.442	1930.46
414.819	1948.31
415.197	1967.74
415.574	2015.2
415.951	2021.3
416.328	2044.35
416.705	2016.33
417.082	2044.13
417.46	2056.33
417.837	2115.76
418.214	2100.85
418.591	2163.67
418.967	2149.21
419.344	2208.42
419.721	2225.82
420.098	2203.9
420.475	2290.9
420.852	2284.57
421.228	2287.06
421.605	2313.72
421.982	2375.87
422.358	2375.87
422.735	2404.57
423.111	2404.34
423.488	2457
423.864	2464
424.241	2514.17
424.617	2506.94
424.994	2542.19
425.37	2591.01
425.746	2569.76
426.123	2621.51
426.499	2650.21
426.875	2657.9
427.251	2739.93
427.627	2784.67
428.003	2790.77
428.379	2807.72
428.756	2881.62
429.132	2900.38
429.507	2970.43
429.883	2960.71
430.259	3026.02
430.635	3066.47
431.011	3084.78
431.387	3159.35
431.763	3205.23
432.138	3224.21
432.514	3267.37
432.89	3244.1
433.265	3370.42
433.641	3391.21
434.016	3421.04
434.392	3484.54
434.767	3487.93
435.143	3494.26
435.518	3606.35
435.894	3632.79
436.269	3619.9
436.644	3722.95
437.02	3754.82
437.395	3736.74
437.77	3823.74
438.145	3785.78
438.52	3893.34
438.895	3943.29
439.271	3925.66
439.646	4030.74
440.021	4075.49
440.395	4023.74
440.77	4056.96
441.145	4039.33
441.52	4172.88
441.895	4144.64
442.27	4188.25
442.645	4194.58
443.019	4277.06
443.394	4264.41
443.769	4283.16
444.143	4312.09
444.518	4379.66
444.892	4335.82
445.267	4399.09
445.641	4399.77
446.016	4440.67
446.39	4540.78
446.764	4552.08
447.139	4529.94
447.513	4633.89
447.887	4578.98
448.262	4675.92
448.636	4659.43
449.01	4747.56
449.384	4780.1
449.758	4769.25
450.132	4887.67
450.506	4869.36
450.88	4897.16
451.254	4957.27
451.628	5010.38
452.002	5023.26
452.376	5042.92
452.75	5099.19
453.123	5150.03
453.497	5285.17
453.871	5282.91
454.244	5412.4
454.618	5480.42
454.992	5534.43
455.365	5516.58
455.739	5684.03
456.112	5730.81
456.486	5710.25
456.859	5776.01
457.232	5925.38
457.606	5905.27
457.979	5995.89
458.352	6130.12
458.725	6193.17
459.099	6180.29
459.472	6287.41
459.845	6407.18
460.218	6486.72
460.591	6488.3
460.964	6519.04
461.337	6677.23
461.71	6783.21
462.083	6897.33
462.456	6860.72
462.829	6831.57
463.201	7029.76
463.574	7118.34
463.947	7123.77
464.32	7322.18
464.692	7356.98
465.065	7392.24
465.438	7525.11
465.81	7691.44
466.183	7658.44
466.555	7888.27
466.928	7966.01
467.3	7942.95
467.672	8023.4
468.045	8288.93
468.417	8270.18
468.789	8335.94
469.161	8431.3
469.534	8557.4
469.906	8744.97
470.278	8858.19
470.65	8981.12
471.022	9126.2
471.394	9330.04
471.766	9296.14
472.138	9446.42
472.51	9621.1
472.882	9744.49
473.253	9890.93
473.625	9964.6
473.997	10262.44
474.369	10280.52
474.74	10396.45
475.112	10593.05
475.484	10757.57
475.855	10995.08
476.227	11014.29
476.598	11398.23
476.97	11468.06
477.341	11719.13
477.713	11877.99
478.084	11912.57
478.455	12258.55
478.827	12386.91
479.198	12803.17
479.569	12709.84
479.94	13135.13
480.311	13124.06
480.682	13462.81
481.053	13723.59
481.424	14013.53
481.795	14179.18
482.166	14336.46
482.537	14491.48
482.908	14751.14
483.279	14929.21
483.65	15224.8
484.021	15502.3
484.391	15658.91
484.762	15709.3
485.133	15927.6
485.503	16205.11
485.874	16603.74
486.244	16760.58
486.615	17071.08
486.985	17195.14
487.356	17523.49
487.726	17648.69
488.097	17951.96
488.467	18099.98
488.837	18436.24
489.207	18586.74
489.578	18979.95
489.948	19044.58
490.318	19398.92
490.688	19477.34
491.058	19865.58
491.428	20044.11
491.798	20173.82
492.168	20602.96
492.538	20606.8
492.908	20842.5
493.278	21186
493.648	21208.37
494.017	21338.76
494.387	21601.35
494.757	21770.84
495.126	22056.71
495.496	22104.84
495.866	22224.16
496.235	22425.96
496.605	22674.55
496.974	22891.04
497.344	23067.76
497.713	23166.96
498.082	23298.94
498.452	23602.2
498.821	23612.83
499.19	23767.4
499.559	24039.03
499.928	24155.41
500.298	24242.87
500.667	24521.5
501.036	24493.71
501.405	24820.7
501.774	24858.22
502.143	25083.75
502.512	25289.84
502.88	25420.24
503.249	25426.56
503.618	25772.54
503.987	25889.15
504.356	26175.24
504.724	26167.79
505.093	26386.54
505.462	26477.16
505.83	26587.21
506.199	26909.01
506.567	27142.68
506.936	27183.81
507.304	27548.09
507.672	27685.49
508.041	27736.56
508.409	27993.5
508.777	28183.55
509.145	28336.77
509.514	28466.48
509.882	28690.88
510.25	28815.85
510.618	29155.96
510.986	29283.64
511.354	29391.2
511.722	29783.28
512.09	29977.4
512.458	29967.46
512.826	30260.33
513.193	30409.03
513.561	30553.43
513.929	30863.93
514.297	31171.72
514.664	31424.6
515.032	31446.07
515.4	31883.12
515.767	31836.11
516.135	32076.11
516.502	32006.73
516.869	32599.93
517.237	32641.51
517.604	32726.71
517.972	33194.04
518.339	33371.89
518.706	33531.21
519.073	33702.96
519.44	33870.41
519.808	34258.65
520.175	34361.24
520.542	34724.17
520.909	35017.72
521.276	35011.62
521.643	35487.77
522.009	35647.31
522.376	36039.62
522.743	36303.11
523.11	36577.68
523.477	36948.29
523.843	37058.8
524.21	37439.58
524.577	37713.25
524.943	38019.9
525.31	38084.54
525.676	38534.24
526.043	38770.39
526.409	38856.94
526.776	39388
527.142	39406.08
527.508	39810.59
527.874	39930.14
528.241	40139.4
528.607	40380.07
528.973	40889.66
529.339	40759.72
529.705	41320.83
530.071	41692.12
530.437	41685.12
530.803	42063.19
531.169	42131.66
531.535	42153.35
531.901	42443.74
532.267	42581.59
532.632	42920.34
532.998	43073.1
533.364	43341.35
533.73	43540.89
534.095	43822.01
534.461	43964.15
534.826	44246.63
535.192	44238.72
535.557	44729.33
535.923	44577.25
536.288	44821.31
536.653	45024.92
537.019	45040.28
537.384	45314.85
537.749	45482.98
538.114	45645.24
538.479	45776.31
538.845	45929.53
539.21	46037.09
539.575	46223.98
539.94	46498.33
540.305	46721.82
540.67	46710.75
541.034	46887.24
541.399	47094.47
541.764	47128.82
542.129	47420.79
542.494	47342.6
542.858	47657.39
543.223	47679.76
543.587	47862.81
543.952	47899.19
544.316	48122.69
544.681	48176.93
545.045	48316.81
545.41	48660.98
545.774	48677.03
546.138	48873.18
546.503	49074.53
546.867	49008.09
547.231	49334.86
547.595	49444.01
547.959	49575.98
548.324	49519.26
548.688	49788.63
549.052	49922.64
549.416	50038.35
549.779	50023.2
550.143	50226.36
550.507	50521.72
550.871	50686.01
551.235	50766.69
551.599	51013.91
551.962	50951.09
552.326	51091.2
552.689	51330.29
553.053	51184.76
553.417	51403.51
553.78	51827.22
554.143	51795.36
554.507	51919.65
554.87	52068.57
555.234	52392.18
555.597	52266.08
555.96	52481.22
556.323	52661.78
556.686	52730.7
557.05	52980.41
557.413	53110.35
557.776	53101.99
558.139	53386.28
558.502	53427.18
558.865	53555.54
559.228	53678.48
559.59	53932.25
559.953	53996.66
560.316	54396.42
560.679	54349.42
561.041	54364.33
561.404	54633.25
561.767	54764.55
562.129	54760.71
562.492	55068.95
562.854	55041.38
563.217	55214.71
563.579	55311.43
563.941	55442.72
564.304	55569.95
564.666	55814.24
565.028	55789.15
565.39	55976.27
565.753	56122.71
566.115	56242.25
566.477	56368.8
566.839	56482.02
567.201	56688.11
567.563	56637.95
567.925	56790.48
568.287	56870.71
568.648	56940.54
569.01	57162.23
569.372	57175.56
569.734	57212.85
570.095	57483.8
570.457	57476.12
570.819	57478.6
571.18	57636.79
571.542	57839.27
571.903	57870.68
572.265	57945.26
572.626	58055.76
572.987	58114.52
573.349	58078.13
573.71	58243.78
574.071	58287.17
574.432	58387.5
574.794	58592.92
575.155	58536.2
575.516	58547.95
575.877	58664.11
576.238	58697.78
576.599	58780.26
576.96	58839.92
577.32	58794.73
577.681	58922.18
578.042	59022.97
578.403	59061.61
578.763	59090.99
579.124	59145
579.485	59188.84
579.845	59251.66
580.206	59219.12
580.566	59270.42
580.927	59273.36
581.287	59360.81
581.648	59312.9
582.008	59438.1
582.368	59314.94
582.728	59446.91
583.089	59377.53
583.449	59357.65
583.809	59459.57
584.169	59507.02
584.529	59472.45
584.889	59516.29
585.249	59464.54
585.609	59443.52
585.969	59577.3
586.329	59413.92
586.688	59550.41
587.048	59506.8
587.408	59524.2
587.768	59531.88
588.127	59521.26
588.487	59490.3
588.846	59650.97
589.206	59540.47
589.565	59545.21
589.925	59720.8
590.284	59570.75
590.643	59627.7
591.003	59636.51
591.362	59716.28
591.721	59651.43
592.08	59639.45
592.44	59714.25
592.799	59713.57
593.158	59635.61
593.517	59695.72
593.876	59728.26
594.235	59687.58
594.593	59725.32
594.952	59710.18
595.311	59627.02
595.67	59806
596.029	59958.31
596.387	59876.05
596.746	59948.59
597.104	59815.26
597.463	59827.92
597.822	59963.06
598.18	59910.85
598.538	59876.28
598.897	60015.48
599.255	59855.26
599.613	60186.33
599.972	59944.53
600.33	59993.79
600.688	59901.59
601.046	59967.12
601.404	60088.02
601.762	60058.42
602.12	60191.52
602.478	60165.08
602.836	60094.35
603.194	59983.17
603.552	60074.24
603.91	60067.69
604.268	60251.18
604.625	60188.59
604.983	60247.79
605.341	60160.57
605.698	60327.11
606.056	60347.68
606.413	60343.39
606.771	60372.76
607.128	60431.07
607.485	60290.51
607.843	60309.94
608.2	60468.35
608.557	60449.15
608.914	60370.95
609.272	60560.55
609.629	60550.39
609.986	60573.21
610.343	60569.14
610.7	60761.68
611.057	60712.64
611.414	60682.36
611.771	60729.82
612.127	60795.35
612.484	60763.71
612.841	60850.26
613.198	60724.17
613.554	60758.97
613.911	60882.13
614.267	60939.3
614.624	60874.44
614.98	60989.92
615.337	61046.19
615.693	60977.49
616.05	60923.03
616.406	61151.05
616.762	60998.28
617.118	61077.83
617.475	61052.52
617.831	61078.96
618.187	61171.39
618.543	61167.54
618.899	61247.99
619.255	61208.22
619.611	61120.09
619.967	61223.36
620.323	61335.9
620.678	61215.45
621.034	61135.91
621.39	61164.83
621.746	61132.29
622.101	61379.74
622.457	61169.35
622.812	61266.98
623.168	61303.13
623.523	61292.51
623.879	61335.45
624.234	61233.31
624.589	61297.03
624.945	61275.11
625.3	61329.57
625.655	61269.24
626.01	61304.72
626.365	61318.95
626.72	61246.41
627.075	61309.01
627.43	61308.78
627.785	61140.88
628.14	61191.05
628.495	61242.8
628.85	61291.38
629.205	61174.32
629.559	61227.43
629.914	61090.71
630.269	61155.12
630.623	61029.47
630.978	61018.4
631.332	61137.71
631.687	61165.28
632.041	61039.19
632.396	61024.95
632.75	60996.25
633.104	61038.96
633.459	60907.66
633.813	60879.19
634.167	60871.96
634.521	60901.79
634.875	60884.61
635.229	60870.6
635.583	60779.76
635.937	60773.2
636.291	60748.35
636.645	60742.92
636.999	60619.54
637.352	60645.75
637.706	60504.74
638.06	60678.07
638.413	60566.2
638.767	60573.89
639.121	60586.77
639.474	60471.52
639.828	60510.61
640.181	60455.25
640.534	60433.78
640.888	60398.3
641.241	60245.99
641.594	60324.4
641.947	60387.45
642.301	60238.53
642.654	60267
643.007	60249.38
643.36	60235.37
643.713	60196.27
644.066	60284.86
644.419	60031.75
644.771	59694.36
645.124	59309.29
645.477	59235.17
645.83	59256.63
646.182	59316.97
646.535	59384.77
646.888	59472.9
647.24	59392.68
647.593	59562.84
647.945	59586.79
648.298	59448.27
648.65	59335.73
649.002	59186.81
649.355	59171.89
649.707	59043.98
650.059	59074.04
650.411	59318.33
650.763	59438.78
651.115	59742.72
651.467	59675.15
651.819	59661.6
652.171	59553.58
652.523	59534.59
652.875	59533.24
653.227	59378.66
653.578	59498.44
653.93	59416.4
654.282	59358.55
654.633	59331.21
654.985	59362.85
655.337	59371.66
655.688	59348.61
656.039	59350.42
656.391	59118.33
656.742	59187.26
657.094	59257.54
657.445	59278.33
657.796	59126.47
658.147	59204.88
658.498	59072.23
658.849	59184.32
659.2	59178.44
659.551	59076.98
659.902	59182.51
660.253	59103.19
660.604	59136.64
660.955	58971.22
661.306	59088.73
661.656	59007.15
662.007	59014.38
662.358	58961.27
662.708	58909.98
663.059	58918.34
663.409	58701.17
663.76	58891.45
664.11	58949.3
664.461	58982.06
664.811	58919.92
665.161	58797.21
665.511	58774.84
665.862	58781.62
666.212	58930.54
666.562	58832.46
666.912	58865.23
667.262	58773.03
667.612	58727.61
667.962	58814.61
668.312	58675.63
668.662	58849.87
669.011	58775.52
669.361	58702.07
669.711	58734.16
670.06	58658.01
670.41	58616.42
670.76	58574.62
671.109	58629.76
671.459	58600.15
671.808	58536.65
672.157	58576.88
672.507	58474.96
672.856	58411.01
673.205	58505.02
673.554	58603.77
673.904	58436.54
674.253	58581.4
674.602	58469.99
674.951	58022.77
675.3	57953.39
675.649	58336.66
675.998	58336.88
676.346	58385.7
676.695	58453.49
677.044	58213.5
677.393	58299.6
677.741	58273.83
678.09	58236.55
678.438	58146.38
678.787	58170.11
679.135	58188.87
679.484	58018.47
679.832	58117.91
680.181	57948.42
680.529	58052.37
680.877	57963.79
681.225	57924.01
681.573	58008.31
681.922	57803.34
682.27	57808.31
682.618	57796.33
682.966	57686.05
683.314	57674.98
683.661	57557.47
684.009	57517.92
684.357	57406.29
684.705	57430.92
685.053	57448.77
685.4	57395.89
685.748	57234.31
686.095	57215.33
686.443	57080.42
686.79	57112.51
687.138	57096.92
687.485	57138.72
687.832	57079.29
688.18	57082.45
688.527	56860.99
688.874	56839.3
689.221	56799.75
689.568	56710.49
689.915	56642.69
690.262	56617.83
690.609	56526.31
690.956	56474.56
691.303	56511.85
691.65	56343.04
691.997	56343.26
692.344	56232.76
692.69	56128.81
693.037	56130.61
693.383	55957.96
693.73	56046.77
694.077	55782.6
694.423	55795.48
694.769	55661.47
695.116	55645.2
695.462	55611.98
695.808	55504.19
696.155	55504.42
696.501	55289.96
696.847	55363.86
697.193	55212.67
697.539	55243.41
697.885	54956.63
698.231	54882.06
698.577	54873.7
698.923	54834.15
699.269	54781.27
699.614	54597.32
699.96	54479.36
700.306	54482.3
700.651	54377.67
700.997	54279.36
701.342	54208.18
701.688	54230.55
702.033	54051.8
702.379	54120.95
702.724	53936.32
703.069	54027.62
703.415	53610.91
703.76	53717.34
704.105	53657.69
704.45	53490.01
704.795	53461.08
705.14	53300.86
705.485	53285.04
705.83	53221.09
706.175	53260.18
706.52	53188.32
706.865	52970.92
707.209	53038.49
707.554	52835.79
707.899	52886.18
708.243	52695.68
708.588	52670.59
708.932	52496.13
709.277	52370.04
709.621	52416.59
709.966	52207.1
710.31	52365.74
710.654	52033.77
710.998	52074.45
711.342	52063.6
711.687	51941.12
712.031	51706.55
712.375	51683.27
712.719	51636.04
713.063	51585.88
713.407	51639.43
713.75	51517.85
714.094	51612.32
714.438	51373.9
714.782	51298.43
715.125	51240.8
715.469	51238.77
715.812	51076.51
716.156	50867.7
716.499	50894.59
716.843	50860.47
717.186	50703.41
717.53	50902.05
717.873	50901.15
718.216	50594.04
718.559	50474.94
718.902	50284.21
719.246	50282.63
719.589	50228.4
719.932	50114.73
720.275	50182.3
720.617	50078.8
720.96	50001.06
721.303	49905.47
721.646	49826.37
721.989	49655.08
722.331	49780.27
722.674	49696.89
723.016	49590.67
723.359	49567.62
723.701	49464.35
724.044	49283.56
724.386	49255.77
724.729	49339.61
725.071	49211.25
725.413	49004.93
725.755	49025.26
726.097	48895.1
726.439	48720.64
726.782	48722.45
727.124	48902.1
727.465	48761.77
727.807	48669.57
728.149	48454.43
728.491	48433.87
728.833	48490.82
729.175	48183.03
729.516	48100.32
729.858	48073.88
730.199	48087.21
730.541	48068.23
730.882	47928.57
731.224	48058.74
731.565	47857.61
731.906	47735.81
732.248	47708.24
732.589	47639.99
732.93	47375.59
733.271	47437.74
733.612	47371.3
733.953	47439.77
734.294	47280.68
734.635	47202.26
734.976	47248.14
735.317	46896.51
735.658	47008.82
735.999	46960.91
736.339	46837.07
736.68	47055.37
737.021	46678.66
737.361	46665.33
737.702	46663.29
738.042	46680.92
738.383	46489.96
738.723	46499.23
739.063	46253.36
739.404	46345.79
739.744	46213.36
740.084	45918.68
740.424	46066.25
740.764	46029.41
741.104	46135.62
741.444	45753.94
741.784	45870.32
742.124	45807.27
742.464	45792.81
742.804	45752.13
743.143	45577.67
743.483	45655.18
743.823	45477.56
744.162	45466.49
744.502	45504.23
744.841	45257.68
745.181	45263.78
745.52	45104.01
745.86	45042.54
746.199	44880.29
746.538	44742.44
746.877	44926.84
747.216	44786.51
747.556	44540.64
747.895	44543.8
748.234	44457.7
748.573	44443.69
748.911	44227.2
749.25	44114.66
749.589	43959.86
749.928	44018.39
750.267	44175.45
750.605	43858.85
750.944	43830.15
751.283	43535.92
751.621	43746.76
751.96	43496.37
752.298	43417.95
752.636	43508.35
752.975	43244.85
753.313	43065.65
753.651	43194.68
753.989	42981.13
754.327	42875.82
754.666	42737.75
755.004	42752.21
755.342	42691.19
755.679	42657.3
756.017	42450.3
756.355	42428.15
756.693	42183.86
757.031	42223.86
757.368	42001.27
757.706	41856.87
758.044	41689.64
758.381	41820.26
758.719	41659.13
759.056	41665.01
759.394	41425.24
759.731	41145.7
760.068	41109.77
760.405	41010.33
760.743	40939.83
761.08	40919.72
761.417	40638.37
761.754	40571.25
762.091	40355.66
762.428	40316.57
762.765	40056.23
763.102	40120.64
763.438	39897.37
763.775	39818.73
764.112	39889.01
764.449	39839.52
764.785	39569.02
765.122	39223.26
765.458	39176.48
765.795	39112.53
766.131	38973.33
766.467	38788.92
766.804	38685.65
767.14	38425.32
767.476	38416.5
767.812	38356.17
768.148	38346.45
768.485	38049.51
768.821	37855.39
769.157	37750.76
769.492	37666.02
769.828	37527.71
770.164	37199.81
770.5	37101.06
770.836	37139.25
771.171	36959.37
771.507	36906.49
771.842	36579.94
772.178	36605.03
772.513	36573.61
772.849	36379.72
773.184	36245.94
773.519	36225.15
773.855	35909.45
774.19	35789.23
774.525	35566.86
774.86	35667.88
775.195	35517.37
775.53	35462.91
775.865	35177.95
776.2	34875.13
776.535	34757.62
776.87	34769.59
777.205	34679.43
777.539	34322.37
777.874	34417.29
778.209	34047.35
778.543	34079.22
778.878	34013
779.212	33992.67
779.547	33719
779.881	33628.38
780.215	33331.67
780.55	33519.91
780.884	33165.34
781.218	33166.02
781.552	33112.69
781.886	32907.5
782.22	32595.19
782.554	32585.24
782.888	32328.75
783.222	32218.93
783.556	32085.6
783.889	32072.26
784.223	31822.78
784.557	31695.55
784.89	31836.56
785.224	31613.52
785.557	31407.42
785.891	31425.28
786.224	31286.75
786.558	31317.26
786.891	30835.46
787.224	30744.62
787.557	30676.59
787.891	30647.22
788.224	30635.92
788.557	30596.6
788.89	30508.69
789.223	30346.21
789.556	30148.92
789.888	30053.11
790.221	29802.95
790.554	29562.95
790.887	29747.35
791.219	29574.7
791.552	29439.11
791.884	29281.6
792.217	29259.23
792.549	29155.96
792.882	28963.19
793.214	28742.41
793.546	28853.59
793.879	28613.82
794.211	28457.22
794.543	28612.92
794.875	28344.9
795.207	28413.15
795.539	28264
795.871	28248.86
796.203	27997.34
796.535	27757.12
796.867	27724.36
797.198	27636.9
797.53	27720.51
797.862	27460.41
798.193	27560.29
798.525	27338.15
798.856	27397.36
799.188	27094.77
799.519	27013.19
799.85	26822.23
800.182	26884.15
800.513	26757.15
800.844	26574.33
801.175	26679.64
801.506	26532.3
801.837	26382.02
802.168	26303.15
802.499	26170.5
802.83	26126.43
803.161	26100.44
803.491	25898.19
803.822	25878.08
804.153	25762.37
804.483	25704.07
804.814	25545.2
805.145	25615.71
805.475	25512.44
805.805	25414.59
806.136	25415.26
806.466	25401.03
806.796	25220.69
807.126	25107.93
807.457	25046.23
807.787	25034.71
808.117	24884.66
808.447	24789.29
808.777	24858.89
809.107	24650.99
809.436	24591.56
809.766	24567.38
810.096	24404.22
810.426	24456.65
810.755	24404.67
811.085	24333.26
811.414	24305.46
811.744	24238.35
812.073	24091.91
812.403	24043.55
812.732	23865.25
813.061	23904.12
813.39	23893.95
813.719	23634.97
814.049	23788.87
814.378	23624.8
814.707	23618.48
815.036	23417.12
815.365	23445.37
815.693	23160.86
816.022	23290.8
816.351	23009.23
816.68	22892.84
817.008	22992.5
817.337	22801.32
817.665	22762.23
817.994	22727.2
818.322	22758.84
818.651	22616.69
818.979	22484.04
819.307	22594.77
819.636	22461.22
819.964	22232.97
820.292	22348.68
820.62	22355.68
820.948	22273.2
821.276	22418.96
821.604	22389.81
821.932	22500.09
822.259	22435
822.587	22354.33
822.915	22206.76
823.243	22184.61
823.57	22101.68
823.898	22217.38
824.225	22167.21
824.553	22226.42
824.88	22111.62
825.207	22163.6
825.535	22127.89
825.862	22120.21
826.189	22028.46
826.516	22179.42
826.843	22215.12
827.17	22111.85
827.497	22080.66
827.824	22115.01
828.151	22158.17
828.478	22081.57
828.805	22065.75
829.131	22007.67
829.458	22028.23
829.785	22016.03
830.111	22065.07
830.438	22117.95
830.764	22089.93
831.09	22177.83
831.417	21971.74
831.743	22084.5
832.069	22000.89
832.395	21954.34
832.722	21989.59
833.048	21912.76
833.374	21965.64
833.7	21861.23
834.026	21890.16
834.351	21937.84
834.677	21776.49
835.003	21793.66
835.329	21699.66
835.654	21776.26
835.98	21609.49
836.306	21718.41
836.631	21615.36
836.956	21691.29
837.282	21700.79
837.607	21563.61
837.932	21416.73
838.258	21534.24
838.583	21450.62
838.908	21324.3
839.233	21310.97
839.558	21377.86
839.883	21350.96
840.208	21240.68
840.533	21249.27
840.858	21287.24
841.182	21251.08
841.507	21291.98
841.832	21206.11
842.156	21080.91
842.481	21131.31
842.805	21061.03
843.13	20990.52
843.454	20840.92
843.778	20871.43
844.103	20853.35
844.427	20774.71
844.751	20799.79
845.075	20564.77
845.399	20584.66
845.723	20560.48
846.047	20406.13
846.371	20435.28
846.695	20320.48
847.019	20141.05
847.343	20041.39
847.666	19928.85
847.99	19859.48
848.313	19886.14
848.637	19715.07
848.96	19667.62
849.284	19662.65
849.607	19484.12
849.931	19467.17
850.254	19327.51
850.577	19344.01
850.9	19047.52
851.223	19110.34
851.546	18930.46
851.869	18952.61
852.192	19052.95
852.515	18937.69
852.838	18772.27
853.161	18851.14
853.483	18699.51
853.806	18542.45
854.129	18740.19
854.451	18489.8
854.774	18452.28
855.096	18351.72
855.419	18233.98
855.741	18326.41
856.063	18114.21
856.385	18138.17
856.708	18126.64
857.03	18114.21
857.352	18114.21
857.674	17965.29
857.996	17873.32
858.318	17791.06
858.64	17821.57
858.961	17709.93
859.283	17632.64
859.605	17494.34
859.926	17645.3
860.248	17606.2
860.57	17479.88
860.891	17542.48
861.212	17465.64
861.534	17367.34
861.855	17324.63
862.176	17426.32
862.498	17346.55
862.819	17391.97
863.14	17149.27
863.461	17163.96
863.782	17172.09
864.103	17138.19
864.424	17130.96
864.745	17164.86
865.065	17027.46
865.386	17006.22
865.707	17010.29
866.027	17073.34
866.348	16960.35
866.668	16950.63
866.989	16886.45
867.309	16832.89
867.63	16747.7
867.95	16788.6
868.27	16734.14
868.59	16699.79
868.91	16656.4
869.23	16716.51
869.55	16637.42
869.87	16788.37
870.19	16679.45
870.51	16696.17
870.83	16675.15
871.15	16609.17
871.469	16580.02
871.789	16655.95
872.109	16598.09
872.428	16462.5
872.748	16524.88
873.067	16464.99
873.386	16374.6
873.706	16418.66
874.025	16320.81
874.344	16311.55
874.663	16223.42
874.982	16203.75
875.301	16248.5
875.62	16255.5
875.939	16173.02
876.258	16298.89
876.577	16231.55
876.896	16192.23
877.214	16098.22
877.533	16143.42
877.852	16117.43
878.17	16104.32
878.489	16056.64
878.807	16078.11
879.125	15895.06
879.444	15994.27
879.762	15913.37
880.08	15942.97
880.398	15881.96
880.716	16010.54
881.034	15795.4
881.352	15794.73
881.67	15870.43
881.988	15768.29
882.306	15617.56
882.624	15623.21
882.941	15551.34
883.259	15646.93
883.577	15582.08
883.894	15524.9
884.212	15514.28
884.529	15448.29
884.846	15466.15
885.164	15385.7
885.481	15304.12
885.798	15404
886.115	15388.18
886.432	15295.08
886.75	15180.96
887.067	15302.76
887.383	15215.31
887.7	15165.82
888.017	15137.57
888.334	15061.41
888.651	15019.38
888.967	15039.27
889.284	14938.48
889.6	14955.2
889.917	14830.46
890.233	14964.69
890.55	14734.19
890.866	14801.31
891.182	14797.24
891.498	14776.22
891.815	14659.61
892.131	14581.65
892.447	14537.13
892.763	14565.38
893.079	14520.64
893.395	14503.69
893.71	14457.36
894.026	14369
894.342	14343.92
894.657	14220.08
894.973	14290.58
895.289	14391.82
895.604	14274.54
895.92	14169.91
896.235	14046.3
896.55	14035
896.865	14006.98
897.181	14015.11
897.496	13916.58
897.811	13901.89
898.126	13855.79
898.441	13743.93
898.756	13710.26
899.071	13785.06
899.386	13728.57
899.7	13543.94
900.015	13581.68
900.33	13429.36
900.644	13482.7
900.959	13440.44
901.273	13454.45
901.588	13345.75
901.902	13290.39
902.216	13254.45
902.531	13220.33
902.845	13211.07
903.159	13195.47
903.473	13076.83
903.787	13002.48
904.101	12995.03
904.415	12953.9
904.729	12911.19
905.042	12773.79
905.356	12713
905.67	12697.18
905.984	12734.92
906.297	12670.06
906.611	12562.95
906.924	12555.26
907.237	12525.43
907.551	12471.42
907.864	12440.24
908.177	12383.29
908.491	12300.35
908.804	12236.18
909.117	12174.48
909.43	12162.28
909.743	12083.64
910.056	12140.13
910.368	12056.52
910.681	12022.17
910.994	11898.33
911.307	11940.59
911.619	11772.91
911.932	11844.55
912.244	11756.19
912.557	11809.75
912.869	11684.33
913.181	11589.41
913.494	11627.83
913.806	11498.34
914.118	11442.98
914.43	11398.91
914.742	11367.27
915.054	11346.48
915.366	11246.6
915.678	11267.84
915.99	11223.32
916.302	11208.63
916.613	11107.39
916.925	11137.9
917.236	11044.34
917.548	10993.72
917.859	10968.41
918.171	10839.38
918.482	10775.65
918.794	10729.77
919.105	10754.18
919.416	10672.6
919.727	10611.13
920.038	10672.37
920.349	10508.99
920.66	10547.41
920.971	10415.66
921.282	10467.41
921.593	10245.72
921.903	10307.41
922.214	10260.63
922.525	10229.9
922.835	10287.53
923.146	10073.97
923.456	10075.78
923.767	10069.9
924.077	10081.43
924.387	9993.3
924.697	9964.14
925.008	9961.21
925.318	9841.44
925.628	9825.84
925.938	9808.89
926.248	9725.06
926.558	9667.88
926.867	9612.97
927.177	9614.78
927.487	9532.07
927.796	9488.23
928.106	9422.69
928.416	9439.64
928.725	9471.73
929.034	9406.65
929.344	9443.93
929.653	9302.92
929.962	9334.56
930.271	9225.18
930.581	9192.87
930.89	9124.17
931.199	9098.4
931.508	9089.59
931.817	9066.09
932.125	8986.09
932.434	8915.58
932.743	8809.37
933.051	8807.79
933.36	8698.87
933.669	8735.48
933.977	8725.31
934.286	8722.37
934.594	8675.59
934.902	8621.36
935.21	8550.17
935.519	8494.13
935.827	8551.98
936.135	8478.31
936.443	8417.74
936.751	8353.11
937.059	8437.86
937.367	8361.25
937.674	8285.77
937.982	8250.52
938.29	8203.97
938.597	8156.96
938.905	8138.43
939.213	8156.73
939.52	8103.85
939.827	8061.6
940.135	7958.1
940.442	7976.17
940.749	8000.58
941.056	7878.78
941.363	7911.54
941.67	7839.91
941.977	7851.66
942.284	7746.12
942.591	7773.69
942.898	7658.22
943.205	7685.79
943.511	7600.37
943.818	7579.8
944.125	7544.32
944.431	7558.78
944.738	7544.55
945.044	7449.86
945.35	7484.66
945.657	7376.19
945.963	7387.72
946.269	7298.23
946.575	7255.52
946.881	7254.84
947.187	7221.39
947.493	7176.42
947.799	7134.16
948.105	7076.54
948.41	7094.39
948.716	7066.14
949.022	7006.93
949.327	7054.62
949.633	6925.58
949.938	6961.06
950.244	6946.6
950.549	6877.9
950.854	6893.04
951.16	6841.52
951.465	6753.83
951.77	6819.82
952.075	6738.92
952.38	6730.11
952.685	6726.94
952.99	6659.15
953.294	6634.97
953.599	6606.49
953.904	6542.31
954.209	6509.77
954.513	6489.89
954.818	6450.79
955.122	6462.09
955.426	6394.3
955.731	6362.43
956.035	6321.75
956.339	6300.51
956.643	6286.73
956.948	6213.28
957.252	6230.68
957.556	6238.37
957.86	6186.39
958.163	6232.04
958.467	6159.05
958.771	6132.83
959.075	6094.19
959.378	6021.42
959.682	6062.55
959.985	6018.71
960.289	5973.52
960.592	5941.43
960.896	5877.92
961.199	5904.14
961.502	5841.09
961.805	5834.31
962.108	5780.98
962.411	5757.02
962.714	5748.89
963.017	5743.92
963.32	5685.16
963.623	5679.96
963.926	5654.88
964.228	5653.3
964.531	5653.07
964.833	5576.92
965.136	5536.46
965.438	5524.71
965.741	5519.52
966.043	5493.53
966.345	5421.21
966.648	5436.35
966.95	5359.97
967.252	5358.16
967.554	5330.37
967.856	5351.16
968.158	5256.02
968.46	5296.92
968.761	5276.58
969.063	5237.94
969.365	5209.92
969.666	5191.39
969.968	5138.06
970.269	5154.55
970.571	5072.97
970.872	5119.75
971.174	5059.64
971.475	5052.41
971.776	5058.29
972.077	4989.81
972.378	5005.63
972.679	5016.48
972.98	4974.45
973.281	4903.49
973.582	4895.13
973.883	4893.77
974.183	4858.97
974.484	4861.68
974.785	4853.77
975.085	4798.18
975.386	4814
975.686	4800.89
975.986	4767.22
976.287	4684.96
976.587	4655.81
976.887	4672.76
977.187	4660.78
977.487	4647.45
977.787	4577.62
978.087	4633.44
978.387	4522.48
978.687	4581.01
978.987	4558.41
979.286	4472.09
979.586	4495.81
979.885	4482.71
980.185	4409.26
980.484	4413.78
980.784	4392.99
981.083	4349.83
981.382	4384.4
981.682	4319.32
981.981	4297.63
982.28	4321.81
982.579	4229.83
982.878	4231.19
983.177	4212.88
983.475	4193.45
983.774	4197.29
984.073	4156.61
984.372	4139.44
984.67	4166.11
984.969	4150.74
985.267	4087.01
985.566	4065.99
985.864	4044.07
986.162	4032.32
986.461	3993.91
986.759	3966.56
987.057	3965.43
987.355	3976.73
987.653	3960.46
987.951	3921.82
988.249	3924.08
988.547	3874.14
988.844	3878.66
989.142	3829.62
989.44	3834.59
989.737	3809.28
990.035	3798.21
990.332	3796.62
990.63	3759.34
990.927	3798.66
991.224	3728.38
991.521	3749.62
991.819	3699.45
992.116	3700.58
992.413	3664.2
992.71	3642.05
993.006	3628.27
993.303	3581.71
993.6	3569.74
993.897	3541.26
994.193	3516.63
994.49	3522.96
994.787	3496.74
995.083	3496.52
995.379	3447.48
995.676	3442.73
995.972	3428.05
996.268	3421.27
996.565	3375.62
996.861	3400.7
997.157	3402.28
997.453	3361.83
997.749	3326.13
998.044	3301.04
998.34	3343.08
998.636	3254.94
998.932	3279.12
999.227	3224.89
999.523	3233.47
999.818	3228.73
1000.114	3168.84
1000.409	3181.27
1000.704	3143.99
1001	3148.28
1001.295	3132.01
1001.59	3127.49
1001.885	3104.66
1002.18	3100.82
1002.475	3046.59
1002.77	3073.48
1003.065	3021.73
1003.359	2973.37
1003.654	3016.53
1003.949	2966.59
1004.243	2912.58
1004.538	2913.48
1004.832	2911.45
1005.127	2891.56
1005.421	2866.7
1005.715	2842.3
1006.009	2854.95
1006.304	2834.16
1006.598	2822.19
1006.892	2791.23
1007.186	2779.47
1007.48	2738.35
1007.773	2724.11
1008.067	2713.49
1008.361	2668.29
1008.655	2680.72
1008.948	2691.12
1009.242	2645.92
1009.535	2644.56
1009.829	2629.2
1010.122	2616.54
1010.415	2622.42
1010.708	2560.27
1011.001	2588.52
1011.295	2542.42
1011.588	2516.43
1011.881	2541.74
1012.173	2504.45
1012.466	2471.01
1012.759	2492.25
1013.052	2456.32
1013.344	2433.04
1013.637	2442.08
1013.93	2375.87
1014.222	2384.91
1014.514	2369.32
1014.807	2324.57
1015.099	2346.27
1015.391	2370.45
1015.683	2301.3
1015.976	2260.84
1016.268	2325.02
1016.56	2273.95
1016.851	2249.09
1017.143	2257.91
1017.435	2207.51
1017.727	2195.31
1018.018	2192.15
1018.31	2165.71
1018.602	2146.05
1018.893	2132.71
1019.185	2150.79
1019.476	2088.87
1019.767	2101.3
1020.058	2098.14
1020.35	2075.54
1020.641	2055.88
1020.932	2049.78
1021.223	2032.83
1021.514	1996.67
1021.804	1994.41
1022.095	1980.85
1022.386	1975.65
1022.677	1904.02
1022.967	1948.76
1023.258	1924.13
1023.548	1934.3
1023.839	1905.6
1024.129	1904.24
1024.419	1856.56
1024.709	1841.19
1025	1840.97
1025.29	1812.27
1025.58	1793.51
1025.87	1797.35
1026.16	1832.16
1026.449	1768.88
1026.739	1769.33
1027.029	1753.06
1027.319	1717.58
1027.608	1732.27
1027.898	1712.16
1028.187	1678.94
1028.477	1707.64
1028.766	1666.74
1029.055	1674.19
1029.344	1662.44
1029.634	1681.42
1029.923	1621.77
1030.212	1605.27
1030.501	1613.18
1030.79	1579.73
1031.078	1574.99
1031.367	1562.56
1031.656	1542.67
1031.945	1521.2
1032.233	1545.61
1032.522	1516.01
1032.81	1496.8
1033.099	1472.16
1033.387	1485.72
1033.675	1486.85
1033.963	1476.23
1034.251	1460.64
1034.54	1443.92
1034.828	1433.07
1035.116	1429.91
1035.403	1412.73
1035.691	1403.47
1035.979	1406.86
1036.267	1379.51
1036.554	1367.99
1036.842	1389.91
1037.129	1366.86
1037.417	1344.26
1037.704	1333.41
1037.992	1309.46
1038.279	1291.83
1038.566	1319.17
1038.853	1319.17
1039.14	1319.17
