Data from foil_FLMS001491_012.txt Node
Date: Tue Feb 07 11:25:27 GMT 2017
User: dcchb
Spectrometer: FLMS00149
Trigger mode: 0
Integration Time (sec): 2.000000E-2
Scans to average: 10
Electric dark correction enabled: true
Nonlinearity correction enabled: false
Boxcar width: 0
XAxis mode: Wavelengths
Number of Pixels in Spectrum: 2048
>>>>>Begin Spectral Data<<<<<
341.393	21.5
341.776	21.5
342.16	21.5
342.543	-54.43
342.927	-60.31
343.31	-54.43
343.693	-72.74
344.077	-66.64
344.46	-79.97
344.843	-43.59
345.226	-44.94
345.61	-46.98
345.993	-5.17
346.376	3.42
346.759	17.88
347.142	21.04
347.525	48.84
347.908	77.99
348.291	66.47
348.674	86.58
349.057	92.23
349.44	123.41
349.823	144.21
350.206	169.29
350.588	242.51
350.971	252.45
351.354	266.01
351.737	289.29
352.119	277.54
352.502	318.89
352.884	330.42
353.267	304.2
353.65	366.8
354.032	384.42
354.414	359.57
354.797	358.21
355.179	379.68
355.562	383.97
355.944	396.4
356.326	408.83
356.709	372
357.091	387.36
357.473	393.24
357.855	400.7
358.238	403.63
358.62	387.36
359.002	413.58
359.384	417.64
359.766	388.49
360.148	431.66
360.53	407.7
360.912	394.37
361.294	418.32
361.676	405.67
362.057	427.81
362.439	413.12
362.821	399.57
363.203	389.4
363.584	402.28
363.966	414.71
364.348	413.58
364.729	433.46
365.111	414.93
365.493	430.53
365.874	439.34
366.256	414.03
366.637	414.25
367.019	420.13
367.4	415.84
367.781	436.4
368.163	444.31
368.544	429.17
368.925	441.37
369.306	435.95
369.688	436.17
370.069	446.12
370.45	451.77
370.831	437.98
371.212	451.54
371.593	437.76
371.974	453.58
372.355	449.73
372.736	465.1
373.117	473.01
373.498	467.81
373.879	463.74
374.26	456.29
374.641	414.25
375.021	434.59
375.402	476.4
375.783	482.05
376.163	515.95
376.544	525.66
376.925	493.12
377.305	491.99
377.686	492.22
378.066	482.28
378.447	513.01
378.827	514.59
379.208	504.2
379.588	537.64
379.968	541.71
380.349	536.96
380.729	515.04
381.109	552.78
381.489	552.56
381.87	576.06
382.25	581.48
382.63	569.28
383.01	565.89
383.39	583.06
383.77	588.04
384.15	584.65
384.53	597.75
384.91	614.48
385.29	585.32
385.67	618.09
386.049	622.16
386.429	628.49
386.809	607.47
387.189	654.02
387.568	637.3
387.948	663.06
388.328	659.67
388.707	666.68
389.087	666.45
389.466	668.03
389.846	683.4
390.225	689.95
390.605	696.51
390.984	700.35
391.363	744.42
391.743	740.8
392.122	755.71
392.501	738.09
392.881	772.89
393.26	746.68
393.639	767.47
394.018	802.04
394.397	758.2
394.776	799.1
395.155	818.09
395.534	793.23
395.913	805.88
396.292	831.42
396.671	851.53
397.05	858.08
397.429	856.5
397.808	854.7
398.186	867.12
398.565	844.07
398.944	853.57
399.323	891.76
399.701	892.66
400.08	905.99
400.458	942.38
400.837	929.04
401.215	978.76
401.594	946.67
401.972	948.48
402.351	964.07
402.729	955.48
403.107	985.99
403.486	1007.01
403.864	1012.43
404.242	1038.87
404.62	1020.57
404.999	1049.72
405.377	1071.19
405.755	1075.25
406.133	1072.77
406.511	1063.28
406.889	1087.91
407.267	1113.67
407.645	1135.37
408.023	1163.84
408.401	1173.56
408.779	1169.94
409.156	1213.56
409.534	1202.93
409.912	1247.45
410.29	1246.78
410.667	1283.61
411.045	1282.25
411.422	1319.99
411.8	1308.69
412.178	1336.72
412.555	1320.9
412.933	1376.04
413.31	1408.8
413.687	1396.15
414.065	1456.49
414.442	1418.07
414.819	1460.33
415.197	1458.29
415.574	1495.13
415.951	1511.4
416.328	1509.37
416.705	1529.03
417.082	1537.16
417.46	1531.97
417.837	1616.48
418.214	1593.21
418.591	1641.12
418.967	1602.7
419.344	1619.65
419.721	1644.05
420.098	1668.23
420.475	1710.72
420.852	1714.56
421.228	1734.9
421.605	1773.99
421.982	1769.47
422.358	1781
422.735	1849.02
423.111	1834.78
423.488	1862.8
423.864	1899.19
424.241	1889.47
424.617	1901.67
424.994	1904.38
425.37	1984.83
425.746	1973.08
426.123	1974.21
426.499	1983.48
426.875	1998.62
427.251	2041.56
427.627	2110.71
428.003	2130.59
428.379	2182.8
428.756	2190.25
429.132	2203.59
429.507	2270.7
429.883	2263.7
430.259	2287.88
430.635	2314.77
431.011	2383.02
431.387	2409.46
431.763	2465.27
432.138	2467.53
432.514	2504.14
432.89	2475.67
433.265	2557.7
433.641	2616.23
434.016	2608.1
434.392	2651.71
434.767	2751.37
435.143	2733.97
435.518	2778.49
435.894	2780.52
436.269	2837.24
436.644	2886.73
437.02	2904.58
437.395	2895.32
437.77	2953.62
438.145	2967.18
438.52	3054.41
438.895	3035.88
439.271	3133.73
439.646	3143.22
440.021	3178.48
440.395	3216.89
440.77	3171.02
441.145	3210.11
441.52	3293.95
441.895	3283.33
442.27	3303.22
442.645	3330.34
443.019	3391.8
443.394	3402.42
443.769	3462.08
444.143	3407.4
444.518	3518.58
444.892	3479.71
445.267	3545.7
445.641	3594.06
446.016	3561.74
446.39	3627.05
446.764	3665.69
447.139	3658.46
447.513	3734.62
447.887	3782.53
448.262	3755.41
448.636	3793.15
449.01	3901.85
449.384	3924.22
449.758	3928.06
450.132	3986.36
450.506	4017.78
450.88	3993.14
451.254	4038.11
451.628	4088.06
452.002	4142.74
452.376	4173.03
452.75	4244.66
453.123	4296.19
453.497	4326.47
453.871	4352.23
454.244	4451.89
454.618	4467.48
454.992	4502.51
455.365	4530.76
455.739	4639.23
456.112	4692.79
456.486	4670.64
456.859	4781.37
457.232	4857.98
457.606	4829.28
457.979	4847.81
458.352	4979.56
458.725	5060.01
459.099	5061.36
459.472	5201.25
459.845	5198.08
460.218	5214.58
460.591	5258.65
460.964	5342.26
461.337	5422.26
461.71	5495.03
462.083	5541.8
462.456	5573.67
462.829	5614.57
463.201	5717.84
463.574	5763.49
463.947	5771.85
464.32	5928.23
464.692	5973.2
465.065	6045.52
465.438	6097.95
465.81	6217.04
466.183	6254.55
466.555	6397.37
466.928	6432.4
467.3	6388.56
467.672	6526.41
468.045	6774.99
468.417	6713.75
468.789	6760.75
469.161	6839.4
469.534	6965.27
469.906	7089.33
470.278	7068.32
470.65	7237.13
471.022	7390.12
471.394	7495.88
471.766	7526.84
472.138	7673.72
472.51	7855.19
472.882	7884.34
473.253	7946.49
473.625	8095.63
473.997	8327.49
474.369	8302.63
474.74	8448.62
475.112	8568.84
475.484	8776.29
475.855	8866.69
476.227	8926.57
476.598	9190.3
476.97	9244.08
477.341	9491.3
477.713	9588.93
478.084	9693.56
478.455	9950.5
478.827	10015.13
479.198	10301.68
479.569	10310.04
479.94	10630.03
480.311	10652.86
480.682	10955.45
481.053	11182.79
481.424	11375.1
481.795	11547.07
482.166	11664.35
482.537	11820.06
482.908	12076.32
483.279	12184.79
483.65	12436.99
484.021	12634.05
484.391	12814.15
484.762	12998.78
485.133	13117.2
485.503	13234.93
485.874	13591.76
486.244	13679.67
486.615	13967.34
486.985	14048.7
487.356	14305.64
487.726	14397.39
488.097	14742.24
488.467	14822.01
488.837	15176.35
489.207	15228.33
489.578	15441.2
489.948	15697.47
490.318	15867.18
490.688	15962.55
491.058	16288.19
491.428	16412.7
491.798	16628.97
492.168	16889.75
492.538	16954.61
492.908	17191.67
493.278	17456.07
493.648	17435.28
494.017	17690.64
494.387	17935.38
494.757	17962.49
495.126	18170.62
495.496	18274.12
495.866	18421.69
496.235	18716.82
496.605	18765.18
496.974	18842.02
497.344	19149.81
497.713	19164.95
498.082	19381.44
498.452	19579.63
498.821	19712.96
499.19	19764.25
499.559	19905.72
499.928	20107.97
500.298	20334.63
500.667	20484.69
501.036	20470.22
501.405	20688.07
501.774	20704.57
502.143	21005.35
502.512	20986.6
502.88	21199.47
503.249	21252.58
503.618	21434.49
503.987	21579.8
504.356	21754.03
504.724	21870.64
505.093	22044.87
505.462	22151.08
505.83	22257.97
506.199	22478.99
506.567	22640.11
506.936	22780.45
507.304	22968.69
507.672	23126.2
508.041	23163.94
508.409	23404.84
508.777	23627.66
509.145	23819.51
509.514	23810.25
509.882	24112.84
510.25	24157.81
510.618	24413.85
510.986	24366.17
511.354	24732.26
511.722	24927.96
512.09	25086.37
512.458	25046.15
512.826	25360.49
513.193	25487.04
513.561	25583.08
513.929	25870.31
514.297	26109.62
514.664	26249.96
515.032	26291.99
515.4	26650.63
515.767	26594.13
516.135	26891.52
516.502	26835.25
516.869	27301.46
517.237	27472.75
517.604	27432.3
517.972	27779.18
518.339	28097.37
518.706	28046.75
519.073	28231.15
519.44	28491.71
519.808	28819.16
520.175	28720.18
520.542	29204.23
520.909	29265.93
521.276	29392.7
521.643	29665.46
522.009	29960.14
522.376	30171.44
522.743	30254.15
523.11	30622.73
523.477	30868.6
523.843	31110.17
524.21	31362.82
524.577	31641.68
524.943	31806.42
525.31	31920.32
525.676	32282.8
526.043	32470.36
526.409	32692.73
526.776	33068.54
527.142	33001.87
527.508	33291.81
527.874	33448.41
528.241	33687.5
528.607	33905.58
528.973	34336.3
529.339	34182.86
529.705	34470.08
530.071	34821.03
530.437	35003.63
530.803	35214.92
531.169	35353.45
531.535	35383.05
531.901	35482.71
532.267	35788.92
532.632	35995.01
532.998	36145.97
533.364	36389.58
533.73	36427.55
534.095	36862.11
534.461	36763.13
534.826	37016
535.192	37290.12
535.557	37378.48
535.923	37539.38
536.288	37682.88
536.653	37810.33
537.019	37794.29
537.384	37900.73
537.749	38072.02
538.114	38257.1
538.479	38249.64
538.845	38429.98
539.21	38470.66
539.575	38610.99
539.94	38830.19
540.305	39205.78
540.67	39051.88
541.034	39236.96
541.399	39529.61
541.764	39599.66
542.129	39673.56
542.494	39701.58
542.858	40032.2
543.223	40009.6
543.587	40248.01
543.952	40236.03
544.316	40461.56
544.681	40370.49
545.045	40656.36
545.41	40837.15
545.774	40974.54
546.138	40982.23
546.503	41184.26
546.867	41184.71
547.231	41562.78
547.595	41554.19
547.959	41657.69
548.324	41752.15
548.688	41875.54
549.052	42040.73
549.416	42085.25
549.779	42154.63
550.143	42311.91
550.507	42656.08
550.871	42688.4
551.235	42681.84
551.599	43047.26
551.962	43096.07
552.326	43189.18
552.689	43579.22
553.053	43422.84
553.417	43470.3
553.78	43986.22
554.143	43807.92
554.507	44036.16
554.87	44104.41
555.234	44661.9
555.597	44298.52
555.96	44589.14
556.323	44937.83
556.686	44982.12
557.05	45210.14
557.413	45358.61
557.776	45360.64
558.139	45775.77
558.502	45905.94
558.865	45901.42
559.228	46172.37
559.59	46402.42
559.953	46515.64
560.316	46836.76
560.679	46766.48
561.041	47029.07
561.404	47229.29
561.767	47380.03
562.129	47250.09
562.492	47691.2
562.854	47678.77
563.217	47902.5
563.579	47984.76
563.941	48248.7
564.304	48473.78
564.666	48653.21
565.028	48615.93
565.39	48900.21
565.753	49086.2
566.115	49147.21
566.477	49338.17
566.839	49437.82
567.201	49592.4
567.563	49723.47
567.925	49925.27
568.287	49893.18
568.648	49999.17
569.01	50193.28
569.372	50525.71
569.734	50206.17
570.095	50635.31
570.457	50649.77
570.819	50785.81
571.18	50779.71
571.542	50989.87
571.903	50973.83
572.265	51114.39
572.626	51260.83
572.987	51276.42
573.349	51261.05
573.71	51405.46
574.071	51636.64
574.432	51673.02
574.794	51912.56
575.155	51876.4
575.516	51814.71
575.877	52011.77
576.238	52132.89
576.599	52087.02
576.96	52177.87
577.32	52062.39
577.681	52283.63
578.042	52288.6
578.403	52312.33
578.763	52315.94
579.124	52474.13
579.485	52499.89
579.845	52672.77
580.206	52513.9
580.566	52608.36
580.927	52578.98
581.287	52787.34
581.648	52554.35
582.008	52850.39
582.368	52663.05
582.728	52646.1
583.089	52730.39
583.449	52630.96
583.809	52707.79
584.169	52786.44
584.529	52767
584.889	52983.49
585.249	52720.22
585.609	52730.62
585.969	52858.53
586.329	52760.45
586.688	52867.79
587.048	52793.22
587.408	52680.9
587.768	52733.56
588.127	52770.84
588.487	52642.94
588.846	52911.18
589.206	52761.35
589.565	52770.17
589.925	52881.35
590.284	52723.84
590.643	52821.01
591.003	52893.55
591.362	52926.77
591.721	52841.12
592.08	52802.93
592.44	52931.74
592.799	52898.75
593.158	52769.71
593.517	52861.01
593.876	52837.51
594.235	52838.19
594.593	52807.68
594.952	52819.43
595.311	52760
595.67	52745.53
596.029	53016.49
596.387	52937.17
596.746	53008.13
597.104	52949.37
597.463	52877.28
597.822	52963.83
598.18	52901.91
598.538	52925.64
598.897	53041.12
599.255	52785.76
599.613	53228.01
599.972	52982.59
600.33	53015.36
600.688	52881.35
601.046	53012.87
601.404	53232.07
601.762	53043.61
602.12	53289.93
602.478	53197.95
602.836	53235.01
603.194	53059.2
603.552	53182.81
603.91	53101.23
604.268	53176.26
604.625	53138.74
604.983	53275.46
605.341	53102.36
605.698	53325.86
606.056	53285.18
606.413	53232.3
606.771	53394.1
607.128	53366.99
607.485	53266.2
607.843	53232.07
608.2	53432.52
608.557	53460.09
608.914	53349.81
609.272	53561.11
609.629	53588
609.986	53653.98
610.343	53445.85
610.7	53723.81
611.057	53563.37
611.414	53621.22
611.771	53664.83
612.127	53703.7
612.484	53689.46
612.841	53731.04
613.198	53672.74
613.554	53669.8
613.911	53876.13
614.267	53862.57
614.624	53832.06
614.98	53799.52
615.337	54009.23
615.693	53880.19
616.05	53904.37
616.406	54100.53
616.762	53965.16
617.118	53897.37
617.475	53918.38
617.831	53999.29
618.187	53966.29
618.543	54011.26
618.899	54167.64
619.255	54074.31
619.611	54008.55
619.967	54202.44
620.323	54118.61
620.678	54039.74
621.034	53910.02
621.39	53979.17
621.746	53930.59
622.101	54286.74
622.457	54015.11
622.812	54035.67
623.168	54037.48
623.523	54060.53
623.879	54142.11
624.234	53866.41
624.589	54010.59
624.945	53990.47
625.3	54003.81
625.655	53960.64
626.01	54049.68
626.365	53970.13
626.72	53980.53
627.075	53859.18
627.43	53888.55
627.785	53802.23
628.14	53857.37
628.495	53938.27
628.85	53867.76
629.205	53774.89
629.559	53940.76
629.914	53716.13
630.269	53750.48
630.623	53660.99
630.978	53617.15
631.332	53676.81
631.687	53797.94
632.041	53507.77
632.396	53642.46
632.75	53449.47
633.104	53489.02
633.459	53433.2
633.813	53319.53
634.167	53335.12
634.521	53343.94
634.875	53353.2
635.229	53310.26
635.583	52979.43
635.937	53122.47
636.291	53022.14
636.645	53064.17
636.999	52968.13
637.352	53016.04
637.706	52762.03
638.06	52875.7
638.413	52793.89
638.767	52730.62
639.121	52791.63
639.474	52552.09
639.828	52585.99
640.181	52581.02
640.534	52493.79
640.888	52438.88
641.241	52208.15
641.594	52396.39
641.947	52337.64
642.301	52185.77
642.654	52228.71
643.007	52167.47
643.36	52181.26
643.713	52111.65
644.066	52229.62
644.419	51976.51
644.771	51760.48
645.124	51484.32
645.477	51289.98
645.83	51028.74
646.182	50921.18
646.535	50861.52
646.888	50994.17
647.24	50713.05
647.593	51059.7
647.945	50919.14
648.298	50805.7
648.65	50508.53
649.002	50359.61
649.355	50586.27
649.707	50372.26
650.059	50551.92
650.411	50946.71
650.763	50988.97
651.115	51301.96
651.467	51052.47
651.819	51007.95
652.171	50892.93
652.523	50956.65
652.875	50920.95
653.227	50718.02
653.578	50959.82
653.93	50826.49
654.282	50667.85
654.633	50594.4
654.985	50507.63
655.337	50632.82
655.688	50533.61
656.039	50742.42
656.391	50318.25
656.742	50425.14
657.094	50406.39
657.445	50509.89
657.796	50295.65
658.147	50227.86
658.498	50244.58
658.849	50284.81
659.2	50248.42
659.551	50096.56
659.902	50255.2
660.253	50136.79
660.604	50178.6
660.955	50012.95
661.306	50096.56
661.656	50028.32
662.007	49997.58
662.358	49925.5
662.708	49819.28
663.059	49946.74
663.409	49814.31
663.76	49913.74
664.11	49814.99
664.461	49826.29
664.811	49765.5
665.161	49669
665.511	49646.63
665.862	49653.64
666.212	49701.09
666.562	49599.4
666.912	49552.17
667.262	49514.66
667.612	49582.91
667.962	49536.13
668.312	49471.27
668.662	49719.17
669.011	49522.57
669.361	49355.11
669.711	49290.71
670.06	49348.79
670.41	49184.72
670.76	49049.59
671.109	49226.98
671.459	49058.85
671.808	49167.55
672.157	49090.71
672.507	48796.71
672.856	48826.99
673.205	48870.61
673.554	49000.32
673.904	48802.13
674.253	49022.47
674.602	48991.73
674.951	48386.1
675.3	48264.97
675.649	48787.45
675.998	48622.7
676.346	48670.84
676.695	48679.65
677.044	48572.08
677.393	48644.85
677.741	48652.31
678.09	48407.12
678.438	48316.5
678.787	48398.3
679.135	48380.68
679.484	48013.46
679.832	48272.21
680.181	47870.63
680.529	48008.26
680.877	47891.42
681.225	47818.88
681.573	48057.75
681.922	47792.44
682.27	47600.36
682.618	47840.13
682.966	47691.2
683.314	47737.76
683.661	47546.35
684.009	47426.35
684.357	47293.25
684.705	47118.56
685.053	47136.42
685.4	47154.04
685.748	46900.26
686.095	46953.37
686.443	46871.34
686.79	46735.97
687.138	46754.05
687.485	46719.93
687.832	46561.06
688.18	46552.93
688.527	46417.79
688.874	46233.84
689.221	46215.31
689.568	46017.12
689.915	45940.97
690.262	45889.9
690.609	45726.96
690.956	45734.64
691.303	45678.15
691.65	45572.39
691.997	45387.76
692.344	44963.82
692.69	45075
693.037	44978.05
693.383	44733.09
693.73	44876.81
694.077	44550.27
694.423	44350.95
694.769	44335.81
695.116	44220.11
695.462	44130.62
695.808	43961.58
696.155	44012.88
696.501	43934.47
696.847	43891.08
697.193	43443.41
697.539	43627.58
697.885	43468.04
698.231	43318.89
698.577	43333.58
698.923	43040.7
699.269	42870.09
699.614	42713.93
699.96	42758.23
700.306	42576.08
700.651	42409.31
700.997	42297.22
701.342	42400.72
701.688	42084.8
702.033	42142.65
702.379	42028.08
702.724	41828.08
703.069	41937.91
703.415	41345.16
703.76	41319.17
704.105	41396.23
704.45	41372.73
704.795	41135.44
705.14	41113.3
705.485	40880.08
705.83	40774.55
706.175	40783.14
706.52	40434.67
706.865	40556.93
707.209	40509.02
707.554	40406.42
707.899	40446.87
708.243	40174.11
708.588	40050.27
708.932	39990.16
709.277	39794.01
709.621	39751.98
709.966	39459.33
710.31	39544.07
710.654	39181.6
710.998	39321.71
711.342	39263.85
711.687	39182.27
712.031	39035.61
712.375	39001.94
712.719	38834.49
713.063	38904.09
713.407	38865.9
713.75	38771.89
714.094	38616.87
714.438	38420.26
714.782	38501.61
715.125	38495.29
715.469	38412.58
715.812	38015.53
716.156	37869.54
716.499	37745.02
716.843	37833.38
717.186	37602.88
717.53	37763.56
717.873	37692.37
718.216	37581.19
718.559	37444.92
718.902	37332.61
719.246	37378.93
719.589	37208.77
719.932	37144.36
720.275	36959.51
720.617	37012.16
720.96	36877.93
721.303	36937.36
721.646	36822.11
721.989	36704.37
722.331	36796.12
722.674	36502.35
723.016	36525.85
723.359	36427.09
723.701	36479.07
724.044	36210.38
724.386	35988.01
724.729	36105.52
725.071	36003.38
725.413	36044.05
725.755	35907.11
726.097	35620.11
726.439	35602.93
726.782	35593.67
727.124	35787.11
727.465	35422.83
727.807	35476.84
728.149	35426.22
728.491	35400.23
728.833	35330.4
729.175	35260.12
729.516	35148.26
729.858	35096.05
730.199	35103.29
730.541	35009.5
730.882	34930.18
731.224	34889.05
731.565	34738.78
731.906	34706.01
732.248	34761.6
732.589	34526.35
732.93	34377.2
733.271	34417.43
733.612	34430.99
733.953	34394.38
734.294	34259.01
734.635	34233.7
734.976	34343.53
735.317	34110.32
735.658	34096.76
735.999	33983.54
736.339	33865.58
736.68	34040.26
737.021	33806.6
737.361	33550.78
737.702	33760.27
738.042	33540.16
738.383	33723.66
738.723	33615.64
739.063	33345.37
739.404	33555.53
739.744	33297.46
740.084	33266.27
740.424	33279.61
740.764	33306.72
741.104	33276.22
741.444	33080.51
741.784	32910.8
742.124	33086.16
742.464	32993.06
742.804	32927.75
743.143	32772.27
743.483	32818.6
743.823	32593.52
744.162	32545.39
744.502	32553.75
744.841	32452.06
745.181	32472.39
745.52	32340.87
745.86	32265.39
746.199	32305.85
746.538	32084.38
746.877	32242.57
747.216	32172.52
747.556	32093.42
747.895	31965.29
748.234	31829.7
748.573	31786.54
748.911	31785.86
749.25	31626.54
749.589	31349.71
749.928	31505.19
750.267	31553.1
750.605	31564.4
750.944	31349.49
751.283	31261.13
751.621	31257.29
751.96	31081.47
752.298	31171.86
752.636	31033.34
752.975	30991.98
753.313	30880.35
753.651	30851.65
753.989	30825.88
754.327	30664.98
754.666	30385.9
755.004	30564.87
755.342	30461.6
755.679	30442.62
756.017	30196.97
756.355	30345.67
756.693	30073.36
757.031	30049.86
757.368	29820.49
757.706	29821.62
758.044	29787.04
758.381	29767.83
758.719	29645.58
759.056	29602.87
759.394	29483.32
759.731	29293.72
760.068	29171.69
760.405	29123.1
760.743	29034.52
761.08	29078.81
761.417	28886.05
761.754	28875.65
762.091	28744.58
762.428	28701.19
762.765	28511.59
763.102	28562.89
763.438	28408.55
763.775	28242
764.112	28202.9
764.449	28318.38
764.785	28040.65
765.122	27897.83
765.458	27806.3
765.795	27749.81
766.131	27649.02
766.467	27524.28
766.804	27367.9
767.14	27236.83
767.476	27228.46
767.812	27070.28
768.148	27063.72
768.485	26930.39
768.821	26792.54
769.157	26764.97
769.492	26731.98
769.828	26738.53
770.164	26391.2
770.5	26316.85
770.836	26347.36
771.171	26179.23
771.507	26162.96
771.842	25927.48
772.178	25887.26
772.513	25860.82
772.849	25741.95
773.184	25628.28
773.519	25699.24
773.855	25456.76
774.19	25234.39
774.525	25307.61
774.86	25151.91
775.195	25166.37
775.53	25080.27
775.865	24987.85
776.2	24774.97
776.535	24550.57
776.87	24612.94
777.205	24431.02
777.539	24313.74
777.874	24417.47
778.209	24031.94
778.543	24010.02
778.878	23942
779.212	24005.95
779.547	23797.14
779.881	23769.8
780.215	23583.59
780.55	23629.46
780.884	23496.81
781.218	23377.72
781.552	23411.39
781.886	23189.93
782.22	23171.4
782.554	23001.46
782.888	22719.2
783.222	22711.52
783.556	22542.94
783.889	22507.69
784.223	22328.48
784.557	22484.18
784.89	22430.4
785.224	22226.79
785.557	22168.71
785.891	22102.72
786.224	21987.02
786.558	21896.85
786.891	21761.94
787.224	21798.1
787.557	21671.32
787.891	21562.17
788.224	21545.45
788.557	21425
788.89	21442.18
789.223	21277.89
789.556	21172.8
789.888	21099.81
790.221	21065.69
790.554	20899.37
790.887	20965.35
791.219	20789.31
791.552	20898.01
791.884	20677.22
792.217	20577.34
792.549	20525.36
792.882	20318.36
793.214	20348.65
793.546	20328.53
793.879	20349.32
794.211	20001.99
794.543	20146.62
794.875	20008.77
795.207	19979.39
795.539	19891.26
795.871	19917.47
796.203	19757.7
796.535	19663.01
796.867	19514.77
797.198	19411.04
797.53	19425.51
797.862	19310.93
798.193	19362.23
798.525	19217.15
798.856	19252.63
799.188	19021.45
799.519	18900.55
799.85	18877.72
800.182	18867.1
800.513	18971.96
800.844	18759.76
801.175	18843.37
801.506	18843.15
801.837	18551.86
802.168	18577.17
802.499	18498.3
802.83	18423.27
803.161	18350.51
803.491	18375.59
803.822	18305.31
804.153	18203.62
804.483	18038.65
804.814	17963.4
805.145	17893.12
805.475	17970.4
805.805	17802.72
806.136	17829.84
806.466	17869.16
806.796	17840.92
807.126	17609.51
807.457	17535.84
807.787	17503.52
808.117	17426.24
808.447	17397.54
808.777	17404.09
809.107	17424.43
809.436	17235.06
809.766	17342.62
810.096	17124.1
810.426	17142.63
810.755	17115.06
811.085	17058.79
811.414	16924.55
811.744	16776.08
812.073	16782.86
812.403	16805.69
812.732	16763.2
813.061	16664.9
813.39	16635.75
813.719	16513.72
814.049	16616.54
814.378	16673.49
814.707	16393.27
815.036	16428.97
815.365	16333.61
815.693	16296.32
816.022	16310.79
816.351	16265.14
816.68	16107.63
817.008	16174.29
817.337	15972.94
817.665	15972.94
817.994	15929.1
818.322	15990.12
818.651	15841.87
818.979	15806.84
819.307	15883.45
819.636	15810.91
819.964	15714.87
820.292	15732.72
820.62	15729.11
820.948	15645.04
821.276	15749.44
821.604	15640.29
821.932	15693.17
822.259	15644.59
822.587	15626.06
822.915	15596.45
823.243	15563.46
823.57	15579.28
823.898	15610.01
824.225	15512.16
824.553	15593.29
824.88	15495.89
825.207	15529.56
825.535	15537.02
825.862	15570.47
826.189	15448.66
826.516	15613.85
826.843	15597.81
827.17	15490.24
827.497	15550.81
827.824	15569.11
828.151	15492.5
828.478	15519.39
828.805	15521.88
829.131	15428.32
829.458	15513.97
829.785	15381.32
830.111	15465.61
830.438	15461.77
830.764	15483.46
831.09	15419.06
831.417	15350.13
831.743	15436.68
832.069	15419.28
832.395	15311.72
832.722	15438.27
833.048	15403.24
833.374	15366.18
833.7	15256.8
834.026	15298.16
834.351	15334.09
834.677	15274.2
835.003	15301.77
835.329	15209.35
835.654	15304.03
835.98	15172.51
836.306	15175.9
836.631	15121.21
836.956	15189.46
837.282	15148.1
837.607	15056.36
837.932	15119.4
838.258	15097.26
838.583	15077.82
838.908	14995.79
839.233	15015.23
839.558	15004.61
839.883	14925.74
840.208	14848.45
840.533	14804.16
840.858	14841.22
841.182	14881.9
841.507	14768.23
841.832	14685.29
842.156	14734.78
842.481	14689.59
842.805	14628.12
843.13	14619.08
843.454	14579.76
843.778	14523.94
844.103	14521.68
844.427	14478.74
844.751	14545.63
845.075	14421.57
845.399	14401.01
845.723	14351.74
846.047	14415.92
846.371	14179.09
846.695	14241.24
847.019	14123.72
847.343	14066.33
847.666	13931.41
847.99	13893.22
848.313	13857.97
848.637	13750.18
848.96	13737.29
849.284	13820.23
849.607	13624.75
849.931	13592.89
850.254	13539.33
850.577	13474.25
850.9	13470.41
851.223	13331.66
851.546	13303.63
851.869	13237.42
852.192	13381.37
852.515	13146.12
852.838	13123.98
853.161	13071.32
853.483	13051.21
853.806	13023.41
854.129	12991.78
854.451	12888.73
854.774	12859.8
855.096	12767.38
855.419	12747.04
855.741	12826.13
856.063	12722.63
856.385	12659.13
856.708	12603.54
857.03	12586.82
857.352	12601.73
857.674	12506.14
857.996	12372.81
858.318	12472.92
858.64	12388.4
858.961	12306.6
859.283	12345.69
859.605	12222.98
859.926	12317.22
860.248	12233.6
860.57	12220.5
860.891	12229.31
861.212	12096.21
861.534	12077.45
861.855	12089.88
862.176	12120.39
862.498	12077
862.819	12060.28
863.14	12069.99
863.461	12011.46
863.782	12000.62
864.103	11975.31
864.424	11886.95
864.745	12065.7
865.065	11926.95
865.386	11790.68
865.707	11934.63
866.027	11882.2
866.348	11876.33
866.668	11924.01
866.989	11734.86
867.309	11727.86
867.63	11685.6
867.95	11651.25
868.27	11573.74
868.59	11628.2
868.91	11668.42
869.23	11711.81
869.55	11624.36
869.87	11681.98
870.19	11717.23
870.51	11668.2
870.83	11610.8
871.15	11500.29
871.469	11529.67
871.789	11528.09
872.109	11510.91
872.428	11413.29
872.748	11428.65
873.067	11350.92
873.386	11390.01
873.706	11400.41
874.025	11327.87
874.344	11296.91
874.663	11375.1
874.982	11310.69
875.301	11296.23
875.62	11336.91
875.939	11308.43
876.258	11261.65
876.577	11182.56
876.896	11255.55
877.214	11195.89
877.533	11237.02
877.852	11267.53
878.17	11190.92
878.489	11143.24
878.807	11127.65
879.125	11163.12
879.444	11084.93
879.762	11097.82
880.08	11030.92
880.398	11072.73
880.716	11034.31
881.034	11025.05
881.352	11022.34
881.67	10968.55
881.988	10931.04
882.306	10939.4
882.624	10905.5
882.941	10926.07
883.259	10781.21
883.577	10792.51
883.894	10839.29
884.212	10803.81
884.529	10774.43
884.846	10734.21
885.164	10702.8
885.481	10747.77
885.798	10684.49
886.115	10630.71
886.432	10582.57
886.75	10616.47
887.067	10617.15
887.383	10569.02
887.7	10549.81
888.017	10536.02
888.334	10524.05
888.651	10585.96
888.967	10439.3
889.284	10378.51
889.6	10411.96
889.917	10324.5
890.233	10324.05
890.55	10305.07
890.866	10302.81
891.182	10217.84
891.498	10170.38
891.815	10180.55
892.131	10110.04
892.447	10069.59
892.763	10124.28
893.079	10127.67
893.395	10063.49
893.71	10010.61
894.026	9966.09
894.342	9972.87
894.657	10004.28
894.973	9879.54
895.289	9865.08
895.604	9803.39
895.92	9814.69
896.235	9763.61
896.55	9743.73
896.865	9651.98
897.181	9726.78
897.496	9672.54
897.811	9591.87
898.126	9574.24
898.441	9556.16
898.756	9568.59
899.071	9493.11
899.386	9481.13
899.7	9461.93
900.015	9379.89
900.33	9336.28
900.644	9360.69
900.959	9310.07
901.273	9274.81
901.588	9190.52
901.902	9206.11
902.216	9211.54
902.531	9164.99
902.845	9082.28
903.159	9052.45
903.473	9011.09
903.787	9009.73
904.101	8974.26
904.415	8946.23
904.729	8936.06
905.042	8893.35
905.356	8896.52
905.67	8860.36
905.984	8831.43
906.297	8822.62
906.611	8743.08
906.924	8727.48
907.237	8750.98
907.551	8647.26
907.864	8705.79
908.177	8578.56
908.491	8570.65
908.804	8473.25
909.117	8458.34
909.43	8336.98
909.743	8414.04
910.056	8334.95
910.368	8356.42
910.681	8358.23
910.994	8333.59
911.307	8266.93
911.619	8280.71
911.932	8164.11
912.244	8109.87
912.557	8189.64
912.869	8095.86
913.181	8026.48
913.494	8017.44
913.806	7970.21
914.118	7936.99
914.43	7959.37
914.742	7910.1
915.054	7907.16
915.366	7798.24
915.678	7816.32
915.99	7810.67
916.302	7768.19
916.613	7665.59
916.925	7720.28
917.236	7607.29
917.548	7606.16
917.859	7613.16
918.171	7542.2
918.482	7503.56
918.794	7450.45
919.105	7451.13
919.416	7474.63
919.727	7379.5
920.038	7470.11
920.349	7334.75
920.66	7309.89
920.971	7338.82
921.282	7239.61
921.593	7162.1
921.903	7130.91
922.214	7157.35
922.525	7192.61
922.835	7094.98
923.146	7072.84
923.456	7062.89
923.767	6988.09
924.077	7011.6
924.387	6985.61
924.697	6894.54
925.008	6886.85
925.318	6814.09
925.628	6848.44
925.938	6818.38
926.248	6763.01
926.558	6733.18
926.867	6711.94
927.177	6626.75
927.487	6651.83
927.796	6618.61
928.106	6614.09
928.416	6523.02
928.725	6585.39
929.034	6522.57
929.344	6506.98
929.653	6487.99
929.962	6420.88
930.271	6454.77
930.581	6356.92
930.89	6348.79
931.199	6325.51
931.508	6254.55
931.817	6295.23
932.125	6261.56
932.434	6264.95
932.743	6182.46
933.051	6179.07
933.36	6166.42
933.669	6083.03
933.977	6069.02
934.286	6058.4
934.594	6035.58
934.902	6007.33
935.21	6013.66
935.519	5978.18
935.827	5937.5
936.135	5882.36
936.443	5841.23
936.751	5810.72
937.059	5789.71
937.367	5849.59
937.674	5778.41
937.982	5775.47
938.29	5715.58
938.597	5728.24
938.905	5695.25
939.213	5688.24
939.52	5634.68
939.827	5650.05
940.135	5563.05
940.442	5564.4
940.749	5524.4
941.056	5586.55
941.363	5440.56
941.67	5475.14
941.977	5394.01
942.284	5400.34
942.591	5392.88
942.898	5355.82
943.205	5329.83
943.511	5317.85
943.818	5340.23
944.125	5281.25
944.431	5272.21
944.738	5297.06
945.044	5264.07
945.35	5247.12
945.657	5167.8
945.963	5149.27
946.269	5180.23
946.575	5130.97
946.881	5064.08
947.187	5077.86
947.493	5067.24
947.799	5032.44
948.105	4977.3
948.41	4985.43
948.716	4934.36
949.022	4925.32
949.327	4904.53
949.633	4855.49
949.938	4854.82
950.244	4825.89
950.549	4817.98
950.854	4808.04
951.16	4787.02
951.465	4760.13
951.77	4750.41
952.075	4694.59
952.38	4702.05
952.685	4680.36
952.99	4634.26
953.294	4647.14
953.599	4561.72
953.904	4629.06
954.209	4526.24
954.513	4549.29
954.818	4517.88
955.122	4485.56
955.426	4463.41
955.731	4516.75
956.035	4479.68
956.339	4426.13
956.643	4379.8
956.948	4410.53
957.252	4401.49
957.556	4370.53
957.86	4301.61
958.163	4285.34
958.467	4291.89
958.771	4289.63
959.075	4278.79
959.378	4242.85
959.682	4254.83
959.985	4218.67
960.289	4182.97
960.592	4188.84
960.896	4121.95
961.199	4121.95
961.502	4111.33
961.805	4078.79
962.108	4064.33
962.411	4058.23
962.714	4035.85
963.017	4031.56
963.32	4006.02
963.623	3986.59
963.926	4034.72
964.228	3977.32
964.531	3938.23
964.833	3920.6
965.136	3896.65
965.438	3859.81
965.741	3867.05
966.043	3873.37
966.345	3855.97
966.648	3832.92
966.95	3811.45
967.252	3795.41
967.554	3761.51
967.856	3762.87
968.158	3740.95
968.46	3738.69
968.761	3726.48
969.063	3691.68
969.365	3659.37
969.666	3644.68
969.968	3641.97
970.269	3630.44
970.571	3593.38
970.872	3595.87
971.174	3602.87
971.475	3573.27
971.776	3579.6
972.077	3557.45
972.378	3514.96
972.679	3499.6
972.98	3470.67
973.281	3480.16
973.582	3476.32
973.883	3463.67
974.183	3424.8
974.484	3415.53
974.785	3416.89
975.085	3402.88
975.386	3381.63
975.686	3333.05
975.986	3347.74
976.287	3303.22
976.587	3248.53
976.887	3295.08
977.187	3265.03
977.487	3249.43
977.787	3213.28
978.087	3255.99
978.387	3228.64
978.687	3182.32
978.987	3189.32
979.286	3182.54
979.586	3190.68
979.885	3181.19
980.185	3118.59
980.484	3088.31
980.784	3118.14
981.083	3120.85
981.382	3096.9
981.682	3070.68
981.981	3036.56
982.28	3028.2
982.579	3042.89
982.878	3005.15
983.177	2996.33
983.475	2983.9
983.774	2969.44
984.073	2990.91
984.372	2931.7
984.67	2939.84
984.969	2945.26
985.267	2904.36
985.566	2890.35
985.864	2860.29
986.162	2857.35
986.461	2828.65
986.759	2834.3
987.057	2837.47
987.355	2785.94
987.653	2772.16
987.951	2803.8
988.249	2773.51
988.547	2773.29
988.844	2746.4
989.142	2776.45
989.44	2686.51
989.737	2692.84
990.035	2689.22
990.332	2689.9
990.63	2705.72
990.927	2674.31
991.224	2672.95
991.521	2628.43
991.819	2644.03
992.116	2617.36
992.413	2601.32
992.71	2583.24
993.006	2550.92
993.303	2565.84
993.6	2545.27
993.897	2539.62
994.193	2531.49
994.49	2521.54
994.787	2505.27
995.083	2464.6
995.379	2436.8
995.676	2466.86
995.972	2448.1
996.268	2447.87
996.565	2428.66
996.861	2414.43
997.157	2404.94
997.453	2374.43
997.749	2362
998.044	2368.1
998.34	2363.13
998.636	2327.88
998.932	2335.56
999.227	2347.99
999.523	2299.4
999.818	2319.06
1000.114	2280.42
1000.409	2218.5
1000.704	2233.87
1001	2211.95
1001.295	2250.59
1001.59	2237.48
1001.885	2192.06
1002.18	2195
1002.475	2183.02
1002.77	2174.89
1003.065	2154.55
1003.359	2139.18
1003.654	2158.84
1003.949	2115
1004.243	2096.92
1004.538	2112.52
1004.832	2110.93
1005.127	2062.8
1005.421	2086.53
1005.715	2072.74
1006.009	2062.12
1006.304	2016.7
1006.598	2037.94
1006.892	2023.25
1007.186	2008.11
1007.48	1957.04
1007.773	1962.24
1008.067	1966.76
1008.361	1964.5
1008.655	1929.24
1008.948	1915.91
1009.242	1914.78
1009.535	1928.57
1009.829	1904.38
1010.122	1887.89
1010.415	1906.42
1010.708	1857.61
1011.001	1851.73
1011.295	1849.25
1011.588	1850.38
1011.881	1828.68
1012.173	1782.58
1012.466	1799.3
1012.759	1812.41
1013.052	1797.27
1013.344	1776.93
1013.637	1772.86
1013.93	1763.82
1014.222	1748
1014.514	1731.96
1014.807	1712.98
1015.099	1733.09
1015.391	1704.39
1015.683	1691.51
1015.976	1631.62
1016.268	1686.31
1016.56	1640.66
1016.851	1642.24
1017.143	1645.18
1017.435	1623.26
1017.727	1633.88
1018.018	1580.33
1018.31	1609.7
1018.602	1576.94
1018.893	1550.04
1019.185	1547.33
1019.476	1549.37
1019.767	1560.21
1020.058	1543.04
1020.35	1518.86
1020.641	1493.55
1020.932	1503.72
1021.223	1482.02
1021.514	1492.19
1021.804	1473.66
1022.095	1448.13
1022.386	1460.78
1022.677	1448.35
1022.967	1454
1023.258	1411.06
1023.548	1415.81
1023.839	1412.42
1024.129	1410.16
1024.419	1389.82
1024.709	1398.18
1025	1358.41
1025.29	1343.95
1025.58	1354.79
1025.87	1369.26
1026.16	1315.7
1026.449	1332.87
1026.739	1294.01
1027.029	1304.4
1027.319	1323.16
1027.608	1288.13
1027.898	1266.66
1028.187	1252.88
1028.477	1251.29
1028.766	1266.89
1029.055	1259.43
1029.344	1219.66
1029.634	1219.66
1029.923	1238.64
1030.212	1237.74
1030.501	1208.81
1030.79	1224.85
1031.078	1200
1031.367	1194.12
1031.656	1172.88
1031.945	1173.56
1032.233	1155.93
1032.522	1121.81
1032.81	1157.51
1033.099	1123.61
1033.387	1135.59
1033.675	1115.93
1033.963	1110.73
1034.251	1113.22
1034.54	1105.08
1034.828	1104.63
1035.116	1085.2
1035.403	1059.44
1035.691	1054.69
1035.979	1059.89
1036.267	1033.45
1036.554	1061.92
1036.842	1042.94
1037.129	1017.4
1037.417	1010.17
1037.704	1040
1037.992	1011.3
1038.279	1035.93
1038.566	1030.96
1038.853	1030.96
1039.14	1030.96
