Data from foil_FLMS001491_002.txt Node
Date: Tue Feb 07 11:25:16 GMT 2017
User: dcchb
Spectrometer: FLMS00149
Trigger mode: 0
Integration Time (sec): 2.000000E-2
Scans to average: 10
Electric dark correction enabled: true
Nonlinearity correction enabled: false
Boxcar width: 0
XAxis mode: Wavelengths
Number of Pixels in Spectrum: 2048
>>>>>Begin Spectral Data<<<<<
341.393	-14.31
341.776	-14.31
342.16	-14.31
342.543	-55.66
342.927	-59.28
343.31	-72.84
343.693	-76
344.077	-59.28
344.46	-71.93
344.843	-48.43
345.226	-35.1
345.61	-38.04
345.993	-14.53
346.376	7.61
346.759	12.36
347.142	20.49
347.525	57.1
347.908	28.86
348.291	90.32
348.674	76.54
349.057	122.86
349.44	138.91
349.823	140.49
350.206	181.62
350.588	298
350.971	296.42
351.354	296.64
351.737	323.31
352.119	321.95
352.502	349.07
352.884	353.59
353.267	370.77
353.65	358.79
354.032	393.37
354.414	388.85
354.797	422.07
355.179	404.89
355.562	419.35
355.944	422.97
356.326	425.68
356.709	437.43
357.091	425
357.473	454.83
357.855	458.22
358.238	460.03
358.62	452.12
359.002	446.7
359.384	472.01
359.766	458.67
360.148	464.78
360.53	461.39
360.912	457.09
361.294	458.45
361.676	456.64
362.057	497.09
362.439	481.5
362.821	493.7
363.203	462.06
363.584	477.2
363.966	461.39
364.348	479.24
364.729	482.85
365.111	488.73
365.493	490.31
365.874	488.05
366.256	463.42
366.637	461.84
367.019	491.89
367.4	510.2
367.781	495.28
368.163	494.83
368.544	488.28
368.925	490.76
369.306	502.97
369.688	505
370.069	498
370.45	506.13
370.831	523.53
371.212	508.62
371.593	520.59
371.974	519.69
372.355	530.54
372.736	543.87
373.117	558.11
373.498	546.81
373.879	559.46
374.26	521.95
374.641	505
375.021	555.62
375.402	584.32
375.783	580.71
376.163	613.92
376.544	587.48
376.925	605.11
377.305	621.16
377.686	594.49
378.066	617.99
378.447	611.66
378.827	633.81
379.208	622.96
379.588	626.35
379.968	624.32
380.349	655.73
380.729	641.27
381.109	657.99
381.489	648.27
381.87	660.48
382.25	672.45
382.63	694.37
383.01	711.32
383.39	720.36
383.77	707.48
384.15	697.31
384.53	722.85
384.91	745.45
385.29	744.54
385.67	749.51
386.049	765.56
386.429	760.59
386.809	773.02
387.189	787.93
387.568	805.56
387.948	789.06
388.328	820.92
388.707	809.85
389.087	834.48
389.466	850.53
389.846	854.14
390.225	877.65
390.605	874.26
390.984	898.21
391.363	892.11
391.743	903.18
392.122	914.03
392.501	958.77
392.881	949.96
393.26	970.07
393.639	951.77
394.018	967.36
394.397	981.6
394.776	992.45
395.155	988.6
395.534	1050.3
395.913	1044.87
396.292	1038.09
396.671	1051.88
397.05	1053.91
397.429	1079.22
397.808	1090.52
398.186	1086.68
398.565	1109.5
398.944	1112.67
399.323	1120.8
399.701	1147.24
400.08	1183.4
400.458	1170.29
400.837	1166
401.215	1164.64
401.594	1206.9
401.972	1226.56
402.351	1229.28
402.729	1250.97
403.107	1257.52
403.486	1232.21
403.864	1292.78
404.242	1296.84
404.62	1309.27
404.999	1306.56
405.377	1346.11
405.755	1368.25
406.133	1375.71
406.511	1377.52
406.889	1411.19
407.267	1426.11
407.645	1468.82
408.023	1463.39
408.401	1501.81
408.779	1493.68
409.156	1534.8
409.534	1540.23
409.912	1602.37
410.29	1589.27
410.667	1620.45
411.045	1666.33
411.422	1648.25
411.8	1681.24
412.178	1720.56
412.555	1755.14
412.933	1743.61
413.31	1783.84
413.687	1844.63
414.065	1814.57
414.442	1887.11
414.819	1865.19
415.197	1891.18
415.574	1925.75
415.951	1958.07
416.328	1952.87
416.705	1984.96
417.082	1983.38
417.46	1983.83
417.837	2031.74
418.214	2068.12
418.591	2098.86
418.967	2108.8
419.344	2137.73
419.721	2156.26
420.098	2172.53
420.475	2169.59
420.852	2236.71
421.228	2216.59
421.605	2233.32
421.982	2283.49
422.358	2293.88
422.735	2308.57
423.111	2346.08
423.488	2388.57
423.864	2402.58
424.241	2441.9
424.617	2434.67
424.994	2476.02
425.37	2501.78
425.746	2521.45
426.123	2552.63
426.499	2571.16
426.875	2606.41
427.251	2630.37
427.627	2702.01
428.003	2756.69
428.379	2818.16
428.756	2767.31
429.132	2827.2
429.507	2864.49
429.883	2933.41
430.259	2995.1
430.635	2998.49
431.011	3011.38
431.387	3082.33
431.763	3153.74
432.138	3181.09
432.514	3244.82
432.89	3239.39
433.265	3309.67
433.641	3325.04
434.016	3377.24
434.392	3401.42
434.767	3513.51
435.143	3511.48
435.518	3548.99
435.894	3575.88
436.269	3620.63
436.644	3687.97
437.02	3755.31
437.395	3761.86
437.77	3746.27
438.145	3828.08
438.52	3869.21
438.895	3919.83
439.271	3922.54
439.646	4019.03
440.021	3999.82
440.395	4063.1
440.77	4034.63
441.145	4071.69
441.52	4181.97
441.895	4182.42
442.27	4235.98
442.645	4198.01
443.019	4254.51
443.394	4314.62
443.769	4329.76
444.143	4332.24
444.518	4440.04
444.892	4374.96
445.267	4443.88
445.641	4487.95
446.016	4522.52
446.39	4590.32
446.764	4596.42
447.139	4566.81
447.513	4678.9
447.887	4695.85
448.262	4661.73
448.636	4738.56
449.01	4751.44
449.384	4805.9
449.758	4840.71
450.132	4961.38
450.506	4966.13
450.88	5008.61
451.254	5060.59
451.628	5108.27
452.002	5119.79
452.376	5192.79
452.75	5263.97
453.123	5237.08
453.497	5381.26
453.871	5360.47
454.244	5515.72
454.618	5538.09
454.992	5597.75
455.365	5638.88
455.739	5777.18
456.112	5824.63
456.486	5850.85
456.859	5878.42
457.232	5980.11
457.606	6063.72
457.979	6067.79
458.352	6215.81
458.725	6263.27
459.099	6330.16
459.472	6420.1
459.845	6516.37
460.218	6542.81
460.591	6576.48
460.964	6714.33
461.337	6797.94
461.71	6883.14
462.083	6993.19
462.456	7039.29
462.829	7014.21
463.201	7149.35
463.574	7224.6
463.947	7299.85
464.32	7452.16
464.692	7502.78
465.065	7555.66
465.438	7670.01
465.81	7816.45
466.183	7861.64
466.555	8091.92
466.928	8034.07
467.3	8092.37
467.672	8253.5
468.045	8473.6
468.417	8466.6
468.789	8544.11
469.161	8633.15
469.534	8842.63
469.906	9008.96
470.278	9038.56
470.65	9090.09
471.022	9297.99
471.394	9461.83
471.766	9578.21
472.138	9675.83
472.51	9866.56
472.882	9959.44
473.253	10062.26
473.625	10244.41
473.997	10481.69
474.369	10538.64
474.74	10701.12
475.112	10819.53
475.484	11000.77
475.855	11236.24
476.227	11336.58
476.598	11642.79
476.97	11692.5
477.341	11900.86
477.713	12145.82
478.084	12203
478.455	12555.31
478.827	12604.8
479.198	13006.59
479.569	13010.21
479.94	13392.35
480.311	13509.4
480.682	13848.15
481.053	14061.48
481.424	14270.97
481.795	14430.51
482.166	14671.18
482.537	14783.95
482.908	15184.16
483.279	15265.06
483.65	15601.33
484.021	15844.26
484.391	16047.64
484.762	16232.27
485.133	16376.45
485.503	16618.25
485.874	17010.78
486.244	17136.65
486.615	17511.56
486.985	17721.05
487.356	17982.51
487.726	18007.59
488.097	18576.62
488.467	18558.54
488.837	18999.43
489.207	19159.2
489.578	19445.97
489.948	19645.06
490.318	19850.93
490.688	19961.21
491.058	20315.78
491.428	20530.24
491.798	20690.01
492.168	21135.64
492.538	21172.25
492.908	21455.86
493.278	21646.82
493.648	21791.9
494.017	22061.72
494.387	22185.79
494.757	22401.6
495.126	22711.2
495.496	22712.55
495.866	22893.79
496.235	23235.7
496.605	23360.67
496.974	23535.58
497.344	23769.47
497.713	23941.45
498.082	24021.44
498.452	24287.2
498.821	24421.21
499.19	24522
499.559	24734.87
499.928	24974.64
500.298	25036.33
500.667	25263.45
501.036	25363.78
501.405	25695.75
501.774	25631.12
502.143	25886.71
502.512	26050.32
502.88	26169.86
503.249	26333.93
503.618	26528.05
503.987	26644.43
504.356	26897.3
504.724	27007.35
505.093	27086
505.462	27202.15
505.83	27534.8
506.199	27691.18
506.567	28101.79
506.936	27982.92
507.304	28502.68
507.672	28480.99
508.041	28585.84
508.409	28745.61
508.777	29031.03
509.145	29243.23
509.514	29330.91
509.882	29534.07
510.25	29604.8
510.618	30014.96
510.986	29945.13
511.354	30329.08
511.722	30581.95
512.09	30766.8
512.458	30784.66
512.826	31002.5
513.193	31310.07
513.561	31346
513.929	31677.51
514.297	31925.19
514.664	32154.11
515.032	32293.32
515.4	32623.7
515.767	32590.94
516.135	32953.87
516.502	32871.38
516.869	33483.57
517.237	33661.42
517.604	33400.41
517.972	34004.68
518.339	34350.44
518.706	34242.64
519.073	34527.38
519.44	34678.79
519.808	35055.28
520.175	35104.77
520.542	35487.13
520.909	35850.29
521.276	35911.08
521.643	36325.53
522.009	36427.45
522.376	36638.74
522.743	36938.39
523.11	37301.1
523.477	37580.41
523.843	37904.92
524.21	38167.06
524.577	38526.6
524.943	38740.83
525.31	38779.93
525.676	39242.74
526.043	39272.8
526.409	39611.54
526.776	40047.24
527.142	40153.9
527.508	40516.83
527.874	40734.9
528.241	40856.26
528.607	41028
528.973	41449.91
529.339	41445.39
529.705	41884.7
530.071	42271.59
530.437	42219.61
530.803	42606.49
531.169	42831.12
531.535	42750.9
531.901	43001.74
532.267	43224.78
532.632	43520.14
532.998	43713.58
533.364	43929.85
533.73	44039
534.095	44246.22
534.461	44409.38
534.826	44726.66
535.192	44867.45
535.557	45185.41
535.923	45160.32
536.288	45353.54
536.653	45596.24
537.019	45455.68
537.384	45715.34
537.749	45894.77
538.114	45954.2
538.479	46119.17
538.845	46160.3
539.21	46307.19
539.575	46430.8
539.94	46651.36
540.305	46844.57
540.67	46802.54
541.034	47052.03
541.399	47238.69
541.764	47370.21
542.129	47516.87
542.494	47565.91
542.858	47762.74
543.223	47844.1
543.587	48145.33
543.952	48116.18
544.316	48179.45
544.681	48171.54
545.045	48539.67
545.41	48731.3
545.774	48776.05
546.138	48792.09
546.503	48939.21
546.867	49020.11
547.231	49209.26
547.595	49360.89
547.959	49598.63
548.324	49510.27
548.688	49647.44
549.052	49963.81
549.416	49947.32
549.779	50099.63
550.143	50278.83
550.507	50500.07
550.871	50571.26
551.235	50623.91
551.599	50802.44
551.962	50833.62
552.326	50945.26
552.689	51135.99
553.053	51007.18
553.417	51161.3
553.78	51580.04
554.143	51490.1
554.507	51758.79
554.87	51752.92
555.234	52185.45
555.597	51984.33
555.96	52174.15
556.323	52297.09
556.686	52293.92
557.05	52660.92
557.413	52820.91
557.776	52834.25
558.139	53068.59
558.502	53067.69
558.865	53184.97
559.228	53367.11
559.59	53372.31
559.953	53482.36
560.316	53857.27
560.679	53795.8
561.041	54097.26
561.404	54204.38
561.767	54443.24
562.129	54273.3
562.492	54673.97
562.854	54661.54
563.217	54747.87
563.579	54737.25
563.941	55013.4
564.304	55144.02
564.666	55287.74
565.028	55319.83
565.39	55385.82
565.753	55610.22
566.115	55722.98
566.477	55767.73
566.839	55907.84
567.201	56018.34
567.563	56050.66
567.925	56339.01
568.287	56273.25
568.648	56376.53
569.01	56552.11
569.372	56726.35
569.734	56633.02
570.095	56858.1
570.457	56978.54
570.819	57054.02
571.18	57046.79
571.542	57120.01
571.903	57206.56
572.265	57226
572.626	57293.56
572.987	57397.06
573.349	57457.18
573.71	57581.69
574.071	57626.21
574.432	57745.98
574.794	57914.79
575.155	57871.85
575.516	57877.05
575.877	57963.38
576.238	58031.62
576.599	58160.43
576.96	58082.92
577.32	58137.61
577.681	58221.68
578.042	58291.96
578.403	58316.36
578.763	58300.77
579.124	58341.9
579.485	58438.39
579.845	58510.48
580.206	58469.8
580.566	58493.08
580.927	58465.28
581.287	58561.1
581.648	58412.4
582.008	58641.78
582.368	58545.96
582.728	58542.8
583.089	58561.55
583.449	58606.07
583.809	58618.95
584.169	58684.04
584.529	58606.98
584.889	58920.41
585.249	58686.75
585.609	58633.42
585.969	58733.3
586.329	58705.73
586.688	58757.93
587.048	58698.5
587.408	58616.47
587.768	58684.26
588.127	58671.61
588.487	58608.33
588.846	58820.76
589.206	58623.25
589.565	58662.34
589.925	58739.18
590.284	58655.56
590.643	58718.39
591.003	58777.59
591.362	58833.86
591.721	58733.3
592.08	58698.72
592.44	58873.18
592.799	58757.48
593.158	58766.97
593.517	58713.87
593.876	58796.35
594.235	58777.82
594.593	58759.06
594.952	58902.11
595.311	58708.89
595.67	58891.26
596.029	58994.54
596.387	58941.43
596.746	58941.43
597.104	58792.28
597.463	58885.61
597.822	58980.53
598.18	58851.26
598.538	58814.43
598.897	58949.57
599.255	58868.44
599.613	59199.5
599.972	59012.62
600.33	59040.41
600.688	58897.82
601.046	58958.15
601.404	59045.61
601.762	59061.65
602.12	59138.94
602.478	59160.18
602.836	59129.45
603.194	59070.47
603.552	59126.06
603.91	59027.53
604.268	59155.89
604.625	59054.87
604.983	59244.93
605.341	59073.18
605.698	59231.37
606.056	59348.88
606.413	59295.09
606.771	59321.31
607.128	59331.48
607.485	59205.83
607.843	59269.33
608.2	59319.95
608.557	59390.46
608.914	59253.96
609.272	59388.65
609.629	59447.41
609.986	59550.68
610.343	59442.89
610.7	59657.8
611.057	59633.62
611.414	59517.01
611.771	59547.74
612.127	59717.91
612.484	59621.41
612.841	59730.56
613.198	59713.39
613.554	59658.47
613.911	59736.44
614.267	59725.59
614.624	59799.71
614.98	59803.1
615.337	59873.16
615.693	59877
616.05	59822.99
616.406	59959.93
616.762	59827.28
617.118	59867.96
617.475	59868.86
617.831	59940.05
618.187	59925.81
618.543	59961.29
618.899	60078.35
619.255	59992.7
619.611	59939.14
619.967	60045.81
620.323	60118.35
620.678	59999.71
621.034	59918.58
621.39	59889.65
621.746	59956.54
622.101	60178.91
622.457	59910.22
622.812	59919.71
623.168	59999.71
623.523	60004.45
623.879	60012.14
624.234	59901.86
624.589	59961.97
624.945	59890.78
625.3	59956.77
625.655	59948.18
626.01	60020.27
626.365	59979.37
626.72	60031.12
627.075	59915.87
627.43	59897.79
627.785	59850.79
628.14	59887.39
628.495	59901.41
628.85	59922.42
629.205	59852.14
629.559	59988.41
629.914	59798.36
630.269	59833.84
630.623	59698.25
630.978	59675.65
631.332	59794.97
631.687	59793.16
632.041	59617.8
632.396	59709.77
632.75	59683.78
633.104	59653.5
633.459	59527.4
633.813	59512.04
634.167	59522.66
634.521	59465.03
634.875	59535.31
635.229	59409.44
635.583	59323.79
635.937	59304.81
636.291	59272.27
636.645	59272.5
636.999	59216.68
637.352	59183.46
637.706	59046.06
638.06	59129.22
638.413	59060.75
638.767	58960.19
639.121	59011.94
639.474	58879.06
639.828	58918.83
640.181	58879.29
640.534	58870.47
640.888	58889.91
641.241	58721.1
641.594	58733.07
641.947	58765.84
642.301	58671.16
642.654	58677.71
643.007	58694.88
643.36	58649.23
643.713	58640.42
644.066	58664.6
644.419	58380.32
644.771	58197.04
645.124	57845.64
645.477	57822.82
645.83	57720.45
646.182	57696.94
646.535	57600.9
646.888	57756.15
647.24	57709.37
647.593	57912.53
647.945	57815.36
648.298	57661.92
648.65	57608.13
649.002	57501.92
649.355	57539.89
649.707	57445.2
650.059	57462.37
650.411	57676.15
650.763	57745.98
651.115	57985.3
651.467	57908.01
651.819	57855.81
652.171	57823.72
652.523	57831.4
652.875	57777.62
653.227	57680.67
653.578	57829.82
653.93	57754.57
654.282	57554.8
654.633	57541.69
654.985	57611.97
655.337	57602.48
655.688	57557.51
656.039	57564.29
656.391	57365.2
656.742	57466.89
657.094	57441.36
657.445	57560.9
657.796	57415.82
658.147	57353
658.498	57326.33
658.849	57364.52
659.2	57341.47
659.551	57278.2
659.902	57347.12
660.253	57221.48
660.604	57224.87
660.955	57168.6
661.306	57234.13
661.656	57183.74
662.007	57145.55
662.358	57082.27
662.708	57096.73
663.059	57087.69
663.409	56972.67
663.76	57088.15
664.11	57084.76
664.461	57094.93
664.811	57090.63
665.161	57010.18
665.511	56936.51
665.862	56945.78
666.212	57006.11
666.562	56967.02
666.912	56924.08
667.262	56872.11
667.612	56831.43
667.962	56848.15
668.312	56790.53
668.662	56904.42
669.011	56745.33
669.361	56762.05
669.711	56706.91
670.06	56648.16
670.41	56635.73
670.76	56546.01
671.109	56666.91
671.459	56591.21
671.808	56539.01
672.157	56643.86
672.507	56402.97
672.856	56471.89
673.205	56441.84
673.554	56591.89
673.904	56449.74
674.253	56619.91
674.602	56476.86
674.951	56115.06
675.3	55939.02
675.649	56292.46
675.998	56317.54
676.346	56310.77
676.695	56386.7
677.044	56114.84
677.393	56167.27
677.741	56128.85
678.09	56017.44
678.438	56017.67
678.787	56079.81
679.135	56041.85
679.484	55927.05
679.832	55896.09
680.181	55781.97
680.529	55762.08
680.877	55693.61
681.225	55672.36
681.573	55798.91
681.922	55636.66
682.27	55479.6
682.618	55545.59
682.966	55496.32
683.314	55535.87
683.661	55472.14
684.009	55345.37
684.357	55251.81
684.705	55160.51
685.053	55208.87
685.4	55207.07
685.748	55084.13
686.095	55001.2
686.443	54889.79
686.79	54860.63
687.138	54951.25
687.485	54911.03
687.832	54755.78
688.18	54780.64
688.527	54623.8
688.874	54552.17
689.221	54491.6
689.568	54420.42
689.915	54338.84
690.262	54323.02
690.609	54254.32
690.956	54073.54
691.303	54117.83
691.65	53982.92
691.997	53961.9
692.344	53657.28
692.69	53671.96
693.037	53761.45
693.383	53459.09
693.73	53554.68
694.077	53255.25
694.423	53336.83
694.769	53180
695.116	53125.99
695.462	52970.97
695.808	52912.44
696.155	52990.17
696.501	52757.41
696.847	52789.5
697.193	52572.78
697.539	52663.18
697.885	52405.56
698.231	52344.32
698.577	52341.83
698.923	52289.85
699.269	52130.54
699.614	51929.19
699.96	51887.15
700.306	51876.76
700.651	51704.78
700.997	51690.32
701.342	51578.23
701.688	51637.67
702.033	51491.46
702.379	51403.1
702.724	51298.24
703.069	51392.02
703.415	50931.7
703.76	50906.61
704.105	50907.52
704.45	50801.98
704.795	50573.51
705.14	50649.45
705.485	50455.55
705.83	50390.02
706.175	50317.02
706.52	50203.58
706.865	50114.09
707.209	50092.85
707.554	49982.57
707.899	50046.07
708.243	49764.95
708.588	49771.28
708.932	49451.74
709.277	49479.31
709.621	49475.01
709.966	49178.3
710.31	49404.05
710.654	48990.51
710.998	48990.05
711.342	48947.34
711.687	48749.16
712.031	48802.49
712.375	48467.13
712.719	48708.93
713.063	48481.37
713.407	48605.43
713.75	48437.53
714.094	48253.58
714.438	48161.83
714.782	48119.57
715.125	48068.95
715.469	48019.91
715.812	47717.54
716.156	47472.58
716.499	47438.91
716.843	47565.01
717.186	47201.85
717.53	47539.7
717.873	47351.45
718.216	47256.31
718.559	47177.9
718.902	46881.41
719.246	47005.93
719.589	46840.51
719.932	46701.53
720.275	46584.69
720.617	46610.23
720.96	46493.4
721.303	46521.19
721.646	46560.29
721.989	46164.59
722.331	46179.51
722.674	46040.3
723.016	46135.44
723.359	46013.18
723.701	46041.66
724.044	45701.33
724.386	45541.33
724.729	45818.61
725.071	45504.95
725.413	45417.94
725.755	45425.63
726.097	45374.1
726.439	44961.23
726.782	45144.28
727.124	45436.93
727.465	45118.97
727.807	44954.91
728.149	44977.28
728.491	44843.95
728.833	44815.93
729.175	44731.41
729.516	44626.55
729.858	44605.08
730.199	44527.12
730.541	44340.46
730.882	44381.81
731.224	44315.37
731.565	44103.18
731.906	44023.4
732.248	44075.15
732.589	43739.8
732.93	43656.41
733.271	43785.44
733.612	43756.52
733.953	43692.79
734.294	43522.85
734.635	43432.69
734.976	43575.05
735.317	43322.86
735.658	43372.12
735.999	43146.37
736.339	43058.23
736.68	43205.8
737.021	43118.12
737.361	42784.79
737.702	43139.36
738.042	42940.95
738.383	42690.56
738.723	42926.26
739.063	42677.45
739.404	42651.24
739.744	42524.46
740.084	42448.76
740.424	42408.53
740.764	42265.26
741.104	42426.61
741.444	42257.8
741.784	42169.44
742.124	42176
742.464	41924.7
742.804	41889.45
743.143	41868.88
743.483	41804.48
743.823	41637.7
744.162	41557.48
744.502	41521.55
744.841	41356.36
745.181	41595.9
745.52	41141.67
745.86	41231.39
746.199	41131.96
746.538	41057.61
746.877	41102.8
747.216	40995.69
747.556	40915.69
747.895	40995.24
748.234	40715.24
748.573	40671.63
748.911	40517.73
749.25	40493.1
749.589	40387.12
749.928	40385.99
750.267	40406.1
750.605	39984.87
750.944	40120.68
751.283	39883.4
751.621	40018.99
751.96	39745.1
752.298	39780.13
752.636	39821.03
752.975	39531.09
753.313	39338.56
753.651	39625.1
753.989	39407.03
754.327	39185.34
754.666	39058.34
755.004	39011.56
755.342	39002.52
755.679	38851.79
756.017	38636.88
756.355	38859.47
756.693	38520.05
757.031	38468.97
757.368	38395.76
757.706	38254.29
758.044	38170.45
758.381	38068.76
758.719	37923.45
759.056	37926.62
759.394	37716.23
759.731	37571.82
760.068	37445.05
760.405	37325.5
760.743	37250.7
761.08	37411.38
761.417	37057.03
761.754	36966.42
762.091	36907.66
762.428	36883.25
762.765	36561.23
763.102	36681.68
763.438	36516.71
763.775	36143.16
764.112	36113.1
764.449	36129.15
764.785	35851.42
765.122	35657.97
765.458	35562.84
765.795	35532.1
766.131	35518.77
766.467	35476.06
766.804	35111.55
767.14	35076.3
767.476	35069.29
767.812	34820.71
768.148	34975.73
768.485	34722.18
768.821	34406.48
769.157	34411
769.492	34273.38
769.828	34247.62
770.164	34061.41
770.5	33808.98
770.836	33918.36
771.171	33677.01
771.507	33607.41
771.842	33309.79
772.178	33369.45
772.513	33324.48
772.849	33095.33
773.184	33014.2
773.519	33003.58
773.855	32758.16
774.19	32688.79
774.525	32517.27
774.86	32407.44
775.195	32280.21
775.53	32262.58
775.865	31951.86
776.2	31624.86
776.535	31647.46
776.87	31510.74
777.205	31383.51
777.539	31237.53
777.874	31266.9
778.209	31117.3
778.543	30883.19
778.878	30684.09
779.212	30674.83
779.547	30453.82
779.881	30596.41
780.215	30230.09
780.55	30317.55
780.884	30013.38
781.218	29878.24
781.552	29929.76
781.886	29674.86
782.22	29707.85
782.554	29419.95
782.888	29167.52
783.222	29092.27
783.556	29019.05
783.889	28925.95
784.223	28726.63
784.557	28840.98
784.89	28722.56
785.224	28514.89
785.557	28425.17
785.891	28286.42
786.224	28258.62
786.558	28253.88
786.891	28026.54
787.224	27989.93
787.557	27909.48
787.891	27924.62
788.224	27868.8
788.557	27826.09
788.89	27504.06
789.223	27377.51
789.556	27260.91
789.888	27152.89
790.221	27026.56
790.554	26931.42
790.887	26983.4
791.219	26847.13
791.552	26752.45
791.884	26498.89
792.217	26489.85
792.549	26316.07
792.882	26149.98
793.214	26083.99
793.546	26158.11
793.879	25903.2
794.211	25841.74
794.543	25876.76
794.875	25760.83
795.207	25791.79
795.539	25497.79
795.871	25495.76
796.203	25312.26
796.535	25110.91
796.867	24993.62
797.198	25017.8
797.53	25013.06
797.862	24881.76
798.193	24903.46
798.525	24749.79
798.856	24832.04
799.188	24482.68
799.519	24433.64
799.85	24401.1
800.182	24435.67
800.513	24383.7
800.844	24077.49
801.175	24353.41
801.506	24192.51
801.837	24064.83
802.168	24075.45
802.499	23838.85
802.83	23700.55
803.161	23641.79
803.491	23638.86
803.822	23530.84
804.153	23391.63
804.483	23197.96
804.814	23094.46
805.145	23156.38
805.475	23049.49
805.805	22967.01
806.136	22984.86
806.466	22923.85
806.796	22889.72
807.126	22583.29
807.457	22541.03
807.787	22551.65
808.117	22511.2
808.447	22267.14
808.777	22354.82
809.107	22248.16
809.436	22171.32
809.766	22223.07
810.096	21997.32
810.426	21923.87
810.755	21929.75
811.085	21898.56
811.414	21833.93
811.744	21717.32
812.073	21656.31
812.403	21692.92
812.732	21470.1
813.061	21561.62
813.39	21429.87
813.719	21390.78
814.049	21473.04
814.378	21298.35
814.707	21197.79
815.036	21187.39
815.365	21026.72
815.693	20857.46
816.022	21032.14
816.351	20796.9
816.68	20858.82
817.008	20798.03
817.337	20648.65
817.665	20671.02
817.994	20604.81
818.322	20600.97
818.651	20435.78
818.979	20445.27
819.307	20422.22
819.636	20440.75
819.964	20183.58
820.292	20293.18
820.62	20223.8
820.948	20224.03
821.276	20316.91
821.604	20162.79
821.932	20134.32
822.259	20160.53
822.587	20181.32
822.915	20113.07
823.243	20121.89
823.57	20100.64
823.898	20142
824.225	19956.69
824.553	19936.81
824.88	20016.58
825.207	20043.7
825.535	19945.17
825.862	20016.13
826.189	19908.78
826.516	19999.4
826.843	20112.62
827.17	19989.69
827.497	19977.26
827.824	19929.57
828.151	19947.43
828.478	19960.53
828.805	19997.37
829.131	19894.1
829.458	19794.89
829.785	19673.31
830.111	19865.85
830.438	19959.63
830.764	19954.21
831.09	19883.47
831.417	19783.36
831.743	19853.87
832.069	19880.99
832.395	19723.7
832.722	19786.08
833.048	19591.96
833.374	19793.31
833.7	19694.1
834.026	19727.77
834.351	19799.41
834.677	19764.61
835.003	19751.05
835.329	19732.74
835.654	19796.7
835.98	19619.53
836.306	19610.04
836.631	19532.52
836.956	19543.6
837.282	19645.51
837.607	19510.38
837.932	19430.83
838.258	19534.56
838.583	19432.41
838.908	19422.47
839.233	19363.49
839.558	19250.27
839.883	19105.64
840.208	19098.18
840.533	19105.64
840.858	19181.35
841.182	19186.32
841.507	19118.97
841.832	18975.93
842.156	18939.54
842.481	18969.37
842.805	18820.45
843.13	18831.3
843.454	18822.94
843.778	18734.35
844.103	18739.1
844.427	18742.04
844.751	18782.49
845.075	18706.33
845.399	18505.66
845.723	18477.18
846.047	18475.38
846.371	18349.28
846.695	18377.53
847.019	18242.39
847.343	18165.1
847.666	17975.28
847.99	17981.83
848.313	18015.5
848.637	17825
848.96	17919.46
849.284	17733.93
849.607	17692.8
849.931	17496.64
850.254	17437.66
850.577	17398.57
850.9	17261.4
851.223	17292.81
851.546	17252.13
851.869	17098.24
852.192	17239.7
852.515	17061.85
852.838	16931.01
853.161	16952.93
853.483	16892.82
853.806	16803.1
854.129	16841.07
854.451	16656.67
854.774	16567.86
855.096	16554.52
855.419	16551.58
855.741	16476.33
856.063	16397.46
856.385	16360.4
856.708	16325.83
857.03	16258.94
857.352	16187.53
857.674	16129.9
857.996	16086.74
858.318	15841.77
858.64	15955.44
858.961	15842.9
859.283	15767.65
859.605	15713.19
859.926	15875.44
860.248	15845.39
860.57	15732.62
860.891	15811.72
861.212	15663.7
861.534	15647.88
861.855	15706.64
862.176	15680.2
862.498	15702.57
862.819	15641.55
863.14	15604.94
863.461	15589.8
863.782	15471.84
864.103	15541.67
864.424	15405.17
864.745	15310.26
865.065	15302.35
865.386	15233.65
865.707	15334.89
866.027	15302.58
866.348	15335.8
866.668	15269.81
866.989	15145.97
867.309	15128.35
867.63	15052.41
867.95	15072.3
868.27	15023.49
868.59	15033.21
868.91	15086.54
869.23	15030.49
869.55	14976.94
869.87	15074.56
870.19	14980.78
870.51	15044.51
870.83	15040.44
871.15	14882.93
871.469	14828.47
871.789	14938.29
872.109	14842.93
872.428	14708.7
872.748	14791.86
873.067	14767
873.386	14807.45
873.706	14723.84
874.025	14669.37
874.344	14605.42
874.663	14721.58
874.982	14661.01
875.301	14735.59
875.62	14643.16
875.939	14632.31
876.258	14632.76
876.577	14512.54
876.896	14488.59
877.214	14502.37
877.533	14527.01
877.852	14478.19
878.17	14486.78
878.489	14466.22
878.807	14424.63
879.125	14362.94
879.444	14360.91
879.762	14284.53
880.08	14320.68
880.398	14275.71
880.716	14307.8
881.034	14150.74
881.352	14157.07
881.67	14147.58
881.988	14180.8
882.306	14169.73
882.624	14091.31
882.941	13997.3
883.259	13953.46
883.577	13967.25
883.894	14020.58
884.212	14013.12
884.529	13876.4
884.846	13969.51
885.164	13896.06
885.481	13783.52
885.798	13834.14
886.115	13700.13
886.432	13756.18
886.75	13729.06
887.067	13746.46
887.383	13700.36
887.7	13663.3
888.017	13624.66
888.334	13577.88
888.651	13531.33
888.967	13415.17
889.284	13461.04
889.6	13425.57
889.917	13277.09
890.233	13436.86
890.55	13301.27
890.866	13338.79
891.182	13291.56
891.498	13271.67
891.815	13204.78
892.131	13118.45
892.447	13082.98
892.763	12989.42
893.079	13050.89
893.395	12989.87
893.71	12980.38
894.026	12929.31
894.342	12896.31
894.657	12809.08
894.973	12839.37
895.289	12758.24
895.604	12816.54
895.92	12616.55
896.235	12677.56
896.55	12626.72
896.865	12557.34
897.181	12534.74
897.496	12497.91
897.811	12410.9
898.126	12364.35
898.441	12376.55
898.756	12374.75
899.071	12306.27
899.386	12264.47
899.7	12201.64
900.015	12160.06
900.33	12078.03
900.644	12069.89
900.959	12097.92
901.273	12153.06
901.588	11941.99
901.902	11953.74
902.216	11981.99
902.531	11907.41
902.845	11904.02
903.159	11819.28
903.473	11804.59
903.787	11713.29
904.101	11610.7
904.415	11613.41
904.729	11560.53
905.042	11470.14
905.356	11493.41
905.67	11449.8
905.984	11474.88
906.297	11385.62
906.611	11261.78
906.924	11338.39
907.237	11158.51
907.551	11149.47
907.864	11144.04
908.177	11082.8
908.491	11051.62
908.804	11021.33
909.117	10909.93
909.43	10849.36
909.743	10812.07
910.056	10793.09
910.368	10843.94
910.681	10720.78
910.994	10724.17
911.307	10709.48
911.619	10662.02
911.932	10662.02
912.244	10594.91
912.557	10584.28
912.869	10520.78
913.181	10513.1
913.494	10470.39
913.806	10305.87
914.118	10253.22
914.43	10198.98
914.742	10301.35
915.054	10198.98
915.366	10142.04
915.678	10081.92
915.99	10051.19
916.302	9959.44
916.613	9933.91
916.925	9907.01
917.236	9928.03
917.548	9875.15
917.859	9825.66
918.171	9746.11
918.482	9684.87
918.794	9658.88
919.105	9648.94
919.416	9544.76
919.727	9557.64
920.038	9478.32
920.349	9452.56
920.66	9442.39
920.971	9462.05
921.282	9357.88
921.593	9297.09
921.903	9288.05
922.214	9304.77
922.525	9258.44
922.835	9198.56
923.146	9055.74
923.456	9181.16
923.767	9090.99
924.077	9016.64
924.387	8991.56
924.697	8969.41
925.008	8933.48
925.318	8887.61
925.628	8812.58
925.938	8792.24
926.248	8736.2
926.558	8728.97
926.867	8593.6
927.177	8570.78
927.487	8609.65
927.796	8502.08
928.106	8506.37
928.416	8415.08
928.725	8411.23
929.034	8355.42
929.344	8379.82
929.653	8404.45
929.962	8294.63
930.271	8211.92
930.581	8269.77
930.89	8241.52
931.199	8153.84
931.508	8139.6
931.817	8067.74
932.125	8094.41
932.434	8033.84
932.743	7952.26
933.051	8003.11
933.36	7908.2
933.669	7901.64
933.977	7851.25
934.286	7813.28
934.594	7799.05
934.902	7700.52
935.21	7730.35
935.519	7718.82
935.827	7662.78
936.135	7664.13
936.443	7573.29
936.751	7546.85
937.059	7491.26
937.367	7434.08
937.674	7406.74
937.982	7415.33
938.29	7337.82
938.597	7319.06
938.905	7252.62
939.213	7276.8
939.52	7220.08
939.827	7243.81
940.135	7198.16
940.442	7187.76
940.749	7143.47
941.056	7165.16
941.363	7053.53
941.67	6943.93
941.977	6991.84
942.284	6919.52
942.591	6913.65
942.898	6887.88
943.205	6869.58
943.511	6824.61
943.818	6828.68
944.125	6725.4
944.431	6735.35
944.738	6729.02
945.044	6698.28
945.35	6637.72
945.657	6696.93
945.963	6647.66
946.269	6567.21
946.575	6555.69
946.881	6506.2
947.187	6516.37
947.493	6506.2
947.799	6428.46
948.105	6407.22
948.41	6325.64
948.716	6337.39
949.022	6283.15
949.327	6303.27
949.633	6197.51
949.938	6244.28
950.244	6223.72
950.549	6173.55
950.854	6149.6
951.16	6124.51
951.465	6170.61
951.77	6053.78
952.075	6034.35
952.38	6003.16
952.685	6041.13
952.99	5971.52
953.294	5972.65
953.599	5943.05
953.904	5874.58
954.209	5850.17
954.513	5830.06
954.818	5823.05
955.122	5798.65
955.426	5754.35
955.731	5731.3
956.035	5730.4
956.339	5694.24
956.643	5669.16
956.948	5598.65
957.252	5598.65
957.556	5585.32
957.86	5536.06
958.163	5503.97
958.467	5516.39
958.771	5494.02
959.075	5449.73
959.378	5420.58
959.682	5415.61
959.985	5358.43
960.289	5333.35
960.592	5329.05
960.896	5359.56
961.199	5296.29
961.502	5249.28
961.805	5216.74
962.108	5204.31
962.411	5153.92
962.714	5131.32
963.017	5121.83
963.32	5180.36
963.623	5095.39
963.926	5073.69
964.228	5042.96
964.531	5028.05
964.833	5029.4
965.136	4966.58
965.438	4984.88
965.741	4935.17
966.043	4864.21
966.345	4916.41
966.648	4906.69
966.95	4865.56
967.252	4808.84
967.554	4818.33
967.856	4777.88
968.158	4776.75
968.46	4760.71
968.761	4745.12
969.063	4725.91
969.365	4721.39
969.666	4629.41
969.968	4659.24
970.269	4607.72
970.571	4635.29
970.872	4662.63
971.174	4534.73
971.475	4548.28
971.776	4553.26
972.077	4501.96
972.378	4480.26
972.679	4430.55
972.98	4477.1
973.281	4423.99
973.582	4448.4
973.883	4381.96
974.183	4353.26
974.484	4369.31
974.785	4310.55
975.085	4313.04
975.386	4286.37
975.686	4232.13
975.986	4228.74
976.287	4248.18
976.587	4241.17
976.887	4198.24
977.187	4171.8
977.487	4169.76
977.787	4162.08
978.087	4116.43
978.387	4107.17
978.687	4096.54
978.987	4091.57
979.286	4029.2
979.586	4011.8
979.885	3997.11
980.185	3944.23
980.484	3945.59
980.784	3973.61
981.083	3894.74
981.382	3930
981.682	3895.19
981.981	3874.63
982.28	3858.81
982.579	3861.97
982.878	3819.94
983.177	3795.31
983.475	3789.66
983.774	3752.83
984.073	3731.13
984.372	3694.52
984.67	3748.53
984.969	3676.67
985.267	3680.06
985.566	3666.05
985.864	3623.34
986.162	3630.12
986.461	3576.56
986.759	3534.98
987.057	3601.64
987.355	3535.43
987.653	3539.27
987.951	3519.84
988.249	3494.98
988.547	3503.11
988.844	3496.79
989.142	3443.45
989.44	3418.37
989.737	3420.4
990.035	3407.98
990.332	3404.13
990.63	3358.26
990.927	3371.59
991.224	3352.61
991.521	3344.47
991.819	3292.72
992.116	3301.54
992.413	3304.93
992.71	3249.56
993.006	3262.44
993.303	3228.32
993.6	3252.05
993.897	3187.87
994.193	3189.45
994.49	3185.61
994.787	3142.9
995.083	3142.67
995.379	3120.53
995.676	3099.28
995.972	3073.29
996.268	3090.7
996.565	3031.26
996.861	3000.08
997.157	3010.02
997.453	2983.81
997.749	2984.94
998.044	2974.31
998.34	2956.69
998.636	2942
998.932	2939.51
999.227	2903.81
999.523	2872.62
999.818	2864.03
1000.114	2879.85
1000.409	2815.45
1000.704	2811.38
1001	2839.85
1001.295	2783.13
1001.59	2793.08
1001.885	2789.23
1002.18	2776.35
1002.475	2747.43
1002.77	2674.44
1003.065	2696.36
1003.359	2695.23
1003.654	2694.55
1003.949	2667.2
1004.243	2644.83
1004.538	2616.58
1004.832	2645.06
1005.127	2578.62
1005.421	2560.09
1005.715	2550.14
1006.009	2570.71
1006.304	2525.29
1006.598	2507.66
1006.892	2500.65
1007.186	2465.85
1007.48	2492.07
1007.773	2456.36
1008.067	2432.86
1008.361	2396.93
1008.655	2442.13
1008.948	2383.82
1009.242	2419.98
1009.535	2377.95
1009.829	2363.26
1010.122	2368.68
1010.415	2352.86
1010.708	2309.02
1011.001	2349.7
1011.295	2282.13
1011.588	2294.56
1011.881	2259.98
1012.173	2263.15
1012.466	2266.08
1012.759	2218.85
1013.052	2230.61
1013.344	2217.05
1013.637	2194.22
1013.93	2202.81
1014.222	2130.27
1014.514	2151.51
1014.807	2154
1015.099	2106.09
1015.391	2080.78
1015.683	2080.55
1015.976	2086.43
1016.268	2065.86
1016.56	2078.52
1016.851	2045.98
1017.143	2001.46
1017.435	2036.26
1017.727	1976.37
1018.018	1972.53
1018.31	1968.69
1018.602	1917.39
1018.893	1925.98
1019.185	1918.3
1019.476	1907.9
1019.767	1912.2
1020.058	1892.31
1020.35	1879.2
1020.641	1829.71
1020.932	1814.57
1021.223	1823.84
1021.514	1829.03
1021.804	1801.46
1022.095	1815.47
1022.386	1777.96
1022.677	1784.52
1022.967	1750.84
1023.258	1736.83
1023.548	1754.01
1023.839	1709.26
1024.129	1713.56
1024.419	1656.61
1024.709	1650.51
1025	1677.17
1025.29	1662.03
1025.58	1660.9
1025.87	1604.18
1026.16	1619.77
1026.449	1637.85
1026.739	1605.76
1027.029	1595.37
1027.319	1596.05
1027.608	1553.33
1027.898	1544.3
1028.187	1544.52
1028.477	1538.42
1028.766	1535.93
1029.055	1488.25
1029.344	1499.78
1029.634	1501.58
1029.923	1466.11
1030.212	1487.57
1030.501	1449.38
1030.79	1421.36
1031.078	1467.24
1031.367	1437.18
1031.656	1433.34
1031.945	1403.06
1032.233	1400.12
1032.522	1397.86
1032.81	1390.85
1033.099	1361.7
1033.387	1365.09
1033.675	1344.98
1033.963	1357.41
1034.251	1315.38
1034.54	1327.13
1034.828	1318.09
1035.116	1295.71
1035.403	1298.88
1035.691	1294.36
1035.979	1235.83
1036.267	1272.89
1036.554	1243.51
1036.842	1243.74
1037.129	1224.08
1037.417	1227.69
1037.704	1230.41
1037.992	1214.36
1038.279	1206.9
1038.566	1195.6
1038.853	1195.6
1039.14	1195.6
