Data from foil_FLMS001491_078.txt Node
Date: Tue Feb 07 11:36:43 GMT 2017
User: dcchb
Spectrometer: FLMS00149
Trigger mode: 0
Integration Time (sec): 2.000000E-2
Scans to average: 10
Electric dark correction enabled: true
Nonlinearity correction enabled: false
Boxcar width: 0
XAxis mode: Wavelengths
Number of Pixels in Spectrum: 2048
>>>>>Begin Spectral Data<<<<<
341.393	-15.11
341.776	-15.11
342.16	-15.11
342.543	-64.15
342.927	-72.51
343.31	-73.87
343.693	-63.25
344.077	-58.5
344.46	-62.12
344.843	-39.74
345.226	-36.35
345.61	-50.82
345.993	-25.51
346.376	-4.49
346.759	-2.68
347.142	20.59
347.525	52.46
347.908	54.94
348.291	89.52
348.674	86.13
349.057	113.7
349.44	143.75
349.823	121.61
350.206	170.87
350.588	230.98
350.971	251.1
351.354	268.72
351.737	290.19
352.119	288.83
352.502	312.79
352.884	336.74
353.267	346.69
353.65	355.27
354.032	342.17
354.414	355.95
354.797	365.89
355.179	379.91
355.562	380.13
355.944	390.98
356.326	394.82
356.709	389.4
357.091	394.37
357.473	422.16
357.855	417.64
358.238	425.1
358.62	386.68
359.002	412.22
359.384	420.13
359.766	426.46
360.148	412.67
360.53	436.4
360.912	431.43
361.294	431.66
361.676	409.06
362.057	412.22
362.439	429.4
362.821	426.01
363.203	402.96
363.584	403.41
363.966	433.24
364.348	430.98
364.729	414.48
365.111	395.72
365.493	418.77
365.874	434.14
366.256	425.1
366.637	419.9
367.019	425.55
367.4	413.58
367.781	423.52
368.163	440.24
368.544	419
368.925	440.69
369.306	441.6
369.688	448.38
370.069	436.85
370.45	408.38
370.831	449.28
371.212	453.58
371.593	455.84
371.974	449.96
372.355	432.56
372.736	453.35
373.117	468.04
373.498	475.04
373.879	456.51
374.26	466.68
374.641	440.69
375.021	430.98
375.402	502.16
375.783	479.34
376.163	495.38
376.544	502.39
376.925	501.26
377.305	488.6
377.686	500.35
378.066	485.89
378.447	513.24
378.827	496.96
379.208	517.53
379.588	516.62
379.968	529.28
380.349	535.83
380.729	522.27
381.109	528.15
381.489	562.73
381.87	548.71
382.25	565.89
382.63	542.39
383.01	558.21
383.39	599.11
383.77	583.74
384.15	559.79
384.53	601.37
384.91	605.44
385.29	612.67
385.67	618.32
386.049	619
386.429	624.64
386.809	633.01
387.189	619
387.568	640.46
387.948	617.64
388.328	633.01
388.707	644.76
389.087	661.93
389.466	653.8
389.846	693.12
390.225	690.41
390.605	695.38
390.984	674.36
391.363	701.48
391.743	711.65
392.122	740.57
392.501	718.43
392.881	733.57
393.26	741.7
393.639	743.96
394.018	747.35
394.397	744.87
394.776	771.76
395.155	796.62
395.534	774.7
395.913	780.12
396.292	797.3
396.671	798.2
397.05	800.23
397.429	808.59
397.808	796.39
398.186	830.74
398.565	837.52
398.944	883.17
399.323	849.95
399.701	835.03
400.08	856.5
400.458	898.31
400.837	872.1
401.215	893.34
401.594	897.41
401.972	904.19
402.351	921.36
402.729	918.42
403.107	919.1
403.486	972.21
403.864	953.22
404.242	971.53
404.62	992.77
404.999	1015.14
405.377	1004.52
405.755	994.8
406.133	1003.39
406.511	1037.06
406.889	1057.18
407.267	1062.15
407.645	1055.59
408.023	1087.68
408.401	1101.47
408.779	1122.71
409.156	1139.43
409.534	1142.37
409.912	1152.99
410.29	1190.05
410.667	1196.83
411.045	1194.35
411.422	1224.4
411.8	1256.72
412.178	1229.37
412.555	1262.82
412.933	1287
413.31	1285.87
413.687	1301.24
414.065	1323.61
414.442	1355.92
414.819	1351.86
415.197	1356.83
415.574	1382.59
415.951	1429.6
416.328	1397.73
416.705	1423.72
417.082	1436.15
417.46	1451.52
417.837	1458.75
418.214	1502.36
418.591	1509.14
418.967	1536.49
419.344	1527.9
419.721	1568.35
420.098	1560.44
420.475	1579.42
420.852	1581
421.228	1622.58
421.605	1610.83
421.982	1612.19
422.358	1654.22
422.735	1646.99
423.111	1679.08
423.488	1719.08
423.864	1714.33
424.241	1690.38
424.617	1756.59
424.994	1752.3
425.37	1786.87
425.746	1777.16
426.123	1829.36
426.499	1845.63
426.875	1832.52
427.251	1906.87
427.627	1924.27
428.003	1906.87
428.379	1948.9
428.756	1969.69
429.132	2010.37
429.507	2033.2
429.883	2037.71
430.259	2089.46
430.635	2106.19
431.011	2120.2
431.387	2137.83
431.763	2220.31
432.138	2224.6
432.514	2253.98
432.89	2244.49
433.265	2284.71
433.641	2344.6
434.016	2350.47
434.392	2363.58
434.767	2443.81
435.143	2407.87
435.518	2458.95
435.894	2471.83
436.269	2500.53
436.644	2568.55
437.02	2565.16
437.395	2603.8
437.77	2611.26
438.145	2696.23
438.52	2697.36
438.895	2694.87
439.271	2703.46
439.646	2734.87
440.021	2764.48
440.395	2790.01
440.77	2797.69
441.145	2796.11
441.52	2859.16
441.895	2870.69
442.27	2878.82
442.645	2856.68
443.019	2928.09
443.394	2953.62
443.769	2972.15
444.143	2948.65
444.518	3023.23
444.892	3007.63
445.267	3055.99
445.641	3031.13
446.016	3107.07
446.39	3095.54
446.764	3144.35
447.139	3117.23
447.513	3144.8
447.887	3130.34
448.262	3176.89
448.636	3215.54
449.01	3266.84
449.384	3325.59
449.758	3266.38
450.132	3319.04
450.506	3385.7
450.88	3391.35
451.254	3378.02
451.628	3430.67
452.002	3485.36
452.376	3506.15
452.75	3567.84
453.123	3570.33
453.497	3626.83
453.871	3632.7
454.244	3706.6
454.618	3743.43
454.992	3762.42
455.365	3799.93
455.739	3869.31
456.112	3929.87
456.486	3968.29
456.859	4007.38
457.232	4068.62
457.606	4077.66
457.979	4124.44
458.352	4231.56
458.725	4252.12
459.099	4255.51
459.472	4394.26
459.845	4424.09
460.218	4455.96
460.591	4495.5
460.964	4519.91
461.337	4590.19
461.71	4676.06
462.083	4762.61
462.456	4789.73
462.829	4774.59
463.201	4873.12
463.574	4900.46
463.947	4960.12
464.32	5085.32
464.692	5085.32
465.065	5118.31
465.438	5208.93
465.81	5274.01
466.183	5311.98
466.555	5434.24
466.928	5433.11
467.3	5476.95
467.672	5521.69
468.045	5761.91
468.417	5712.19
468.789	5781.12
469.161	5903.15
469.534	5902.25
469.906	6028.57
470.278	6096.14
470.65	6110.83
471.022	6230.37
471.394	6345.85
471.766	6479.86
472.138	6518.05
472.51	6677.59
472.882	6703.58
473.253	6806.63
473.625	6867.42
473.997	7058.15
474.369	7055.89
474.74	7201.42
475.112	7312.83
475.484	7412.71
475.855	7586.5
476.227	7576.1
476.598	7815.19
476.97	7905.81
477.341	8005.02
477.713	8146.48
478.084	8270.77
478.455	8503.31
478.827	8499.01
479.198	8779.68
479.569	8748.5
479.94	8945.1
480.311	9104.65
480.682	9331.76
481.053	9545.99
481.424	9686.78
481.795	9678.87
482.166	9838.64
482.537	10015.36
482.908	10195.01
483.279	10311.4
483.65	10481.79
484.021	10686.3
484.391	10823.92
484.762	10952.28
485.133	11039.06
485.503	11170.36
485.874	11373.74
486.244	11526.28
486.615	11741.87
486.985	11879.49
487.356	12154.74
487.726	12164.91
488.097	12460.72
488.467	12417.33
488.837	12709.07
489.207	12806.7
489.578	12996.3
489.948	13238.1
490.318	13349.06
490.688	13446.91
491.058	13703.17
491.428	13766.45
491.798	13934.58
492.168	14153.33
492.538	14321.01
492.908	14433.1
493.278	14614.56
493.648	14605.07
494.017	14765.97
494.387	14932.52
494.757	15062.46
495.126	15258.84
495.496	15267.65
495.866	15330.25
496.235	15563.01
496.605	15692.72
496.974	15754.19
497.344	16012.94
497.713	16063.33
498.082	16177.91
498.452	16322.76
498.821	16390.11
499.19	16436.21
499.559	16688.63
499.928	16805.01
500.298	16907.61
500.667	17085.23
501.036	16996.19
501.405	17161.84
501.774	17270.76
502.143	17417.2
502.512	17527.03
502.88	17651.09
503.249	17646.8
503.618	17905.32
503.987	17875.49
504.356	18060.12
504.724	18168.36
505.093	18346.21
505.462	18351.41
505.83	18532.42
506.199	18642.48
506.567	18910.94
506.936	18958.63
507.304	19071.84
507.672	19253.08
508.041	19268.67
508.409	19359.97
508.777	19526.97
509.145	19751.37
509.514	19716.35
509.882	19820.75
510.25	19986.17
510.618	20164.47
510.986	20337.35
511.354	20437.91
511.722	20540.05
512.09	20770.33
512.458	20695.3
512.826	20874.06
513.193	21000.38
513.561	21157.66
513.929	21339.81
514.297	21513.36
514.664	21733.24
515.032	21887.81
515.4	21992.22
515.767	21975.04
516.135	22267.47
516.502	22177.75
516.869	22557.63
517.237	22680.56
517.604	22693.89
517.972	22977.05
518.339	23069.48
518.706	23088.91
519.073	23233.77
519.44	23450.94
519.808	23708.78
520.175	23768.44
520.542	24195.32
520.909	24224.02
521.276	24240.29
521.643	24520.97
522.009	24645.93
522.376	24805.7
522.743	24984
523.11	25183.77
523.477	25425.12
523.843	25614.27
524.21	25933.81
524.577	26021.26
524.943	26162.96
525.31	26387.13
525.676	26562.49
526.043	26814.69
526.409	26931.98
526.776	27147.34
527.142	27260.33
527.508	27535.12
527.874	27584.61
528.241	27743.93
528.607	27756.59
528.973	28142.11
529.339	28255.1
529.705	28488.09
530.071	28699.16
530.437	28818.71
530.803	28880.85
531.169	29160.39
531.535	29061.19
531.901	29244.23
532.267	29462.08
532.632	29733.03
532.998	29681.06
533.364	30037.2
533.73	30081.27
534.095	30239.69
534.461	30356.97
534.826	30455.27
535.192	30632.9
535.557	30844.64
535.923	30869.95
536.288	30984.07
536.653	31215.93
537.019	31196.72
537.384	31333.44
537.749	31584.96
538.114	31525.75
538.479	31647.56
538.845	31826.08
539.21	31672.64
539.575	31925.29
539.94	32054.78
540.305	32226.3
540.67	32145.85
541.034	32410.25
541.399	32644.37
541.764	32654.76
542.129	32801.43
542.494	32929.11
542.858	33121.64
543.223	33106.95
543.587	33313.5
543.952	33209.32
544.316	33467.62
544.681	33385.14
545.045	33674.62
545.41	33868.52
545.774	33917.1
546.138	33966.59
546.503	34049.75
546.867	34006.14
547.231	34409.52
547.595	34459.91
547.959	34618.33
548.324	34664.43
548.688	34692.9
549.052	34779
549.416	35051.31
549.779	35050.41
550.143	35097.64
550.507	35469.83
550.871	35488.81
551.235	35618.07
551.599	35825.75
551.962	35981.46
552.326	36014
552.689	36211.28
553.053	36058.06
553.417	36220.09
553.78	36758.84
554.143	36460.54
554.507	36752.06
554.87	36894.43
555.234	37279.5
555.597	37224.13
555.96	37271.59
556.323	37486.5
556.686	37714.52
557.05	37749.77
557.413	37939.82
557.776	38039.71
558.139	38192.02
558.502	38302.75
558.865	38493.03
559.228	38704.32
559.59	38999.45
559.953	39001.04
560.316	39327.36
560.679	39412.78
561.041	39616.84
561.404	39821.35
561.767	39884.4
562.129	39952.2
562.492	40345.63
562.854	40299.08
563.217	40398.51
563.579	40628.79
563.941	40914.43
564.304	41082.79
564.666	41309.68
565.028	41400.07
565.39	41698.37
565.753	41784.92
566.115	41925.03
566.477	42041.86
566.839	42131.8
567.201	42434.84
567.563	42546.93
567.925	42782.63
568.287	42821.28
568.648	42916.64
569.01	43036.86
569.372	43456.51
569.734	43162.96
570.095	43540.58
570.457	43694.7
570.819	43840.91
571.18	43847.24
571.542	44118.87
571.903	44070.06
572.265	44340.56
572.626	44429.37
572.987	44452.42
573.349	44486.54
573.71	44725.41
574.071	44803.14
574.432	45038.84
574.794	45313.87
575.155	45183.02
575.516	45237.03
575.877	45338.95
576.238	45428.89
576.599	45524.71
576.96	45671.37
577.32	45662.33
577.681	45771.48
578.042	45912.72
578.403	45819.84
578.763	45843.34
579.124	45990.01
579.485	46135.09
579.845	46285.36
580.206	46227.74
580.566	46252.37
580.927	46143.9
581.287	46398.81
581.648	46297.12
582.008	46428.64
582.368	46444.46
582.728	46395.64
583.089	46463.67
583.449	46446.94
583.809	46476.32
584.169	46627.05
584.529	46576.2
584.889	46807.16
585.249	46482.65
585.609	46515.87
585.969	46570.1
586.329	46552.7
586.688	46645.13
587.048	46592.7
587.408	46668.86
587.768	46503.21
588.127	46506.83
588.487	46474.51
588.846	46785.24
589.206	46532.36
589.565	46552.48
589.925	46706.14
590.284	46560.16
590.643	46757.67
591.003	46693.72
591.362	46875.86
591.721	46658.01
592.08	46699.14
592.44	46863.88
592.799	46796.54
593.158	46716.31
593.517	46742.53
593.876	46695.07
594.235	46775.75
594.593	46839.47
594.952	46820.94
595.311	46738.23
595.67	46802.87
596.029	46991.34
596.387	46971.9
596.746	47002.18
597.104	46956.31
597.463	46841.96
597.822	47009.41
598.18	47033.14
598.538	46973.26
598.897	47227.49
599.255	46842.41
599.613	47419.12
599.972	46938.91
600.33	47141.61
600.688	46942.75
601.046	47188.39
601.404	47246.02
601.762	47275.85
602.12	47397.88
602.478	47330.54
602.836	47403.75
603.194	47160.37
603.552	47283.3
603.91	47212.35
604.268	47458.67
604.625	47341.16
604.983	47379.35
605.341	47257.77
605.698	47583.41
606.056	47536.41
606.413	47561.04
606.771	47744.99
607.128	47728.94
607.485	47431.78
607.843	47664.09
608.2	47790.86
608.557	47911.99
608.914	47727.59
609.272	47942.27
609.629	47996.51
609.986	48125.54
610.343	47846.45
610.7	48295.71
611.057	48087.58
611.414	48056.84
611.771	48102.49
612.127	48298.42
612.484	48198.08
612.841	48318.08
613.198	48151.76
613.554	48109.5
613.911	48450.05
614.267	48509.94
614.624	48271.08
614.98	48446.66
615.337	48514.91
615.693	48452.09
616.05	48494.57
616.406	48550.84
616.762	48611.41
617.118	48551.07
617.475	48444.86
617.831	48727.11
618.187	48726.43
618.543	48589.03
618.899	48920.78
619.255	48700.44
619.611	48703.15
619.967	48877.16
620.323	48858.18
620.678	48786.54
621.034	48799.42
621.39	48717.39
621.746	48804.17
622.101	49052.98
622.457	48725.3
622.812	48750.61
623.168	48871.51
623.523	48811.17
623.879	48952.41
624.234	48820.67
624.589	48926.43
624.945	48878.74
625.3	48838.74
625.655	48774.79
626.01	48691.18
626.365	48858.4
626.72	48781.34
627.075	48775.47
627.43	48847.33
627.785	48695.02
628.14	48780.21
628.495	48747.9
628.85	48705.64
629.205	48567.11
629.559	48703.38
629.914	48547.45
630.269	48612.31
630.623	48431.07
630.978	48367.34
631.332	48606.66
631.687	48549.94
632.041	48356.95
632.396	48384.74
632.75	48376.61
633.104	48372.54
633.459	48287.8
633.813	48167.8
634.167	48140.91
634.521	48191.98
634.875	48155.82
635.229	48014.36
635.583	47841.93
635.937	47874.7
636.291	47786.34
636.645	47771.2
636.999	47607.59
637.352	47701.6
637.706	47458.67
638.06	47560.36
638.413	47459.8
638.767	47396.07
639.121	47518.1
639.474	47329.41
639.828	47320.82
640.181	47402.62
640.534	47235.62
640.888	47068.4
641.241	47061.16
641.594	46926.7
641.947	47119.02
642.301	47003.09
642.654	47008.28
643.007	46806.03
643.36	46816.65
643.713	46855.29
644.066	46931.45
644.419	46439.26
644.771	46058.48
645.124	45658.71
645.477	45626.17
645.83	45340.08
646.182	45410.81
646.535	45448.1
646.888	45580.98
647.24	45313.41
647.593	45656.45
647.945	45358.61
648.298	45272.28
648.65	45179.63
649.002	45092.4
649.355	45198.16
649.707	44989.58
650.059	45022.35
650.411	45387.54
650.763	45479.74
651.115	45916.79
651.467	45672.73
651.819	45580.52
652.171	45606.06
652.523	45445.16
652.875	45528.77
653.227	45199.29
653.578	45672.73
653.93	45593.63
654.282	45330.81
654.633	45233.64
654.985	45281.78
655.337	45455.56
655.688	45225.51
656.039	45477.7
656.391	45043.36
656.742	45085.4
657.094	45055.11
657.445	45244.71
657.796	44941.22
658.147	44900.99
658.498	44865.97
658.849	45000.88
659.2	44604.51
659.551	44763.6
659.902	44961.33
660.253	44744.84
660.604	44837.95
660.955	44596.37
661.306	44747.55
661.656	44527.45
662.007	44543.94
662.358	44554.11
662.708	44453.55
663.059	44407
663.409	44214.91
663.76	44504.39
664.11	44500.55
664.461	44403.38
664.811	44546.65
665.161	44358.41
665.511	44308.02
665.862	44168.36
666.212	44341.01
666.562	44422.36
666.912	44256.49
667.262	44272.54
667.612	44106.21
667.962	44279.32
668.312	43938.53
668.662	44202.93
669.011	44101.92
669.361	44066.67
669.711	44100.56
670.06	43973.56
670.41	43917.74
670.76	43936.05
671.109	43975.6
671.459	43743.74
671.808	43695.6
672.157	43880.91
672.507	43592.33
672.856	43555.72
673.205	43529.28
673.554	43611.08
673.904	43522.73
674.253	43768.82
674.602	43550.07
674.951	43060.36
675.3	42803.2
675.649	43435.95
675.998	43350.75
676.346	43375.61
676.695	43516.85
677.044	43113.24
677.393	43316.63
677.741	43268.95
678.09	42920.71
678.438	42997.32
678.787	43048.61
679.135	42920.03
679.484	42781.73
679.832	42998.45
680.181	42763.2
680.529	42826.25
680.877	42733.37
681.225	42654.5
681.573	42835.96
681.922	42485.69
682.27	42404.79
682.618	42482.98
682.966	42494.05
683.314	42273.04
683.661	42184.46
684.009	41962.54
684.357	42019.26
684.705	41967.06
685.053	42106.27
685.4	41825.6
685.748	41596.67
686.095	41822.88
686.443	41495.21
686.79	41438.71
687.138	41491.82
687.485	41494.08
687.832	41289.34
688.18	41290.47
688.527	41080.76
688.874	41116.01
689.221	40908.11
689.568	40755.11
689.915	40516.7
690.262	40573.88
690.609	40495.01
690.956	40433.54
691.303	40276.26
691.65	40108.8
691.997	40132.53
692.344	39817.29
692.69	39854.8
693.037	39924.63
693.383	39588.37
693.73	39780.23
694.077	39340.01
694.423	39394.47
694.769	39327.13
695.116	39129.17
695.462	39118.77
695.808	38911.77
696.155	39177.53
696.501	38697.54
696.847	38625.91
697.193	38453.03
697.539	38556.75
697.885	38365.35
698.231	38352.69
698.577	38234.5
698.923	38028.18
699.269	37852.37
699.614	37769.88
699.96	37646.27
700.306	37810.56
700.651	37460.29
700.997	37338.93
701.342	37330.12
701.688	37278.37
702.033	37132.16
702.379	37094.87
702.724	37085.38
703.069	36975.33
703.415	36551.38
703.76	36671.15
704.105	36601.1
704.45	36489.24
704.795	36266.65
705.14	36235.69
705.485	36283.14
705.83	36135.58
706.175	36037.95
706.52	35962.02
706.865	35770.39
707.209	35712.99
707.554	35663.27
707.899	35791.86
708.243	35485.65
708.588	35467.57
708.932	35118.2
709.277	35244.07
709.621	35159.1
709.966	34933.57
710.31	35041.82
710.654	34595.73
710.998	34881.6
711.342	34741.04
711.687	34483.19
712.031	34453.13
712.375	34325.91
712.719	34219.02
713.063	34328.17
713.407	34327.26
713.75	34126.81
714.094	34004.78
714.438	34062.41
714.782	34092.24
715.125	33729.31
715.469	33861.06
715.812	33695.41
716.156	33446.83
716.499	33590.78
716.843	33440.73
717.186	33171.36
717.53	33399.6
717.873	33332.71
718.216	33231.02
718.559	33144.47
718.902	32818.83
719.246	32985.38
719.589	32842.1
719.932	32744.7
720.275	32791.71
720.617	32634.42
720.96	32664.93
721.303	32658.15
721.646	32612.28
721.989	32381.55
722.331	32503.81
722.674	32409.8
723.016	32456.35
723.359	32309.69
723.701	32242.8
724.044	32024.95
724.386	31859.76
724.729	32022.46
725.071	31998.28
725.413	31769.59
725.755	31746.54
726.097	31715.58
726.439	31539.09
726.782	31622.47
727.124	31750.61
727.465	31374.57
727.807	31470.61
728.149	31374.8
728.491	31309.71
728.833	31291.63
729.175	31185.65
729.516	31130.96
729.858	31067.01
730.199	31029.72
730.541	30983.39
730.882	30917.41
731.224	31068.82
731.565	30845.54
731.906	30833.34
732.248	30705.89
732.589	30582.73
732.93	30455.05
733.271	30530.98
733.612	30521.94
733.953	30525.78
734.294	30486.23
734.635	30309.51
734.976	30438.55
735.317	30277.2
735.658	30241.27
735.999	30220.02
736.339	30032.68
736.68	30124.21
737.021	29965.12
737.361	29920.15
737.702	30085.11
738.042	29828.17
738.383	29850.54
738.723	29909.52
739.063	29666.59
739.404	29758.34
739.744	29811.67
740.084	29420.5
740.424	29553.6
740.764	29538.23
741.104	29662.75
741.444	29342.76
741.784	29260.73
742.124	29197.9
742.464	29154.06
742.804	29089.66
743.143	29150.9
743.483	29092.82
743.823	28940.74
744.162	28840.85
744.502	28890.12
744.841	28709.78
745.181	28868.2
745.52	28611.71
745.86	28812.83
746.199	28587.07
746.538	28576.23
746.877	28579.16
747.216	28436.12
747.556	28391.37
747.895	28332.39
748.234	28388.43
748.573	28267.31
748.911	28162.23
749.25	28159.74
749.589	27980.54
749.928	28044.26
750.267	28073.19
750.605	27837.49
750.944	27884.27
751.283	27774.44
751.621	27869.58
751.96	27661.45
752.298	27419.87
752.636	27518.63
752.975	27475.46
753.313	27218.3
753.651	27412.64
753.989	27258.75
754.327	27180.78
754.666	27078.19
755.004	27089.94
755.342	27165.87
755.679	26970.84
756.017	26796.39
756.355	26902.6
756.693	26754.13
757.031	26852.43
757.368	26604.53
757.706	26543.29
758.044	26481.37
758.381	26471.2
758.719	26382.16
759.056	26258.77
759.394	26288.6
759.731	26101.71
760.068	26104.88
760.405	25943.98
760.743	25792.34
761.08	25872.12
761.417	25737.88
761.754	25668.51
762.091	25553.25
762.428	25543.54
762.765	25418.57
763.102	25472.58
763.438	25299.02
763.775	25129.09
764.112	25132.7
764.449	25116.66
764.785	24867.4
765.122	24641.41
765.458	24750.56
765.795	24671.02
766.131	24558.7
766.467	24591.25
766.804	24458.59
767.14	24223.8
767.476	24171.82
767.812	24171.37
768.148	24171.82
768.485	23939.74
768.821	23944.26
769.157	23882.34
769.492	23749.23
769.828	23738.16
770.164	23549.24
770.5	23458.62
770.836	23424.05
771.171	23306.31
771.507	23271.28
771.842	23088.46
772.178	23104.96
772.513	22963.49
772.849	22914.23
773.184	22776.15
773.519	22792.65
773.855	22611.19
774.19	22519.66
774.525	22521.92
774.86	22429.72
775.195	22406.44
775.53	22323.96
775.865	22129.39
776.2	22108.6
776.535	21855.5
776.87	21914.71
777.205	21733.69
777.539	21554.72
777.874	21685.79
778.209	21555.62
778.543	21426.58
778.878	21393.14
779.212	21373.7
779.547	21173.48
779.881	21203.54
780.215	21039.25
780.55	21092.58
780.884	20912.02
781.218	20861.63
781.552	20808.29
781.886	20767.39
782.22	20669.99
782.554	20518.58
782.888	20511.58
783.222	20262.77
783.556	20279.27
783.889	20081.53
784.223	20015.32
784.557	19888.54
784.89	19964.93
785.224	19808.09
785.557	19695.78
785.891	19712.73
786.224	19533.3
786.558	19548.67
786.891	19345.96
787.224	19352.97
787.557	19179.18
787.891	19241.56
788.224	19232.06
788.557	19172.41
788.89	19079.75
789.223	19025.97
789.556	18856.93
789.888	18845.63
790.221	18793.66
790.554	18574.46
790.887	18627.11
791.219	18613.1
791.552	18480.67
791.884	18403.39
792.217	18343.95
792.549	18300.79
792.882	18137.63
793.214	18111.64
793.546	18065.99
793.879	18003.85
794.211	17882.72
794.543	17983.74
794.875	17835.72
795.207	17863.51
795.539	17595.72
795.871	17675.95
796.203	17562.5
796.535	17425.11
796.867	17375.84
797.198	17424.2
797.53	17241.61
797.862	17230.76
798.193	17304.66
798.525	17151.44
798.856	17246.81
799.188	17029.64
799.519	16927.72
799.85	16855.18
800.182	16935.18
800.513	16768.85
800.844	16664.67
801.175	16755.29
801.506	16636.65
801.837	16522.08
802.168	16610.21
802.499	16586.03
802.83	16387.17
803.161	16372.25
803.491	16336.77
803.822	16298.13
804.153	16231.92
804.483	16104.92
804.814	15966.16
805.145	16054.75
805.475	16042.32
805.805	15988.08
806.136	15983.11
806.466	15898.59
806.796	15906.05
807.126	15745.38
807.457	15741.08
807.787	15719.16
808.117	15573.18
808.447	15459.51
808.777	15572.27
809.107	15452.05
809.436	15426.06
809.766	15414.31
810.096	15390.58
810.426	15355.33
810.755	15377.93
811.085	15222.68
811.414	15214.77
811.744	15037.37
812.073	15105.85
812.403	15060.42
812.732	14891.16
813.061	14894.33
813.39	14788.57
813.719	14830.37
814.049	14852.29
814.378	14782.01
814.707	14701.79
815.036	14667.44
815.365	14642.81
815.693	14513.54
816.022	14490.95
816.351	14498.63
816.68	14419.99
817.008	14512.87
817.337	14382.47
817.665	14353.32
817.994	14400.33
818.322	14340.67
818.651	14302.48
818.979	14206.89
819.307	14216.83
819.636	14154.46
819.964	14017.06
820.292	14043.95
820.62	14027
820.948	13981.81
821.276	14071.52
821.604	13999.89
821.932	14035.59
822.259	14051.18
822.587	14023.16
822.915	14012.54
823.243	14020.22
823.57	13903.84
823.898	13949.49
824.225	13903.62
824.553	13851.87
824.88	13876.5
825.207	13862.26
825.535	13870.62
825.862	13948.36
826.189	13854.58
826.516	13948.59
826.843	13976.84
827.17	14015.48
827.497	13923.05
827.824	13965.76
828.151	13937.29
828.478	13796.28
828.805	13861.36
829.131	13813.45
829.458	13758.76
829.785	13729.16
830.111	13807.12
830.438	13900.45
830.764	13830.17
831.09	13808.7
831.417	13706.33
831.743	13769.61
832.069	13880.12
832.395	13708.37
832.722	13843.05
833.048	13675.6
833.374	13776.84
833.7	13703.85
834.026	13756.95
834.351	13789.95
834.677	13688.48
835.003	13724.64
835.329	13754.24
835.654	13655.94
835.98	13613.68
836.306	13611.42
836.631	13555.83
836.956	13622.49
837.282	13580.69
837.607	13620.69
837.932	13475.61
838.258	13577.75
838.583	13491.88
838.908	13351.54
839.233	13394.93
839.558	13338.66
839.883	13350.41
840.208	13269.51
840.533	13280.81
840.858	13264.76
841.182	13284.65
841.507	13286.01
841.832	13237.65
842.156	13213.92
842.481	13196.52
842.805	13116.07
843.13	13207.59
843.454	13135.5
843.778	13083.75
844.103	13065.67
844.427	13065.9
844.751	13025.9
845.075	12933.93
845.399	12884.44
845.723	12810.99
846.047	12845.11
846.371	12727.15
846.695	12749.52
847.019	12691.9
847.343	12615.52
847.666	12526.25
847.99	12463.2
848.313	12411.23
848.637	12360.61
848.96	12369.87
849.284	12317.67
849.607	12235.64
849.931	12227.5
850.254	12150.67
850.577	12091.01
850.9	12066.38
851.223	12024.12
851.546	11923.33
851.869	11823.45
852.192	11864.35
852.515	11827.29
852.838	11775.31
853.161	11735.54
853.483	11689.21
853.806	11605.15
854.129	11630.91
854.451	11597.46
854.774	11581.19
855.096	11527.41
855.419	11387.75
855.741	11511.82
856.063	11412.84
856.385	11346.62
856.708	11271.37
857.03	11305.04
857.352	11336.91
857.674	11218.26
857.996	11231.6
858.318	11112.96
858.64	11139.17
858.961	11148.89
859.283	11108.21
859.605	10997.93
859.926	10973.98
860.248	10988.21
860.57	10941.89
860.891	10960.87
861.212	10906.18
861.534	10920.42
861.855	10813.76
862.176	10886.97
862.498	10931.27
862.819	10844.26
863.14	10789.12
863.461	10765.85
863.782	10738.73
864.103	10766.07
864.424	10745.73
864.745	10790.93
865.065	10718.62
865.386	10729.46
865.707	10680.88
866.027	10751.84
866.348	10623.7
866.668	10602.01
866.989	10575.12
867.309	10540.09
867.63	10488.79
867.95	10475.23
868.27	10455.12
868.59	10499.41
868.91	10434.78
869.23	10442.92
869.55	10398.85
869.87	10456.48
870.19	10369.25
870.51	10449.92
870.83	10388.23
871.15	10366.31
871.469	10290.15
871.789	10301.45
872.109	10315.69
872.428	10303.94
872.748	10245.41
873.067	10283.37
873.386	10290.38
873.706	10333.99
874.025	10356.82
874.344	10219.42
874.663	10208.35
874.982	10200.89
875.301	10167.9
875.62	10081.8
875.939	10107.11
876.258	10075.7
876.577	10033.89
876.896	10062.14
877.214	10080.22
877.533	10077.5
877.852	10068.46
878.17	10049.26
878.489	10027.56
878.807	10014.23
879.125	10014.68
879.444	9961.12
879.762	9936.94
880.08	9972.42
880.398	9849.71
880.716	9967.22
881.034	9922.25
881.352	9873.21
881.67	9853.78
881.988	9894.46
882.306	9796.83
882.624	9803.61
882.941	9781.24
883.259	9727.23
883.577	9663.95
883.894	9675.93
884.212	9759.32
884.529	9706.67
884.846	9633.67
885.164	9669.6
885.481	9639.32
885.798	9630.06
886.115	9556.16
886.432	9535.6
886.75	9508.93
887.067	9524.07
887.383	9487.91
887.7	9531.98
888.017	9439.33
888.334	9514.81
888.651	9404.07
888.967	9397.97
889.284	9370.18
889.6	9350.29
889.917	9306.22
890.233	9342.61
890.55	9281.14
890.866	9274.81
891.182	9229.16
891.498	9163.86
891.815	9157.08
892.131	9107.81
892.447	9121.6
892.763	9048.83
893.079	9117.53
893.395	9012.45
893.71	9034.82
894.026	8939.91
894.342	8945.1
894.657	8883.41
894.973	8884.99
895.289	8886.35
895.604	8925.9
895.92	8765.67
896.235	8837.76
896.55	8789.4
896.865	8802.51
897.181	8753.24
897.496	8710.76
897.811	8638.67
898.126	8642.06
898.441	8626.02
898.756	8569.52
899.071	8517.54
899.386	8539.24
899.7	8528.84
900.015	8440.71
900.33	8367.94
900.644	8354.16
900.959	8398.9
901.273	8363.65
901.588	8304.44
901.902	8275.74
902.216	8317.55
902.531	8266.93
902.845	8225.35
903.159	8199.36
903.473	8212.24
903.787	8104.9
904.101	8055.41
904.415	8052.7
904.729	8035.75
905.042	8051.34
905.356	7988.29
905.67	7942.87
905.984	8000.04
906.297	7887.28
906.611	7833.04
906.924	7862.87
907.237	7753.95
907.551	7774.06
907.864	7748.3
908.177	7762.31
908.491	7691.13
908.804	7688.19
909.117	7662.2
909.43	7578.13
909.743	7544.46
910.056	7598.7
910.368	7536.1
910.681	7481.19
910.994	7507.4
911.307	7433.51
911.619	7358.03
911.932	7362.09
912.244	7314.41
912.557	7275.54
912.869	7253.4
913.181	7217.24
913.494	7170.46
913.806	7210.46
914.118	7170.01
914.43	7142.21
914.742	7100.63
915.054	7092.05
915.366	7029.67
915.678	7034.42
915.99	7019.28
916.302	6919.62
916.613	6916.46
916.925	6959.62
917.236	6896.12
917.548	6835.55
917.859	6819.28
918.171	6836.46
918.482	6736.35
918.794	6727.76
919.105	6748.55
919.416	6710.13
919.727	6640.53
920.038	6624.49
920.349	6599.85
920.66	6525.96
920.971	6538.84
921.282	6556.01
921.593	6539.52
921.903	6472.4
922.214	6455.45
922.525	6449.8
922.835	6359.64
923.146	6337.26
923.456	6332.52
923.767	6302.69
924.077	6274.21
924.387	6239.41
924.697	6239.19
925.008	6210.94
925.318	6167.32
925.628	6150.15
925.938	6145.63
926.248	6089.36
926.558	6054.11
926.867	6038.06
927.177	6055.46
927.487	5995.58
927.796	5926.43
928.106	5966.43
928.416	5900.44
928.725	5889.14
929.034	5844.17
929.344	5816.6
929.653	5910.16
929.962	5807.56
930.271	5791.74
930.581	5770.72
930.89	5733.44
931.199	5739.99
931.508	5638.98
931.817	5638.75
932.125	5682.82
932.434	5597.62
932.743	5636.26
933.051	5566.66
933.36	5520.56
933.669	5504.06
933.977	5482.37
934.286	5451.86
934.594	5447.57
934.902	5464.29
935.21	5404.41
935.519	5426.1
935.827	5395.82
936.135	5333
936.443	5286.44
936.751	5227.46
937.059	5278.53
937.367	5244.86
937.674	5194.02
937.982	5237.63
938.29	5163.51
938.597	5200.12
938.905	5110.63
939.213	5038.31
939.52	5088.93
939.827	5044.42
940.135	5041.48
940.442	4993.57
940.749	4994.02
941.056	4982.95
941.363	4944.08
941.67	4930.52
941.977	4882.16
942.284	4866.57
942.591	4867.47
942.898	4816.62
943.205	4860.47
943.511	4801.94
943.818	4759.45
944.125	4718.1
944.431	4738.89
944.738	4725.1
945.044	4668.38
945.35	4723.75
945.657	4653.47
945.963	4661.6
946.269	4638.1
946.575	4600.36
946.881	4562.62
947.187	4608.27
947.493	4533.02
947.799	4513.13
948.105	4552
948.41	4500.47
948.716	4485.33
949.022	4438.1
949.327	4434.94
949.633	4410.31
949.938	4376.64
950.244	4361.5
950.549	4353.13
950.854	4340.25
951.16	4327.37
951.465	4300.48
951.77	4277.88
952.075	4265
952.38	4234.27
952.685	4223.19
952.99	4191.33
953.294	4195.85
953.599	4173.03
953.904	4167.6
954.209	4175.74
954.513	4175.96
954.818	4123.99
955.122	4074.5
955.426	4109.52
955.731	4065.46
956.035	4041.5
956.339	4048.28
956.643	4010.32
956.948	3956.76
957.252	3931.45
957.556	3962.18
957.86	3923.77
958.163	3933.26
958.467	3898.68
958.771	3916.31
959.075	3884.9
959.378	3851.68
959.682	3859.36
959.985	3832.7
960.289	3770.78
960.592	3738.91
960.896	3707.73
961.199	3765.13
961.502	3745.24
961.805	3734.62
962.108	3691.68
962.411	3729.42
962.714	3669.99
963.017	3668.86
963.32	3635.19
963.623	3662.98
963.926	3603.78
964.228	3613.72
964.531	3596.32
964.833	3581.4
965.136	3524.68
965.438	3549.09
965.741	3507.73
966.043	3503.21
966.345	3534.85
966.648	3504.34
966.95	3458.92
967.252	3413.05
967.554	3399.49
967.856	3376.89
968.158	3352.71
968.46	3367.4
968.761	3339.38
969.063	3344.57
969.365	3337.34
969.666	3304.12
969.968	3270.22
970.269	3280.62
970.571	3307.06
970.872	3259.83
971.174	3239.94
971.475	3204.24
971.776	3197.23
972.077	3191.58
972.378	3232.03
972.679	3174.86
972.98	3133.28
973.281	3163.11
973.582	3133.96
973.883	3100.29
974.183	3114.52
974.484	3095.77
974.785	3106.16
975.085	3104.58
975.386	3097.8
975.686	3058.03
975.986	3046.05
976.287	3036.78
976.587	2975.09
976.887	2995.88
977.187	2966.05
977.487	2971.25
977.787	2959.5
978.087	2933.51
978.387	2905.04
978.687	2894.87
978.987	2879.73
979.286	2856.68
979.586	2907.52
979.885	2852.16
980.185	2829.56
980.484	2817.58
980.784	2839.95
981.083	2796.11
981.382	2806.28
981.682	2849.22
981.981	2765.83
982.28	2786.17
982.579	2748.66
982.878	2735.78
983.177	2719.28
983.475	2706.4
983.774	2728.77
984.073	2688.55
984.372	2657.36
984.67	2649.45
984.969	2644.7
985.267	2669.79
985.566	2613.29
985.864	2641.77
986.162	2597.47
986.461	2606.97
986.759	2580.75
987.057	2578.94
987.355	2558.15
987.653	2559.06
987.951	2562.67
988.249	2537.14
988.547	2549.11
988.844	2466.18
989.142	2501.43
989.44	2472.96
989.737	2477.25
990.035	2420.08
990.332	2450.81
990.63	2436.12
990.927	2456.69
991.224	2396.58
991.521	2394.99
991.819	2396.12
992.116	2379.63
992.413	2381.21
992.71	2373.75
993.006	2379.63
993.303	2314.54
993.6	2320.87
993.897	2315.9
994.193	2322.68
994.49	2288.33
994.787	2261.89
995.083	2246.3
995.379	2266.41
995.676	2253.98
995.972	2215.34
996.268	2185.06
996.565	2223.7
996.861	2203.81
997.157	2178.5
997.453	2188.9
997.749	2153.64
998.044	2133.31
998.34	2146.41
998.636	2147.09
998.932	2112.29
999.227	2114.55
999.523	2098.05
999.818	2095.57
1000.114	2112.06
1000.409	2046.08
1000.704	2079.07
1001	2058.28
1001.295	2031.84
1001.59	2025.29
1001.885	2011.05
1002.18	2008.34
1002.475	1999.3
1002.77	2017.6
1003.065	1999.98
1003.359	1963.59
1003.654	1984.38
1003.949	1972.86
1004.243	1932.63
1004.538	1894.22
1004.832	1938.51
1005.127	1892.63
1005.421	1872.75
1005.715	1875.91
1006.009	1870.04
1006.304	1884.27
1006.598	1847.89
1006.892	1839.53
1007.186	1862.8
1007.48	1832.75
1007.773	1790.04
1008.067	1797.5
1008.361	1788.68
1008.655	1766.76
1008.948	1783.71
1009.242	1738.06
1009.535	1764.28
1009.829	1749.13
1010.122	1719.08
1010.415	1731.96
1010.708	1710.94
1011.001	1712.3
1011.295	1672.3
1011.588	1684.73
1011.881	1713.66
1012.173	1641.34
1012.466	1656.03
1012.759	1661.68
1013.052	1673.66
1013.344	1638.18
1013.637	1629.14
1013.93	1582.59
1014.222	1605.64
1014.514	1592.98
1014.807	1589.36
1015.099	1583.94
1015.391	1575.35
1015.683	1537.61
1015.976	1558.63
1016.268	1543.26
1016.56	1525.86
1016.851	1513.89
1017.143	1495.36
1017.435	1511.85
1017.727	1484.28
1018.018	1465.75
1018.31	1499.65
1018.602	1479.09
1018.893	1438.86
1019.185	1432.31
1019.476	1405.87
1019.767	1429.37
1020.058	1416.94
1020.35	1407.22
1020.641	1401.12
1020.932	1359.99
1021.223	1382.14
1021.514	1379.88
1021.804	1356.83
1022.095	1348.47
1022.386	1321.12
1022.677	1328.81
1022.967	1273.67
1023.258	1302.14
1023.548	1298.98
1023.839	1294.91
1024.129	1262.59
1024.419	1254.91
1024.709	1263.72
1025	1278.86
1025.29	1258.07
1025.58	1241.13
1025.87	1247
1026.16	1223.05
1026.449	1216.27
1026.739	1169.26
1027.029	1184.4
1027.319	1189.15
1027.608	1192.99
1027.898	1195.03
1028.187	1152.99
1028.477	1165.87
1028.766	1172.43
1029.055	1157.51
1029.344	1122.03
1029.634	1133.11
1029.923	1087.46
1030.212	1132.2
1030.501	1117.06
1030.79	1101.24
1031.078	1094.24
1031.367	1091.52
1031.656	1105.08
1031.945	1057.18
1032.233	1063.73
1032.522	1047.46
1032.81	1041.36
1033.099	1046.78
1033.387	1024.41
1033.675	1048.14
1033.963	1033
1034.251	1036.16
1034.54	1027.8
1034.828	999.78
1035.116	992.09
1035.403	989.38
1035.691	989.38
1035.979	991.64
1036.267	981.25
1036.554	966.56
1036.842	954.81
1037.129	937.18
1037.417	959.1
1037.704	957.52
1037.992	934.47
1038.279	941.02
1038.566	916.84
1038.853	916.84
1039.14	916.84
