Data from foil_FLMS001491_073.txt Node
Date: Tue Feb 07 11:36:42 GMT 2017
User: dcchb
Spectrometer: FLMS00149
Trigger mode: 0
Integration Time (sec): 2.000000E-2
Scans to average: 10
Electric dark correction enabled: true
Nonlinearity correction enabled: false
Boxcar width: 0
XAxis mode: Wavelengths
Number of Pixels in Spectrum: 2048
>>>>>Begin Spectral Data<<<<<
341.393	0.1
341.776	0.1
342.16	0.1
342.543	-67.02
342.927	-57.53
343.31	-82.38
343.693	-69.28
344.077	-63.4
344.46	-66.79
344.843	-61.14
345.226	-33.57
345.61	-28.15
345.993	-23.86
346.376	9.82
346.759	12.08
347.142	29.7
347.525	23.83
347.908	58.4
348.291	94.79
348.674	82.13
349.057	117.84
349.44	123.94
349.823	145.41
350.206	197.61
350.588	259.53
350.971	286.87
351.354	261.11
351.737	288
352.119	289.81
352.502	331.84
352.884	337.94
353.267	338.62
353.65	335.91
354.032	358.28
354.414	376.36
354.797	391.05
355.179	387.89
355.562	381.33
355.944	397.38
356.326	401.67
356.709	402.35
357.091	398.28
357.473	430.6
357.855	408.9
358.238	408.22
358.62	426.08
359.002	429.47
359.384	405.06
359.766	420.2
360.148	429.47
360.53	434.21
360.912	423.36
361.294	427.88
361.676	430.82
362.057	417.72
362.439	406.42
362.821	430.14
363.203	422.69
363.584	423.82
363.966	425.4
364.348	434.89
364.729	422.91
365.111	418.84
365.493	431.73
365.874	435.34
366.256	438.73
366.637	424.49
367.019	430.82
367.4	416.13
367.781	418.62
368.163	431.73
368.544	443.93
368.925	439.64
369.306	434.89
369.688	430.6
370.069	442.35
370.45	448.67
370.831	444.15
371.212	459.97
371.593	455.68
371.974	432.4
372.355	468.56
372.736	442.57
373.117	463.82
373.498	455
373.879	448.9
374.26	457.71
374.641	448.45
375.021	471.95
375.402	496.81
375.783	514.44
376.163	503.59
376.544	499.07
376.925	511.5
377.305	497.49
377.686	512.63
378.066	504.27
378.447	529.35
378.827	518.73
379.208	526.19
379.588	541.55
379.968	523.25
380.349	521.67
380.729	532.06
381.109	566.86
381.489	547.2
381.87	540.65
382.25	568.22
382.63	581.1
383.01	563.02
383.39	591.72
383.77	583.36
384.15	594.89
384.53	593.98
384.91	605.73
385.29	631.72
385.67	626.75
386.049	640.08
386.429	618.84
386.809	647.54
387.189	632.62
387.568	638.05
387.948	643.7
388.328	656.8
388.707	653.19
389.087	682.57
389.466	663.36
389.846	656.13
390.225	673.08
390.605	697.03
390.984	725.96
391.363	724.83
391.743	705.17
392.122	728.22
392.501	758.72
392.881	721.89
393.26	755.56
393.639	746.07
394.018	773.19
394.397	773.86
394.776	789
395.155	771.6
395.534	791.72
395.913	765.05
396.292	792.17
396.671	794.88
397.05	811.15
397.429	828.55
397.808	833.3
398.186	839.62
398.565	835.33
398.944	855.9
399.323	874.88
399.701	874.88
400.08	894.54
400.458	913.07
400.837	916.23
401.215	890.02
401.594	887.53
401.972	924.37
402.351	909.23
402.729	961.2
403.107	959.62
403.486	959.4
403.864	961.2
404.242	992.62
404.62	977.47
404.999	1019.28
405.377	983.58
405.755	1020.86
406.133	1027.42
406.511	1045.95
406.889	1039.62
407.267	1068.55
407.645	1105.61
408.023	1119.84
408.401	1131.59
408.779	1137.47
409.156	1157.36
409.534	1171.14
409.912	1170.01
410.29	1202.78
410.667	1208.88
411.045	1232.61
411.422	1224.93
411.8	1249.78
412.178	1263.79
412.555	1303.12
412.933	1300.86
413.31	1297.92
413.687	1304.02
414.065	1332.04
414.442	1372.27
414.819	1370.01
415.197	1396.45
415.574	1398.93
415.951	1417.46
416.328	1437.12
416.705	1452.04
417.082	1435.32
417.46	1475.31
417.837	1494.52
418.214	1520.06
418.591	1508.99
418.967	1521.64
419.344	1516.67
419.721	1567.06
420.098	1542.43
420.475	1579.72
420.852	1591.02
421.228	1614.07
421.605	1625.14
421.982	1627.17
422.358	1647.06
422.735	1684.35
423.111	1688.64
423.488	1739.04
423.864	1714.4
424.241	1737
424.617	1760.96
424.994	1760.28
425.37	1832.14
425.746	1818.58
426.123	1838.24
426.499	1838.92
426.875	1853.38
427.251	1908.75
427.627	1950.56
428.003	1958.69
428.379	1981.97
428.756	1983.55
429.132	2040.27
429.507	2064.9
429.883	2060.38
430.259	2110.33
430.635	2117.56
431.011	2137.44
431.387	2164.56
431.763	2214.5
432.138	2239.36
432.514	2270.77
432.89	2289.53
433.265	2329.3
433.641	2379.92
434.016	2384.89
434.392	2405.69
434.767	2464.21
435.143	2453.82
435.518	2454.27
435.894	2452.01
436.269	2563.2
436.644	2565.91
437.02	2615.62
437.395	2605
437.77	2638
438.145	2657.2
438.52	2678.9
438.895	2724.77
439.271	2723.42
439.646	2757.99
440.021	2819.69
440.395	2781.27
440.77	2825.79
441.145	2847.03
441.52	2887.71
441.895	2903.3
442.27	2920.7
442.645	2870.53
443.019	2984.65
443.394	2976.07
443.769	2984.65
444.143	2979.46
444.518	3052.67
444.892	3015.61
445.267	3065.78
445.641	3084.09
446.016	3109.85
446.39	3149.39
446.764	3109.4
447.139	3128.6
447.513	3212.44
447.887	3232.1
448.262	3235.27
448.636	3240.24
449.01	3294.93
449.384	3289.73
449.758	3316.4
450.132	3373.8
450.506	3400.69
450.88	3401.14
451.254	3434.13
451.628	3476.84
452.002	3517.97
452.376	3542.83
452.75	3554.13
453.123	3614.24
453.497	3628.93
453.871	3693.34
454.244	3764.29
454.618	3774.46
454.992	3820.11
455.365	3866.89
455.739	3911.63
456.112	3975.81
456.486	3996.83
456.859	4044.06
457.232	4159.09
457.606	4162.93
457.979	4148.01
458.352	4224.39
458.725	4297.16
459.099	4350.49
459.472	4364.96
459.845	4454.45
460.218	4466.2
460.591	4514.56
460.964	4514.33
461.337	4632.29
461.71	4702.12
462.083	4756.13
462.456	4757.49
462.829	4830.71
463.201	4891.04
463.574	4919.74
463.947	5028.44
464.32	5122.45
464.692	5124.26
465.065	5149.34
465.438	5187.53
465.81	5317.25
466.183	5412.84
466.555	5470.01
466.928	5514.08
467.3	5509.11
467.672	5621.65
468.045	5755.43
468.417	5723.79
468.789	5758.14
469.161	5917.46
469.534	5977.12
469.906	6151.35
470.278	6145.47
470.65	6156.32
471.022	6292.59
471.394	6412.36
471.766	6484.9
472.138	6530.77
472.51	6691
472.882	6808.28
473.253	6894.15
473.625	7000.59
473.997	7149.74
474.369	7151.1
474.74	7247.37
475.112	7369.62
475.484	7495.04
475.855	7590.18
476.227	7686.68
476.598	7919.44
476.97	7970.51
477.341	8138.87
477.713	8245.98
478.084	8341.57
478.455	8564.17
478.827	8553.32
479.198	8824.05
479.569	8897.72
479.94	9107.66
480.311	9137.94
480.682	9358.72
481.053	9594.2
481.424	9708.32
481.795	9831.7
482.166	10001.87
482.537	10043.45
482.908	10270.56
483.279	10412.25
483.65	10626.26
484.021	10742.19
484.391	10905.8
484.762	10993.26
485.133	11126.81
485.503	11290.42
485.874	11597.76
486.244	11619.68
486.615	11871.43
486.985	11997.98
487.356	12128.82
487.726	12288.14
488.097	12472.77
488.467	12590.73
488.837	12839.99
489.207	12974.9
489.578	13065.07
489.948	13218.96
490.318	13420.76
490.688	13528.56
491.058	13773.3
491.428	13888.1
491.798	13971.93
492.168	14234.53
492.538	14361.3
492.908	14548.42
493.278	14770.78
493.648	14722.88
494.017	14944.56
494.387	15051.23
494.757	15134.84
495.126	15391.56
495.496	15431.33
495.866	15527.83
496.235	15685.79
496.605	15819.8
496.974	15899.34
497.344	16107.25
497.713	16160.35
498.082	16274.25
498.452	16468.14
498.821	16490.29
499.19	16554.47
499.559	16720.11
499.928	16859.77
500.298	16997.39
500.667	17128.24
501.036	17140.67
501.405	17286.65
501.774	17294.11
502.143	17612.52
502.512	17673.98
502.88	17774.77
503.249	17837.82
503.618	18050.7
503.987	18026.97
504.356	18212.5
504.724	18300.86
505.093	18380.63
505.462	18452.27
505.83	18577.92
506.199	18751.92
506.567	18983.33
506.936	18948.3
507.304	19160.73
507.672	19286.6
508.041	19342.19
508.409	19486.59
508.777	19597.32
509.145	19849.75
509.514	19846.36
509.882	19956.64
510.25	20105.78
510.618	20337.19
510.986	20364.99
511.354	20660.57
511.722	20690.4
512.09	20839.32
512.458	20874.58
512.826	21023.05
513.193	21197.06
513.561	21230.95
513.929	21445.41
514.297	21662.58
514.664	21862.57
515.032	21990.26
515.4	22143.02
515.767	22239.97
516.135	22372.17
516.502	22248.1
516.869	22744.59
517.237	22890.34
517.604	22915.65
517.972	23068.87
518.339	23180.73
518.706	23315.64
519.073	23485.36
519.44	23576.2
519.808	23907.94
520.175	23901.17
520.542	24278.56
520.909	24333.47
521.276	24370.76
521.643	24638.77
522.009	24824.53
522.376	24921.03
522.743	25172.54
523.11	25339.77
523.477	25676.71
523.843	25855.24
524.21	26052.3
524.577	26207.09
524.943	26339.97
525.31	26542
525.676	26680.08
526.043	26940.18
526.409	27042.33
526.776	27298.82
527.142	27394.86
527.508	27517.12
527.874	27865.35
528.241	28049.98
528.607	28093.82
528.973	28350.31
529.339	28294.95
529.705	28691.77
530.071	28795.95
530.437	29105.1
530.803	29248.14
531.169	29381.02
531.535	29232.78
531.901	29460.34
532.267	29686.32
532.632	29994.11
532.998	29951.63
533.364	30131.06
533.73	30178.06
534.095	30496.92
534.461	30625.73
534.826	30658.28
535.192	30877.03
535.557	31105.95
535.923	31265.49
536.288	31169.22
536.653	31416.22
537.019	31299.61
537.384	31533.73
537.749	31790.45
538.114	31745.7
538.479	31895.08
538.845	31976.21
539.21	31976.89
539.575	32105.24
539.94	32265.24
540.305	32482.63
540.67	32564.44
541.034	32685.34
541.399	32886.01
541.764	32911.78
542.129	33022.28
542.494	33063.86
542.858	33324.65
543.223	33326.68
543.587	33445.77
543.952	33518.09
544.316	33665.43
544.681	33695.26
545.045	33848.02
545.41	34092.54
545.774	34128.02
546.138	34230.16
546.503	34192.87
546.867	34241.91
547.231	34578.85
547.595	34831.27
547.959	34843.25
548.324	35012.51
548.688	34923.02
549.052	35062
549.416	35301.54
549.779	35229.23
550.143	35416.34
550.507	35605.72
550.871	35731.81
551.235	35751.7
551.599	36037.12
551.962	36195.76
552.326	36219.49
552.689	36454.28
553.053	36293.38
553.417	36511.23
553.78	37089.07
554.143	36798.91
554.507	37016.53
554.87	37129.07
555.234	37566.34
555.597	37373.81
555.96	37561.82
556.323	37723.63
556.686	37767.24
557.05	38038.42
557.413	38207.68
557.776	38110.06
558.139	38542.36
558.502	38687.44
558.865	38760.21
559.228	38916.14
559.59	39188.9
559.953	39204.72
560.316	39616.68
560.679	39623.92
561.041	39870.24
561.404	39894.42
561.767	40434.52
562.129	40295.31
562.492	40653.95
562.854	40646.49
563.217	40633.61
563.579	40998.57
563.941	41102.97
564.304	41302.97
564.666	41505.67
565.028	41587.48
565.39	41938.88
565.753	42228.37
566.115	42291.42
566.477	42372.09
566.839	42538.42
567.201	42681.46
567.563	42737.28
567.925	43113.32
568.287	43072.41
568.648	43184.27
569.01	43444.15
569.372	43691.83
569.734	43638.95
570.095	43758.27
570.457	44111.26
570.819	44024.7
571.18	44168.2
571.542	44338.59
571.903	44395.32
572.265	44596.44
572.626	44657.46
572.987	44793.5
573.349	44923.21
573.71	44978.35
574.071	45178.35
574.432	45187.84
574.794	45508.96
575.155	45518
575.516	45453.37
575.877	45729.07
576.238	45569.52
576.599	45753.02
576.96	45895.39
577.32	45903.75
577.681	46063.52
578.042	46188.26
578.403	46180.13
578.763	46084.08
579.124	46286.34
579.485	46531.76
579.845	46662.83
580.206	46500.8
580.566	46451.53
580.927	46468.93
581.287	46715.25
581.648	46617.63
582.008	46813.11
582.368	46659.44
582.728	46826.89
583.089	46691.98
583.449	46771.07
583.809	46854.91
584.169	46911.86
584.529	46775.82
584.889	47017.62
585.249	46785.99
585.609	46713.45
585.969	46813.78
586.329	46789.15
586.688	46921.13
587.048	46789.38
587.408	46821.47
587.768	46736.27
588.127	46816.72
588.487	46712.32
588.846	47012.65
589.206	46986.21
589.565	46876.83
589.925	47002.93
590.284	46884.52
590.643	46960.22
591.003	47073.66
591.362	47178.07
591.721	47103.95
592.08	47020.11
592.44	47032.31
592.799	47034.79
593.158	46992.08
593.517	47116.6
593.876	47126.09
594.235	46863.95
594.593	47021.46
594.952	47054.23
595.311	47003.38
595.67	47090.84
596.029	47251.51
596.387	47367.21
596.746	47307.56
597.104	47109.82
597.463	47228.24
597.822	47350.94
598.18	47047.45
598.538	47105.07
598.897	47438.17
599.255	47097.84
599.613	47709.58
599.972	47401.56
600.33	47441.79
600.688	47432.98
601.046	47445.63
601.404	47543.93
601.762	47443.82
602.12	47648.34
602.478	47596.81
602.836	47703.7
603.194	47408.8
603.552	47634.78
603.91	47384.84
604.268	47824.83
604.625	47649.69
604.983	47675.46
605.341	47528.57
605.698	47815.34
606.056	47827.09
606.413	47919.52
606.771	48031.83
607.128	48008.55
607.485	47773.08
607.843	47973.98
608.2	48096.01
608.557	48180.07
608.914	48189.79
609.272	48271.37
609.629	48206.74
609.986	48359.73
610.343	48276.34
610.7	48380.3
611.057	48374.42
611.414	48355.44
611.771	48414.42
612.127	48516.56
612.484	48439.05
612.841	48577.35
613.198	48468.65
613.554	48550.46
613.911	48636.33
614.267	48611.7
614.624	48525.83
614.98	48739.83
615.337	48795.2
615.693	48846.72
616.05	48715.88
616.406	49081.07
616.762	48951.35
617.118	48829.55
617.475	49024.35
617.831	49095.31
618.187	49023.44
618.543	48999.49
618.899	49163.78
619.255	48933.5
619.611	48992.93
619.967	49020.96
620.323	49224.57
620.678	49048.07
621.034	48969.66
621.39	49086.04
621.746	48887.18
622.101	49356.32
622.457	48896.67
622.812	49054.18
623.168	49093.95
623.523	49187.51
623.879	49166.26
624.234	49023.67
624.589	49205.36
624.945	49240.61
625.3	49237.9
625.655	49123.55
626.01	49251.23
626.365	49204.23
626.72	49207.62
627.075	49103.89
627.43	49030.45
627.785	48983.22
628.14	49093.05
628.495	49032.93
628.85	49053.5
629.205	48759.72
629.559	49027.96
629.914	48931.92
630.269	48880.62
630.623	48682.43
630.978	48665.71
631.332	48912.03
631.687	48905.93
632.041	48648.99
632.396	48686.05
632.75	48578.48
633.104	48578.71
633.459	48547.52
633.813	48407.19
634.167	48444.25
634.521	48381.2
634.875	48328.32
635.229	48332.61
635.583	48181.2
635.937	48041.32
636.291	47985.05
636.645	48063.69
636.999	47957.03
637.352	47982.11
637.706	47786.41
638.06	47932.62
638.413	47671.39
638.767	47667.55
639.121	47694.89
639.474	47540.77
639.828	47543.26
640.181	47721.33
640.534	47616.7
640.888	47379.87
641.241	47245.18
641.594	47347.1
641.947	47369.93
642.301	47199.76
642.654	47274.11
643.007	47179.88
643.36	47170.61
643.713	47072.31
644.066	47162.25
644.419	46795.25
644.771	46470.97
645.124	45891.1
645.477	45908.27
645.83	45723.19
646.182	45746.47
646.535	45789.18
646.888	45768.84
647.24	45557.77
647.593	45869.18
647.945	45626.7
648.298	45585.34
648.65	45419.24
649.002	45334.27
649.355	45431.9
649.707	45258.12
650.059	45468.96
650.411	45735.17
650.763	45594.61
651.115	46115.72
651.467	46067.81
651.819	45943.3
652.171	45841.83
652.523	45732.91
652.875	45868.5
653.227	45719.35
653.578	45842.74
653.93	45725
654.282	45754.15
654.633	45562.29
654.985	45607.71
655.337	45658.56
655.688	45563.42
656.039	45674.83
656.391	45249.76
656.742	45285.24
657.094	45262.86
657.445	45480.71
657.796	45209.76
658.147	45233.71
658.498	45061.29
658.849	45292.02
659.2	45000.95
659.551	45107.39
659.902	45212.02
660.253	45079.59
660.604	45143.09
660.955	44853.61
661.306	45141.06
661.656	44847.06
662.007	44961.18
662.358	44799.15
662.708	44844.8
663.059	44786.04
663.409	44405.03
663.76	44901.29
664.11	44840.28
664.461	44762.54
664.811	44739.04
665.161	44753.72
665.511	44625.37
665.862	44677.57
666.212	44751.46
666.562	44645.25
666.912	44455.88
667.262	44434.18
667.612	44469.89
667.962	44532.71
668.312	44467.63
668.662	44625.37
669.011	44506.05
669.361	44407.07
669.711	44539.04
670.06	44286.62
670.41	44289.1
670.76	44184.02
671.109	44204.59
671.459	44143.12
671.808	44003.46
672.157	44209.56
672.507	43928.89
672.856	43946.29
673.205	43936.8
673.554	44054.99
673.904	43869.23
674.253	44014.31
674.602	43921.88
674.951	43260.88
675.3	43098.17
675.649	43670.82
675.998	43683.02
676.346	43608.44
676.695	43823.58
677.044	43499.07
677.393	43595.34
677.741	43491.16
678.09	43523.93
678.438	43414.32
678.787	43417.49
679.135	43368
679.484	43015.24
679.832	43255.46
680.181	42939.08
680.529	43117.38
680.877	42984.51
681.225	43005.52
681.573	43204.61
681.922	42810.05
682.27	42664.06
682.618	42787.22
682.966	42659.32
683.314	42585.42
683.661	42534.12
684.009	42361.47
684.357	42179.33
684.705	42143.17
685.053	42289.16
685.4	42238.76
685.748	42024.76
686.095	42040.8
686.443	41856.17
686.79	41622.06
687.138	41862.95
687.485	41789.51
687.832	41523.07
688.18	41642.85
688.527	41406.69
688.874	41330.54
689.221	41168.28
689.568	40881.28
689.915	40845.8
690.262	40891.91
690.609	40842.19
690.956	40677.9
691.303	40659.37
691.65	40507.51
691.997	40342.77
692.344	40079.5
692.69	40148.2
693.037	40171.47
693.383	39837.24
693.73	40008.31
694.077	39625.05
694.423	39748.21
694.769	39672.95
695.116	39468.67
695.462	39556.12
695.808	39351.38
696.155	39387.99
696.501	38963.59
696.847	39041.33
697.193	38820.1
697.539	38802.92
697.885	38763.6
698.231	38548.92
698.577	38565.19
698.923	38336.04
699.269	38146.21
699.614	38051.3
699.96	37931.3
700.306	38079.55
700.651	37711.65
700.997	37634.82
701.342	37725.89
701.688	37564.31
702.033	37406.12
702.379	37393.47
702.724	37405.22
703.069	37271.44
703.415	36805.68
703.76	36861.73
704.105	36829.86
704.45	36860.15
704.795	36599.14
705.14	36382.65
705.485	36448.18
705.83	36414.06
706.175	36353.49
706.52	36146.04
706.865	36061.52
707.209	36115.31
707.554	35854.75
707.899	35899.04
708.243	35668.09
708.588	35574.3
708.932	35548.32
709.277	35483.01
709.621	35394.42
709.966	35177.25
710.31	35391.71
710.654	35001.66
710.998	35060.19
711.342	35042.12
711.687	34866.53
712.031	34775.91
712.375	34653.65
712.719	34595.12
713.063	34441.91
713.407	34638.51
713.75	34266.99
714.094	34411.17
714.438	34255.47
714.782	34257.28
715.125	34145.87
715.469	34162.59
715.812	33998.07
716.156	33737.74
716.499	33778.65
716.843	33871.07
717.186	33575.26
717.53	33754.24
717.873	33700.46
718.216	33642.6
718.559	33300.47
718.902	33257.76
719.246	33311.31
719.589	33095.73
719.932	33012.34
720.275	33062.51
720.617	33031.09
720.96	32854.15
721.303	32874.71
721.646	32808.73
721.989	32647.6
722.331	32792.68
722.674	32641.5
723.016	32676.53
723.359	32560.37
723.701	32470.21
724.044	32225.92
724.386	32197.22
724.729	32410.32
725.071	32249.65
725.413	32206.03
725.755	32051.23
726.097	31897.57
726.439	31831.35
726.782	31839.71
727.124	32011.01
727.465	31794.07
727.807	31737.34
728.149	31640.4
728.491	31526.05
728.833	31521.76
729.175	31395.43
729.516	31431.59
729.858	31282.21
730.199	31344.81
730.541	31205.61
730.882	31183.01
731.224	31296.45
731.565	31023.01
731.906	31090.58
732.248	31059.85
732.589	30847.42
732.93	30806.75
733.271	30793.19
733.612	30851.72
733.953	30786.18
734.294	30654.66
734.635	30436.81
734.976	30653.98
735.317	30345.29
735.658	30305.74
735.999	30471.61
736.339	30267.78
736.68	30367.21
737.021	30238.4
737.361	30171.06
737.702	30219.42
738.042	30225.29
738.383	30039.31
738.723	30147.1
739.063	29953.66
739.404	29937.62
739.744	29800.22
740.084	29711.63
740.424	29792.31
740.764	29795.93
741.104	29720.67
741.444	29615.37
741.784	29478.42
742.124	29487.69
742.464	29488.82
742.804	29276.39
743.143	29367.46
743.483	29335.6
743.823	29158.88
744.162	29089.5
744.502	29144.19
744.841	29145.1
745.181	28974.7
745.52	28854.93
745.86	29093.8
746.199	28764.54
746.538	28842.73
746.877	28800.7
747.216	28804.54
747.556	28647.26
747.895	28705.56
748.234	28409.97
748.573	28481.61
748.911	28475.51
749.25	28376.98
749.589	28183.09
749.928	28190.54
750.267	28271.9
750.605	28204.1
750.944	27992.58
751.283	27861.97
751.621	28097.44
751.96	27894.73
752.298	27942.64
752.636	27842.53
752.975	27599.83
753.313	27460.85
753.651	27750.78
753.989	27488.64
754.327	27353.73
754.666	27295.43
755.004	27329.78
755.342	27350.11
755.679	27257.69
756.017	27040.97
756.355	27071.03
756.693	26933.18
757.031	26920.29
757.368	26881.43
757.706	26864.7
758.044	26621.09
758.381	26799.85
758.719	26508.33
759.056	26635.78
759.394	26513.53
759.731	26375.68
760.068	26276.02
760.405	26181.78
760.743	26042.8
761.08	26097.04
761.417	25932.98
761.754	25959.19
762.091	25840.55
762.428	25731.17
762.765	25657.28
763.102	25566.21
763.438	25581.35
763.775	25318.53
764.112	25251.86
764.449	25284.86
764.785	25065.88
765.122	24957.41
765.458	24921.48
765.795	24820.92
766.131	24712.44
766.467	24705.21
766.804	24576.4
767.14	24447.14
767.476	24452.79
767.812	24345.67
768.148	24474.71
768.485	24161.72
768.821	24026.36
769.157	24020.26
769.492	23981.16
769.828	23832.01
770.164	23588.18
770.5	23566.94
770.836	23666.6
771.171	23551.34
771.507	23486.26
771.842	23180.96
772.178	23269.09
772.513	23097.57
772.849	23026.39
773.184	23049.44
773.519	22972.6
773.855	22797.01
774.19	22744.36
774.525	22731.7
774.86	22626.17
775.195	22568.32
775.53	22451.03
775.865	22361.54
776.2	22188.67
776.535	22100.99
776.87	21967.66
777.205	21870.71
777.539	21832.29
777.874	21857.83
778.209	21611.73
778.543	21649.47
778.878	21457.39
779.212	21546.42
779.547	21409.48
779.881	21447.67
780.215	21244.29
780.55	21265.98
780.884	21110.28
781.218	20991.41
781.552	21054.01
781.886	20957.74
782.22	20712.32
782.554	20676.84
782.888	20506.68
783.222	20443.18
783.556	20329.51
783.889	20302.62
784.223	20148.04
784.557	20108.72
784.89	20127.71
785.224	20016.75
785.557	19921.38
785.891	19863.31
786.224	19749.18
786.558	19804.55
786.891	19567.04
787.224	19535.63
787.557	19329.53
787.891	19373.83
788.224	19247.28
788.557	19324.11
788.89	19285.47
789.223	19236.43
789.556	19052.03
789.888	18958.02
790.221	18923.9
790.554	18812.49
790.887	18847.74
791.219	18739.27
791.552	18645.03
791.884	18602.32
792.217	18436.68
792.549	18407.98
792.882	18262.9
793.214	18281.65
793.546	18248.66
793.879	18173.41
794.211	17984.94
794.543	18017.93
794.875	18000.98
795.207	18029.68
795.539	17963.02
795.871	17835.11
796.203	17718.28
796.535	17631.73
796.867	17626.75
797.198	17499.98
797.53	17507.21
797.862	17417.04
798.193	17491.16
798.525	17378.4
798.856	17369.81
799.188	17119.65
799.519	17138.86
799.85	17050.27
800.182	17056.37
800.513	16977.73
800.844	16875.36
801.175	16939.31
801.506	16848.24
801.837	16718.08
802.168	16695.03
802.499	16580.45
802.83	16563.51
803.161	16517.63
803.491	16555.6
803.822	16500
804.153	16407.8
804.483	16190.86
804.814	16215.49
805.145	16148.83
805.475	16218.66
805.805	16174.59
806.136	16053.69
806.466	16063.86
806.796	15989.28
807.126	15828.84
807.457	15786.8
807.787	15893.69
808.117	15708.61
808.447	15669.74
808.777	15745.9
809.107	15619.12
809.436	15603.08
809.766	15557.88
810.096	15510.2
810.426	15436.76
810.755	15413.93
811.085	15452.57
811.414	15341.16
811.744	15154.05
812.073	15135.29
812.403	15169.87
812.732	15066.14
813.061	15003.77
813.39	14912.93
813.719	14970.78
814.049	14990.89
814.378	14914.28
814.707	14843.1
815.036	14858.69
815.365	14717.45
815.693	14590
816.022	14719.71
816.351	14629.77
816.68	14596.55
817.008	14623.9
817.337	14462.09
817.665	14425.93
817.994	14547.74
818.322	14425.26
818.651	14506.16
818.979	14313.39
819.307	14388.42
819.636	14214.87
819.964	14170.8
820.292	14242.44
820.62	14175.77
820.948	14216.22
821.276	14213.74
821.604	14143.91
821.932	14195.21
822.259	14167.64
822.587	14137.35
822.915	14074.76
823.243	14114.76
823.57	14138.03
823.898	14125.6
824.225	14058.94
824.553	13947.75
824.88	14042.89
825.207	14088.54
825.535	13943.91
825.862	14100.29
826.189	13914.99
826.516	14040.63
826.843	14044.7
827.17	14080.41
827.497	14085.6
827.824	14060.52
828.151	14032.95
828.478	13974.19
828.805	14046.06
829.131	13944.36
829.458	13921.54
829.785	13858.49
830.111	13955.66
830.438	14060.29
830.764	13970.13
831.09	13904.59
831.417	13905.5
831.743	13885.84
832.069	13945.49
832.395	13881.09
832.722	13830.92
833.048	13892.61
833.374	13816.23
833.7	13877.7
834.026	13868.21
834.351	13861.43
834.677	13789.79
835.003	13885.84
835.329	13764.26
835.654	13751.38
835.98	13719.06
836.306	13756.57
836.631	13678.16
836.956	13769.23
837.282	13843.35
837.607	13668.44
837.932	13661.21
838.258	13624.6
838.583	13622.57
838.908	13541.21
839.233	13515
839.558	13519.29
839.883	13441.33
840.208	13448.78
840.533	13402.01
840.858	13463.93
841.182	13448.78
841.507	13328.56
841.832	13304.83
842.156	13305.51
842.481	13310.94
842.805	13199.75
843.13	13306.87
843.454	13235.91
843.778	13193.88
844.103	13090.38
844.427	13178.96
844.751	13110.04
845.075	13056.93
845.399	12959.76
845.723	12897.16
846.047	13016.03
846.371	12936.93
846.695	12893.55
847.019	12674.57
847.343	12710.95
847.666	12655.36
847.99	12605.87
848.313	12510.96
848.637	12437.06
848.96	12523.61
849.284	12460.79
849.607	12393.9
849.931	12334.01
850.254	12263.28
850.577	12237.07
850.9	12124.98
851.223	12167.46
851.546	11984.42
851.869	11949.84
852.192	12006.11
852.515	11917.53
852.838	11940.12
853.161	11888.37
853.483	11833.23
853.806	11741.26
854.129	11689.51
854.451	11692.9
854.774	11608.83
855.096	11612.45
855.419	11572
855.741	11549.17
856.063	11519.8
856.385	11434.37
856.708	11365
857.03	11314.83
857.352	11458.78
857.674	11325
857.996	11316.19
858.318	11302.4
858.64	11212.91
858.961	11226.24
859.283	11212.01
859.605	11161.84
859.926	11119.13
860.248	11090.65
860.57	11042.29
860.891	11089.52
861.212	11025.35
861.534	10951.45
861.855	10974.73
862.176	10985.35
862.498	10965.46
862.819	11023.09
863.14	10894.28
863.461	10897.67
863.782	10847.05
864.103	10819.48
864.424	10800.72
864.745	10890.89
865.065	10765.01
865.386	10770.44
865.707	10818.8
866.027	10830.55
866.348	10755.07
866.668	10713.49
866.989	10654.28
867.309	10611.57
867.63	10628.29
867.95	10551.46
868.27	10572.25
868.59	10519.14
868.91	10511.91
869.23	10489.54
869.55	10433.72
869.87	10623.55
870.19	10538.8
870.51	10529.99
870.83	10485.02
871.15	10439.37
871.469	10388.75
871.789	10453.61
872.109	10461.52
872.428	10294.52
872.748	10343.1
873.067	10286.83
873.386	10394.85
873.706	10379.49
874.025	10271.47
874.344	10320.05
874.663	10348.08
874.982	10320.96
875.301	10311.69
875.62	10263.11
875.939	10231.92
876.258	10227.63
876.577	10202.32
876.896	10197.8
877.214	10162.54
877.533	10218.59
877.852	10238.25
878.17	10139.95
878.489	10137.91
878.807	10140.17
879.125	10108.31
879.444	10087.74
879.762	10024.47
880.08	10099.95
880.398	9996.67
880.716	10050.23
881.034	9994.41
881.352	9915.09
881.67	9936.79
881.988	9963.9
882.306	9942.66
882.624	9855.66
882.941	9866.51
883.259	9841.2
883.577	9816.11
883.894	9771.37
884.212	9782.44
884.529	9757.58
884.846	9781.76
885.164	9793.29
885.481	9741.54
885.798	9774.31
886.115	9627.42
886.432	9661.31
886.75	9577.25
887.067	9644.37
887.383	9576.12
887.7	9569.11
888.017	9540.86
888.334	9486.63
888.651	9508.55
888.967	9479.4
889.284	9513.52
889.6	9454.09
889.917	9390.81
890.233	9441.88
890.55	9297.71
890.866	9299.52
891.182	9343.13
891.498	9279.18
891.815	9302
892.131	9209.8
892.447	9214.55
892.763	9155.79
893.079	9170.48
893.395	9102.91
893.71	9061.1
894.026	9022.46
894.342	9078.5
894.657	9018.17
894.973	8995.57
895.289	8991.5
895.604	8970.71
895.92	8933.2
896.235	8917.6
896.55	8876.93
896.865	8831.51
897.181	8811.39
897.496	8874.44
897.811	8687.33
898.126	8733.2
898.441	8666.54
898.756	8648.69
899.071	8697.27
899.386	8671.96
899.7	8524.85
900.015	8516.49
900.33	8495.69
900.644	8481.91
900.959	8487.33
901.273	8380.44
901.588	8391.29
901.902	8377.51
902.216	8369.37
902.531	8326.66
902.845	8334.34
903.159	8253.22
903.473	8223.84
903.787	8234.91
904.101	8104.74
904.415	8201.24
904.729	8114.69
905.042	8107
905.356	8093.9
905.67	8019.55
905.984	8063.39
906.297	8026.55
906.611	7942.94
906.924	7926.22
907.237	7905.43
907.551	7867.46
907.864	7841.02
908.177	7825.88
908.491	7785.43
908.804	7723.29
909.117	7712.66
909.43	7646.9
909.743	7670.63
910.056	7593.57
910.368	7547.25
910.681	7508.15
910.994	7564.42
911.307	7480.58
911.619	7401.49
911.932	7483.74
912.244	7393.58
912.557	7387.7
912.869	7276.07
913.181	7265.44
913.494	7279.23
913.806	7225.45
914.118	7237.87
914.43	7197.2
914.742	7163.53
915.054	7063.87
915.366	7109.29
915.678	7092.57
915.99	7051.44
916.302	7068.16
916.613	7006.69
916.925	6970.99
917.236	6938.45
917.548	6895.06
917.859	6928.96
918.171	6839.47
918.482	6818.9
918.794	6820.48
919.105	6796.98
919.416	6741.39
919.727	6728.74
920.038	6706.59
920.349	6673.82
920.66	6617.33
920.971	6653.48
921.282	6616.2
921.593	6559.02
921.903	6513.83
922.214	6510.44
922.525	6447.39
922.835	6409.2
923.146	6411.23
923.456	6327.62
923.767	6366.49
924.077	6315.41
924.387	6276.54
924.697	6238.58
925.008	6192.48
925.318	6256.43
925.628	6240.84
925.938	6217.79
926.248	6162.42
926.558	6141.86
926.867	6139.6
927.177	6045.36
927.487	6058.47
927.796	5988.87
928.106	6007.4
928.416	5955.2
928.725	5940.28
929.034	5960.62
929.344	5927.63
929.653	5943.22
929.962	5903.45
930.271	5881.53
930.581	5838.82
930.89	5750
931.199	5780.29
931.508	5761.3
931.817	5727.86
932.125	5700.51
932.434	5656.45
932.743	5599.5
933.051	5626.17
933.36	5615.32
933.669	5535.32
933.977	5528.54
934.286	5568.09
934.594	5499.84
934.902	5463.01
935.21	5457.81
935.519	5423.91
935.827	5443.35
936.135	5337.36
936.443	5349.34
936.751	5314.54
937.059	5351.37
937.367	5305.72
937.674	5316.34
937.982	5281.32
938.29	5229.11
938.597	5200.87
938.905	5151.83
939.213	5162.45
939.52	5104.15
939.827	5157.25
940.135	5084.26
940.442	5049.91
940.749	5026.41
941.056	5000.42
941.363	4940.76
941.67	4962.68
941.977	4947.31
942.284	4884.94
942.591	4943.47
942.898	4862.12
943.205	4847.88
943.511	4823.02
943.818	4791.39
944.125	4769.46
944.431	4800.42
944.738	4767.43
945.044	4783.93
945.35	4726.98
945.657	4706.19
945.963	4679.07
946.269	4648.56
946.575	4677.49
946.881	4696.92
947.187	4615.57
947.493	4588.23
947.799	4581
948.105	4538.96
948.41	4536.02
948.716	4520.88
949.022	4494.22
949.327	4457.61
949.633	4429.13
949.938	4456.48
950.244	4482.01
950.549	4433.65
950.854	4382.13
951.16	4394.56
951.465	4343.94
951.77	4314.11
952.075	4278.63
952.38	4360.44
952.685	4243.15
952.99	4247.44
953.294	4237.05
953.599	4203.15
953.904	4177.62
954.209	4161.57
954.513	4146.66
954.818	4165.64
955.122	4197.28
955.426	4136.04
955.731	4095.81
956.035	4040.44
956.339	4030.28
956.643	4052.2
956.948	4011.29
957.252	4025.3
957.556	3998.86
957.86	3985.3
958.163	3950.5
958.467	3967.23
958.771	3940.56
959.075	3900.34
959.378	3845.87
959.682	3849.04
959.985	3861.69
960.289	3820.79
960.592	3818.53
960.896	3751.41
961.199	3761.36
961.502	3769.27
961.805	3752.32
962.108	3701.47
962.411	3733.11
962.714	3698.08
963.017	3697.18
963.32	3689.72
963.623	3673.9
963.926	3632.09
964.228	3664.18
964.531	3639.1
964.833	3630.51
965.136	3581.93
965.438	3574.24
965.741	3529.5
966.043	3555.03
966.345	3537.86
966.648	3510.74
966.95	3511.19
967.252	3480.46
967.554	3457.18
967.856	3436.17
968.158	3433.68
968.46	3398.88
968.761	3382.38
969.063	3376.73
969.365	3365.89
969.666	3342.61
969.968	3300.8
970.269	3318.66
970.571	3310.75
970.872	3268.49
971.174	3258.32
971.475	3218.32
971.776	3226.23
972.077	3228.26
972.378	3254.48
972.679	3195.72
972.98	3177.19
973.281	3158.66
973.582	3167.93
973.883	3176.51
974.183	3145.55
974.484	3139.9
974.785	3107.14
975.085	3107.36
975.386	3121.82
975.686	3097.42
975.986	3049.51
976.287	2995.73
976.587	3038.21
976.887	3010.42
977.187	3014.48
977.487	2966.12
977.787	2978.78
978.087	2950.3
978.387	2960.7
978.687	2882.51
978.987	2943.3
979.286	2927.71
979.586	2880.93
979.885	2900.36
980.185	2883.41
980.484	2859.91
980.784	2809.97
981.083	2844.77
981.382	2830.08
981.682	2847.71
981.981	2777.43
982.28	2817.43
982.579	2758.44
982.878	2749.41
983.177	2785.56
983.475	2736.98
983.774	2703.98
984.073	2717.99
984.372	2678.9
984.67	2677.54
984.969	2645.45
985.267	2695.62
985.566	2651.1
985.864	2623.31
986.162	2627.6
986.461	2611.1
986.759	2616.53
987.057	2583.76
987.355	2575.4
987.653	2597.77
987.951	2565.46
988.249	2579.24
988.547	2515.29
988.844	2530.65
989.142	2533.14
989.44	2459.24
989.737	2476.64
990.035	2495.63
990.332	2463.08
990.63	2447.27
990.927	2416.98
991.224	2430.09
991.521	2430.54
991.819	2397.78
992.116	2432.35
992.413	2372.47
992.71	2369.08
993.006	2343.77
993.303	2360.71
993.6	2352.13
993.897	2369.75
994.193	2333.82
994.49	2321.62
994.787	2287.72
995.083	2302.64
995.379	2310.55
995.676	2281.17
995.972	2258.57
996.268	2226.26
996.565	2228.74
996.861	2215.86
997.157	2199.36
997.453	2192.13
997.749	2185.8
998.044	2192.13
998.34	2170.66
998.636	2151
998.932	2144.45
999.227	2122.3
999.523	2110.33
999.818	2089.99
1000.114	2088.86
1000.409	2101.06
1000.704	2085.24
1001	2076.2
1001.295	2016.99
1001.59	2076.88
1001.885	2026.94
1002.18	2021.97
1002.475	2035.07
1002.77	2002.53
1003.065	1995.07
1003.359	1961.4
1003.654	1982.65
1003.949	1994.17
1004.243	1963.66
1004.538	1936.77
1004.832	1944.23
1005.127	1917.34
1005.421	1897.68
1005.715	1901.07
1006.009	1861.74
1006.304	1883.67
1006.598	1891.57
1006.892	1847.96
1007.186	1809.09
1007.48	1825.14
1007.773	1818.81
1008.067	1819.49
1008.361	1788.07
1008.655	1787.17
1008.948	1778.81
1009.242	1776.32
1009.535	1765.7
1009.829	1727.51
1010.122	1746.95
1010.415	1735.65
1010.708	1728.87
1011.001	1699.26
1011.295	1704.23
1011.588	1697.46
1011.881	1696.55
1012.173	1673.95
1012.466	1666.04
1012.759	1652.48
1013.052	1651.58
1013.344	1635.99
1013.637	1646.16
1013.93	1648.87
1014.222	1615.65
1014.514	1619.49
1014.807	1595.09
1015.099	1591.92
1015.391	1580.17
1015.683	1576.55
1015.976	1563.67
1016.268	1555.99
1016.56	1520.51
1016.851	1536.56
1017.143	1507.4
1017.435	1506.73
1017.727	1479.16
1018.018	1511.25
1018.31	1514.18
1018.602	1459.5
1018.893	1442.09
1019.185	1429.89
1019.476	1439.84
1019.767	1438.48
1020.058	1441.87
1020.35	1417.01
1020.641	1407.97
1020.932	1405.26
1021.223	1390.8
1021.514	1346.73
1021.804	1347.86
1022.095	1361.87
1022.386	1346.28
1022.677	1348.54
1022.967	1330.23
1023.258	1318.03
1023.548	1308.31
1023.839	1313.28
1024.129	1294.53
1024.419	1251.82
1024.709	1292.95
1025	1296.56
1025.29	1278.26
1025.58	1270.8
1025.87	1244.13
1026.16	1234.87
1026.449	1233.29
1026.739	1229.22
1027.029	1188.99
1027.319	1192.84
1027.608	1200.07
1027.898	1203.46
1028.187	1188.32
1028.477	1194.64
1028.766	1161.65
1029.055	1152.38
1029.344	1158.49
1029.634	1116.23
1029.923	1107.87
1030.212	1152.38
1030.501	1093.4
1030.79	1096.57
1031.078	1104.25
1031.367	1079.62
1031.656	1076
1031.945	1068.09
1032.233	1078.04
1032.522	1072.61
1032.81	1062.67
1033.099	1053.63
1033.387	1075.1
1033.675	1003.24
1033.963	1020.86
1034.251	1021.54
1034.54	1030.58
1034.828	1018.83
1035.116	1000.07
1035.403	1003.24
1035.691	993.97
1035.979	990.13
1036.267	1016.8
1036.554	971.6
1036.842	1013.63
1037.129	979.06
1037.417	939.51
1037.704	957.59
1037.992	947.64
1038.279	947.42
1038.566	925.5
1038.853	925.5
1039.14	925.5
