Data from foil_FLMS001491_006.txt Node
Date: Tue Feb 07 11:25:17 GMT 2017
User: dcchb
Spectrometer: FLMS00149
Trigger mode: 0
Integration Time (sec): 2.000000E-2
Scans to average: 10
Electric dark correction enabled: true
Nonlinearity correction enabled: false
Boxcar width: 0
XAxis mode: Wavelengths
Number of Pixels in Spectrum: 2048
>>>>>Begin Spectral Data<<<<<
341.393	-2.5
341.776	-2.5
342.16	-2.5
342.543	-56.06
342.927	-63.29
343.31	-75.27
343.693	-56.51
344.077	-44.53
344.46	-60.8
344.843	-73.01
345.226	-44.76
345.61	-30.07
345.993	-30.97
346.376	-2.95
346.759	2.25
347.142	49.7
347.525	34.79
347.908	72.3
348.291	74.11
348.674	84.05
349.057	101.68
349.44	122.69
349.823	142.81
350.206	188.23
350.588	264.84
350.971	275.23
351.354	295.57
351.737	316.36
352.119	355.46
352.502	354.78
352.884	368.11
353.267	378.73
353.65	377.38
354.032	401.56
354.414	397.04
354.797	406.3
355.179	424.83
355.562	436.13
355.944	446.53
356.326	411.05
356.709	434.1
357.091	451.27
357.473	445.4
357.855	465.96
358.238	424.61
358.62	467.32
359.002	456.92
359.384	458.05
359.766	473.19
360.148	455.79
360.53	467.32
360.912	453.08
361.294	467.77
361.676	475
362.057	472.97
362.439	469.8
362.821	483.14
363.203	472.52
363.584	461.89
363.966	475.45
364.348	466.64
364.729	462.35
365.111	471.84
365.493	497.6
365.874	476.58
366.256	499.86
366.637	473.42
367.019	497.15
367.4	490.59
367.781	488.79
368.163	507.32
368.544	522.01
368.925	497.15
369.306	526.07
369.688	505.74
370.069	518.62
370.45	519.52
370.831	514.77
371.212	510.03
371.593	546.19
371.974	528.33
372.355	529.92
372.736	546.19
373.117	554.32
373.498	546.19
373.879	531.5
374.26	532.4
374.641	505.51
375.021	557.71
375.402	541.89
375.783	587.09
376.163	621.21
376.544	615.11
376.925	616.47
377.305	596.13
377.686	611.5
378.066	626.18
378.447	617.37
378.827	639.97
379.208	613.98
379.588	607.2
379.968	628.44
380.349	641.55
380.729	635.68
381.109	667.76
381.489	658.05
381.87	674.09
382.25	683.36
382.63	666.64
383.01	695.33
383.39	703.92
383.77	692.17
384.15	702.79
384.53	706.41
384.91	727.42
385.29	720.19
385.67	747.99
386.049	771.27
386.429	753.41
386.809	782.56
387.189	778.5
387.568	783.47
387.948	794.99
388.328	813.98
388.707	806.52
389.087	831.83
389.466	839.51
389.846	846.97
390.225	863.92
390.605	856.01
390.984	882
391.363	926.74
391.743	906.18
392.122	916.12
392.501	932.84
392.881	925.16
393.26	941.2
393.639	969.45
394.018	973.29
394.397	978.72
394.776	998.83
395.155	1017.36
395.534	1019.39
395.913	1025.95
396.292	1054.87
396.671	1067.53
397.05	1081.77
397.429	1069.34
397.808	1055.33
398.186	1081.09
398.565	1094.87
398.944	1113.18
399.323	1134.42
399.701	1142.78
400.08	1135.1
400.458	1149.79
400.837	1169.67
401.215	1187.98
401.594	1176.9
401.972	1208.77
402.351	1217.58
402.729	1244.02
403.107	1249.9
403.486	1240.63
403.864	1267.98
404.242	1277.01
404.62	1316.79
404.999	1321.99
405.377	1352.27
405.755	1354.75
406.133	1387.29
406.511	1416.9
406.889	1432.72
407.267	1421.19
407.645	1468.2
408.023	1471.36
408.401	1492.38
408.779	1502.09
409.156	1553.39
409.534	1554.97
409.912	1574.41
410.29	1577.35
410.667	1647.85
411.045	1632.94
411.422	1650.79
411.8	1680.17
412.178	1731.69
412.555	1731.24
412.933	1769.43
413.31	1789.32
413.687	1805.59
414.065	1822.08
414.442	1833.16
414.819	1921.07
415.197	1884.23
415.574	1920.61
415.951	1925.36
416.328	1963.32
416.705	1976.88
417.082	1989.76
417.46	2011.68
417.837	2035.19
418.214	2052.14
418.591	2085.58
418.967	2074.51
419.344	2115.18
419.721	2166.71
420.098	2159.48
420.475	2179.82
420.852	2217.55
421.228	2239.02
421.605	2235.86
421.982	2268.4
422.358	2283.32
422.735	2361.28
423.111	2334.39
423.488	2366.03
423.864	2405.35
424.241	2422.97
424.617	2417.32
424.994	2465.01
425.37	2502.07
425.746	2513.14
426.123	2562.4
426.499	2572.35
426.875	2634.04
427.251	2640.59
427.627	2681.5
428.003	2756.52
428.379	2790.19
428.756	2795.17
429.132	2845.56
429.507	2886.46
429.883	2921.26
430.259	2974.37
430.635	3004.88
431.011	3020.92
431.387	3074.48
431.763	3152.67
432.138	3131.2
432.514	3211.43
432.89	3228.38
433.265	3309.96
433.641	3333.46
434.016	3369.61
434.392	3407.81
434.767	3537.52
435.143	3459.78
435.518	3539.55
435.894	3512.66
436.269	3620.91
436.644	3634.92
437.02	3693.45
437.395	3670.62
437.77	3773.22
438.145	3850.96
438.52	3866.32
438.895	3918.75
439.271	3889.15
439.646	3989.49
440.021	4028.58
440.395	4071.07
440.77	4041.69
441.145	4054.57
441.52	4191.51
441.895	4160.1
442.27	4197.39
442.645	4213.21
443.019	4301.79
443.394	4284.17
443.769	4327.1
444.143	4321.45
444.518	4412.53
444.892	4424.5
445.267	4445.29
445.641	4501.34
446.016	4499.98
446.39	4562.58
446.764	4552.86
447.139	4566.87
447.513	4679.18
447.887	4652.97
448.262	4683.03
448.636	4742.91
449.01	4836.02
449.384	4836.47
449.758	4847.77
450.132	4949.23
450.506	4936.13
450.88	5007.09
451.254	4976.13
451.628	5081.66
452.002	5131.83
452.376	5146.07
452.75	5231.26
453.123	5238.27
453.497	5342.44
453.871	5358.04
454.244	5500.18
454.618	5529.78
454.992	5650.23
455.365	5617.24
455.739	5761.42
456.112	5793.28
456.486	5860.4
456.859	5880.74
457.232	6037.12
457.606	6002.99
457.979	6025.36
458.352	6231.23
458.725	6261.52
459.099	6301.29
459.472	6433.26
459.845	6499.48
460.218	6528.85
460.591	6630.09
460.964	6638.23
461.337	6801.61
461.71	6918.22
462.083	7009.97
462.456	6978.79
462.829	7006.36
463.201	7166.8
463.574	7228.95
463.947	7264.43
464.32	7427.59
464.692	7496.96
465.065	7536.74
465.438	7704.19
465.81	7781.93
466.183	7802.04
466.555	8030.96
466.928	8053.33
467.3	8037.74
467.672	8122.48
468.045	8350.95
468.417	8447.22
468.789	8535.35
469.161	8615.58
469.534	8751.39
469.906	8964.72
470.278	9023.93
470.65	9083.81
471.022	9261.44
471.394	9450.36
471.766	9585.72
472.138	9656.91
472.51	9862.1
472.882	9943.45
473.253	10100.06
473.625	10193.39
473.997	10471.12
474.369	10427.06
474.74	10616.43
475.112	10787.05
475.484	10925.8
475.855	11178.45
476.227	11300.93
476.598	11593.13
476.97	11592.45
477.341	11937.75
477.713	12097.07
478.084	12083.06
478.455	12547.9
478.827	12635.59
479.198	13040.55
479.569	12965.97
479.94	13327.55
480.311	13523.47
480.682	13771.6
481.053	14076
481.424	14287.07
481.795	14333.85
482.166	14659.94
482.537	14843.89
482.908	15098.12
483.279	15273.93
483.65	15535.85
484.021	15864.43
484.391	16116.85
484.762	16183.97
485.133	16327.47
485.503	16607.23
485.874	16999.54
486.244	17090.16
486.615	17366.08
486.985	17592.29
487.356	17944.37
487.726	18089.68
488.097	18472.95
488.467	18446.05
488.837	18909.77
489.207	19173.49
489.578	19376.65
489.948	19526.03
490.318	19860.93
490.688	19825.68
491.058	20144.31
491.428	20472.67
491.798	20570.07
492.168	21033.11
492.538	21145.87
492.908	21362.81
493.278	21604.39
493.648	21679.19
494.017	22135.9
494.387	22212.28
494.757	22390.58
495.126	22576.57
495.496	22708.77
495.866	22924.81
496.235	23091.81
496.605	23324.8
496.974	23394.17
497.344	23685.01
497.713	23839.13
498.082	24019.69
498.452	24290.19
498.821	24248.39
499.19	24456.97
499.559	24680.47
499.928	24841.59
500.298	25017.18
500.667	25212.88
501.036	25183.28
501.405	25548.47
501.774	25570.16
502.143	25700.1
502.512	25847.22
502.88	25958.4
503.249	26250.37
503.618	26523.13
503.987	26578.5
504.356	26783.69
504.724	26893.06
505.093	27031.14
505.462	27193.4
505.83	27370.79
506.199	27619.82
506.567	27932.58
506.936	27961.74
507.304	28206.25
507.672	28422.74
508.041	28482.85
508.409	28833.58
508.777	29059.33
509.145	29178.65
509.514	29208.71
509.882	29399.89
510.25	29598.3
510.618	29826.32
510.986	29944.74
511.354	30262.69
511.722	30380.2
512.09	30581.1
512.458	30737.93
512.826	30970.02
513.193	31155.32
513.561	31369.56
513.929	31555.09
514.297	31801.64
514.664	32174.96
515.032	32082.76
515.4	32424.9
515.767	32620.6
516.135	32848.61
516.502	32642.52
516.869	33357.75
517.237	33440.01
517.604	33450.18
517.972	33855.82
518.339	34228.24
518.706	34222.36
519.073	34407.22
519.44	34537.61
519.808	35125.39
520.175	35083.13
520.542	35550.69
520.909	35745.26
521.276	35932.6
521.643	36132.82
522.009	36484.9
522.376	36637.89
522.743	36918.11
523.11	37269.06
523.477	37526.46
523.843	37789.5
524.21	38142.71
524.577	38398.52
524.943	38529.37
525.31	38804.39
525.676	39075.79
526.043	39312.17
526.409	39476.69
526.776	40020.18
527.142	40156.44
527.508	40395.31
527.874	40546.94
528.241	40924.11
528.607	40857.22
528.973	41333.14
529.339	41337.66
529.705	41638.44
530.071	42151.65
530.437	42096.96
530.803	42455.82
531.169	42761.57
531.535	42841.12
531.901	42984.39
532.267	43245.63
532.632	43419.41
532.998	43641.1
533.364	43758.61
533.73	43981.65
534.095	44301.42
534.461	44506.39
534.826	44545.26
535.192	44747.96
535.557	45092.13
535.923	45055.07
536.288	45285.12
536.653	45520.82
537.019	45403.99
537.384	45708.84
537.749	45780.03
538.114	45821.38
538.479	45946.57
538.845	46136.63
539.21	46092.79
539.575	46252.78
539.94	46537.52
540.305	46852.77
540.67	46627.46
541.034	47073.32
541.399	47206.65
541.764	47307.44
542.129	47451.17
542.494	47590.6
542.858	47608.45
543.223	47797.83
543.587	47974.09
543.952	47983.58
544.316	48136.12
544.681	48152.84
545.045	48375.44
545.41	48601.19
545.774	48642.77
546.138	48806.84
546.503	48878.47
546.867	48892.49
547.231	49330.67
547.595	49251.57
547.959	49516.2
548.324	49519.59
548.688	49541.96
549.052	49781.73
549.416	49899.46
549.779	49997.77
550.143	50095.17
550.507	50402.73
550.871	50524.53
551.235	50461.71
551.599	50736.73
551.962	50789.84
552.326	50884.52
552.689	51136.72
553.053	50867.57
553.417	51178.08
553.78	51522.92
554.143	51403.83
554.507	51584.62
554.87	51816.48
555.234	52096.47
555.597	51932.63
555.96	52069.8
556.323	52245.62
556.686	52330.81
557.05	52489.45
557.413	52671.6
557.776	52679.73
558.139	52948.65
558.502	52988.88
558.865	53076.56
559.228	53331.69
559.59	53339.37
559.953	53512.03
560.316	53734.62
560.679	53817.1
561.041	54086.93
561.404	54182.97
561.767	54285.56
562.129	54300.93
562.492	54615.5
562.854	54538.21
563.217	54612.79
563.579	54763.07
563.941	54950.86
564.304	55034.25
564.666	55200.12
565.028	55236.05
565.39	55382.94
565.753	55538.64
566.115	55599.2
566.477	55736.15
566.839	55867.67
567.201	55950.61
567.563	56115.12
567.925	56213.2
568.287	56282.8
568.648	56330.93
569.01	56571.38
569.372	56732.28
569.734	56669.68
570.095	56864.93
570.457	56888.21
570.819	56926.17
571.18	56875.55
571.542	57126.17
571.903	57090.24
572.265	57190.35
572.626	57230.8
572.987	57243.45
573.349	57435.76
573.71	57530.9
574.071	57616.1
574.432	57681.63
574.794	57868.52
575.155	57821.29
575.516	57780.16
575.877	57939.71
576.238	57989.65
576.599	58050.44
576.96	58054.05
577.32	58115.97
577.681	58201.85
578.042	58234.84
578.403	58255.4
578.763	58322.97
579.124	58350.54
579.485	58386.25
579.845	58541.05
580.206	58350.09
580.566	58365
580.927	58408.17
581.287	58578.56
581.648	58451.56
582.008	58581.95
582.368	58482.74
582.728	58501.72
583.089	58501.72
583.449	58551.89
583.809	58616.75
584.169	58550.31
584.529	58594.83
584.889	58726.8
585.249	58635.28
585.609	58587.15
585.969	58674.83
586.329	58628.95
586.688	58708.72
587.048	58696.97
587.408	58598.67
587.768	58652.45
588.127	58670.76
588.487	58570.42
588.846	58800.02
589.206	58545.79
589.565	58631.66
589.925	58692.68
590.284	58500.37
590.643	58680.7
591.003	58728.39
591.362	58768.38
591.721	58762.28
592.08	58699.91
592.44	58794.15
592.799	58794.82
593.158	58752.11
593.517	58687.48
593.876	58755.73
594.235	58726.8
594.593	58779.23
594.952	58750.31
595.311	58673.47
595.67	58828.72
596.029	58862.39
596.387	58848.61
596.746	58859.91
597.104	58748.27
597.463	58759.12
597.822	58915.95
598.18	58827.82
598.538	58783.52
598.897	58899.91
599.255	58726.35
599.613	59052.9
599.972	58923.41
600.33	58950.98
600.688	58840.25
601.046	58934.93
601.404	59049.05
601.762	59005.44
602.12	59117.3
602.478	59126.34
602.836	59089.28
603.194	58988.94
603.552	59070.98
603.91	59024.65
604.268	59144.19
604.625	59072.56
604.983	59091.77
605.341	59035.95
605.698	59215.38
606.056	59244.76
606.413	59225.77
606.771	59241.82
607.128	59274.36
607.485	59144.87
607.843	59173.8
608.2	59288.14
608.557	59369.27
608.914	59222.84
609.272	59362.27
609.629	59379.67
609.986	59435.71
610.343	59423.28
610.7	59535.14
611.057	59534.47
611.414	59520.23
611.771	59554.35
612.127	59653.56
612.484	59598.42
612.841	59655.37
613.198	59611.98
613.554	59679.09
613.911	59751.18
614.267	59755.93
614.624	59718.19
614.98	59768.81
615.337	59839.09
615.693	59775.14
616.05	59861.91
616.406	59885.42
616.762	59772.43
617.118	59860.78
617.475	59825.08
617.831	59865.3
618.187	59882.93
618.543	59893.78
618.899	60065.3
619.255	59962.7
619.611	59938.3
619.967	60054.9
620.323	60069.14
620.678	59923.38
621.034	59887.9
621.39	59863.27
621.746	59840.9
622.101	60114.56
622.457	59892.2
622.812	59980.1
623.168	60013.55
623.523	59970.61
623.879	59997.73
624.234	59838.86
624.589	59948.01
624.945	59948.69
625.3	59998.86
625.655	59938.75
626.01	59940.33
626.365	59976.94
626.72	59917.51
627.075	59864.17
627.43	59831.18
627.785	59828.24
628.14	59928.81
628.495	59903.27
628.85	59942.36
629.205	59772.88
629.559	59926.09
629.914	59796.38
630.269	59780.33
630.623	59691.75
630.978	59685.2
631.332	59651.3
631.687	59746.44
632.041	59684.29
632.396	59682.26
632.75	59642.26
633.104	59675.93
633.459	59521.13
633.813	59523.39
634.167	59506.22
634.521	59456.73
634.875	59410.85
635.229	59326.34
635.583	59212.89
635.937	59283.62
636.291	59214.25
636.645	59183.97
636.999	59143.52
637.352	59188.94
637.706	58985.33
638.06	59058.32
638.413	58970.64
638.767	58894.93
639.121	58997.76
639.474	58839.34
639.828	58881.38
640.181	58886.57
640.534	58824.2
640.888	58745.11
641.241	58670.53
641.594	58695.62
641.947	58757.31
642.301	58650.2
642.654	58648.16
643.007	58647.26
643.36	58603.64
643.713	58605.9
644.066	58672.12
644.419	58423.53
644.771	58134.28
645.124	57765.92
645.477	57771.57
645.83	57702.42
646.182	57620.84
646.535	57662.88
646.888	57720.73
647.24	57629.66
647.593	57879.37
647.945	57751.46
648.298	57645.02
648.65	57641.86
649.002	57470.34
649.355	57502.65
649.707	57391.7
650.059	57385.37
650.411	57588.3
650.763	57697.9
651.115	57945.81
651.467	57885.02
651.819	57813.38
652.171	57739.03
652.523	57747.17
652.875	57688.19
653.227	57567.29
653.578	57794.62
653.93	57685.47
654.282	57489.55
654.633	57419.04
654.985	57518.02
655.337	57484.35
655.688	57511.92
656.039	57540.85
656.391	57321.42
656.742	57363.22
657.094	57428.76
657.445	57434.41
657.796	57316.22
658.147	57239.61
658.498	57267.18
658.849	57342.88
659.2	57226.05
659.551	57171.82
659.902	57217.92
660.253	57163.91
660.604	57144.47
660.955	57109.67
661.306	57262.89
661.656	57186.96
662.007	57065.38
662.358	57114.64
662.708	57103.12
663.059	57027.64
663.409	56833.75
663.76	57017.24
664.11	57043.91
664.461	57096.56
664.811	56999.39
665.161	56984.93
665.511	56855.67
665.862	56924.59
666.212	56994.42
666.562	56926.17
666.912	56885.04
667.262	56793.75
667.612	56809.79
667.962	56742.9
668.312	56696.35
668.662	56836.91
669.011	56772.96
669.361	56742.67
669.711	56701.09
670.06	56629.23
670.41	56564.37
670.76	56511.49
671.109	56593.3
671.459	56574.09
671.808	56523.47
672.157	56518.73
672.507	56291.84
672.856	56398.05
673.205	56455.68
673.554	56466.75
673.904	56390.14
674.253	56513.08
674.602	56376.36
674.951	55982.92
675.3	55885.52
675.649	56255.68
675.998	56198.28
676.346	56239.19
676.695	56249.81
677.044	56059.53
677.393	56121.9
677.741	56086.42
678.09	56031.05
678.438	55951.96
678.787	56062.69
679.135	56007.55
679.484	55807.33
679.832	55900.21
680.181	55678.07
680.529	55779.76
680.877	55677.62
681.225	55621.8
681.573	55829.48
681.922	55631.74
682.27	55560.78
682.618	55493.44
682.966	55403.73
683.314	55532.76
683.661	55391.98
684.009	55262.71
684.357	55276.5
684.705	55177.97
685.053	55201.25
685.4	55123.96
685.748	54947.92
686.095	54985.43
686.443	54880.35
686.79	54783.86
687.138	54926.23
687.485	54793.12
687.832	54675.84
688.18	54751.31
688.527	54615.05
688.874	54477.65
689.221	54425
689.568	54339.35
689.915	54293.93
690.262	54363.75
690.609	54203.31
690.956	53981.62
691.303	54032.01
691.65	53938.23
691.997	53837.44
692.344	53684
692.69	53620.04
693.037	53660.95
693.383	53352.93
693.73	53428.19
694.077	53357.45
694.423	53227.74
694.769	53048.76
695.116	53063.68
695.462	53139.61
695.808	52903.68
696.155	52891.93
696.501	52709.11
696.847	52739.16
697.193	52524.48
697.539	52610.13
697.885	52438.83
698.231	52187.31
698.577	52350.02
698.923	52265.05
699.269	52047.43
699.614	51875.01
699.96	51962.69
700.306	51814.89
700.651	51661
700.997	51611.74
701.342	51538.97
701.688	51465.3
702.033	51440.22
702.379	51304.4
702.724	51207
703.069	51320.9
703.415	50849.04
703.76	50855.82
704.105	50768.82
704.45	50719.33
704.795	50445.44
705.14	50549.84
705.485	50419.45
705.83	50149.4
706.175	50307.82
706.52	50204.77
706.865	50047.48
707.209	49950.54
707.554	49772.46
707.899	49954.83
708.243	49718.9
708.588	49649.3
708.932	49346.94
709.277	49365.24
709.621	49435.52
709.966	49103.1
710.31	49278.69
710.654	48905.59
710.998	48958.7
711.342	48826.05
711.687	48856.55
712.031	48631.25
712.375	48623.57
712.719	48551.48
713.063	48386.96
713.407	48596.9
713.75	48255.44
714.094	48275.1
714.438	47970.25
714.782	48076.46
715.125	47940.87
715.469	47850.25
715.812	47712.63
716.156	47411.62
716.499	47443.48
716.843	47476.25
717.186	47236.48
717.53	47408
717.873	47334.79
718.216	47119.2
718.559	47062.25
718.902	46665.43
719.246	47022.48
719.589	46814.57
719.932	46560.34
720.275	46495.26
720.617	46506.33
720.96	46390.4
721.303	46389.95
721.646	46438.09
721.989	46186.79
722.331	46171.65
722.674	46001.49
723.016	46110.41
723.359	46041.04
723.701	45943.41
724.044	45612.12
724.386	45396.98
724.729	45616.41
725.071	45289.64
725.413	45408.74
725.755	45398.57
726.097	45265.46
726.439	44922.42
726.782	45002.42
727.124	45231.11
727.465	44983.21
727.807	44986.83
728.149	44871.8
728.491	44794.51
728.833	44833.84
729.175	44753.39
729.516	44544.8
729.858	44521.08
730.199	44578.93
730.541	44247.64
730.882	44188.43
731.224	44173.74
731.565	44040.86
731.906	43865.27
732.248	43958.15
732.589	43764.71
732.93	43595.9
733.271	43565.17
733.612	43599.29
733.953	43703.47
734.294	43497.6
734.635	43359.98
734.976	43391.84
735.317	43168.12
735.658	43241.56
735.999	43158.63
736.339	42996.82
736.68	43158.85
737.021	42825.53
737.361	42761.57
737.702	42834.34
738.042	42788.92
738.383	42678.41
738.723	42813.32
739.063	42530.39
739.404	42687.9
739.744	42374.24
740.084	42374.24
740.424	42354.8
740.764	42216.28
741.104	42392.77
741.444	42057.41
741.784	41951.88
742.124	41914.36
742.464	41918.88
742.804	41691.32
743.143	41795.27
743.483	41739.23
743.823	41478.9
744.162	41632.11
744.502	41622.17
744.841	41234.16
745.181	41487.93
745.52	41184.21
745.86	41215.85
746.199	41008.17
746.538	40979.93
746.877	41072.58
747.216	40937.21
747.556	40752.36
747.895	40791.91
748.234	40638.47
748.573	40555.98
748.911	40470.56
749.25	40316.44
749.589	40382.2
749.928	40173.39
750.267	40207.29
750.605	40015.66
750.944	39819.05
751.283	39747.42
751.621	39883.46
751.96	39576.12
752.298	39607.08
752.636	39580.64
752.975	39344.71
753.313	39286.64
753.651	39523.01
753.989	39263.36
754.327	39170.71
754.666	39043.25
755.004	38902.01
755.342	38881.45
755.679	38810.04
756.017	38662.47
756.355	38645.98
756.693	38387.68
757.031	38450.05
757.368	38230.39
757.706	38215.93
758.044	37989.72
758.381	38059.32
758.719	37833.12
759.056	37829.05
759.394	37785.21
759.731	37431.32
760.068	37512.9
760.405	37231.32
760.743	37116.52
761.08	37269.06
761.417	36965.12
761.754	36946.36
762.091	36788.17
762.428	36728.96
762.765	36444
763.102	36585.92
763.438	36308.86
763.775	36064.35
764.112	36101.18
764.449	36011.02
764.785	35872.49
765.122	35648.09
765.458	35543.46
765.795	35476.57
766.131	35422.11
766.467	35293.97
766.804	35009.23
767.14	35025.73
767.476	34827.09
767.812	34891.72
768.148	34908.9
768.485	34575.35
768.821	34410.15
769.157	34239.54
769.492	34221.23
769.828	34182.59
770.164	33948.92
770.5	33808.36
770.836	33890.17
771.171	33607.01
771.507	33468.48
771.842	33352.56
772.178	33285.89
772.513	33303.52
772.849	33029.63
773.184	32960.7
773.519	32818.33
773.855	32712.12
774.19	32598.22
774.525	32425.12
774.86	32431.45
775.195	32242.53
775.53	32147.39
775.865	31887.73
776.2	31629.89
776.535	31457.46
776.87	31440.52
777.205	31314.87
777.539	31239.62
777.874	31351.48
778.209	30959.4
778.543	30849.8
778.878	30641.67
779.212	30616.13
779.547	30462.46
779.881	30425.63
780.215	30193.54
780.55	30114
780.884	30002.81
781.218	29904.28
781.552	29931.18
781.886	29658.64
782.22	29610.73
782.554	29335.49
782.888	29164.42
783.222	29047.13
783.556	28984.08
783.889	29046.91
784.223	28728.27
784.557	28624.54
784.89	28726.69
785.224	28523.76
785.557	28361.27
785.891	28237.89
786.224	28263.65
786.558	28193.14
786.891	27849.88
787.224	27950.21
787.557	27914.96
787.891	27773.04
788.224	27664.8
788.557	27558.36
788.89	27601.52
789.223	27412.6
789.556	27204.24
789.888	27078.37
790.221	27090.35
790.554	26767.87
790.887	26857.13
791.219	26791.37
791.552	26726.97
791.884	26488.33
792.217	26378.05
792.549	26367.2
792.882	26199.52
793.214	26034.56
793.546	26094.22
793.879	25845.86
794.211	25706.43
794.543	25714.56
794.875	25637.73
795.207	25700.78
795.539	25527
795.871	25475.7
796.203	25154.58
796.535	25148.48
796.867	25032.55
797.198	24982.83
797.53	24969.05
797.862	24754.14
798.193	24752.78
798.525	24548.04
798.856	24770.86
799.188	24443.86
799.519	24328.39
799.85	24310.08
800.182	24398.67
800.513	24346.24
800.844	24039.81
801.175	24210.42
801.506	24137.43
801.837	23925.46
802.168	23936.98
802.499	23816.31
802.83	23757.78
803.161	23623.32
803.491	23543.77
803.822	23429.88
804.153	23292.93
804.483	23122.77
804.814	23195.99
805.145	23088.42
805.475	23059.94
805.805	22966.16
806.136	22914.41
806.466	22836.45
806.796	22845.71
807.126	22599.62
807.457	22532.95
807.787	22593.29
808.117	22419.96
808.447	22327.99
808.777	22353.07
809.107	22267.2
809.436	22159.63
809.766	22109.24
810.096	22021.33
810.426	21944.04
810.755	21956.24
811.085	21821.33
811.414	21787.66
811.744	21670.38
812.073	21553.77
812.403	21640.09
812.732	21476.71
813.061	21470.16
813.39	21337.5
813.719	21269.48
814.049	21414.56
814.378	21317.84
814.707	21148.36
815.036	21122.59
815.365	21022.71
815.693	20911.98
816.022	20971.64
816.351	20932.54
816.68	20692.32
817.008	20855.48
817.337	20565.55
817.665	20658.65
817.994	20613.23
818.322	20562.16
818.651	20376.17
818.979	20326.68
819.307	20523.51
819.636	20343.41
819.964	20168.95
820.292	20205.33
820.62	20125.56
820.948	20096.63
821.276	20198.1
821.604	20130.98
821.932	20128.95
822.259	20196.74
822.587	20052.57
822.915	20063.41
823.243	20094.6
823.57	20069.97
823.898	20050.31
824.225	19959.91
824.553	19899.35
824.88	20035.17
825.207	20026.35
825.535	19934.38
825.862	20031.78
826.189	19913.81
826.516	19932.12
826.843	19997.2
827.17	19935.05
827.497	19914.26
827.824	19843.31
828.151	19986.13
828.478	19916.52
828.805	19906.13
829.131	19810.54
829.458	19793.59
829.785	19619.81
830.111	19773.7
830.438	19830.2
830.764	19841.72
831.09	19858.67
831.417	19738.9
831.743	19841.72
832.069	19727.38
832.395	19668.85
832.722	19809.18
833.048	19698.45
833.374	19727.6
833.7	19621.84
834.026	19561.96
834.351	19831.55
834.677	19669.98
835.003	19761.27
835.329	19684.21
835.654	19741.16
835.98	19545.91
836.306	19621.16
836.631	19541.39
836.956	19596.76
837.282	19464.33
837.607	19396.76
837.932	19383.21
838.258	19496.2
838.583	19391.34
838.908	19362.41
839.233	19185.47
839.558	19246.71
839.883	19127.84
840.208	19099.82
840.533	19131.91
840.858	19148.86
841.182	19204.23
841.507	19097.56
841.832	18945.93
842.156	18944.8
842.481	18941.18
842.805	18774.63
843.13	18742.09
843.454	18902.54
843.778	18749.1
844.103	18759.27
844.427	18701.64
844.751	18757.68
845.075	18599.27
845.399	18447.41
845.723	18460.74
846.047	18363.12
846.371	18340.29
846.695	18226.63
847.019	18123.13
847.343	18104.82
847.666	17946.86
847.99	17886.52
848.313	17905.73
848.637	17776.92
848.96	17724.49
849.284	17684.27
849.607	17564.04
849.931	17592.97
850.254	17384.84
850.577	17364.95
850.9	17242.92
851.223	17256.71
851.546	17173.77
851.869	17027.11
852.192	17157.27
852.515	16930.16
852.838	16881.58
853.161	16854.23
853.483	16896.94
853.806	16784.4
854.129	16729.72
854.451	16681.81
854.774	16555.71
855.096	16563.17
855.419	16489.95
855.741	16347.8
856.063	16335.38
856.385	16260.12
856.708	16307.58
857.03	16271.42
857.352	16302.83
857.674	16103.52
857.996	15999.11
858.318	15957.53
858.64	15927.02
858.961	15804.77
859.283	15823.52
859.605	15774.71
859.926	15828.5
860.248	15747.37
860.57	15656.98
860.891	15811.32
861.212	15659.24
861.534	15690.19
861.855	15703.3
862.176	15654.26
862.498	15613.13
862.819	15661.72
863.14	15559.12
863.461	15539.92
863.782	15466.92
864.103	15477.09
864.424	15459.92
864.745	15370.43
865.065	15323.88
865.386	15179.93
865.707	15232.13
866.027	15262.18
866.348	15299.47
866.668	15228.74
866.989	15116.88
867.309	15051.79
867.63	15125.46
867.95	15105.35
868.27	14958.46
868.59	15069.87
868.91	15021.29
869.23	15077.33
869.55	14951.91
869.87	14973.38
870.19	14944.23
870.51	15020.38
870.83	14984.68
871.15	14918.92
871.469	14854.51
871.789	14806.38
872.109	14908.75
872.428	14729.09
872.748	14793.04
873.067	14770.22
873.386	14695.19
873.706	14677.11
874.025	14697.9
874.344	14648.87
874.663	14718.69
874.982	14608.42
875.301	14682.09
875.62	14630.79
875.939	14602.31
876.258	14612.26
876.577	14553.95
876.896	14579.26
877.214	14452.04
877.533	14416.33
877.852	14453.62
878.17	14421.98
878.489	14426.05
878.807	14311.93
879.125	14357.57
879.444	14358.48
879.762	14271.25
880.08	14287.07
880.398	14219.95
880.716	14291.59
881.034	14193.74
881.352	14126.62
881.67	14107.41
881.988	14097.02
882.306	14069.22
882.624	14047.53
882.941	14038.03
883.259	14003.23
883.577	14002.56
883.894	14040.07
884.212	13969.34
884.529	13960.75
884.846	13938.38
885.164	13917.81
885.481	13801.66
885.798	13775.44
886.115	13792.62
886.432	13737.03
886.75	13729.12
887.067	13744.03
887.383	13592.4
887.7	13624.26
888.017	13572.51
888.334	13620.42
888.651	13489.35
888.967	13429.01
889.284	13324.16
889.6	13360.09
889.917	13313.99
890.233	13378.39
890.55	13264.27
890.866	13377.26
891.182	13276.25
891.498	13224.5
891.815	13168.23
892.131	13120.77
892.447	13046.65
892.763	13052.3
893.079	12949.93
893.395	12914.22
893.71	12896.82
894.026	12899.53
894.342	12873.55
894.657	12761.01
894.973	12757.16
895.289	12781.8
895.604	12814.56
895.92	12735.02
896.235	12629.71
896.55	12660.22
896.865	12536.15
897.181	12538.64
897.496	12492.54
897.811	12387.68
898.126	12372.77
898.441	12320.34
898.756	12336.84
899.071	12257.06
899.386	12285.76
899.7	12250.96
900.015	12143.17
900.33	12077.18
900.644	12031.53
900.959	12063.4
901.273	12055.94
901.588	11948.6
901.902	11945.66
902.216	11867.02
902.531	11962.16
902.845	11838.09
903.159	11824.31
903.473	11711.77
903.787	11653.24
904.101	11614.6
904.415	11646.46
904.729	11504.32
905.042	11539.34
905.356	11392
905.67	11422.51
905.984	11422.74
906.297	11362.4
906.611	11273.59
906.924	11283.98
907.237	11154.04
907.551	11140.94
907.864	11049.19
908.177	11099.58
908.491	11091.67
908.804	10928.96
909.117	10921.51
909.43	10825.24
909.743	10823.88
910.056	10849.42
910.368	10724.45
910.681	10716.31
910.994	10697.78
911.307	10661.85
911.619	10651.91
911.932	10609.42
912.244	10509.77
912.557	10443.33
912.869	10469.54
913.181	10435.87
913.494	10372.14
913.806	10321.75
914.118	10328.08
914.43	10260.06
914.742	10256.44
915.054	10160.17
915.366	10136.89
915.678	10051.02
915.99	10015.77
916.302	9954.98
916.613	9905.26
916.925	9837.47
917.236	9896
917.548	9919.05
917.859	9846.05
918.171	9729.9
918.482	9724.02
918.794	9661.65
919.105	9632.73
919.416	9470.02
919.727	9481.77
920.038	9505.27
920.349	9446.97
920.66	9395.67
920.971	9397.7
921.282	9349.57
921.593	9224.15
921.903	9302.34
922.214	9226.41
922.525	9192.06
922.835	9165.39
923.146	9121.55
923.456	9075.45
923.767	9017.6
924.077	9074.1
924.387	9008.56
924.697	8865.52
925.008	8921.33
925.318	8801.11
925.628	8840.66
925.938	8709.59
926.248	8682.47
926.558	8677.05
926.867	8636.37
927.177	8597.95
927.487	8589.14
927.796	8513.43
928.106	8524.51
928.416	8431.4
928.725	8419.88
929.034	8364.96
929.344	8332.2
929.653	8314.57
929.962	8287.9
930.271	8224.63
930.581	8192.09
930.89	8173.1
931.199	8127.46
931.508	8090.62
931.817	8151.86
932.125	8025.31
932.434	8088.13
932.743	7931.08
933.051	7963.17
933.36	7952.55
933.669	7901.02
933.977	7811.08
934.286	7850.63
934.594	7751.87
934.902	7735.83
935.21	7726.11
935.519	7680.46
935.827	7695.38
936.135	7636.85
936.443	7559.79
936.751	7491.77
937.059	7512.78
937.367	7363.63
937.674	7438.21
937.982	7350.53
938.29	7330.87
938.597	7376.29
938.905	7244.77
939.213	7241.83
939.52	7206.58
939.827	7244.09
940.135	7206.8
940.442	7184.43
940.749	7064.21
941.056	7074.15
941.363	7037.31
941.67	7028.05
941.977	6929.52
942.284	6864.21
942.591	6884.78
942.898	6821.05
943.205	6852.46
943.511	6814.27
943.818	6800.26
944.125	6768.85
944.431	6722.07
944.738	6703.31
945.044	6668.74
945.35	6645.01
945.657	6616.99
945.963	6549.19
946.269	6584.22
946.575	6554.39
946.881	6547.16
947.187	6521.17
947.493	6419.93
947.799	6436.88
948.105	6343.77
948.41	6381.51
948.716	6324.11
949.022	6324.11
949.327	6306.49
949.633	6223.78
949.938	6191.24
950.244	6205.25
950.549	6207.96
950.854	6110.79
951.16	6153.27
951.465	6098.81
951.77	6054.52
952.075	6062.2
952.38	5973.39
952.685	5941.98
952.99	5955.54
953.294	5934.75
953.599	5853.39
953.904	5873.28
954.209	5834.86
954.513	5837.8
954.818	5797.35
955.122	5743.34
955.426	5758.48
955.731	5749.44
956.035	5708.08
956.339	5725.71
956.643	5661.53
956.948	5608.65
957.252	5584.25
957.556	5624.02
957.86	5523.68
958.163	5485.04
958.467	5489.11
958.771	5469.67
959.075	5436.68
959.378	5440.97
959.682	5417.02
959.985	5378.38
960.289	5321.2
960.592	5285.5
960.896	5332.05
961.199	5266.29
961.502	5249.34
961.805	5203.46
962.108	5129.34
962.411	5182.9
962.714	5121.89
963.017	5146.97
963.32	5098.61
963.623	5072.62
963.926	5098.83
964.228	5041.44
964.531	5025.16
964.833	5033.07
965.136	4976.58
965.438	4976.58
965.741	4943.81
966.043	4916.92
966.345	4876.69
966.648	4894.55
966.95	4879.63
967.252	4781.1
967.554	4802.12
967.856	4782.68
968.158	4708.34
968.46	4714.44
968.761	4718.73
969.063	4705.62
969.365	4666.08
969.666	4633.76
969.968	4620.43
970.269	4598.96
970.571	4600.09
970.872	4590.6
971.174	4526.65
971.475	4577.49
971.776	4494.78
972.077	4557.61
972.378	4468.57
972.679	4490.49
972.98	4447.1
973.281	4410.94
973.582	4441.45
973.883	4401.23
974.183	4334.34
974.484	4352.41
974.785	4261.34
975.085	4302.92
975.386	4303.15
975.686	4238.74
975.986	4229.71
976.287	4222.93
976.587	4189.71
976.887	4175.24
977.187	4164.85
977.487	4150.16
977.787	4123.04
978.087	4095.47
978.387	4072.87
978.687	4063.61
978.987	4069.26
979.286	4075.36
979.586	4055.02
979.885	3956.94
980.185	3973.67
980.484	3926.21
980.784	3978.19
981.083	3915.59
981.382	3921.24
981.682	3943.84
981.981	3852.77
982.28	3824.74
982.579	3814.35
982.878	3842.14
983.177	3771.19
983.475	3791.98
983.774	3748.14
984.073	3740
984.372	3702.94
984.67	3708.36
984.969	3700.45
985.267	3695.26
985.566	3662.04
985.864	3648.25
986.162	3630.4
986.461	3614.81
986.759	3599.21
987.057	3546.79
987.355	3547.24
987.653	3538.88
987.951	3526.45
988.249	3505.2
988.547	3487.13
988.844	3443.51
989.142	3462.95
989.44	3430.4
989.737	3404.19
990.035	3389.73
990.332	3388.6
990.63	3385.43
990.927	3351.54
991.224	3353.34
991.521	3322.84
991.819	3310.41
992.116	3279
992.413	3291.2
992.71	3276.74
993.006	3255.95
993.303	3255.95
993.6	3235.83
993.897	3205.33
994.193	3181.37
994.49	3143.63
994.787	3132.33
995.083	3131.2
995.379	3116.74
995.676	3073.35
995.972	3111.32
996.268	3076.29
996.565	3000.81
996.861	3018.21
997.157	3016.86
997.453	2965.78
997.749	3008.04
998.044	2980.25
998.34	2968.27
998.636	2945.9
998.932	2886.92
999.227	2910.64
999.523	2904.09
999.818	2867.03
1000.114	2876.75
1000.409	2856.18
1000.704	2795.62
1001	2792.91
1001.295	2813.47
1001.59	2784.77
1001.885	2761.95
1002.18	2721.72
1002.475	2730.08
1002.77	2707.71
1003.065	2725.79
1003.359	2674.49
1003.654	2705.45
1003.949	2688.73
1004.243	2654.83
1004.538	2642.85
1004.832	2630.43
1005.127	2652.12
1005.421	2579.35
1005.715	2530.99
1006.009	2545
1006.304	2566.92
1006.598	2498.23
1006.892	2494.61
1007.186	2488.73
1007.48	2441.5
1007.773	2443.31
1008.067	2462.97
1008.361	2422.07
1008.655	2397.89
1008.948	2442.63
1009.242	2378
1009.535	2340.04
1009.829	2340.94
1010.122	2324.67
1010.415	2300.72
1010.708	2303.65
1011.001	2298.68
1011.295	2292.58
1011.588	2300.72
1011.881	2230.89
1012.173	2284.9
1012.466	2220.27
1012.759	2246.71
1013.052	2227.72
1013.344	2225.46
1013.637	2208.06
1013.93	2158.12
1014.222	2182.98
1014.514	2153.38
1014.807	2130.33
1015.099	2091.68
1015.391	2157.44
1015.683	2124.22
1015.976	2086.03
1016.268	2095.07
1016.56	2028.63
1016.851	2032.7
1017.143	2030.67
1017.435	2018.46
1017.727	1992.48
1018.018	1978.24
1018.31	1961.74
1018.602	1965.81
1018.893	1931.91
1019.185	1886.26
1019.476	1903.21
1019.767	1893.27
1020.058	1876.55
1020.35	1866.83
1020.641	1828.86
1020.932	1834.29
1021.223	1828.64
1021.514	1800.39
1021.804	1784.57
1022.095	1783.44
1022.386	1795.64
1022.677	1777.34
1022.967	1716.55
1023.258	1728.53
1023.548	1732.82
1023.839	1698.92
1024.129	1721.3
1024.419	1671.58
1024.709	1653.28
1025	1649.43
1025.29	1645.59
1025.58	1627.74
1025.87	1635.65
1026.16	1630.23
1026.449	1603.11
1026.739	1596.78
1027.029	1557.01
1027.319	1578.25
1027.608	1566.95
1027.898	1576.22
1028.187	1526.5
1028.477	1535.99
1028.766	1511.81
1029.055	1525.14
1029.344	1507.06
1029.634	1516.78
1029.923	1495.09
1030.212	1479.95
1030.501	1459.61
1030.79	1420.97
1031.078	1450.57
1031.367	1428.42
1031.656	1409.21
1031.945	1414.64
1032.233	1415.54
1032.522	1393.62
1032.81	1383
1033.099	1370.12
1033.387	1367.41
1033.675	1347.52
1033.963	1322.66
1034.251	1326.5
1034.54	1293.96
1034.828	1318.37
1035.116	1269.11
1035.403	1281.99
1035.691	1280.18
1035.979	1267.07
1036.267	1261.42
1036.554	1240.41
1036.842	1222.1
1037.129	1240.86
1037.417	1210.58
1037.704	1220.97
1037.992	1225.94
1038.279	1187.3
1038.566	1183.23
1038.853	1183.23
1039.14	1183.23
