Data from foil_FLMS001491_075.txt Node
Date: Tue Feb 07 11:36:42 GMT 2017
User: dcchb
Spectrometer: FLMS00149
Trigger mode: 0
Integration Time (sec): 2.000000E-2
Scans to average: 10
Electric dark correction enabled: true
Nonlinearity correction enabled: false
Boxcar width: 0
XAxis mode: Wavelengths
Number of Pixels in Spectrum: 2048
>>>>>Begin Spectral Data<<<<<
341.393	-8.54
341.776	-8.54
342.16	-8.54
342.543	-74.53
342.927	-51.26
343.31	-69.56
343.693	-91.48
344.077	-57.58
344.46	-71.82
344.843	-56.45
345.226	-30.69
345.61	-26.17
345.993	-13.52
346.376	4.56
346.759	-1.54
347.142	21.74
347.525	51.57
347.908	52.47
348.291	85.24
348.674	96.09
349.057	107.16
349.44	135.86
349.823	156.2
350.206	167.95
350.588	254.72
350.971	270.09
351.354	254.5
351.737	278.23
352.119	306.93
352.502	320.71
352.884	326.59
353.267	323.65
353.65	342.18
354.032	355.06
354.414	374.04
354.797	382.18
355.179	369.75
355.562	398.45
355.944	376.76
356.326	400.94
356.709	405
357.091	384.21
357.473	402.97
357.855	407.49
358.238	411.11
358.62	411.33
359.002	444.55
359.384	407.04
359.766	420.82
360.148	425.12
360.53	431.22
360.912	417.66
361.294	422.86
361.676	424.21
362.057	417.21
362.439	420.6
362.821	429.41
363.203	411.78
363.584	424.89
363.966	416.53
364.348	427.83
364.729	427.38
365.111	409.07
365.493	429.41
365.874	413.14
366.256	432.12
366.637	410.43
367.019	445.68
367.4	427.83
367.781	432.35
368.163	448.17
368.544	426.47
368.925	417.21
369.306	428.73
369.688	459.92
370.069	438.45
370.45	439.13
370.831	434.61
371.212	436.19
371.593	461.73
371.974	442.52
372.355	471.44
372.736	448.84
373.117	481.39
373.498	448.84
373.879	472.35
374.26	452.01
374.641	437.77
375.021	455.85
375.402	482.97
375.783	480.03
376.163	519.35
376.544	521.16
376.925	480.71
377.305	501.72
377.686	499.24
378.066	490.2
378.447	510.54
378.827	519.58
379.208	501.95
379.588	509.63
379.968	538.56
380.349	508.5
380.729	528.16
381.109	547.82
381.489	537.2
381.87	573.81
382.25	578.33
382.63	597.31
383.01	567.71
383.39	582.63
383.77	575.85
384.15	576.75
384.53	583.08
384.91	584.43
385.29	591.21
385.67	601.83
386.049	624.66
386.429	628.05
386.809	629.63
387.189	649.29
387.568	648.84
387.948	651.1
388.328	634.83
388.707	653.58
389.087	680.93
389.466	682.51
389.846	672.57
390.225	689.06
390.605	687.48
390.984	688.16
391.363	712.34
391.743	713.24
392.122	720.02
392.501	717.99
392.881	731.1
393.26	764.54
393.639	781.26
394.018	763.86
394.397	772.68
394.776	766.58
395.155	784.2
395.534	755.73
395.913	807.93
396.292	832.11
396.671	788.04
397.05	798.21
397.429	826.46
397.808	838.44
398.186	858.55
398.565	850.42
398.944	875.73
399.323	888.15
399.701	867.36
400.08	872.56
400.458	860.58
400.837	889.96
401.215	921.6
401.594	928.38
401.972	912.79
402.351	930.19
402.729	932.67
403.107	956.4
403.486	957.08
403.864	983.97
404.242	963.63
404.62	1007.25
404.999	998.89
405.377	1009.73
405.755	1031.43
406.133	1032.33
406.511	1043.63
406.889	1062.39
407.267	1073.01
407.645	1092.44
408.023	1082.95
408.401	1106.23
408.779	1112.1
409.156	1135.15
409.534	1147.58
409.912	1167.24
410.29	1180.12
410.667	1197.07
411.045	1235.72
411.422	1201.37
411.8	1228.94
412.178	1263.74
412.555	1294.7
412.933	1275.72
413.31	1312.78
413.687	1366.11
414.065	1363.62
414.442	1343.06
414.819	1343.96
415.197	1377.63
415.574	1403.17
415.951	1419.89
416.328	1419.21
416.705	1450.85
417.082	1454.02
417.46	1466.22
417.837	1482.04
418.214	1487.69
418.591	1509.61
418.967	1494.24
419.344	1519.1
419.721	1571.3
420.098	1538.08
420.475	1586.67
420.852	1575.14
421.228	1607.23
421.605	1641.58
421.982	1634.58
422.358	1639.32
422.735	1684.29
423.111	1676.61
423.488	1726.32
423.864	1723.61
424.241	1767
424.617	1748.47
424.994	1767.23
425.37	1805.64
425.746	1809.94
426.123	1823.5
426.499	1846.32
426.875	1876.83
427.251	1916.6
427.627	1909.6
428.003	1935.81
428.379	1976.26
428.756	1976.49
429.132	2015.81
429.507	2054.45
429.883	2068.69
430.259	2121.12
430.635	2115.02
431.011	2109.37
431.387	2171.06
431.763	2168.57
432.138	2233.43
432.514	2248.8
432.89	2275.01
433.265	2286.08
433.641	2312.3
434.016	2378.96
434.392	2370.15
434.767	2478.4
435.143	2441.79
435.518	2494.67
435.894	2475.23
436.269	2549.13
436.644	2582.35
437.02	2610.82
437.395	2564.72
437.77	2613.98
438.145	2657.83
438.52	2699.41
438.895	2710.25
439.271	2708.9
439.646	2769.24
440.021	2812.62
440.395	2776.01
440.77	2768.11
441.145	2825.73
441.52	2884.03
441.895	2873.19
442.27	2892.85
442.645	2881.55
443.019	2946.41
443.394	2959.74
443.769	3029.12
444.143	2965.61
444.518	3027.31
444.892	3018.49
445.267	3070.47
445.641	3105.95
446.016	3127.42
446.39	3102.56
446.764	3164.03
447.139	3126.06
447.513	3165.83
447.887	3206.74
448.262	3212.61
448.636	3234.76
449.01	3295.32
449.384	3341.2
449.758	3327.19
450.132	3383.46
450.506	3367.19
450.88	3368.09
451.254	3369.67
451.628	3475.88
452.002	3486.96
452.376	3505.94
452.75	3543.9
453.123	3572.83
453.497	3650.34
453.871	3673.84
454.244	3713.17
454.618	3750.68
454.992	3831.35
455.365	3805.37
455.739	3900.73
456.112	3957.45
456.486	3968.3
456.859	4029.31
457.232	4066.6
457.606	4098.01
457.979	4136.43
458.352	4241.96
458.725	4314.51
459.099	4353.83
459.472	4403.99
459.845	4417.1
460.218	4458.46
460.591	4490.32
460.964	4533.26
461.337	4664.1
461.71	4737.09
462.083	4762.4
462.456	4781.84
462.829	4803.31
463.201	4898.44
463.574	4869.29
463.947	4977.76
464.32	5060.93
464.692	5132.11
465.065	5135.73
465.438	5264.08
465.81	5251.66
466.183	5342.05
466.555	5461.82
466.928	5478.99
467.3	5457.3
467.672	5599.9
468.045	5720.34
468.417	5766.22
468.789	5780.91
469.161	5854.58
469.534	5926.89
469.906	6051.63
470.278	6131.63
470.65	6200.11
471.022	6277.84
471.394	6422.25
471.766	6475.8
472.138	6523.03
472.51	6724.84
472.882	6803.48
473.253	6855.46
473.625	6975.68
473.997	7058.39
474.369	7104.94
474.74	7143.81
475.112	7346.52
475.484	7484.82
475.855	7571.82
476.227	7680.07
476.598	7857.01
476.97	7893.62
477.341	8123.44
477.713	8227.17
478.084	8295.19
478.455	8488.18
478.827	8628.52
479.198	8768.63
479.569	8859.7
479.94	9031.9
480.311	9155.06
480.682	9373.81
481.053	9529.06
481.424	9692.44
481.795	9763.63
482.166	9903.28
482.537	10053.79
482.908	10240.45
483.279	10354.57
483.65	10568.35
484.021	10787.33
484.391	10861.9
484.762	10970.6
485.133	11078.4
485.503	11195
485.874	11495.56
486.244	11601.55
486.615	11820.52
486.985	11874.31
487.356	12123.57
487.726	12238.59
488.097	12520.84
488.467	12553.61
488.837	12775.75
489.207	12935.97
489.578	13118.57
489.948	13270.65
490.318	13451.21
490.688	13464.1
491.058	13634.26
491.428	13896.17
491.798	13967.58
492.168	14304.07
492.538	14289.84
492.908	14477.63
493.278	14716.27
493.648	14741.58
494.017	14881.46
494.387	15054.11
494.757	15193.54
495.126	15329.13
495.496	15331.84
495.866	15480.54
496.235	15613.64
496.605	15860.42
496.974	15884.37
497.344	16047.98
497.713	16115.55
498.082	16308.99
498.452	16420.63
498.821	16478.71
499.19	16628.31
499.559	16712.37
499.928	16901.07
500.298	16913.72
500.667	17196.2
501.036	17059.48
501.405	17326.37
501.774	17349.64
502.143	17412.47
502.512	17554.84
502.88	17764.32
503.249	17784.89
503.618	18042.96
503.987	18054.03
504.356	18086.8
504.724	18277.98
505.093	18341.71
505.462	18405.21
505.83	18609.72
506.199	18719.1
506.567	18961.35
506.936	18904.86
507.304	19194.57
507.672	19204.51
508.041	19316.14
508.409	19456.71
508.777	19616.25
509.145	19833.19
509.514	19843.36
509.882	19911.84
510.25	20134.88
510.618	20323.58
510.986	20367.42
511.354	20525.83
511.722	20681.31
512.09	20813.73
512.458	20939.38
512.826	21112.03
513.193	21171.46
513.561	21237.45
513.929	21409.87
514.297	21705.46
514.664	21852.12
515.032	21919.24
515.4	22134.38
515.767	22235.62
516.135	22300.25
516.502	22255.05
516.869	22706.11
517.237	22784.75
517.604	22659.33
517.972	22977.29
518.339	23182.26
518.706	23217.06
519.073	23420.67
519.44	23582.02
519.808	23812.75
520.175	23868.34
520.542	24273.08
520.909	24221.1
521.276	24484.82
521.643	24648.89
522.009	24729.11
522.376	25019.95
522.743	25200.06
523.11	25278.7
523.477	25564.34
523.843	25700.16
524.21	26011.34
524.577	26247.26
524.943	26359.35
525.31	26403.64
525.676	26725.22
526.043	26815.38
526.409	26923.63
526.776	27279.55
527.142	27342.37
527.508	27480.9
527.874	27618.53
528.241	27864.17
528.607	27915.47
528.973	28198.17
529.339	28332.18
529.705	28611.27
530.071	28880.86
530.437	29047.19
530.803	29095.32
531.169	29276.79
531.535	29225.49
531.901	29461.41
532.267	29556.55
532.632	29759.49
532.998	29991.12
533.364	30092.58
533.73	30154.73
534.095	30416.64
534.461	30570.54
534.826	30679.46
535.192	30852.34
535.557	31129.85
535.923	31001.04
536.288	31264.76
536.653	31307.69
537.019	31343.4
537.384	31392.66
537.749	31682.37
538.114	31727.12
538.479	31787
538.845	31946.1
539.21	31857.51
539.575	32148.8
539.94	32212.75
540.305	32451.39
540.67	32500.88
541.034	32565.74
541.399	32720.31
541.764	32709.69
542.129	32907.2
542.494	33097.93
542.858	33179.96
543.223	33279.39
543.587	33531.82
543.952	33473.96
544.316	33618.14
544.681	33484.36
545.045	33755.54
545.41	33981.3
545.774	34098.81
546.138	34101.52
546.503	34252.7
546.867	34231.01
547.231	34590.77
547.595	34553.71
547.959	34805.68
548.324	34812.46
548.688	34887.94
549.052	35039.35
549.416	35038.44
549.779	35133.81
550.143	35326.12
550.507	35547.13
550.871	35769.5
551.235	35693.12
551.599	36032.32
551.962	36145.53
552.326	36173.55
552.689	36403.83
553.053	36255.59
553.417	36418.07
553.78	36901.22
554.143	36817.15
554.507	36963.59
554.87	37030.93
555.234	37438.61
555.597	37176.24
555.96	37534.42
556.323	37704.36
556.686	37808.31
557.05	38071.13
557.413	38087.4
557.776	38241.07
558.139	38479.48
558.502	38418.02
558.865	38723.54
559.228	38877.89
559.59	39034.04
559.953	39135.96
560.316	39648.49
560.679	39445.56
561.041	39705.67
561.404	40095.94
561.767	40305.88
562.129	40114.24
562.492	40547.45
562.854	40509.94
563.217	40670.39
563.579	40796.26
563.941	41125.97
564.304	41233.53
564.666	41563.24
565.028	41587.65
565.39	41772.96
565.753	42017.92
566.115	42081.2
566.477	42339.72
566.839	42388.98
567.201	42699.94
567.563	42638.7
567.925	42987.39
568.287	42997.56
568.648	43178.12
569.01	43365.68
569.372	43551.67
569.734	43366.59
570.095	43867.59
570.457	44046.12
570.819	43849.74
571.18	43934.25
571.542	44215.38
571.903	44294.7
572.265	44428.48
572.626	44513.9
572.987	44645.65
573.349	44667.34
573.71	44907.56
574.071	45096.48
574.432	45280.43
574.794	45507.32
575.155	45434.55
575.516	45383.26
575.877	45599.07
576.238	45654.89
576.599	45866.41
576.96	45856.24
577.32	45876.12
577.681	46048.32
578.042	46126.74
578.403	46207.41
578.763	46128.32
579.124	46171.94
579.485	46422.78
579.845	46443.57
580.206	46387.07
580.566	46342.78
580.927	46520.4
581.287	46737.34
581.648	46466.39
582.008	46700.74
582.368	46515.43
582.728	46724.92
583.089	46664.35
583.449	46572.83
583.809	46731.24
584.169	46776.21
584.529	46631.36
584.889	46959.03
585.249	46746.38
585.609	46674.07
585.969	46743.22
586.329	46639.95
586.688	46831.13
587.048	46852.82
587.408	46679.94
587.768	46712.94
588.127	46818.02
588.487	46721.3
588.846	46966.27
589.206	46839.71
589.565	46825.48
589.925	46909.77
590.284	46759.26
590.643	47009.65
591.003	46925.81
591.362	46884.01
591.721	46964.91
592.08	46969.2
592.44	47092.59
592.799	46974.85
593.158	46924.23
593.517	46911.8
593.876	46990.45
594.235	46952.03
594.593	46867.96
594.952	47034.74
595.311	46799.26
595.67	46919.94
596.029	47298.46
596.387	47184.34
596.746	47287.39
597.104	46992.48
597.463	47054.62
597.822	47273.15
598.18	47039.94
598.538	47199.25
598.897	47382.3
599.255	46956.32
599.613	47649.64
599.972	47274.51
600.33	47447.38
600.688	47237.44
601.046	47416.65
601.404	47516.76
601.762	47397.21
602.12	47599.24
602.478	47584.55
602.836	47645.57
603.194	47364.45
603.552	47541.62
603.91	47453.71
604.268	47574.16
604.625	47446.7
604.983	47651.9
605.341	47499.13
605.698	47754.72
606.056	47713.36
606.413	47798.79
606.771	47842.85
607.128	47919.91
607.485	47699.13
607.843	47816.64
608.2	47935.05
608.557	48077.65
608.914	48036.75
609.272	48063.41
609.629	48045.33
609.986	48330.3
610.343	48144.09
610.7	48422.27
611.057	48283.07
611.414	48344.76
611.771	48324.65
612.127	48488.48
612.484	48427.02
612.841	48384.31
613.198	48349.73
613.554	48414.14
613.911	48549.95
614.267	48464.53
614.624	48557.18
614.98	48564.42
615.337	48727.8
615.693	48670.63
616.05	48650.51
616.406	48784.75
616.762	48750.17
617.118	48759.66
617.475	48707.91
617.831	48894.58
618.187	48866.55
618.543	48956.27
618.899	49103.38
619.255	49031.75
619.611	48980.22
619.967	48984.97
620.323	49089.15
620.678	48954.46
621.034	48789.95
621.39	48828.14
621.746	48862.49
622.101	49313.77
622.457	48889.6
622.812	48913.33
623.168	49061.35
623.523	48992.88
623.879	49090.73
624.234	48890.28
624.589	49009.15
624.945	49101.12
625.3	49147
625.655	49063.16
626.01	48909.04
626.365	49056.38
626.72	49018.64
627.075	48937.51
627.43	49001.47
627.785	48875.37
628.14	49039.43
628.495	49051.18
628.85	48892.77
629.205	48659.1
629.559	48937.51
629.914	48672.89
630.269	48773.68
630.623	48630.63
630.978	48518.54
631.332	48778.87
631.687	48724.64
632.041	48515.83
632.396	48610.52
632.75	48429.28
633.104	48548.6
633.459	48441.71
633.813	48356.06
634.167	48274.93
634.521	48334.59
634.875	48318.55
635.229	48261.82
635.583	47920.82
635.937	48038.55
636.291	48036.07
636.645	47986.13
636.999	47761.95
637.352	47878.11
637.706	47668.39
638.06	47802.18
638.413	47457.55
638.767	47614.16
639.121	47709.97
639.474	47564.22
639.828	47453.48
640.181	47507.04
640.534	47537.78
640.888	47289.19
641.241	47132.36
641.594	47213.04
641.947	47301.85
642.301	47126.71
642.654	47099.14
643.007	47071.12
643.36	46934.4
643.713	47061.86
644.066	47130.1
644.419	46900.05
644.771	46436.11
645.124	45883.13
645.477	45813.3
645.83	45580.09
646.182	45676.13
646.535	45599.52
646.888	45664.6
647.24	45550.26
647.593	45602.01
647.945	45673.64
648.298	45541.44
648.65	45268.91
649.002	45246.54
649.355	45428
649.707	45204.05
650.059	45207.89
650.411	45505.96
650.763	45623.25
651.115	46064.37
651.467	46012.39
651.819	45857.37
652.171	45681.33
652.523	45674.77
652.875	45594.55
653.227	45601.1
653.578	45853.07
653.93	45715.22
654.282	45495.12
654.633	45408.34
654.985	45503.03
655.337	45642.23
655.688	45460.32
656.039	45675.23
656.391	45146.2
656.742	45228.01
657.094	45233.88
657.445	45392.75
657.796	45150.04
658.147	45084.51
658.498	45102.59
658.849	45077.95
659.2	45184.84
659.551	44995.7
659.902	45042.02
660.253	44896.26
660.604	45073.66
660.955	44781.69
661.306	44985.07
661.656	44767.9
662.007	44829.6
662.358	44708.25
662.708	44712.99
663.059	44659.21
663.409	44485.43
663.76	44554.13
664.11	44656.5
664.461	44624.18
664.811	44631.64
665.161	44650.17
665.511	44456.27
665.862	44577.4
666.212	44648.59
666.562	44576.05
666.912	44471.42
667.262	44350.06
667.612	44295.83
667.962	44504.18
668.312	44138.09
668.662	44498.99
669.011	44371.76
669.361	44360.01
669.711	44313.68
670.06	44271.87
670.41	44080.24
670.76	44218.77
671.109	44370.63
671.459	44016.06
671.808	43989.17
672.157	44021.26
672.507	43765.67
672.856	43826.46
673.205	43776.52
673.554	43943.07
673.904	43804.09
674.253	43950.3
674.602	43783.75
674.951	43185.35
675.3	43074.84
675.649	43594.38
675.998	43520.03
676.346	43553.7
676.695	43629.86
677.044	43433.7
677.393	43346.02
677.741	43421.05
678.09	43134.5
678.438	43159.36
678.787	43336.3
679.135	43284.55
679.484	43066.71
679.832	43204.56
680.181	42943.32
680.529	43028.29
680.877	42887.95
681.225	42817.9
681.573	43037.1
681.922	42791.69
682.27	42591.92
682.618	42626.04
682.966	42523.9
683.314	42568.64
683.661	42382.2
684.009	42275.09
684.357	42226.28
684.705	42141.08
685.053	42188.76
685.4	42020.41
685.748	41895.21
686.095	41958.49
686.443	41774.31
686.79	41631.72
687.138	41705.39
687.485	41712.84
687.832	41497.93
688.18	41569.8
688.527	41125.29
688.874	41283.02
689.221	40974.33
689.568	40904.5
689.915	40729.14
690.262	40837.39
690.609	40679.65
690.956	40597.39
691.303	40577.96
691.65	40367.34
691.997	40296.38
692.344	40051.87
692.69	40018.2
693.037	40058.65
693.383	39763.29
693.73	39870.18
694.077	39515.84
694.423	39588.38
694.769	39486.24
695.116	39449.17
695.462	39241.27
695.808	39198.33
696.155	39172.12
696.501	38888.96
696.847	38883.99
697.193	38637.67
697.539	38865.91
697.885	38482.42
698.231	38450.1
698.577	38455.98
698.923	38278.58
699.269	38041.75
699.614	37912.04
699.96	38070.68
700.306	37958.82
700.651	37718.6
700.997	37590.01
701.342	37380.75
701.688	37435.22
702.033	37364.26
702.379	37327.87
702.724	37226.63
703.069	37285.62
703.415	36849.47
703.76	36783.48
704.105	36724.5
704.45	36681.56
704.795	36354.34
705.14	36458.52
705.485	36439.76
705.83	36290.39
706.175	36136.72
706.52	36059.89
706.865	35868.48
707.209	35916.39
707.554	35777.86
707.899	35885.65
708.243	35555.94
708.588	35516.85
708.932	35348.49
709.277	35294.26
709.621	35347.81
709.966	35079.57
710.31	35070.76
710.654	34930.42
710.998	34980.82
711.342	34892.68
711.687	34813.14
712.031	34650.43
712.375	34546.93
712.719	34648.62
713.063	34515.07
713.407	34509.87
713.75	34350.55
714.094	34258.58
714.438	34222.42
714.782	34330.44
715.125	34133.16
715.469	34014.74
715.812	33813.39
716.156	33685.94
716.499	33732.49
716.843	33845.25
717.186	33514.42
717.53	33683
717.873	33526.39
718.216	33445.04
718.559	33291.37
718.902	33075.1
719.246	33209.11
719.589	32935
719.932	32897.03
720.275	32949.91
720.617	32947.42
720.96	32808.45
721.303	32779.29
721.646	32803.25
721.989	32529.13
722.331	32674.89
722.674	32645.51
723.016	32649.58
723.359	32507.89
723.701	32499.07
724.044	32243.71
724.386	31972.54
724.729	32232.87
725.071	32054.34
725.413	32069.26
725.755	32116.71
726.097	31925.08
726.439	31746.1
726.782	31731.41
727.124	31805.31
727.465	31661.36
727.807	31578.87
728.149	31603.28
728.491	31421.36
728.833	31451.87
729.175	31311.99
729.516	31275.38
729.858	31185.44
730.199	31232.44
730.541	31162.16
730.882	31103.41
731.224	31138.88
731.565	31035.84
731.906	30936.18
732.248	30949.06
732.589	30811.21
732.93	30694.6
733.271	30648.95
733.612	30620.03
733.953	30721.27
734.294	30555.62
734.635	30484.89
734.976	30551.56
735.317	30306.14
735.658	30357.44
735.999	30381.39
736.339	30234.05
736.68	30289.87
737.021	30216.42
737.361	30021.4
737.702	30216.42
738.042	30060.72
738.383	29982.53
738.723	29906.83
739.063	29995.64
739.404	29998.12
739.744	29780.28
740.084	29690.79
740.424	29728.98
740.764	29552.03
741.104	29767.62
741.444	29468.42
741.784	29375.09
742.124	29465.26
742.464	29401.3
742.804	29262.78
743.143	29185.94
743.483	29176.22
743.823	29079.05
744.162	28940.3
744.502	29057.58
744.841	28943.46
745.181	28976.91
745.52	28810.58
745.86	28914.76
746.199	28754.77
746.538	28755.67
746.877	28798.83
747.216	28719.51
747.556	28591.83
747.895	28489.69
748.234	28383.25
748.573	28448.79
748.911	28367.21
749.25	28338.28
749.589	28048.8
749.928	28157.49
750.267	28101
750.605	28060.55
750.944	27976.93
751.283	27936.03
751.621	27994.79
751.96	27863.72
752.298	27728.8
752.636	27755.47
752.975	27613.33
753.313	27421.24
753.651	27552.31
753.989	27457.85
754.327	27403.16
754.666	27172.44
755.004	27158.65
755.342	27209.5
755.679	27041.82
756.017	27059.22
756.355	27016.96
756.693	26917.75
757.031	26918.88
757.368	26799.56
757.706	26814.03
758.044	26603.86
758.381	26610.42
758.719	26485.45
759.056	26455.84
759.394	26231.22
759.731	26100.15
760.068	26243.87
760.405	26068.28
760.743	25914.39
761.08	25937.44
761.417	25810.66
761.754	25809.31
762.091	25753.94
762.428	25653.38
762.765	25500.84
763.102	25543.55
763.438	25488.86
763.775	25233.96
764.112	25287.97
764.449	25218.36
764.785	25158.48
765.122	24856.34
765.458	24790.58
765.795	24694.99
766.131	24678.49
766.467	24661.99
766.804	24546.97
767.14	24396.24
767.476	24429
767.812	24293.64
768.148	24354.43
768.485	24142.01
768.821	24048.9
769.157	24036.92
769.492	23880.77
769.828	23811.17
770.164	23637.39
770.5	23713.77
770.836	23678.74
771.171	23488.69
771.507	23323.27
771.842	23310.16
772.178	23119.66
772.513	22995.37
772.849	23109.04
773.184	22994.24
773.519	22824.75
773.855	22789.5
774.19	22690.52
774.525	22630.41
774.86	22611.43
775.195	22575.72
775.53	22391.32
775.865	22410.07
776.2	22215.5
776.535	22057.32
776.87	21984.78
777.205	21888.05
777.539	21741.17
777.874	21712.01
778.209	21596.54
778.543	21557.22
778.878	21496.65
779.212	21468.86
779.547	21354.06
779.881	21416.88
780.215	21164.46
780.55	21153.38
780.884	20966.27
781.218	20994.97
781.552	20830
781.886	20864.8
782.22	20689.44
782.554	20649.22
782.888	20491.03
783.222	20426.62
783.556	20239.74
783.889	20260.53
784.223	20095.11
784.557	20053.75
784.89	19978.27
785.224	19854.89
785.557	19740.31
785.891	19804.49
786.224	19797.04
786.558	19728.34
786.891	19572.41
787.224	19495.57
787.557	19373.54
787.891	19310.95
788.224	19338.97
788.557	19207.45
788.89	19175.58
789.223	19120.44
789.556	18933.56
789.888	18948.47
790.221	18838.64
790.554	18726.78
790.887	18739.66
791.219	18678.2
791.552	18663.96
791.884	18494.47
792.217	18482.27
792.549	18436.62
792.882	18302.84
793.214	18150.53
793.546	18297.19
793.879	18114.37
794.211	18026.69
794.543	18033.69
794.875	17876.41
795.207	17982.85
795.539	17812.91
795.871	17858.1
796.203	17638
796.535	17536.76
796.867	17596.64
797.198	17509.19
797.53	17443.65
797.862	17383.54
798.193	17376.99
798.525	17198.01
798.856	17325.91
799.188	17122.76
799.519	17048.18
799.85	16964.34
800.182	16975.64
800.513	16949.88
800.844	16835.76
801.175	16880.73
801.506	16802.99
801.837	16690.45
802.168	16621.07
802.499	16604.58
802.83	16523.9
803.161	16485.48
803.491	16460.85
803.822	16407.97
804.153	16285.72
804.483	16211.37
804.814	16213.18
805.145	16038.49
805.475	16152.39
805.805	15965.27
806.136	16075.1
806.466	16024.48
806.796	15916.46
807.126	15807.76
807.457	15759.63
807.787	15773.19
808.117	15623.13
808.447	15598.95
808.777	15570.93
809.107	15529.58
809.436	15544.04
809.766	15520.31
810.096	15442.8
810.426	15317.83
810.755	15432.63
811.085	15319.41
811.414	15291.62
811.744	15103.15
812.073	15235.57
812.403	15076.93
812.732	15024.73
813.061	14917.16
813.39	14918.75
813.719	14796.26
814.049	14932.76
814.378	14872.42
814.707	14833.78
815.036	14787.68
815.365	14773.89
815.693	14616.16
816.022	14644.63
816.351	14525.99
816.68	14553.33
817.008	14634.91
817.337	14428.82
817.665	14514.01
817.994	14451.41
818.322	14401.7
818.651	14364.18
818.979	14337.97
819.307	14360.34
819.636	14214.58
819.964	14221.14
820.292	14182.27
820.62	14116.06
820.948	14097.3
821.276	14128.48
821.604	14089.16
821.932	14077.19
822.259	14136.85
822.587	14125.09
822.915	13957.64
823.243	14074.7
823.57	13986.57
823.898	14035.15
824.225	13989.73
824.553	13999
824.88	14007.58
825.207	14009.39
825.535	14031.99
825.862	13978.43
826.189	13952.44
826.516	14016.85
826.843	13997.19
827.17	14053.01
827.497	14087.58
827.824	14007.13
828.151	13963.29
828.478	13919.45
828.805	13924.2
829.131	13831.54
829.458	13860.47
829.785	13864.99
830.111	13895.27
830.438	13905.21
830.764	13963.97
831.09	13926.46
831.417	13865.21
831.743	13888.04
832.069	13946.12
832.395	13855.5
832.722	13880.13
833.048	13863.63
833.374	13783.86
833.7	13778.21
834.026	13815.72
834.351	13847.36
834.677	13836.97
835.003	13789.74
835.329	13808.94
835.654	13746.35
835.98	13639.01
836.306	13700.47
836.631	13697.76
836.956	13721.94
837.282	13769.85
837.607	13561.49
837.932	13639.23
838.258	13599.91
838.583	13544.09
838.908	13479.69
839.233	13509.74
839.558	13519.23
839.883	13377.32
840.208	13366.02
840.533	13364.21
840.858	13410.76
841.182	13504.55
841.507	13351.1
841.832	13297.55
842.156	13271.56
842.481	13326.47
842.805	13255.29
843.13	13230.43
843.454	13217.55
843.778	13122.86
844.103	13141.39
844.427	13065.91
844.751	13083.99
845.075	13011.9
845.399	12945.01
845.723	12845.35
846.047	12966.71
846.371	12778.92
846.695	12896.2
847.019	12765.81
847.343	12623.67
847.666	12580.73
847.99	12511.13
848.313	12494.18
848.637	12427.51
848.96	12443.56
849.284	12401.07
849.607	12321.07
849.931	12226.16
850.254	12248.99
850.577	12167.18
850.9	12168.08
851.223	12024.81
851.546	11968.99
851.869	11955.21
852.192	11951.82
852.515	11938.26
852.838	11828.66
853.161	11897.36
853.483	11766.96
853.806	11690.13
854.129	11653.52
854.451	11634.99
854.774	11576.91
855.096	11535.11
855.419	11526.07
855.741	11484.26
856.063	11451.04
856.385	11435
856.708	11369.69
857.03	11364.04
857.352	11423.47
857.674	11288.33
857.996	11305.06
858.318	11168.34
858.64	11245.85
858.961	11161.56
859.283	11142.35
859.605	11077.04
859.926	11020.54
860.248	11043.37
860.57	11038.62
860.891	11000.43
861.212	10903.26
861.534	10950.94
861.855	10879.3
862.176	11007.44
862.498	10909.81
862.819	10963.6
863.14	10870.94
863.461	10901.45
863.782	10856.71
864.103	10821.9
864.424	10715.24
864.745	10796.37
865.065	10789.36
865.386	10689.48
865.707	10718.63
866.027	10755.47
866.348	10684.51
866.668	10731.96
866.989	10701
867.309	10598.41
867.63	10607
867.95	10656.49
868.27	10490.84
868.59	10478.64
868.91	10527.45
869.23	10546.66
869.55	10459.65
869.87	10583.27
870.19	10500.78
870.51	10484.74
870.83	10499.65
871.15	10391.63
871.469	10357.96
871.789	10336.04
872.109	10355.25
872.428	10283.84
872.748	10311.86
873.067	10344.4
873.386	10345.31
873.706	10329.71
874.025	10289.04
874.344	10236.16
874.663	10236.16
874.982	10267.79
875.301	10259.43
875.62	10230.96
875.939	10201.81
876.258	10182.37
876.577	10133.79
876.896	10104.18
877.214	10159.78
877.533	10159.78
877.852	10110.74
878.17	10101.92
878.489	10072.09
878.807	10048.37
879.125	9998.88
879.444	10007.24
879.762	10030.51
880.08	10030.74
880.398	9983.73
880.716	9980.8
881.034	9925.21
881.352	9983.51
881.67	9967.46
881.988	9989.16
882.306	9917.97
882.624	9883.17
882.941	9815.6
883.259	9824.42
883.577	9791.65
883.894	9772.67
884.212	9771.76
884.529	9797.3
884.846	9683.4
885.164	9722.5
885.481	9657.87
885.798	9769.95
886.115	9627.59
886.432	9688.83
886.75	9586.23
887.067	9536.06
887.383	9571.09
887.7	9614.93
888.017	9518.44
888.334	9520.7
888.651	9487.25
888.967	9425.78
889.284	9413.35
889.6	9439.79
889.917	9377.65
890.233	9361.83
890.55	9302.85
890.866	9234.83
891.182	9215.62
891.498	9250.42
891.815	9242.29
892.131	9150.76
892.447	9204.77
892.763	9165.9
893.079	9149.86
893.395	9058.79
893.71	9076.87
894.026	9013.59
894.342	9002.74
894.657	8971.56
894.973	8972.24
895.289	8972.91
895.604	8952.58
895.92	8880.94
896.235	8823.77
896.55	8843.43
896.865	8814.73
897.181	8787.38
897.496	8774.73
897.811	8659.02
898.126	8659.7
898.441	8618.35
898.756	8640.72
899.071	8606.37
899.386	8610.66
899.7	8559.14
900.015	8455.19
900.33	8415.87
900.644	8473.27
900.959	8430.1
901.273	8405.92
901.588	8292.93
901.902	8327.51
902.216	8331.8
902.531	8306.94
902.845	8272.59
903.159	8240.05
903.473	8207.28
903.787	8117.8
904.101	8119.15
904.415	8117.12
904.729	8087.51
905.042	8085.71
905.356	8036.22
905.67	7997.57
905.984	8023.11
906.297	8061.98
906.611	7878.71
906.924	7901.3
907.237	7854.07
907.551	7863.56
907.864	7804.58
908.177	7806.62
908.491	7774.53
908.804	7764.58
909.117	7705.38
909.43	7663.34
909.743	7598.03
910.056	7562.1
910.368	7558.71
910.681	7590.35
910.994	7587.64
911.307	7462.45
911.619	7423.8
911.932	7453.18
912.244	7348.32
912.557	7342.9
912.869	7343.58
913.181	7327.99
913.494	7226.29
913.806	7205.73
914.118	7224.49
914.43	7198.95
914.742	7118.73
915.054	7121.44
915.366	7054.09
915.678	7068.78
915.99	7045.96
916.302	6965.51
916.613	6997.37
916.925	6949.69
917.236	6897.04
917.548	6885.96
917.859	6877.6
918.171	6824.04
918.482	6805.29
918.794	6775.91
919.105	6803.03
919.416	6704.27
919.727	6682.35
920.038	6657.27
920.349	6697.49
920.66	6592.19
920.971	6666.31
921.282	6583.37
921.593	6535.46
921.903	6527.55
922.214	6470.38
922.525	6479.42
922.835	6415.01
923.146	6358.07
923.456	6352.19
923.767	6336.37
924.077	6330.72
924.387	6311.74
924.697	6238.07
925.008	6240.78
925.318	6231.74
925.628	6230.61
925.938	6215.02
926.248	6174.8
926.558	6086.44
926.867	6134.57
927.177	6055.25
927.487	6043.27
927.796	5965.76
928.106	5967.8
928.416	5989.94
928.725	5963.95
929.034	5844.18
929.344	5907.91
929.653	5853.67
929.962	5854.8
930.271	5847.12
930.581	5796.73
930.89	5776.61
931.199	5714.24
931.508	5734.13
931.817	5695.94
932.125	5721.7
932.434	5632.89
932.743	5621.82
933.051	5608.26
933.36	5582.95
933.669	5520.12
933.977	5497.75
934.286	5474.7
934.594	5494.59
934.902	5450.75
935.21	5442.84
935.519	5413.46
935.827	5406
936.135	5369.84
936.443	5310.86
936.751	5292.56
937.059	5293.91
937.367	5298.66
937.674	5249.4
937.982	5245.33
938.29	5183.18
938.597	5192.67
938.905	5149.74
939.213	5129.17
939.52	5136.4
939.827	5121.04
940.135	5077.42
940.442	5053.24
940.749	5061.6
941.056	4988.39
941.363	4935.96
941.67	4937.99
941.977	4931.89
942.284	4888.95
942.591	4924.88
942.898	4887.6
943.205	4828.16
943.511	4817.32
943.818	4809.18
944.125	4802.4
944.431	4757.43
944.738	4808.05
945.044	4751.56
945.35	4738.9
945.657	4660.71
945.963	4686.92
946.269	4610.54
946.575	4648.06
946.881	4594.72
947.187	4606.25
947.493	4573.03
947.799	4567.38
948.105	4557.21
948.41	4504.78
948.716	4524.9
949.022	4462.52
949.327	4476.08
949.633	4439.47
949.938	4415.29
950.244	4433.6
950.549	4389.53
950.854	4364.9
951.16	4350.66
951.465	4336.2
951.77	4305.92
952.075	4291.23
952.38	4290.78
952.685	4278.57
952.99	4227.05
953.294	4243.77
953.599	4192.7
953.904	4158.13
954.209	4185.47
954.513	4089.88
954.818	4140.05
955.122	4087.84
955.426	4076.55
955.731	4090.78
956.035	4061.86
956.339	4001.52
956.643	4055.08
956.948	3999.26
957.252	3974.63
957.556	3923.56
957.86	3940.73
958.163	3953.16
958.467	3934.4
958.771	3882.88
959.075	3877
959.378	3852.6
959.682	3884.01
959.985	3835.2
960.289	3808.08
960.592	3815.54
960.896	3809.89
961.199	3814.63
961.502	3748.87
961.805	3748.42
962.108	3719.27
962.411	3721.75
962.714	3678.59
963.017	3647.63
963.32	3674.75
963.623	3651.47
963.926	3664.13
964.228	3607.86
964.531	3580.06
964.833	3603.11
965.136	3586.61
965.438	3607.41
965.741	3573.28
966.043	3557.24
966.345	3543.45
966.648	3486.96
966.95	3473.4
967.252	3477.01
967.554	3441.99
967.856	3422.78
968.158	3407.86
968.46	3378.26
968.761	3373.74
969.063	3370.12
969.365	3315.21
969.666	3360.86
969.968	3267.08
970.269	3309.11
970.571	3286.28
970.872	3289.22
971.174	3315.44
971.475	3263.01
971.776	3241.77
972.077	3233.86
972.378	3211.48
972.679	3222.78
972.98	3188.66
973.281	3155.89
973.582	3174.65
973.883	3112.5
974.183	3163.35
974.484	3131.49
974.785	3125.16
975.085	3081.32
975.386	3106.4
975.686	3096.46
975.986	3041.77
976.287	3037.25
976.587	3042.9
976.887	3026.86
977.187	3049.23
977.487	2995.9
977.787	2960.19
978.087	2959.06
978.387	2965.16
978.687	2887.65
978.987	2894.66
979.286	2894.66
979.586	2846.3
979.885	2864.37
980.185	2849.23
980.484	2842.45
980.784	2825.73
981.083	2832.96
981.382	2826.86
981.682	2829.35
981.981	2824.37
982.28	2816.24
982.579	2764.72
982.878	2723.81
983.177	2756.58
983.475	2723.36
983.774	2726.75
984.073	2692.63
984.372	2683.36
984.67	2690.59
984.969	2673.64
985.267	2693.3
985.566	2660.31
985.864	2607.21
986.162	2587.09
986.461	2603.14
986.759	2623.25
987.057	2592.52
987.355	2585.74
987.653	2586.42
987.951	2556.36
988.249	2529.92
988.547	2495.12
988.844	2525.63
989.142	2521.78
989.44	2507.55
989.737	2453.09
990.035	2462.35
990.332	2464.16
990.63	2480.43
990.927	2459.64
991.224	2433.65
991.521	2442.69
991.819	2409.24
992.116	2399.75
992.413	2369.92
992.71	2378.96
993.006	2366.53
993.303	2368.34
993.6	2348.23
993.897	2331.73
994.193	2307.33
994.49	2300.32
994.787	2290.15
995.083	2260.1
995.379	2271.4
995.676	2279.08
995.972	2246.76
996.268	2241.34
996.565	2237.27
996.861	2204.05
997.157	2199.76
997.453	2184.17
997.749	2185.75
998.044	2178.06
998.34	2143.71
998.636	2124.96
998.932	2147.1
999.227	2111.85
999.523	2129.7
999.818	2127.44
1000.114	2094.22
1000.409	2086.09
1000.704	2101
1001	2071.17
1001.295	2068.46
1001.59	2049.25
1001.885	2044.51
1002.18	2039.31
1002.475	2039.76
1002.77	1979.2
1003.065	1998.18
1003.359	1986.43
1003.654	1963.61
1003.949	1959.31
1004.243	1955.25
1004.538	1910.27
1004.832	1906.43
1005.127	1907.34
1005.421	1907.34
1005.715	1880.67
1006.009	1901.91
1006.304	1887
1006.598	1852.42
1006.892	1878.41
1007.186	1845.42
1007.48	1849.26
1007.773	1767
1008.067	1808.36
1008.361	1791.41
1008.655	1790.73
1008.948	1771.52
1009.242	1777.17
1009.535	1760.67
1009.829	1767
1010.122	1752.31
1010.415	1729.49
1010.708	1687.91
1011.001	1716.83
1011.295	1694.69
1011.588	1717.74
1011.881	1660.11
1012.173	1690.17
1012.466	1667.57
1012.759	1672.99
1013.052	1657.4
1013.344	1614.69
1013.637	1625.99
1013.93	1613.79
1014.222	1616.27
1014.514	1592.09
1014.807	1592.54
1015.099	1588.7
1015.391	1603.16
1015.683	1542.6
1015.976	1571.98
1016.268	1520.68
1016.56	1516.16
1016.851	1524.75
1017.143	1534.69
1017.435	1511.42
1017.727	1479.55
1018.018	1493.56
1018.31	1466.67
1018.602	1459.21
1018.893	1461.92
1019.185	1451.76
1019.476	1461.7
1019.767	1411.76
1020.058	1399.1
1020.35	1395.71
1020.641	1388.03
1020.932	1389.61
1021.223	1414.47
1021.514	1374.7
1021.804	1351.87
1022.095	1341.02
1022.386	1340.35
1022.677	1317.52
1022.967	1339.67
1023.258	1299.9
1023.548	1299.67
1023.839	1316.17
1024.129	1275.72
1024.419	1282.95
1024.709	1250.4
1025	1254.92
1025.29	1263.51
1025.58	1238.65
1025.87	1256.05
1026.16	1224.19
1026.449	1221.71
1026.739	1201.14
1027.029	1252.44
1027.319	1215.6
1027.608	1208.15
1027.898	1156.62
1028.187	1176.96
1028.477	1188.71
1028.766	1158.2
1029.055	1138.32
1029.344	1178.99
1029.634	1132.67
1029.923	1138.09
1030.212	1120.69
1030.501	1115.04
1030.79	1103.52
1031.078	1119.56
1031.367	1089.96
1031.656	1080.92
1031.945	1064.2
1032.233	1074.36
1032.522	1070.97
1032.81	1055.83
1033.099	1061.71
1033.387	1034.14
1033.675	1045.89
1033.963	1028.26
1034.251	1027.59
1034.54	1050.41
1034.828	1003.63
1035.116	999.79
1035.403	1007.93
1035.691	1000.24
1035.979	975.38
1036.267	984.42
1036.554	980.13
1036.842	957.98
1037.129	1001.15
1037.417	969.96
1037.704	945.55
1037.992	950.75
1038.279	934.26
1038.566	923.86
1038.853	923.86
1039.14	923.86
