Data from foil_FLMS001491_038.txt Node
Date: Tue Feb 07 11:26:15 GMT 2017
User: dcchb
Spectrometer: FLMS00149
Trigger mode: 0
Integration Time (sec): 2.000000E-2
Scans to average: 10
Electric dark correction enabled: true
Nonlinearity correction enabled: false
Boxcar width: 0
XAxis mode: Wavelengths
Number of Pixels in Spectrum: 2048
>>>>>Begin Spectral Data<<<<<
341.393	-16.98
341.776	-16.98
342.16	-16.98
342.543	-44.32
342.927	-55.17
343.31	-88.84
343.693	-53.13
344.077	-66.24
344.46	-46.58
344.843	-68.95
345.226	-49.74
345.61	-40.03
345.993	2.23
346.376	8.11
346.759	16.69
347.142	18.05
347.525	48.11
347.908	48.56
348.291	73.19
348.674	95.34
349.057	103.25
349.44	131.72
349.823	132.17
350.206	201.1
350.588	266.18
350.971	272.96
351.354	302.56
351.737	297.14
352.119	332.62
352.502	333.07
352.884	367.87
353.267	375.78
353.65	354.76
354.032	380.53
354.414	400.41
354.797	414.2
355.179	387.76
355.562	392.05
355.944	391.37
356.326	435.21
356.709	426.4
357.091	437.47
357.473	438.15
357.855	442.45
358.238	456
358.62	416.68
359.002	429.79
359.384	454.2
359.766	452.39
360.148	452.84
360.53	439.51
360.912	450.13
361.294	460.98
361.676	452.84
362.057	461.65
362.439	455.33
362.821	453.75
363.203	456
363.584	474.31
363.966	470.02
364.348	463.69
364.729	463.01
365.111	442.22
365.493	480.19
365.874	448.77
366.256	446.97
366.637	454.42
367.019	462.78
367.4	481.09
367.781	466.17
368.163	479.28
368.544	478.83
368.925	504.37
369.306	493.74
369.688	493.29
370.069	501.65
370.45	507.98
370.831	481.32
371.212	504.14
371.593	505.72
371.974	507.76
372.355	517.25
372.736	527.19
373.117	538.49
373.498	530.58
373.879	521.99
374.26	502.11
374.641	510.24
375.021	491.94
375.402	546.17
375.783	560.86
376.163	577.36
376.544	553.18
376.925	560.18
377.305	571.71
377.686	569.22
378.066	580.07
378.447	589.56
378.827	576.68
379.208	583.46
379.588	592.05
379.968	608.54
380.349	596.57
380.729	623.91
381.109	612.84
381.489	609.45
381.87	625.04
382.25	639.95
382.63	668.43
383.01	651.93
383.39	659.84
383.77	666.17
384.15	675.43
384.53	672.27
384.91	689.67
385.29	718.14
385.67	698.26
386.049	731.7
386.429	742.33
386.809	735.32
387.189	730.8
387.568	757.92
387.948	743.91
388.328	749.78
388.707	760.86
389.087	770.57
389.466	823.45
389.846	806.73
390.225	807.18
390.605	830.91
390.984	851.47
391.363	848.31
391.743	853.96
392.122	869.33
392.501	896.9
392.881	898.03
393.26	893.73
393.639	889.44
394.018	926.5
394.397	936.22
394.776	945.48
395.155	939.38
395.534	939.83
395.913	942.32
396.292	986.39
396.671	988.65
397.05	987.06
397.429	994.97
397.808	995.43
398.186	1011.02
398.565	1016.67
398.944	1056.22
399.323	1069.55
399.701	1047.85
400.08	1089.43
400.458	1103.22
400.837	1105.48
401.215	1092.37
401.594	1125.14
401.972	1138.47
402.351	1155.87
402.729	1153.61
403.107	1145.48
403.486	1188.19
403.864	1202.88
404.242	1203.33
404.62	1233.16
404.999	1224.57
405.377	1252.59
405.755	1281.07
406.133	1269.77
406.511	1294.63
406.889	1327.17
407.267	1340.95
407.645	1368.52
408.023	1406.71
408.401	1385.25
408.779	1432.25
409.156	1457.56
409.534	1456.66
409.912	1468.41
410.29	1499.37
410.667	1505.47
411.045	1539.59
411.422	1560.61
411.8	1565.13
412.178	1583.43
412.555	1624.56
412.933	1621.17
413.31	1665.69
413.687	1699.14
414.065	1678.8
414.442	1692.36
414.819	1730.32
415.197	1748.4
415.574	1830.88
415.951	1804.67
416.328	1813.48
416.705	1851.45
417.082	1834.73
417.46	1850.32
417.837	1916.08
418.214	1956.3
418.591	1945.23
418.967	1976.64
419.344	2016.64
419.721	2009.41
420.098	2014.16
420.475	2070.65
420.852	2076.3
421.228	2075.17
421.605	2123.98
421.982	2130.76
422.358	2164.43
422.735	2214.38
423.111	2159.69
423.488	2218.9
423.864	2242.62
424.241	2251.66
424.617	2288.05
424.994	2317.65
425.37	2327.59
425.746	2295.05
426.123	2375.28
426.499	2416.86
426.875	2424.09
427.251	2493.24
427.627	2533.69
428.003	2571.88
428.379	2630.64
428.756	2585.67
429.132	2642.84
429.507	2688.04
429.883	2766.23
430.259	2789.05
430.635	2806.68
431.011	2823.17
431.387	2913.12
431.763	2921.02
432.138	2939.1
432.514	2999.21
432.89	3008.03
433.265	3074.47
433.641	3116.5
434.016	3179.55
434.392	3174.58
434.767	3242.37
435.143	3266.33
435.518	3299.09
435.894	3356.72
436.269	3403.95
436.644	3400.33
437.02	3468.13
437.395	3482.14
437.77	3541.35
438.145	3593.55
438.52	3613.89
438.895	3627.9
439.271	3658.86
439.646	3805.97
440.021	3761
440.395	3772.53
440.77	3781.57
441.145	3821.34
441.52	3865.63
441.895	3852.98
442.27	3922.58
442.645	3979.98
443.019	4021.56
443.394	3995.57
443.769	4039.64
444.143	4008.68
444.518	4083.03
444.892	4092.75
445.267	4124.61
445.641	4147.43
446.016	4236.92
446.39	4215.45
446.764	4251.16
447.139	4244.83
447.513	4305.4
447.887	4334.1
448.262	4357.37
448.636	4410.7
449.01	4438.95
449.384	4497.93
449.758	4518.5
450.132	4572.28
450.506	4567.76
450.88	4629.23
451.254	4650.47
451.628	4652.05
452.002	4777.93
452.376	4781.77
452.75	4869.9
453.123	4892.5
453.497	4975.21
453.871	5020.4
454.244	5146.28
454.618	5157.12
454.992	5189.89
455.365	5287.52
455.739	5401.19
456.112	5416.33
456.486	5419.26
456.859	5479.38
457.232	5638.92
457.606	5580.16
457.979	5691.12
458.352	5850.44
458.725	5834.85
459.099	5914.62
459.472	6036.2
459.845	6102.41
460.218	6133.37
460.591	6243.88
460.964	6219.7
461.337	6453.59
461.71	6519.35
462.083	6599.35
462.456	6584.66
462.829	6655.62
463.201	6732.22
463.574	6788.49
463.947	6848.38
464.32	6977.64
464.692	7085.89
465.065	7186.45
465.438	7240.91
465.81	7357.74
466.183	7417.63
466.555	7566.1
466.928	7590.28
467.3	7647.23
467.672	7761.35
468.045	8030.72
468.417	8063.71
468.789	8077.95
469.161	8203.6
469.534	8318.85
469.906	8466.64
470.278	8566.75
470.65	8619.63
471.022	8807.42
471.394	8983.46
471.766	9055.78
472.138	9205.61
472.51	9348.2
472.882	9460.29
473.253	9634.75
473.625	9713.16
473.997	9985.7
474.369	10051.23
474.74	10118.58
475.112	10314.28
475.484	10594.72
475.855	10663.87
476.227	10752.68
476.598	11071.77
476.97	11092.11
477.341	11423.4
477.713	11591.98
478.084	11635.6
478.455	12007.79
478.827	12099.99
479.198	12485.75
479.569	12383.15
479.94	12825.17
480.311	12963.47
480.682	13244.6
481.053	13532.05
481.424	13681.87
481.795	13826.95
482.166	14034.4
482.537	14173.16
482.908	14554.84
483.279	14664.22
483.65	15000.26
484.021	15368.16
484.391	15370.19
484.762	15563.86
485.133	15777.18
485.503	15997.52
485.874	16256.95
486.244	16414
486.615	16817.38
486.985	16913.65
487.356	17270.7
487.726	17460.76
488.097	17817.36
488.467	17867.75
488.837	18192.26
489.207	18389.77
489.578	18671.57
489.948	18876.76
490.318	19064.33
490.688	19198.34
491.058	19506.8
491.428	19791.54
491.798	19953.57
492.168	20325.31
492.538	20419.1
492.908	20512.2
493.278	21041.9
493.648	20937.5
494.017	21284.84
494.387	21452.74
494.757	21520.08
495.126	21835.1
495.496	21960.98
495.866	21999.85
496.235	22372.26
496.605	22513.5
496.974	22664.69
497.344	22931.35
497.713	23042.98
498.082	23228.29
498.452	23504.89
498.821	23579.01
499.19	23727.03
499.559	23935.84
499.928	23966.57
500.298	24183.06
500.667	24520.46
501.036	24452.89
501.405	24749.6
501.774	24861.92
502.143	24992.31
502.512	25169.71
502.88	25336.48
503.249	25465.97
503.618	25684.72
503.987	25752.51
504.356	26014.65
504.724	26082.45
505.093	26210.13
505.462	26418.49
505.83	26520.86
506.199	26847.4
506.567	27070.67
506.936	26974.4
507.304	27459.14
507.672	27480.83
508.041	27712.24
508.409	27877.88
508.777	28123.53
509.145	28236.74
509.514	28365.33
509.882	28685.32
510.25	28779.33
510.618	29017.06
510.986	29078.3
511.354	29421.35
511.722	29673.77
512.09	29993.76
512.458	29955.12
512.826	30138.61
513.193	30402.79
513.561	30525.72
513.929	30821.53
514.297	31077.8
514.664	31275.31
515.032	31372.71
515.4	31689.08
515.767	31871.68
516.135	32007.27
516.502	31999.58
516.869	32668.72
517.237	32639.57
517.604	32588.95
517.972	33123.85
518.339	33309.38
518.706	33492.65
519.073	33659.65
519.44	33880.21
519.808	34214.89
520.175	34381.89
520.542	34801.99
520.909	34987.98
521.276	34983.68
521.643	35393.39
522.009	35709.99
522.376	36023.43
522.743	36100.27
523.11	36472.69
523.477	36842.39
523.843	37118.54
524.21	37453.22
524.577	37649.38
524.943	37843.95
525.31	37967.56
525.676	38474.67
526.043	38682.57
526.409	38829.91
526.776	39248.21
527.142	39329.11
527.508	39718.02
527.874	39987.85
528.241	40316.88
528.607	40373.15
528.973	40801.61
529.339	40742.86
529.705	41161.83
530.071	41500.8
530.437	41691.98
530.803	41764.98
531.169	42051.3
531.535	42097.62
531.901	42323.6
532.267	42514.56
532.632	42913.65
532.998	43022.34
533.364	43259.63
533.73	43435.44
534.095	43850.57
534.461	43880.63
534.826	44039.94
535.192	44291.24
535.557	44625.92
535.923	44678.57
536.288	44892.35
536.653	44972.8
537.019	44921.73
537.384	45206.47
537.749	45410.08
538.114	45547.93
538.479	45556.97
538.845	45843.29
539.21	45829.5
539.575	46008.71
539.94	46156.72
540.305	46594.68
540.67	46391.52
541.034	46758.29
541.399	46922.58
541.764	47102.91
542.129	47199.63
542.494	47330.48
542.858	47369.57
543.223	47527.99
543.587	47714.2
543.952	47785.16
544.316	47838.04
544.681	47812.5
545.045	48204.58
545.41	48321.64
545.774	48501.3
546.138	48553.72
546.503	48897.22
546.867	48683.44
547.231	49070.09
547.595	49109.64
547.959	49337.88
548.324	49393.25
548.688	49455.17
549.052	49683.41
549.416	49812
549.779	49869.62
550.143	49957.98
550.507	50297.41
550.871	50399.32
551.235	50372.88
551.599	50731.07
551.962	50748.92
552.326	50886.09
552.689	51091.06
553.053	51055.13
553.417	51117.05
553.78	51616.47
554.143	51420.09
554.507	51670.93
554.87	51657.6
555.234	51990.47
555.597	51924.26
555.96	52039.96
556.323	52265.94
556.686	52326.73
557.05	52524.69
557.413	52728.08
557.776	52823.67
558.139	53035.87
558.502	53130.1
558.865	53149.99
559.228	53494.84
559.59	53650.09
559.953	53580.48
560.316	53944.32
560.679	53920.81
561.041	54092.56
561.404	54225.66
561.767	54436.51
562.129	54423.4
562.492	54689.61
562.854	54709.72
563.217	54833.56
563.579	54886.66
563.941	55087.11
564.304	55203.94
564.666	55426.31
565.028	55460.21
565.39	55642.8
565.753	55779.75
566.115	55842.8
566.477	55946.52
566.839	56004.15
567.201	56251.15
567.563	56304.93
567.925	56499.73
568.287	56474.42
568.648	56621.53
569.01	56720.97
569.372	56876.67
569.734	56800.96
570.095	56970
570.457	57120.28
570.819	57135.19
571.18	57147.4
571.542	57378.58
571.903	57362.31
572.265	57495.41
572.626	57638
572.987	57643.65
573.349	57759.13
573.71	57868.96
574.071	57934.72
574.432	58000.48
574.794	58163.87
575.155	58096.52
575.516	58032.57
575.877	58197.76
576.238	58227.37
576.599	58290.42
576.96	58314.37
577.32	58411.77
577.681	58475.5
578.042	58553.23
578.403	58548.71
578.763	58553.91
579.124	58607.7
579.485	58707.13
579.845	58750.97
580.206	58714.13
580.566	58802.27
580.927	58818.31
581.287	58934.92
581.648	58775.6
582.008	58966.78
582.368	58831.19
582.728	58942.15
583.089	58921.13
583.449	58967.23
583.809	58939.21
584.169	59021.7
584.529	58959.78
584.889	59175.59
585.249	59033.67
585.609	58916.84
585.969	59044.29
586.329	58939.66
586.688	59095.37
587.048	59077.74
587.408	59010.4
587.768	59013.79
588.127	59069.61
588.487	58971.08
588.846	59209.04
589.206	59075.03
589.565	59056.27
589.925	59154.57
590.284	59058.76
590.643	59134.69
591.003	59196.83
591.362	59245.65
591.721	59167.68
592.08	59154.12
592.44	59299.2
592.799	59241.13
593.158	59158.19
593.517	59148.47
593.876	59171.3
594.235	59130.85
594.593	59140.79
594.952	59318.41
595.311	59238.64
595.67	59200.68
596.029	59347.34
596.387	59318.41
596.746	59341.01
597.104	59284.51
597.463	59369.71
597.822	59443.83
598.18	59335.59
598.538	59361.57
598.897	59484.96
599.255	59310.05
599.613	59662.81
599.972	59522.93
600.33	59584.85
600.688	59446.09
601.046	59518.18
601.404	59571.29
601.762	59534.68
602.12	59645.41
602.478	59679.53
602.836	59638.18
603.194	59562.7
603.552	59591.63
603.91	59555.24
604.268	59652.19
604.625	59605.64
604.983	59739.64
605.341	59617.39
605.698	59747.55
606.056	59749.14
606.413	59721.57
606.771	59828.68
607.128	59867.32
607.485	59848.34
607.843	59800.66
608.2	59901
608.557	60096.92
608.914	59955.91
609.272	60038.39
609.629	60055.12
609.986	60145.73
610.343	59985.74
610.7	60253.98
611.057	60207.88
611.414	60197.26
611.771	60207.65
612.127	60307.31
612.484	60216.02
612.841	60270.7
613.198	60246.75
613.554	60290.14
613.911	60397.71
614.267	60379.85
614.624	60391.6
614.98	60486.97
615.337	60538.49
615.693	60478.61
616.05	60486.06
616.406	60561.32
616.762	60490.58
617.118	60537.36
617.475	60536.69
617.831	60606.51
618.187	60621.2
618.543	60590.24
618.899	60695.78
619.255	60660.3
619.611	60644.25
619.967	60686.96
620.323	60762.22
620.678	60764.93
621.034	60657.13
621.39	60634.54
621.746	60649.9
622.101	60834.53
622.457	60698.94
622.812	60699.84
623.168	60771.93
623.523	60809.22
623.879	60917.01
624.234	60751.82
624.589	60731.48
624.945	60798.37
625.3	60806.51
625.655	60789.79
626.01	60822.33
626.365	60877.47
626.72	60714.76
627.075	60736
627.43	60743.69
627.785	60685.83
628.14	60724.25
628.495	60734.87
628.85	60681.09
629.205	60633.41
629.559	60706.17
629.914	60561.09
630.269	60651.48
630.623	60535.33
630.978	60612.16
631.332	60611.03
631.687	60674.53
632.041	60522.67
632.396	60617.36
632.75	60499.17
633.104	60493.97
633.459	60404.03
633.813	60300.08
634.167	60354.77
634.521	60409.46
634.875	60402.23
635.229	60281.55
635.583	60210.14
635.937	60149.12
636.291	60145.28
636.645	60199.07
636.999	60115.68
637.352	60088.34
637.706	59964.95
638.06	60121.55
638.413	59981.9
638.767	59986.42
639.121	59997.94
639.474	59914.1
639.828	59956.14
640.181	59957.04
640.534	59929.02
640.888	59881.79
641.241	59720.21
641.594	59858.74
641.947	59830.94
642.301	59795.69
642.654	59751.85
643.007	59786.65
643.36	59742.36
643.713	59689.93
644.066	59769.25
644.419	59544.62
644.771	59269.6
645.124	58909.38
645.477	58877.75
645.83	58746.68
646.182	58736.96
646.535	58762.27
646.888	58885.2
647.24	58772.89
647.593	58973.11
647.945	58929.04
648.298	58762.49
648.65	58624.87
649.002	58593.91
649.355	58647.02
649.707	58497.87
650.059	58569.96
650.411	58775.38
650.763	58887.69
651.115	59115.48
651.467	59054.01
651.819	59036.16
652.171	58904.64
652.523	58937.86
652.875	58959.78
653.227	58824.19
653.578	58940.57
653.93	58825.54
654.282	58802.49
654.633	58729.27
654.985	58790.29
655.337	58729.73
655.688	58786.9
656.039	58795.49
656.391	58604.08
656.742	58695.83
657.094	58625.77
657.445	58715.49
657.796	58613.8
658.147	58679.78
658.498	58545.33
658.849	58590.3
659.2	58560.24
659.551	58529.96
659.902	58597.3
660.253	58524.31
660.604	58529.73
660.955	58454.25
661.306	58546
661.656	58439.79
662.007	58415.84
662.358	58421.49
662.708	58425.78
663.059	58468.72
663.409	58247.93
663.76	58412.45
664.11	58378.32
664.461	58409.28
664.811	58393.01
665.161	58353.24
665.511	58256.07
665.862	58303.98
666.212	58340.13
666.562	58225.11
666.912	58204.09
667.262	58179.46
667.612	58200.48
667.962	58179.68
668.312	58151.66
668.662	58279.12
669.011	58225.11
669.361	58182.62
669.711	58113.47
670.06	58173.81
670.41	58071.89
670.76	58035.28
671.109	58129.29
671.459	58029.18
671.808	58031.67
672.157	58053.36
672.507	57862.63
672.856	57920.71
673.205	57944.89
673.554	58065.11
673.904	57962.06
674.253	58102.4
674.602	57920.48
674.951	57603.43
675.3	57488.18
675.649	57839.13
675.998	57819.92
676.346	57796.19
676.695	57899.92
677.044	57678.91
677.393	57765.68
677.741	57711
678.09	57619.93
678.438	57529.08
678.787	57638.68
679.135	57668.06
679.484	57447.27
679.832	57599.59
680.181	57311.01
680.529	57421.29
680.877	57299.03
681.225	57340.16
681.573	57450.66
681.922	57270.78
682.27	57129.09
682.618	57170.9
682.966	57112.82
683.314	57129.54
683.661	57024.24
684.009	56887.97
684.357	56955.31
684.705	56890.91
685.053	56896.55
685.4	56863.34
685.748	56672.38
686.095	56653.85
686.443	56600.29
686.79	56593.74
687.138	56627.86
687.485	56568.88
687.832	56488.2
688.18	56534.98
688.527	56328.21
688.874	56332.05
689.221	56298.83
689.568	56172.96
689.915	56131.6
690.262	56052.96
690.609	55976.8
690.956	56007.31
691.303	55996.69
691.65	55786.98
691.997	55710.6
692.344	55590.15
692.69	55620.88
693.037	55632.86
693.383	55341.79
693.73	55372.75
694.077	55207.33
694.423	55209.59
694.769	55062.93
695.116	54989.26
695.462	55027.23
695.808	54886.66
696.155	54915.59
696.501	54657.07
696.847	54745.2
697.193	54480.35
697.539	54554.92
697.885	54357.19
698.231	54448.94
698.577	54361.25
698.923	54194.7
699.269	54038.55
699.614	53898.22
699.96	53936.63
700.306	53977.76
700.651	53720.37
700.997	53688.96
701.342	53690.09
701.688	53685.79
702.033	53562.86
702.379	53549.75
702.724	53442.63
703.069	53487.38
703.415	53125.13
703.76	53069.99
704.105	53115.64
704.45	52970.56
704.795	52980.95
705.14	52679.94
705.485	52674.29
705.83	52636.78
706.175	52694.63
706.52	52433.4
706.865	52335.09
707.209	52280.18
707.554	52230.24
707.899	52278.82
708.243	52023.01
708.588	51915.22
708.932	51843.13
709.277	51854.88
709.621	51846.97
709.966	51490.6
710.31	51577.15
710.654	51347.1
710.998	51549.35
711.342	51462.57
711.687	51345.97
712.031	51209.25
712.375	50994.11
712.719	51011.29
713.063	51022.36
713.407	51002.02
713.75	50920.67
714.094	50845.87
714.438	50730.39
714.782	50658.3
715.125	50482.71
715.469	50473.67
715.812	50273.23
716.156	50197.75
716.499	50292.66
716.843	50217.63
717.186	50016.51
717.53	50274.58
717.873	50206.56
718.216	50007.47
718.559	49828.04
718.902	49614.03
719.246	49682.28
719.589	49589.63
719.932	49488.84
720.275	49488.39
720.617	49434.15
720.96	49300.82
721.303	49291.33
721.646	49351.89
721.989	49075.52
722.331	49254.72
722.674	49018.34
723.016	49066.93
723.359	48925.46
723.701	48980.83
724.044	48730.44
724.386	48621.29
724.729	48658.35
725.071	48639.37
725.413	48543.33
725.755	48575.19
726.097	48258.82
726.439	48223.11
726.782	48142.43
727.124	48195.31
727.465	47975.43
727.807	47887.3
728.149	47786.96
728.491	47673.52
728.833	47636.91
729.175	47457.03
729.516	47396.24
729.858	47342.68
730.199	47453.41
730.541	47282.12
730.882	47307.65
731.224	47355.34
731.565	47097.49
731.906	47172.29
732.248	47213.19
732.589	46828.57
732.93	46883.71
733.271	46916.48
733.612	46910.15
733.953	46912.18
734.294	46737.73
734.635	46472.87
734.976	46577.5
735.317	46532.99
735.658	46658.18
735.999	46463.16
736.339	46328.47
736.68	46272.43
737.021	46205.76
737.361	46009.38
737.702	46245.31
738.042	45931.87
738.383	45844.64
738.723	45906.79
739.063	45713.12
739.404	45843.29
739.744	45628.6
740.084	45504.54
740.424	45704.53
740.764	45397.65
741.104	45452.34
741.444	45373.92
741.784	45319.46
742.124	45338.89
742.464	45238.56
742.804	45075.17
743.143	44895.74
743.483	45040.82
743.823	44886.93
744.162	44814.16
744.502	44760.38
744.841	44525.58
745.181	44684.22
745.52	44433.83
745.86	44478.35
746.199	44371.46
746.538	44289.65
746.877	44359.71
747.216	44239.71
747.556	44086.95
747.895	43961.08
748.234	43888.31
748.573	43821.19
748.911	43878.14
749.25	43810.12
749.589	43585.49
749.928	43707.3
750.267	43677.47
750.605	43587.53
750.944	43333.52
751.283	43249.91
751.621	43255.78
751.96	43173.07
752.298	43032.51
752.636	42952.51
752.975	42708
753.313	42580.1
753.651	42782.35
753.989	42538.29
754.327	42449.93
754.666	42199.99
755.004	42258.75
755.342	42254
755.679	42200.44
756.017	41939.89
756.355	42090.16
756.693	41735.15
757.031	41734.92
757.368	41514.59
757.706	41426.23
758.044	41321.37
758.381	41368.6
758.719	41103.3
759.056	41215.39
759.394	41020.14
759.731	40775.17
760.068	40869.63
760.405	40651.78
760.743	40581.73
761.08	40580.15
761.417	40343.77
761.754	40170.89
762.091	40131.8
762.428	40113.27
762.765	39907.17
763.102	39826.04
763.438	39613.39
763.775	39296.57
764.112	39335.89
764.449	39346.73
764.785	39271.26
765.122	38872.17
765.458	38749.91
765.795	38653.19
766.131	38481.22
766.467	38464.5
766.804	38350.38
767.14	38203.49
767.476	38235.12
767.812	38149.25
768.148	37939.99
768.485	37659.09
768.821	37526.22
769.157	37605.54
769.492	37206.45
769.828	37393.56
770.164	36919.23
770.5	36895.72
770.836	36747.25
771.171	36743.64
771.507	36625
771.842	36461.16
772.178	36560.59
772.513	36378.45
772.849	36278.34
773.184	36066.82
773.519	35961.74
773.855	35706.6
774.19	35582.09
774.525	35383.45
774.86	35453.5
775.195	35267.97
775.53	35004.48
775.865	35158.37
776.2	34822.56
776.535	34675.9
776.87	34533.3
777.205	34455.56
777.539	34137.38
777.874	34315.45
778.209	33842.02
778.543	33958.85
778.878	33604.29
779.212	33583.04
779.547	33386.89
779.881	33407.45
780.215	33242.94
780.55	33165.2
780.884	33030.74
781.218	32955.26
781.552	32909.84
781.886	32743.52
782.22	32548.04
782.554	32586.91
782.888	32095.85
783.222	32138.56
783.556	31862.64
783.889	31926.14
784.223	31625.58
784.557	31551.91
784.89	31529.99
785.224	31345.81
785.557	31148.53
785.891	31221.07
786.224	31040.06
786.558	31056.1
786.891	30827.64
787.224	30607.53
787.557	30544.25
787.891	30542.9
788.224	30374.77
788.557	30424.48
788.89	30266.52
789.223	30227.88
789.556	30142.23
789.888	29928.68
790.221	29738.62
790.554	29650.94
790.887	29562.13
791.219	29382.25
791.552	29410.05
791.884	29343.38
792.217	29100.22
792.549	29024.07
792.882	28890.96
793.214	28785.66
793.546	28771.64
793.879	28575.04
794.211	28325.55
794.543	28564.87
794.875	28355.84
795.207	28457.3
795.539	28341.15
795.871	28159.01
796.203	27818
796.535	27660.49
796.867	27709.53
797.198	27630.43
797.53	27748.39
797.862	27646.02
798.193	27565.57
798.525	27201.06
798.856	27384.79
799.188	26990.22
799.519	26985.7
799.85	26875.88
800.182	26760.62
800.513	26739.38
800.844	26506.39
801.175	26647.63
801.506	26579.39
801.837	26380.75
802.168	26352.5
802.499	26311.6
802.83	26103.47
803.161	26034.54
803.491	26037.71
803.822	26092.17
804.153	25798.62
804.483	25782.57
804.814	25573.99
805.145	25606.98
805.475	25650.37
805.805	25304.39
806.136	25454.44
806.466	25394.33
806.796	25326.31
807.126	25112.76
807.457	25127.67
807.787	25122.25
808.117	24952.54
808.447	24867.34
808.777	24870.96
809.107	24705.99
809.436	24680.68
809.766	24627.12
810.096	24626.67
810.426	24405.21
810.755	24477.75
811.085	24421.7
811.414	24286.11
811.744	24134.48
812.073	24055.38
812.403	24009.51
812.732	23916.18
813.061	23903.07
813.39	23738.1
813.719	23648.62
814.049	23643.64
814.378	23600.48
814.707	23532.69
815.036	23574.95
815.365	23519.35
815.693	23264.22
816.022	23281.39
816.351	23145.13
816.68	23001.17
817.008	23209.76
817.337	22939.48
817.665	22828.3
817.994	22864.46
818.322	22911.91
818.651	22793.5
818.979	22704.46
819.307	22806.6
819.636	22565.48
819.964	22419.95
820.292	22561.41
820.62	22492.04
820.948	22381.53
821.276	22503.11
821.604	22444.13
821.932	22415.2
822.259	22429.89
822.587	22370.91
822.915	22316.45
823.243	22501.98
823.57	22396.9
823.898	22386.5
824.225	22328.42
824.553	22297.92
824.88	22238.94
825.207	22306.05
825.535	22236
825.862	22412.72
826.189	22292.94
826.516	22399.61
826.843	22395.32
827.17	22378.59
827.497	22351.93
827.824	22331.14
828.151	22339.5
828.478	22323.68
828.805	22266.73
829.131	22248.43
829.458	22182.67
829.785	22113.51
830.111	22047.75
830.438	22202.33
830.764	22221.31
831.09	22237.35
831.417	22092.72
831.743	22212.5
832.069	22146.73
832.395	22023.8
832.722	22070.13
833.048	22097.92
833.374	22074.19
833.7	21984.25
834.026	21863.8
834.351	21907.19
834.677	21905.38
835.003	21910.58
835.329	21932.05
835.654	21885.5
835.98	21888.66
836.306	21863.8
836.631	21768.66
836.956	21841.43
837.282	21864.93
837.607	21776.12
837.932	21730.47
838.258	21714.66
838.583	21675.33
838.908	21690.7
839.233	21655
839.558	21655
839.883	21505.17
840.208	21399.86
840.533	21419.52
840.858	21430.14
841.182	21442.8
841.507	21381.56
841.832	21200.32
842.156	21223.37
842.481	21207.78
842.805	21200.54
843.13	21062.02
843.454	21063.6
843.778	20942.25
844.103	21137.95
844.427	20950.83
844.751	21081
845.075	20968.01
845.399	20739.31
845.723	20687.11
846.047	20712.42
846.371	20603.5
846.695	20483.73
847.019	20298.2
847.343	20332.09
847.666	20173.68
847.99	20134.81
848.313	19985.66
848.637	19999.22
848.96	19907.24
849.284	19898.66
849.607	19667.25
849.931	19622.05
850.254	19582.51
850.577	19508.84
850.9	19362.17
851.223	19391.78
851.546	19414.6
851.869	19215.06
852.192	19192.46
852.515	19025.23
852.838	18976.65
853.161	18996.99
853.483	18860.49
853.806	18868.4
854.129	18885.35
854.451	18755.64
854.774	18698.92
855.096	18646.26
855.419	18605.13
855.741	18591.35
856.063	18385.93
856.385	18348.42
856.708	18299.15
857.03	18288.98
857.352	18401.3
857.674	18227.74
857.996	18208.53
858.318	18016
858.64	18014.41
858.961	17966.05
859.283	17981.19
859.605	17773.97
859.926	17870.69
860.248	17855.77
860.57	17754.08
860.891	17692.61
861.212	17615.1
861.534	17608.32
861.855	17658.49
862.176	17591.6
862.498	17540.98
862.819	17627.76
863.14	17511.6
863.461	17444.71
863.782	17357.71
864.103	17450.36
864.424	17364.71
864.745	17363.81
865.065	17206.98
865.386	17138.05
865.707	17220.08
866.027	17215.34
866.348	17135.57
866.668	17206.52
866.989	17169.92
867.309	16999.75
867.63	16913.2
867.95	17035.23
868.27	16908
868.59	16982.12
868.91	16944.61
869.23	17046.98
869.55	16971.05
869.87	17027.55
870.19	16887.89
870.51	16882.92
870.83	16908
871.15	16754.33
871.469	16761.79
871.789	16872.3
872.109	16820.32
872.428	16649.93
872.748	16754.11
873.067	16753.43
873.386	16656.71
873.706	16622.59
874.025	16598.86
874.344	16567.67
874.663	16482.48
874.982	16549.82
875.301	16500.55
875.62	16465.53
875.939	16491.74
876.258	16466.43
876.577	16480.89
876.896	16407.68
877.214	16357.73
877.533	16326.55
877.852	16267.11
878.17	16265.76
878.489	16199.09
878.807	16097.4
879.125	16105.09
879.444	16175.37
879.762	16154.58
880.08	16134.91
880.398	16128.59
880.716	16079.77
881.034	16101.02
881.352	16147.57
881.67	16114.58
881.988	16077.29
882.306	15953.9
882.624	15966.56
882.941	15841.82
883.259	15838.2
883.577	15823.96
883.894	15803.62
884.212	15750.52
884.529	15691.31
884.846	15720.91
885.164	15744.19
885.481	15639.56
885.798	15677.75
886.115	15595.95
886.432	15595.04
886.75	15484.31
887.067	15551.88
887.383	15472.11
887.7	15444.09
888.017	15376.52
888.334	15555.95
888.651	15400.47
888.967	15315.28
889.284	15153.92
889.6	15224.43
889.917	15125.68
890.233	15079.12
890.55	15011.1
890.866	15052.23
891.182	15041.16
891.498	15041.38
891.815	14847.72
892.131	14837.32
892.447	14903.53
892.763	14761.62
893.079	14773.59
893.395	14762.97
893.71	14773.14
894.026	14682.07
894.342	14699.92
894.657	14601.85
894.973	14567.95
895.289	14526.14
895.604	14377.45
895.92	14326.37
896.235	14361.63
896.55	14388.29
896.865	14160.96
897.181	14235.98
897.496	14257
897.811	14191.24
898.126	14213.16
898.441	14058.59
898.756	13941.3
899.071	13888.19
899.386	13938.36
899.7	13796.67
900.015	13802.77
900.33	13708.76
900.644	13791.7
900.959	13770.46
901.273	13636.68
901.588	13530.69
901.902	13445.49
902.216	13512.38
902.531	13399.85
902.845	13422.44
903.159	13365.27
903.473	13257.25
903.787	13217.48
904.101	13191.26
904.415	13139.97
904.729	13048.44
905.042	13042.34
905.356	12990.59
905.67	13007.31
905.984	12964.38
906.297	12926.41
906.611	12891.61
906.924	12860.88
907.237	12734.78
907.551	12629.47
907.864	12688
908.177	12679.86
908.491	12544.73
908.804	12520.55
909.117	12399.42
909.43	12391.06
909.743	12285.52
910.056	12287.11
910.368	12302.93
910.681	12146.09
910.994	12125.53
911.307	12190.39
911.619	12010.28
911.932	12118.98
912.244	11956.72
912.557	12012.99
912.869	11835.14
913.181	11861.13
913.494	11786.55
913.806	11751.3
914.118	11749.04
914.43	11564.19
914.742	11688.7
915.054	11528.26
915.366	11543.62
915.678	11431.99
915.99	11415.26
916.302	11371.2
916.613	11345.44
916.925	11305.44
917.236	11286.68
917.548	11206.91
917.859	11195.16
918.171	11172.79
918.482	11005.78
918.794	10858.44
919.105	10920.59
919.416	10839.69
919.727	10879.01
920.038	10831.78
920.349	10704.55
920.66	10707.49
920.971	10702.74
921.282	10656.19
921.593	10650.54
921.903	10523.54
922.214	10550.2
922.525	10490.32
922.835	10459.13
923.146	10405.57
923.456	10419.58
923.767	10350.66
924.077	10302.3
924.387	10241.06
924.697	10231.79
925.008	10169.42
925.318	10117.9
925.628	10027.96
925.938	9982.76
926.248	9890.33
926.558	9844.23
926.867	9892.14
927.177	9858.92
927.487	9830.22
927.796	9748.42
928.106	9704.35
928.416	9741.86
928.725	9658.02
929.034	9662.09
929.344	9604.69
929.653	9567.18
929.962	9416.9
930.271	9382.78
930.581	9382.1
930.89	9359.27
931.199	9324.25
931.508	9272.27
931.817	9210.8
932.125	9221.88
932.434	9255.55
932.743	9096.91
933.051	9000.41
933.36	8992.73
933.669	8988.21
933.977	8921.77
934.286	8931.04
934.594	8926.52
934.902	8788.67
935.21	8786.63
935.519	8720.42
935.827	8737.37
936.135	8632.06
936.443	8628.22
936.751	8627.09
937.059	8564.94
937.367	8562.46
937.674	8500.54
937.982	8463.03
938.29	8477.71
938.597	8441.78
938.905	8290.38
939.213	8331.73
939.52	8289.25
939.827	8257.16
940.135	8290.38
940.442	8180.1
940.749	8105.75
941.056	8123.6
941.363	8039.53
941.67	8016.48
941.977	8044.96
942.284	7908.24
942.591	7883.61
942.898	7827.79
943.205	7846.32
943.511	7768.58
943.818	7781.91
944.125	7776.94
944.431	7722.03
944.738	7718.64
945.044	7606.55
945.35	7608.59
945.657	7546.67
945.963	7513.67
946.269	7525.65
946.575	7542.37
946.881	7454.24
947.187	7501.7
947.493	7336.5
947.799	7357.74
948.105	7287.24
948.41	7252.21
948.716	7255.6
949.022	7191.2
949.327	7193.23
949.633	7087.24
949.938	7128.6
950.244	7066.9
950.549	7012.67
950.854	7038.88
951.16	6964.53
951.465	6931.99
951.77	6946
952.075	6866.91
952.38	6838.66
952.685	6879.34
952.99	6775.39
953.294	6788.49
953.599	6707.14
953.904	6731.77
954.209	6666.01
954.513	6720.25
954.818	6599.57
955.122	6678.67
955.426	6647.25
955.731	6565.22
956.035	6526.81
956.339	6508.28
956.643	6458.56
956.948	6426.47
957.252	6429.41
957.556	6379.47
957.86	6266.02
958.163	6322.97
958.467	6275.96
958.771	6272.12
959.075	6255.17
959.378	6212.24
959.682	6284.55
959.985	6160.49
960.289	6075.97
960.592	6073.03
960.896	6040.26
961.199	6003.66
961.502	5957.33
961.805	5985.58
962.108	5949.65
962.411	5961.62
962.714	5892.92
963.017	5878.24
963.32	5864
963.623	5787.62
963.926	5813.6
964.228	5789.88
964.531	5738.8
964.833	5747.17
965.136	5696.32
965.438	5678.01
965.741	5561.18
966.043	5595.08
966.345	5533.39
966.648	5566.83
966.95	5571.8
967.252	5505.59
967.554	5562.54
967.856	5460.39
968.158	5393.5
968.46	5423.33
968.761	5401.86
969.063	5360.28
969.365	5358.7
969.666	5353.28
969.968	5292.71
970.269	5287.74
970.571	5275.99
970.872	5275.54
971.174	5213.62
971.475	5254.3
971.776	5181.98
972.077	5112.15
972.378	5155.54
972.679	5103.79
972.98	5053.62
973.281	5052.95
973.582	5016.34
973.883	4991.48
974.183	5001.87
974.484	4958.03
974.785	4947.41
975.085	4983.57
975.386	4935.89
975.686	4873.52
975.986	4848.43
976.287	4821.99
976.587	4774.08
976.887	4775.21
977.187	4739.51
977.487	4737.25
977.787	4726.4
978.087	4701.09
978.387	4645.05
978.687	4629.45
978.987	4621.32
979.286	4523.92
979.586	4566.18
979.885	4552.39
980.185	4537.25
980.484	4547.65
980.784	4510.36
981.083	4512.62
981.382	4491.61
981.682	4462.68
981.981	4458.84
982.28	4389.46
982.579	4426.3
982.878	4402.79
983.177	4382.46
983.475	4335
983.774	4269.24
984.073	4252.52
984.372	4228.79
984.67	4258.16
984.969	4205.28
985.267	4183.82
985.566	4211.39
985.864	4202.12
986.162	4160.99
986.461	4070.37
986.759	4093.42
987.057	4076.47
987.355	4055.68
987.653	4108.34
987.951	4026.76
988.249	4003.03
988.547	4010.94
988.844	3964.84
989.142	3923.03
989.44	3906.54
989.737	3910.83
990.035	3863.15
990.332	3875.12
990.63	3833.09
990.927	3812.07
991.224	3809.14
991.521	3819.08
991.819	3798.29
992.116	3799.65
992.413	3704.96
992.71	3673.1
993.006	3745.18
993.303	3659.54
993.6	3683.26
993.897	3642.81
994.193	3662.93
994.49	3619.09
994.787	3581.35
995.083	3612.53
995.379	3597.84
995.676	3563.49
995.972	3552.19
996.268	3516.26
996.565	3532.53
996.861	3433.1
997.157	3452.76
997.453	3454.57
997.749	3431.07
998.044	3370.96
998.34	3357.62
998.636	3360.56
998.932	3381.13
999.227	3351.52
999.523	3314.69
999.818	3275.82
1000.114	3273.11
1000.409	3244.18
1000.704	3209.38
1001	3178.87
1001.295	3202.83
1001.59	3175.93
1001.885	3132.77
1002.18	3139.78
1002.475	3095.03
1002.77	3095.94
1003.065	3087.8
1003.359	3055.26
1003.654	3057.97
1003.949	3037.18
1004.243	2954.02
1004.538	3001.25
1004.832	2963.96
1005.127	2925.77
1005.421	2907.92
1005.715	2923.74
1006.009	2906.56
1006.304	2865.21
1006.598	2860.91
1006.892	2827.69
1007.186	2827.69
1007.48	2806.23
1007.773	2814.81
1008.067	2783.4
1008.361	2798.32
1008.655	2771.42
1008.948	2721.93
1009.242	2744.31
1009.535	2645.1
1009.829	2668.6
1010.122	2662.27
1010.415	2676.74
1010.708	2633.8
1011.001	2617.3
1011.295	2593.12
1011.588	2577.08
1011.881	2574.37
1012.173	2557.42
1012.466	2517.87
1012.759	2534.59
1013.052	2545.22
1013.344	2509.74
1013.637	2493.24
1013.93	2454.37
1014.222	2415.73
1014.514	2422.73
1014.807	2408.04
1015.099	2410.98
1015.391	2382.96
1015.683	2363.3
1015.976	2379.12
1016.268	2332.34
1016.56	2325.33
1016.851	2300.25
1017.143	2306.13
1017.435	2274.71
1017.727	2281.27
1018.018	2260.7
1018.31	2243.3
1018.602	2219.8
1018.893	2195.39
1019.185	2159.24
1019.476	2171.89
1019.767	2126.7
1020.058	2125.57
1020.35	2132.57
1020.641	2092.8
1020.932	2086.02
1021.223	2065
1021.514	2047.38
1021.804	2029.52
1022.095	2008.73
1022.386	1994.5
1022.677	1994.27
1022.967	1976.64
1023.258	1964.67
1023.548	1930.54
1023.839	1926.02
1024.129	1920.6
1024.419	1938.45
1024.709	1884.22
1025	1884.44
1025.29	1880.15
1025.58	1829.75
1025.87	1861.39
1026.16	1837.89
1026.449	1810.09
1026.739	1785.46
1027.029	1780.94
1027.319	1768.51
1027.608	1776.2
1027.898	1749.53
1028.187	1703.66
1028.477	1712.92
1028.766	1738.91
1029.055	1688.29
1029.344	1668.4
1029.634	1675.18
1029.923	1681.51
1030.212	1666.59
1030.501	1645.58
1030.79	1627.5
1031.078	1628.86
1031.367	1602.87
1031.656	1566.71
1031.945	1608.97
1032.233	1579.37
1032.522	1578.69
1032.81	1558.8
1033.099	1547.73
1033.387	1531
1033.675	1519.25
1033.963	1511.34
1034.251	1498.24
1034.54	1467.96
1034.828	1473.61
1035.116	1463.89
1035.403	1447.39
1035.691	1440.84
1035.979	1420.27
1036.267	1397.22
1036.554	1402.19
1036.842	1374.85
1037.129	1388.86
1037.417	1357.22
1037.704	1350.44
1037.992	1315.64
1038.279	1331.24
1038.566	1333.95
1038.853	1333.95
1039.14	1333.95
