Data from foil_FLMS001491_098.txt Node
Date: Tue Feb 07 11:37:33 GMT 2017
User: dcchb
Spectrometer: FLMS00149
Trigger mode: 0
Integration Time (sec): 2.000000E-2
Scans to average: 10
Electric dark correction enabled: true
Nonlinearity correction enabled: false
Boxcar width: 0
XAxis mode: Wavelengths
Number of Pixels in Spectrum: 2048
>>>>>Begin Spectral Data<<<<<
341.393	-7.19
341.776	-7.19
342.16	-7.19
342.543	-66.62
342.927	-58.26
343.31	-85.83
343.693	-69.11
344.077	-68.43
344.46	-69.11
344.843	-63.46
345.226	-43.35
345.61	-34.53
345.993	-32.5
346.376	5.01
346.759	24.67
347.142	37.1
347.525	43.66
347.908	66.93
348.291	77.55
348.674	91.11
349.057	120.27
349.44	130.21
349.823	136.31
350.206	170.43
350.588	249.53
350.971	275.74
351.354	292.46
351.737	283.65
352.119	296.53
352.502	310.99
352.884	346.02
353.267	344.89
353.65	346.7
354.032	362.07
354.414	358
354.797	386.25
355.179	383.08
355.562	380.37
355.944	409.98
356.326	393.25
356.709	418.11
357.091	394.38
357.473	440.03
357.855	399.13
358.238	404.33
358.62	403.42
359.002	431.44
359.384	412.69
359.766	445.45
360.148	413.59
360.53	423.31
360.912	424.66
361.294	424.21
361.676	421.05
362.057	416.08
362.439	416.3
362.821	430.09
363.203	402.74
363.584	404.55
363.966	435.29
364.348	427.15
364.729	402.74
365.111	430.77
365.493	429.41
365.874	430.77
366.256	424.21
366.637	411.11
367.019	430.54
367.4	446.58
367.781	415.85
368.163	453.14
368.544	428.96
368.925	432.57
369.306	462.18
369.688	454.27
370.069	439.13
370.45	456.3
370.831	443.87
371.212	447.26
371.593	464.21
371.974	438.22
372.355	459.24
372.736	454.49
373.117	454.49
373.498	462.18
373.879	482.06
374.26	446.81
374.641	455.17
375.021	438
375.402	451.56
375.783	500.37
376.163	516.19
376.544	517.32
376.925	489.3
377.305	504.21
377.686	485.68
378.066	506.02
378.447	527.49
378.827	529.52
379.208	513.25
379.588	538.56
379.968	508.96
380.349	565.45
380.729	522.06
381.109	565
381.489	534.49
381.87	542.4
382.25	561.16
382.63	562.97
383.01	552.34
383.39	576.3
383.77	587.15
384.15	617.65
384.53	594.15
384.91	612.46
385.29	625.11
385.67	611.1
386.049	616.75
386.429	635.28
386.809	640.03
387.189	623.08
387.568	672.34
387.948	646.35
388.328	655.84
388.707	668.05
389.087	701.94
389.466	717.54
389.846	701.04
390.225	698.56
390.605	717.76
390.984	741.49
391.363	709.4
391.743	730.42
392.122	754.82
392.501	759.8
392.881	769.74
393.26	784.43
393.639	784.65
394.018	784.2
394.397	786.91
394.776	800.93
395.155	811.09
395.534	801.15
395.913	816.07
396.292	847.25
396.671	870.53
397.05	861.49
397.429	864.88
397.808	848.83
398.186	882.51
398.565	880.92
398.944	880.47
399.323	900.36
399.701	908.27
400.08	940.36
400.458	932.45
400.837	928.38
401.215	958.89
401.594	941.49
401.972	965.21
402.351	986.91
402.729	980.81
403.107	993.24
403.486	1023.74
403.864	1038.66
404.242	1046.79
404.62	1053.35
404.999	1042.73
405.377	1071.2
405.755	1068.71
406.133	1084.99
406.511	1101.03
406.889	1138.09
407.267	1127.47
407.645	1157.53
408.023	1169.73
408.401	1190.97
408.779	1194.36
409.156	1227.58
409.534	1243.63
409.912	1232.78
410.29	1275.49
410.667	1295.6
411.045	1310.52
411.422	1314.58
411.8	1332.44
412.178	1376.5
412.555	1376.28
412.933	1396.62
413.31	1413.11
413.687	1443.39
414.065	1464.64
414.442	1477.97
414.819	1491.3
415.197	1473
415.574	1530.62
415.951	1521.13
416.328	1541.92
416.705	1564.75
417.082	1585.09
417.46	1609.72
417.837	1606.78
418.214	1632.32
418.591	1643.16
418.967	1657.17
419.344	1668.93
419.721	1697.17
420.098	1714.35
420.475	1749.37
420.852	1752.31
421.228	1783.27
421.605	1785.53
421.982	1839.09
422.358	1842.71
422.735	1831.41
423.111	1842.93
423.488	1887
423.864	1901.46
424.241	1905.3
424.617	1929.94
424.994	1965.19
425.37	1974.68
425.746	2009.71
426.123	2053.55
426.499	2052.42
426.875	2056.71
427.251	2098.52
427.627	2127.67
428.003	2162.7
428.379	2194.79
428.756	2223.49
429.132	2231.17
429.507	2284.28
429.883	2312.52
430.259	2346.42
430.635	2338.51
431.011	2372.86
431.387	2450.15
431.763	2488.34
432.138	2506.87
432.514	2558.39
432.89	2533.08
433.265	2589.13
433.641	2641.33
434.016	2638.17
434.392	2675.23
434.767	2720.65
435.143	2758.61
435.518	2810.82
435.894	2818.95
436.269	2855.56
436.644	2879.74
437.02	2943.02
437.395	2942.34
437.77	2978.27
438.145	3035.22
438.52	3096.68
438.895	3068.66
439.271	3096.46
439.646	3169.68
440.021	3202.67
440.395	3194.53
440.77	3179.17
441.145	3258.49
441.52	3305.49
441.895	3282.67
442.27	3318.37
442.645	3320.18
443.019	3393.85
443.394	3371.25
443.769	3452.83
444.143	3405.6
444.518	3479.27
444.892	3461.19
445.267	3504.13
445.641	3511.14
446.016	3578.93
446.39	3572.15
446.764	3597.24
447.139	3620.06
447.513	3658.7
447.887	3675.43
448.262	3702.54
448.636	3667.52
449.01	3742.99
449.384	3794.74
449.758	3840.85
450.132	3858.7
450.506	3908.64
450.88	3908.64
451.254	3944.57
451.628	3976.21
452.002	4050.56
452.376	4034.96
452.75	4120.39
453.123	4131.01
453.497	4221.17
453.871	4246.71
454.244	4394.96
454.618	4361.51
454.992	4472.24
455.365	4453.94
455.739	4577.55
456.112	4626.59
456.486	4635.85
456.859	4713.59
457.232	4764.21
457.606	4838.11
457.979	4879.01
458.352	4983.64
458.725	5013.92
459.099	5040.59
459.472	5137.31
459.845	5191.32
460.218	5223.63
460.591	5258.44
460.964	5303.18
461.337	5435.15
461.71	5565.77
462.083	5581.82
462.456	5624.08
462.829	5667.69
463.201	5768.25
463.574	5743.62
463.947	5848.7
464.32	6022.93
464.692	6037.4
465.065	6049.83
465.438	6140.45
465.81	6290.5
466.183	6336.37
466.555	6480.78
466.928	6548.8
467.3	6505.18
467.672	6663.14
468.045	6778.17
468.417	6798.73
468.789	6857.04
469.161	6991.95
469.534	7083.92
469.906	7227.2
470.278	7267.65
470.65	7386.74
471.022	7441.2
471.394	7601.65
471.766	7680.29
472.138	7880.97
472.51	8060.4
472.882	8132.94
473.253	8205.25
473.625	8364.34
473.997	8468.75
474.369	8570.44
474.74	8659.93
475.112	8855.85
475.484	8995.96
475.855	9082.29
476.227	9190.31
476.598	9476.4
476.97	9517.31
477.341	9765.44
477.713	9912.78
478.084	9953.45
478.455	10218.3
478.827	10274.8
479.198	10618.97
479.569	10618.29
479.94	10946.65
480.311	11036.36
480.682	11285.85
481.053	11503.02
481.424	11703.69
481.795	11796.34
482.166	11990.01
482.537	12189.78
482.908	12382.77
483.279	12513.61
483.65	12837.67
484.021	13084.44
484.391	13236.08
484.762	13275.4
485.133	13453.25
485.503	13648.05
485.874	13829.28
486.244	14112.44
486.615	14290.97
486.985	14425.65
487.356	14707.45
487.726	14953.1
488.097	15177.5
488.467	15191.96
488.837	15490.93
489.207	15649.12
489.578	15948.55
489.948	16136.12
490.318	16302.44
490.688	16429.89
491.058	16700.17
491.428	16874.17
491.798	17071.68
492.168	17444.56
492.538	17469.41
492.908	17736.98
493.278	17957.76
493.648	17981.49
494.017	18328.15
494.387	18421.25
494.757	18596.16
495.126	18721.81
495.496	18713.67
495.866	18860.34
496.235	19077.51
496.605	19328.12
496.974	19465.52
497.344	19721.11
497.713	19705.96
498.082	19831.39
498.452	20141.89
498.821	20251.49
499.19	20249.23
499.559	20498.71
499.928	20680.85
500.298	20842.21
500.667	21005.37
501.036	21079.04
501.405	21090.56
501.774	21224.12
502.143	21386.37
502.512	21596.76
502.88	21771.45
503.249	21781.39
503.618	21967.15
503.987	22123.3
504.356	22173.7
504.724	22378.66
505.093	22608.04
505.462	22649.16
505.83	22791.99
506.199	22980.23
506.567	23324.4
506.936	23208.25
507.304	23552.87
507.672	23600.33
508.041	23800.77
508.409	23915.57
508.777	24083.25
509.145	24282.12
509.514	24388.1
509.882	24513.97
510.25	24669.9
510.618	24885.04
510.986	24950.57
511.354	25254.75
511.722	25379.71
512.09	25564.57
512.458	25569.77
512.826	25861.51
513.193	25885.92
513.561	26095.85
513.929	26344.66
514.297	26650.64
514.664	26886.34
515.032	26940.58
515.4	26987.58
515.767	27241.81
516.135	27412.43
516.502	27268.93
516.869	27865.52
517.237	27973.32
517.604	28001.11
517.972	28423.48
518.339	28540.08
518.706	28595
519.073	28785.5
519.44	28978.49
519.808	29357.46
520.175	29385.48
520.542	29655.99
520.909	29930.78
521.276	29859.37
521.643	30202.86
522.009	30483.53
522.376	30787.71
522.743	30983.41
523.11	31206.45
523.477	31409.39
523.843	31549.04
524.21	31848.02
524.577	32128.92
524.943	32329.36
525.31	32537.72
525.676	32819.74
526.043	32983.13
526.409	33119.4
526.776	33632.38
527.142	33602.55
527.508	33894.52
527.874	34032.82
528.241	34416.31
528.607	34454.5
528.973	34676.19
529.339	34804.55
529.705	35088.61
530.071	35423.52
530.437	35589.84
530.803	35825.77
531.169	35905.99
531.535	36022.6
531.901	36064.18
532.267	36344.4
532.632	36656.48
532.998	36733.99
533.364	36897.38
533.73	37143.47
534.095	37363.58
534.461	37456.91
534.826	37649.45
535.192	37699.39
535.557	38080.17
535.923	38014.64
536.288	38319.49
536.653	38444.91
537.019	38356.1
537.384	38658.23
537.749	38760.83
538.114	38791.34
538.479	39033.14
538.845	39180.71
539.21	39142.97
539.575	39513.58
539.94	39522.62
540.305	39784.08
540.67	39679
541.034	39971.19
541.399	39997.63
541.764	40153.11
542.129	40358.08
542.494	40498.64
542.858	40403.95
543.223	40559.65
543.587	40873.77
543.952	40800.1
544.316	40978.17
544.681	41067.21
545.045	41310.59
545.41	41533.87
545.774	41498.84
546.138	41631.26
546.503	41722.79
546.867	41836.46
547.231	42154.64
547.595	42291.59
547.959	42373.17
548.324	42386.27
548.688	42564.57
549.052	42812.93
549.416	42804.34
549.779	43032.36
550.143	42880.5
550.507	43491.78
550.871	43527.71
551.235	43502.85
551.599	43805.67
551.962	43804.99
552.326	43911.88
552.689	44167.69
553.053	43965.89
553.417	44223.51
553.78	44648.59
554.143	44490.62
554.507	44813.1
554.87	44845.19
555.234	45308
555.597	45197.05
555.96	45299.64
556.323	45449.69
556.686	45524.5
557.05	45924.48
557.413	46034.31
557.776	46191.6
558.139	46383
558.502	46597.91
558.865	46543.68
559.228	46910.67
559.59	47023.44
559.953	47107.96
560.316	47424.56
560.679	47462.52
561.041	47805.11
561.404	47885.79
561.767	48100.25
562.129	48121.94
562.492	48373.91
562.854	48494.81
563.217	48449.84
563.579	48676.73
563.941	48925.76
564.304	49178.41
564.666	49221.35
565.028	49262.02
565.39	49377.28
565.753	49596.7
566.115	49746.08
566.477	49771.62
566.839	49992.63
567.201	50195.78
567.563	50235.11
567.925	50408.66
568.287	50505.16
568.648	50596.23
569.01	50786.96
569.372	51020.62
569.734	51025.37
570.095	51227.4
570.457	51259.49
570.819	51392.82
571.18	51422.87
571.542	51616.09
571.903	51610.44
572.265	51761.17
572.626	51897.66
572.987	51900.37
573.349	51996.19
573.71	52160.93
574.071	52154.38
574.432	52323.19
574.794	52553.46
575.155	52533.58
575.516	52448.83
575.877	52691.09
576.238	52618.32
576.599	52620.81
576.96	52694.48
577.32	52722.27
577.681	52855.6
578.042	52955.49
578.403	52952.77
578.763	52996.84
579.124	53072.09
579.485	53208.36
579.845	53244.74
580.206	53180.11
580.566	53226.44
580.927	53159.77
581.287	53406.32
581.648	53262.37
582.008	53422.14
582.368	53269.6
582.728	53384.85
583.089	53335.36
583.449	53367.9
583.809	53416.49
584.169	53429.6
584.529	53369.49
584.889	53567.45
585.249	53435.25
585.609	53323.84
585.969	53552.98
586.329	53409.03
586.688	53525.41
587.048	53461.91
587.408	53386.66
587.768	53398.86
588.127	53445.64
588.487	53337.17
588.846	53671.17
589.206	53364.97
589.565	53394.34
589.925	53552.53
590.284	53592.31
590.643	53554.57
591.003	53530.61
591.362	53613.1
591.721	53534.23
592.08	53548.01
592.44	53634.79
592.799	53632.3
593.158	53514.57
593.517	53489.03
593.876	53602.47
594.235	53557.28
594.593	53534.23
594.952	53558.41
595.311	53580.55
595.67	53573.1
596.029	53780.1
596.387	53741.45
596.746	53832.75
597.104	53609.03
597.463	53682.25
597.822	53872.98
598.18	53694.22
598.538	53590.95
598.897	53868.46
599.255	53600.21
599.613	53974.44
599.972	53839.53
600.33	53791.4
600.688	53735.35
601.046	53801.79
601.404	54049.24
601.762	53968.57
602.12	54013.99
602.478	53980.32
602.836	54027.1
603.194	53975.12
603.552	53897.16
603.91	53741
604.268	53991.17
604.625	53950.26
604.983	54105.29
605.341	53942.35
605.698	54096.02
606.056	54100.77
606.413	54120.88
606.771	54237.94
607.128	54291.27
607.485	54101.67
607.843	54138.05
608.2	54227.09
608.557	54368.56
608.914	54277.03
609.272	54428.44
609.629	54415.56
609.986	54482.23
610.343	54378.27
610.7	54535.56
611.057	54486.52
611.414	54464.37
611.771	54527.65
612.127	54570.81
612.484	54514.77
612.841	54711.15
613.198	54591.38
613.554	54682.45
613.911	54815.55
614.267	54693.97
614.624	54726.06
614.98	54766.51
615.337	54939.61
615.693	54874.31
616.05	54798.38
616.406	54977.58
616.762	54857.36
617.118	54887.19
617.475	54828.66
617.831	54936.23
618.187	54884.25
618.543	55011.93
618.899	55132.15
619.255	55045.83
619.611	54977.58
619.967	55055.77
620.323	55168.76
620.678	55045.6
621.034	54925.6
621.39	54926.73
621.746	54859.84
622.101	55250.34
622.457	55018.26
622.812	55066.62
623.168	55071.14
623.523	55022.55
623.879	55112.72
624.234	54943.91
624.589	55053.51
624.945	55007.41
625.3	55102.32
625.655	55011.48
626.01	55103.23
626.365	55166.05
626.72	55032.27
627.075	55022.78
627.43	54911.82
627.785	54887.86
628.14	54934.42
628.495	54938.26
628.85	54947.98
629.205	54903.01
629.559	54922.21
629.914	54832.95
630.269	54886.28
630.623	54788.66
630.978	54697.81
631.332	54787.3
631.687	54810.13
632.041	54624.14
632.396	54658.94
632.75	54604.03
633.104	54623.69
633.459	54516.35
633.813	54494.2
634.167	54501.89
634.521	54452.62
634.875	54498.27
635.229	54493.52
635.583	54212.85
635.937	54301.89
636.291	54266.64
636.645	54226.19
636.999	54150.48
637.352	54224.61
637.706	53986.87
638.06	54135.79
638.413	54059.19
638.767	53950.94
639.121	54056.7
639.474	53852.19
639.828	53835.69
640.181	53838.85
640.534	53813.09
640.888	53790.94
641.241	53642.02
641.594	53510.73
641.947	53662.81
642.301	53605.64
642.654	53578.52
643.007	53466.21
643.36	53445.42
643.713	53517.28
644.066	53590.72
644.419	53313.44
644.771	53016.73
645.124	52696.74
645.477	52585.78
645.83	52417.2
646.182	52286.35
646.535	52250.42
646.888	52336.07
647.24	52215.39
647.593	52382.62
647.945	52259.69
648.298	52102.63
648.65	52016.53
649.002	51943.99
649.355	52057.66
649.707	51843.65
650.059	52038
650.411	52421.49
650.763	52498.77
651.115	52756.62
651.467	52666.23
651.819	52468.72
652.171	52414.71
652.523	52425.78
652.875	52348.72
653.227	52279.57
653.578	52469.17
653.93	52383.98
654.282	52199.12
654.633	52074.61
654.985	52212.23
655.337	52241.38
655.688	52115.96
656.039	52193.02
656.391	51960.94
656.742	52018.11
657.094	51952.57
657.445	52088.16
657.796	51935.63
658.147	51929.75
658.498	51820.6
658.849	51946.93
659.2	51780.83
659.551	51832.8
659.902	51920.03
660.253	51695.63
660.604	51766.36
660.955	51651.34
661.306	51795.97
661.656	51651.34
662.007	51607.5
662.358	51649.08
662.708	51546.03
663.059	51519.14
663.409	51342.42
663.76	51518.24
664.11	51525.92
664.461	51425.58
664.811	51469.65
665.161	51411.57
665.511	51431.01
665.862	51424.68
666.212	51395.98
666.562	51392.36
666.912	51352.36
667.262	51208.41
667.612	51237.57
667.962	51293.61
668.312	51109.43
668.662	51286.38
669.011	51208.41
669.361	51133.16
669.711	51081.41
670.06	51003.22
670.41	50944.92
670.76	50804.58
671.109	50978.59
671.459	50864.69
671.808	50831.93
672.157	50972.49
672.507	50640.97
672.856	50818.82
673.205	50755.54
673.554	50840.29
673.904	50687.07
674.253	50875.99
674.602	50739.27
674.951	50232.62
675.3	50025.85
675.649	50607.75
675.998	50383.58
676.346	50563.01
676.695	50565.49
677.044	50337.25
677.393	50467.87
677.741	50506.96
678.09	50345.39
678.438	50215.67
678.787	50243.69
679.135	50269.46
679.484	49976.58
679.832	50107.2
680.181	49868.34
680.529	50006.64
680.877	49853.42
681.225	49961.44
681.573	49896.58
681.922	49567.1
682.27	49547.21
682.618	49557.16
682.966	49496.37
683.314	49574.11
683.661	49348.12
684.009	49090.28
684.357	49082.59
684.705	49102.93
685.053	49159.43
685.4	49116.49
685.748	48745.65
686.095	48828.81
686.443	48738.65
686.79	48612.32
687.138	48675.15
687.485	48652.55
687.832	48482.38
688.18	48389.73
688.527	48237.87
688.874	48252.11
689.221	48056.63
689.568	48047.59
689.915	47817.09
690.262	47923.08
690.609	47689.64
690.956	47627.26
691.303	47669.3
691.65	47494.39
691.997	47432.47
692.344	47236.31
692.69	47096.88
693.037	47059.82
693.383	46782.99
693.73	46902.76
694.077	46715.42
694.423	46574.41
694.769	46407.64
695.116	46441.31
695.462	46173.29
695.808	46056.23
696.155	46174.2
696.501	45878.61
696.847	45896.91
697.193	45552.52
697.539	45760.2
697.885	45366.53
698.231	45336.48
698.577	45194.56
698.923	45017.16
699.269	45027.33
699.614	44832.08
699.96	44699.21
700.306	44609.04
700.651	44406.56
700.997	44356.62
701.342	44200.46
701.688	44198.43
702.033	43980.81
702.379	44038.66
702.724	43875.95
703.069	43914.37
703.415	43476.41
703.76	43476.19
704.105	43339.69
704.45	43279.36
704.795	43125.69
705.14	42986.26
705.485	42901.06
705.83	42873.27
706.175	42868.52
706.52	42656.32
706.865	42583.1
707.209	42457.91
707.554	42335.65
707.899	42303.56
708.243	42105.15
708.588	41969.33
708.932	41909.22
709.277	41845.27
709.621	41843.01
709.966	41560.31
710.31	41653.64
710.654	41137.27
710.998	41270.6
711.342	41325.96
711.687	41004.16
712.031	41059.98
712.375	40861.79
712.719	40846.2
713.063	40625.19
713.407	40973.88
713.75	40612.76
714.094	40584.74
714.438	40358.08
714.782	40363.27
715.125	40232.66
715.469	40350.62
715.812	40019.78
716.156	39842.16
716.499	39716.96
716.843	39881.71
717.186	39528.95
717.53	39743.4
717.873	39708.6
718.216	39471.55
718.559	39458.67
718.902	39138.22
719.246	39235.17
719.589	39154.95
719.932	39011.67
720.275	39218.45
720.617	38955.63
720.96	38779.81
721.303	38834.28
721.646	38851
721.989	38516.09
722.331	38655.52
722.674	38427.28
723.016	38332.59
723.359	38333.27
723.701	38349.99
724.044	37986.16
724.386	37949.78
724.729	38040.85
725.071	37834.53
725.413	37837.47
725.755	37830.23
726.097	37619.17
726.439	37513.41
726.782	37385.05
727.124	37547.76
727.465	37312.28
727.807	37296.01
728.149	37125.17
728.491	37175.79
728.833	37259.4
729.175	37059.41
729.516	36889.92
729.858	36797.72
730.199	36869.13
730.541	36732.41
730.882	36736.48
731.224	36675.01
731.565	36660.77
731.906	36587.55
732.248	36664.62
732.589	36433.43
732.93	36169.03
733.271	36084.29
733.612	36154.57
733.953	36124.52
734.294	35962.71
734.635	35802.26
734.976	35833.9
735.317	35729.5
735.658	35628.26
735.999	35757.07
736.339	35632.78
736.68	35735.15
737.021	35531.76
737.361	35191.43
737.702	35614.25
738.042	35393.46
738.383	35355.04
738.723	35220.81
739.063	35130.42
739.404	35071.21
739.744	35083.19
740.084	34971.1
740.424	34890.2
740.764	34773.14
741.104	34940.82
741.444	34721.39
741.784	34639.81
742.124	34564.11
742.464	34513.26
742.804	34416.99
743.143	34393.94
743.483	34508.29
743.823	34062.2
744.162	34174.06
744.502	34135.19
744.841	33947.62
745.181	33976.55
745.52	33893.16
745.86	33904.46
746.199	33727.07
746.538	33640.97
746.877	33691.13
747.216	33697.24
747.556	33529.56
747.895	33511.48
748.234	33424.47
748.573	33266.74
748.911	33161.2
749.25	33301.99
749.589	32942.9
749.928	33107.87
750.267	33052.96
750.605	32960.53
750.944	32788.11
751.283	32662.91
751.621	32882.79
751.96	32595.34
752.298	32527.1
752.636	32579.3
752.975	32337.72
753.313	32320.1
753.651	32277.84
753.989	32120.1
754.327	32025.19
754.666	31846.66
755.004	31959.43
755.342	31874.46
755.679	31809.83
756.017	31674.24
756.355	31720.11
756.693	31523.06
757.031	31551.76
757.368	31316.96
757.706	31175.04
758.044	31170.97
758.381	31133.69
758.719	30963.97
759.056	31045.33
759.394	30967.82
759.731	30741.83
760.068	30702.51
760.405	30502.07
760.743	30403.08
761.08	30436.98
761.417	30303.88
761.754	30250.09
762.091	30181.62
762.428	30075.64
762.765	29804
763.102	29970.78
763.438	29708.41
763.775	29702.31
764.112	29500.28
764.449	29556.1
764.785	29275.88
765.122	29203.12
765.458	29139.16
765.795	28992.73
766.131	29076.11
766.467	28869.57
766.804	28797.25
767.14	28549.8
767.476	28459.41
767.812	28480.65
768.148	28391.16
768.485	28208.11
768.821	27995.69
769.157	28067.1
769.492	27871.63
769.828	27779.88
770.164	27716.6
770.5	27502.14
770.836	27570.84
771.171	27328.82
771.507	27265.99
771.842	26931.99
772.178	27049.27
772.513	27006.34
772.849	26965.21
773.184	26811.54
773.519	26617.42
773.855	26540.81
774.19	26391.66
774.525	26233.48
774.86	26357.77
775.195	26273.25
775.53	26085.91
775.865	25933.15
776.2	25605.47
776.535	25485.7
776.87	25601.63
777.205	25454.29
777.539	25360.73
777.874	25356.21
778.209	25101.3
778.543	25132.26
778.878	24934.98
779.212	24942.21
779.547	24765.49
779.881	24864.47
780.215	24673.74
780.55	24683.46
780.884	24506.06
781.218	24373.41
781.552	24356.69
781.886	24215.45
782.22	24112.63
782.554	23916.02
782.888	23761.68
783.222	23698.4
783.556	23470.61
783.889	23477.62
784.223	23327.79
784.557	23227.91
784.89	23280.33
785.224	23072.2
785.557	22886.45
785.891	22873.11
786.224	22867.92
786.558	22793.79
786.891	22670.63
787.224	22513.12
787.557	22429.96
787.891	22388.15
788.224	22375.73
788.557	22323.98
788.89	22211.66
789.223	22194.04
789.556	22069.29
789.888	22006.02
790.221	21913.36
790.554	21643.77
790.887	21662.3
791.219	21622.98
791.552	21559.48
791.884	21423.89
792.217	21406.03
792.549	21255.98
792.882	21241.97
793.214	21107.51
793.546	21067.74
793.879	21026.16
794.211	20798.82
794.543	20829.55
794.875	20840.85
795.207	20693.06
795.539	20719.27
795.871	20684.24
796.203	20441.99
796.535	20442.22
796.867	20363.8
797.198	20200.42
797.53	20187.76
797.862	20049.68
798.193	19948.9
798.525	19949.8
798.856	19912.29
799.188	19639.75
799.519	19624.16
799.85	19488.34
800.182	19568.79
800.513	19515.01
800.844	19351.4
801.175	19499.64
801.506	19368.35
801.837	19126.09
802.168	19103.95
802.499	19166.77
802.83	19043.84
803.161	19076.6
803.491	18989.37
803.822	18944.85
804.153	18746.44
804.483	18663.05
804.814	18555.71
805.145	18545.77
805.475	18586.22
805.805	18407.24
806.136	18525.88
806.466	18420.57
806.796	18346.23
807.126	18176.06
807.457	18220.81
807.787	18141.03
808.117	18106.91
808.447	17959.57
808.777	17930.42
809.107	17933.58
809.436	17867.14
809.766	17806.81
810.096	17819.01
810.426	17746.02
810.755	17694.04
811.085	17685.23
811.414	17545.34
811.744	17475.97
812.073	17409.53
812.403	17332.69
812.732	17275.29
813.061	17308.06
813.39	17127.05
813.719	17084.34
814.049	17273.94
814.378	17175.86
814.707	16996.43
815.036	16999.6
815.365	16935.42
815.693	16784.46
816.022	16787.62
816.351	16797.79
816.68	16633.28
817.008	16653.62
817.337	16471.93
817.665	16458.59
817.994	16477.35
818.322	16462.21
818.651	16416.11
818.979	16427.18
819.307	16379.95
819.636	16297.92
819.964	16216.79
820.292	16230.58
820.62	16196.45
820.948	16218.37
821.276	16198.03
821.604	16093.86
821.932	16149.22
822.259	16194.64
822.587	16031.03
822.915	15968.66
823.243	16105.16
823.57	16019.51
823.898	16047.98
824.225	15957.59
824.553	15933.86
824.88	16057.02
825.207	16055.44
825.535	16076.91
825.862	16058.6
826.189	15909
826.516	15937.93
826.843	15986.06
827.17	15954.43
827.497	16054.76
827.824	15897.03
828.151	15901.09
828.478	15857.03
828.805	15955.56
829.131	15832.62
829.458	15872.62
829.785	15817.25
830.111	15920.98
830.438	15911.26
830.764	15949.91
831.09	15902.45
831.417	15840.98
831.743	15906.52
832.069	15910.36
832.395	15677.82
832.722	15849.12
833.048	15739.29
833.374	15767.09
833.7	15695.45
834.026	15601.44
834.351	15693.19
834.677	15685.51
835.003	15720.53
835.329	15668.1
835.654	15589.24
835.98	15667.88
836.306	15556.7
836.631	15556.24
836.956	15608.45
837.282	15595.56
837.607	15498.39
837.932	15415.23
838.258	15486.41
838.583	15408.45
838.908	15405.51
839.233	15360.54
839.558	15374.78
839.883	15284.39
840.208	15221.34
840.533	15246.2
840.858	15223.37
841.182	15209.36
841.507	15281.9
841.832	15205.29
842.156	15120.55
842.481	15107.44
842.805	15006.88
843.13	14988.12
843.454	14887.79
843.778	14850.95
844.103	14838.07
844.427	14826.09
844.751	14897.5
845.075	14745.42
845.399	14744.06
845.723	14711.29
846.047	14656.38
846.371	14535.71
846.695	14546.1
847.019	14417.97
847.343	14356.95
847.666	14316.05
847.99	14276.5
848.313	14222.95
848.637	14199.67
848.96	14149.95
849.284	14075.6
849.607	13989.51
849.931	13931.65
850.254	13846.68
850.577	13692.11
850.9	13713.35
851.223	13624.32
851.546	13584.77
851.869	13489.18
852.192	13657.31
852.515	13351.1
852.838	13426.81
853.161	13420.03
853.483	13468.39
853.806	13318.56
854.129	13229.07
854.451	13298.22
854.774	13149.75
855.096	13111.34
855.419	13102.97
855.741	13049.19
856.063	13011.9
856.385	13029.53
856.708	12972.58
857.03	12827.95
857.352	12880.16
857.674	12841.51
857.996	12736.66
858.318	12673.83
858.64	12774.4
858.961	12612.82
859.283	12620.5
859.605	12547.28
859.926	12541.41
860.248	12513.84
860.57	12495.53
860.891	12570.56
861.212	12445.36
861.534	12495.53
861.855	12400.62
862.176	12427.29
862.498	12379.15
862.819	12353.16
863.14	12332.15
863.461	12293.96
863.782	12191.81
864.103	12248.99
864.424	12246.5
864.745	12180.74
865.065	12128.76
865.386	12113.62
865.707	12110.01
866.027	12081.31
866.348	12131.47
866.668	12089.22
866.989	12036.11
867.309	11957.47
867.63	12067.07
867.95	11930.58
868.27	11827.53
868.59	11920.86
868.91	11896.45
869.23	11834.53
869.55	11852.39
869.87	11919.95
870.19	11867.75
870.51	11949.56
870.83	11854.42
871.15	11847.64
871.469	11794.76
871.789	11792.27
872.109	11708.44
872.428	11639.74
872.748	11766.96
873.067	11684.93
873.386	11650.81
873.706	11708.89
874.025	11502.79
874.344	11564.26
874.663	11532.17
874.982	11562.22
875.301	11560.87
875.62	11476.35
875.939	11495.79
876.258	11562.68
876.577	11464.15
876.896	11529.46
877.214	11425.28
877.533	11417.37
877.852	11365.85
878.17	11452.85
878.489	11334.89
878.807	11414.88
879.125	11360.42
879.444	11298.5
879.762	11283.59
880.08	11263.25
880.398	11271.61
880.716	11283.81
881.034	11235.68
881.352	11184.38
881.67	11218.5
881.988	11199.3
882.306	11104.38
882.624	11122.46
882.941	11009.7
883.259	11055.34
883.577	11022.35
883.894	10980.09
884.212	11007.89
884.529	10932.64
884.846	11004.72
885.164	10884.05
885.481	10889.25
885.798	10876.59
886.115	10816.03
886.432	10784.84
886.75	10779.42
887.067	10769.7
887.383	10692.19
887.7	10765.86
888.017	10672.53
888.334	10799.08
888.651	10606.32
888.967	10563.83
889.284	10563.15
889.6	10583.27
889.917	10473.89
890.233	10498.75
890.55	10478.86
890.866	10474.34
891.182	10461.01
891.498	10372.2
891.815	10309.83
892.131	10233.67
892.447	10296.49
892.763	10283.61
893.079	10251.07
893.395	10207.01
893.71	10141.02
894.026	10188.25
894.342	10113
894.657	10044.75
894.973	10027.12
895.289	10035.48
895.604	9969.72
895.92	9917.52
896.235	9907.8
896.55	9897.41
896.865	9877.07
897.181	9880.46
897.496	9860.8
897.811	9800.24
898.126	9716.4
898.441	9770.86
898.756	9667.81
899.071	9674.59
899.386	9705.1
899.7	9634.82
900.015	9554.14
900.33	9543.97
900.644	9518.44
900.959	9504.65
901.273	9449.51
901.588	9452.68
901.902	9373.36
902.216	9331.32
902.531	9326.58
902.845	9300.59
903.159	9260.36
903.473	9184.66
903.787	9136.53
904.101	9066.02
904.415	9097.43
904.729	9068.05
905.042	9038.67
905.356	9001.61
905.67	9031.44
905.984	8976.98
906.297	8973.37
906.611	8866.48
906.924	8824.67
907.237	8847.72
907.551	8840.94
907.864	8776.76
908.177	8764.78
908.491	8706.25
908.804	8695.86
909.117	8564.34
909.43	8653.6
909.743	8551.46
910.056	8506.71
910.368	8505.81
910.681	8466.94
910.994	8382.42
911.307	8374.74
911.619	8332.03
911.932	8368.64
912.244	8288.86
912.557	8312.37
912.869	8259.71
913.181	8244.35
913.494	8118.92
913.806	8128.87
914.118	8084.58
914.43	8096.1
914.742	8092.71
915.054	7975.88
915.366	7939.04
915.678	7977.01
915.99	7927.07
916.302	7845.26
916.613	7831.7
916.925	7833.06
917.236	7801.65
917.548	7751.48
917.859	7760.52
918.171	7665.6
918.482	7644.59
918.794	7610.69
919.105	7547.64
919.416	7556
919.727	7595.55
920.038	7513.07
920.349	7406.18
920.66	7406.4
920.971	7369.79
921.282	7348.55
921.593	7309.45
921.903	7253.64
922.214	7277.59
922.525	7198.27
922.835	7159.85
923.146	7187.2
923.456	7165.96
923.767	7096.13
924.077	7077.82
924.387	7068.78
924.697	7053.87
925.008	7036.92
925.318	6981.55
925.628	6911.95
925.938	6890.48
926.248	6844.83
926.558	6808.45
926.867	6774.1
927.177	6757.83
927.487	6713.99
927.796	6679.87
928.106	6731.16
928.416	6676.03
928.725	6665.4
929.034	6608
929.344	6603.03
929.653	6571.17
929.962	6509.48
930.271	6511.06
930.581	6466.54
930.89	6460.21
931.199	6428.57
931.508	6448.23
931.817	6386.32
932.125	6341.34
932.434	6290.27
932.743	6260.89
933.051	6245.75
933.36	6227
933.669	6187.45
933.977	6164.85
934.286	6138.86
934.594	6104.29
934.902	6031.3
935.21	6054.8
935.519	6048.92
935.827	6046.89
936.135	5995.36
936.443	5971.86
936.751	5940
937.059	5883.28
937.367	5908.59
937.674	5945.87
937.982	5836.27
938.29	5857.52
938.597	5803.73
938.905	5694.58
939.213	5754.92
939.52	5723.28
939.827	5683.06
940.135	5629.95
940.442	5633.79
940.749	5572.55
941.056	5544.53
941.363	5541.37
941.67	5561.03
941.977	5560.35
942.284	5498.2
942.591	5481.03
942.898	5482.38
943.205	5478.77
943.511	5382.5
943.818	5403.97
944.125	5373.23
944.431	5322.61
944.738	5298.66
945.044	5243.07
945.35	5232.9
945.657	5241.49
945.963	5192.9
946.269	5187.93
946.575	5199.45
946.881	5119
947.187	5136.4
947.493	5123.07
947.799	5114.26
948.105	5039.46
948.41	5020.02
948.716	5022.51
949.022	5023.19
949.327	5011.66
949.633	4900.25
949.938	4923.53
950.244	4910.42
950.549	4900.7
950.854	4853.25
951.16	4868.16
951.465	4838.11
951.77	4741.84
952.075	4771.44
952.38	4738.45
952.685	4723.76
952.99	4653.03
953.294	4652.35
953.599	4681.95
953.904	4703.87
954.209	4615.74
954.513	4582.07
954.818	4606.02
955.122	4610.32
955.426	4580.94
955.731	4568.28
956.035	4522.86
956.339	4481.73
956.643	4521.51
956.948	4446.71
957.252	4401.51
957.556	4407.61
957.86	4387.72
958.163	4357.89
958.467	4360.61
958.771	4317.44
959.075	4328.97
959.378	4285.81
959.682	4272.7
959.985	4236.32
960.289	4237.22
960.592	4214.17
960.896	4220.27
961.199	4194.51
961.502	4196.54
961.805	4105.92
962.108	4129.65
962.411	4125.58
962.714	4096.66
963.017	4113.83
963.32	4143.21
963.623	4065.02
963.926	4028.41
964.228	4019.6
964.531	3964.23
964.833	3992.25
965.136	3943.22
965.438	3934.85
965.741	3908.87
966.043	3920.39
966.345	3887.17
966.648	3866.83
966.95	3834.52
967.252	3858.92
967.554	3848.98
967.856	3793.39
968.158	3770.56
968.46	3776.89
968.761	3762.66
969.063	3752.03
969.365	3712.49
969.666	3717.68
969.968	3728.98
970.269	3693.28
970.571	3677.01
970.872	3663.67
971.174	3624.58
971.475	3594.3
971.776	3609.66
972.077	3577.58
972.378	3551.14
972.679	3579.61
972.98	3553.85
973.281	3530.57
973.582	3503.91
973.883	3523.11
974.183	3488.76
974.484	3461.87
974.785	3411.93
975.085	3425.04
975.386	3403.57
975.686	3393.17
975.986	3373.51
976.287	3366.28
976.587	3339.39
976.887	3316.11
977.187	3366.51
977.487	3316.11
977.787	3281.54
978.087	3278.37
978.387	3280.86
978.687	3239.96
978.987	3246.51
979.286	3226.62
979.586	3236.12
979.885	3170.13
980.185	3161.09
980.484	3192.95
980.784	3132.16
981.083	3153.18
981.382	3126.97
981.682	3110.24
981.981	3072.73
982.28	3067.53
982.579	3055.56
982.878	3039.96
983.177	3074.99
983.475	3027.99
983.774	2967.2
984.073	2982.11
984.372	3001.09
984.67	2988.66
984.969	2964.71
985.267	2968.33
985.566	2930.59
985.864	2906.41
986.162	2910.7
986.461	2861.21
986.759	2858.5
987.057	2831.61
987.355	2830.93
987.653	2851.94
987.951	2848.56
988.249	2823.02
988.547	2781.66
988.844	2737.6
989.142	2800.19
989.44	2752.96
989.737	2779.18
990.035	2685.4
990.332	2717.49
990.63	2717.71
990.927	2688.79
991.224	2689.69
991.521	2663.48
991.819	2675.68
992.116	2623.7
992.413	2597.71
992.71	2649.01
993.006	2621.89
993.303	2573.76
993.6	2570.6
993.897	2567.88
994.193	2559.52
994.49	2524.27
994.787	2542.35
995.083	2514.33
995.379	2504.38
995.676	2495.8
995.972	2487.66
996.268	2472.97
996.565	2461.67
996.861	2413.09
997.157	2416.48
997.453	2422.58
997.749	2396.36
998.044	2402.47
998.34	2363.6
998.636	2365.86
998.932	2369.25
999.227	2297.61
999.523	2333.31
999.818	2293.09
1000.114	2294.22
1000.409	2305.97
1000.704	2312.3
1001	2270.72
1001.295	2253.54
1001.59	2216.71
1001.885	2255.12
1002.18	2205.86
1002.475	2221.68
1002.77	2211.06
1003.065	2157.27
1003.359	2169.25
1003.654	2190.04
1003.949	2152.75
1004.243	2156.14
1004.538	2130.83
1004.832	2124.73
1005.127	2124.73
1005.421	2108.01
1005.715	2086.09
1006.009	2077.95
1006.304	2038.86
1006.598	2042.93
1006.892	2032.98
1007.186	1981.91
1007.48	1997.5
1007.773	1986.66
1008.067	1986.43
1008.361	1946.21
1008.655	1976.94
1008.948	1962.7
1009.242	1936.26
1009.535	1915.92
1009.829	1921.57
1010.122	1916.38
1010.415	1863.72
1010.708	1891.29
1011.001	1838.86
1011.295	1853.33
1011.588	1872.99
1011.881	1825.53
1012.173	1822.82
1012.466	1818.75
1012.759	1846.1
1013.052	1804.74
1013.344	1781.24
1013.637	1786.89
1013.93	1774.91
1014.222	1795.25
1014.514	1729.94
1014.807	1759.54
1015.099	1721.13
1015.391	1747.79
1015.683	1718.19
1015.976	1713.22
1016.268	1702.82
1016.56	1693.33
1016.851	1679.09
1017.143	1671.18
1017.435	1667.34
1017.727	1623.73
1018.018	1622.6
1018.31	1609.49
1018.602	1616.72
1018.893	1591.64
1019.185	1566.55
1019.476	1550.06
1019.767	1575.82
1020.058	1578.08
1020.35	1545.99
1020.641	1524.75
1020.932	1511.64
1021.223	1510.74
1021.514	1480.91
1021.804	1483.39
1022.095	1456.28
1022.386	1460.79
1022.677	1442.26
1022.967	1465.54
1023.258	1437.74
1023.548	1401.81
1023.839	1425.54
1024.129	1396.62
1024.419	1416.05
1024.709	1404.98
1025	1398.42
1025.29	1375.83
1025.58	1353.91
1025.87	1352.32
1026.16	1324.98
1026.449	1346.45
1026.739	1341.7
1027.029	1336.73
1027.319	1304.19
1027.608	1292.44
1027.898	1322.72
1028.187	1295.83
1028.477	1259.67
1028.766	1264.64
1029.055	1258.09
1029.344	1249.73
1029.634	1237.3
1029.923	1231.2
1030.212	1226.22
1030.501	1196.17
1030.79	1222.16
1031.078	1210.86
1031.367	1212.44
1031.656	1176.73
1031.945	1189.39
1032.233	1195.72
1032.522	1146.68
1032.81	1139.9
1033.099	1140.8
1033.387	1114.36
1033.675	1148.94
1033.963	1153.23
1034.251	1115.27
1034.54	1095.15
1034.828	1113.23
1035.116	1105.1
1035.403	1097.87
1035.691	1077.75
1035.979	1088.38
1036.267	1060.81
1036.554	1045.66
1036.842	1050.18
1037.129	1026.68
1037.417	1020.81
1037.704	1021.26
1037.992	1035.95
1038.279	1018.77
1038.566	1034.82
1038.853	1034.82
1039.14	1034.82
