Data from foil_FLMS001491_023.txt Node
Date: Tue Feb 07 11:25:40 GMT 2017
User: dcchb
Spectrometer: FLMS00149
Trigger mode: 0
Integration Time (sec): 2.000000E-2
Scans to average: 10
Electric dark correction enabled: true
Nonlinearity correction enabled: false
Boxcar width: 0
XAxis mode: Wavelengths
Number of Pixels in Spectrum: 2048
>>>>>Begin Spectral Data<<<<<
341.393	-35.82
341.776	-35.82
342.16	-35.82
342.543	-84.18
342.927	-81.24
343.31	-66.1
343.693	-64.97
344.077	-61.13
344.46	-73.56
344.843	-57.29
345.226	-40.11
345.61	-40.56
345.993	1.24
346.376	-20.68
346.759	24.75
347.142	27
347.525	34.91
347.908	65.87
348.291	73.78
348.674	103.61
349.057	93.22
349.44	126.44
349.823	145.65
350.206	181.58
350.588	246.89
350.971	269.94
351.354	276.94
351.737	293.66
352.119	300.9
352.502	313.55
352.884	341.12
353.267	358.97
353.65	356.94
354.032	375.7
354.414	387.67
354.797	386.09
355.179	387.67
355.562	413.66
355.944	397.84
356.326	412.31
356.709	383.61
357.091	425.86
357.473	435.58
357.855	436.94
358.238	434.45
358.62	422.93
359.002	445.98
359.384	428.12
359.766	441.23
360.148	442.36
360.53	440.55
360.912	439.88
361.294	435.36
361.676	454.11
362.057	451.17
362.439	445.98
362.821	435.13
363.203	440.55
363.584	460.89
363.966	455.92
364.348	433.1
364.729	445.07
365.111	441.91
365.493	443.04
365.874	445.07
366.256	459.31
366.637	456.15
367.019	459.76
367.4	468.8
367.781	446.2
368.163	452.76
368.544	455.24
368.925	443.27
369.306	465.19
369.688	488.01
370.069	452.08
370.45	453.89
370.831	485.75
371.212	486.43
371.593	492.53
371.974	499.99
372.355	495.02
372.736	503.38
373.117	516.26
373.498	498.63
373.879	481.91
374.26	503.6
374.641	476.71
375.021	477.84
375.402	514.68
375.783	536.14
376.163	574.56
376.544	578.4
376.925	566.88
377.305	535.92
377.686	567.1
378.066	558.97
378.447	551.28
378.827	552.41
379.208	553.77
379.588	578.63
379.968	568.01
380.349	597.84
380.729	586.31
381.109	586.76
381.489	611.62
381.87	637.84
382.25	608.68
382.63	631.06
383.01	644.39
383.39	657.27
383.77	634.9
384.15	658.4
384.53	664.95
384.91	650.94
385.29	678.06
385.67	704.05
386.049	687.55
386.429	683.71
386.809	704.28
387.189	719.42
387.568	724.39
387.948	703.6
388.328	723.03
388.707	743.37
389.087	751.28
389.466	749.7
389.846	789.92
390.225	764.84
390.605	779.98
390.984	802.35
391.363	812.97
391.743	793.54
392.122	829.24
392.501	819.53
392.881	863.37
393.26	876.7
393.639	873.08
394.018	851.39
394.397	902.24
394.776	894.78
395.155	891.16
395.534	910.15
395.913	933.42
396.292	928.22
396.671	970.48
397.05	936.13
397.429	972.97
397.808	983.14
398.186	957.83
398.565	1004.38
398.944	1001.67
399.323	1031.72
399.701	1002.8
400.08	1034.21
400.458	1057.03
400.837	1075.56
401.215	1059.29
401.594	1059.07
401.972	1073.76
402.351	1114.89
402.729	1109.01
403.107	1123.7
403.486	1114.66
403.864	1147.88
404.242	1153.75
404.62	1157.14
404.999	1193.98
405.377	1191.49
405.755	1219.52
406.133	1233.07
406.511	1228.1
406.889	1255.9
407.267	1286.41
407.645	1290.25
408.023	1303.81
408.401	1347.42
408.779	1342
409.156	1371.38
409.534	1386.07
409.912	1386.97
410.29	1409.34
410.667	1439.17
411.045	1476.01
411.422	1466.52
411.8	1492.28
412.178	1538.15
412.555	1545.16
412.933	1556.68
413.31	1573.4
413.687	1597.13
414.065	1606.85
414.442	1605.72
414.819	1655.21
415.197	1661.76
415.574	1708.99
415.951	1714.19
416.328	1734.76
416.705	1735.21
417.082	1754.42
417.46	1788.77
417.837	1803.68
418.214	1785.15
418.591	1841.87
418.967	1828.99
419.344	1872.15
419.721	1902.66
420.098	1925.26
420.475	1941.08
420.852	1954.41
421.228	1973.17
421.605	1962.1
421.982	2002.77
422.358	2028.08
422.735	2072.6
423.111	2070.79
423.488	2079.83
423.864	2102.43
424.241	2132.71
424.617	2167.06
424.994	2192.15
425.37	2182.65
425.746	2219.49
426.123	2248.42
426.499	2247.29
426.875	2314.85
427.251	2345.81
427.627	2386.26
428.003	2403.89
428.379	2428.07
428.756	2440.05
429.132	2495.64
429.507	2516.66
429.883	2572.93
430.259	2607.5
430.635	2609.99
431.011	2660.16
431.387	2669.2
431.763	2723.43
432.138	2746.71
432.514	2786.03
432.89	2813.15
433.265	2876.2
433.641	2901.51
434.016	2934.27
434.392	2995.51
434.767	3042.29
435.143	3009.75
435.518	3077.77
435.894	3080.48
436.269	3149.86
436.644	3196.87
437.02	3207.26
437.395	3202.29
437.77	3247.03
438.145	3291.33
438.52	3355.28
438.895	3405.45
439.271	3408.38
439.646	3500.81
440.021	3460.36
440.395	3449.74
440.77	3447.48
441.145	3517.99
441.52	3594.82
441.895	3555.95
442.27	3641.15
442.645	3644.31
443.019	3691.54
443.394	3666.46
443.769	3728.38
444.143	3688.83
444.518	3769.51
444.892	3782.84
445.267	3772.9
445.641	3825.1
446.016	3838.2
446.39	3890.18
446.764	3889.95
447.139	3860.58
447.513	3951.65
447.887	3980.57
448.262	4002.49
448.636	3991.19
449.01	4051.98
449.384	4110.51
449.758	4114.36
450.132	4191.64
450.506	4191.42
450.88	4202.26
451.254	4227.35
451.628	4298.76
452.002	4335.37
452.376	4427.57
452.75	4440.67
453.123	4438.64
453.497	4512.99
453.871	4546.43
454.244	4695.36
454.618	4716.15
454.992	4773.09
455.365	4797.05
455.739	4899.87
456.112	4897.39
456.486	4952.3
456.859	5002.69
457.232	5091.05
457.606	5092.41
457.979	5188.45
458.352	5299.86
458.725	5314.78
459.099	5427.09
459.472	5477.48
459.845	5530.59
460.218	5577.14
460.591	5571.49
460.964	5624.82
461.337	5762
461.71	5891.03
462.083	5905.95
462.456	5958.83
462.829	6036.79
463.201	6051.25
463.574	6134.19
463.947	6197.24
464.32	6345.71
464.692	6423.67
465.065	6472.49
465.438	6501.41
465.81	6566.27
466.183	6716.77
466.555	6854.62
466.928	6855.98
467.3	6891.23
467.672	6987.95
468.045	7151.79
468.417	7198.57
468.789	7249.19
469.161	7309.53
469.534	7422.29
469.906	7635.17
470.278	7667.71
470.65	7813.92
471.022	7857.76
471.394	8076.51
471.766	8094.82
472.138	8187.02
472.51	8391.98
472.882	8486.9
473.253	8566.67
473.625	8718.75
473.997	8877.39
474.369	8964.17
474.74	9002.59
475.112	9231.96
475.484	9374.78
475.855	9528.9
476.227	9601.44
476.598	9843.47
476.97	9968.66
477.341	10210.47
477.713	10326.17
478.084	10394.42
478.455	10687.52
478.827	10698.81
479.198	11054.96
479.569	11074.4
479.94	11432.81
480.311	11487.04
480.682	11791.44
481.053	11952.57
481.424	12183.3
481.795	12347.81
482.166	12538.09
482.537	12722.26
482.908	12901.47
483.279	13025.08
483.65	13282.7
484.021	13560.21
484.391	13701.67
484.762	13763.37
485.133	13964.04
485.503	14154.54
485.874	14467.08
486.244	14609.9
486.615	14948.65
486.985	14944.13
487.356	15285.81
487.726	15386.83
488.097	15726.71
488.467	15773.26
488.837	16098.45
489.207	16315.62
489.578	16477.19
489.948	16705.21
490.318	16964.41
490.688	16992.89
491.058	17333.89
491.428	17528.92
491.798	17652.53
492.168	17958.28
492.538	18127.09
492.908	18307.2
493.278	18536.35
493.648	18650.92
494.017	18902.21
494.387	19000.74
494.757	19129.1
495.126	19357.57
495.496	19319.15
495.866	19493.16
496.235	19753.04
496.605	19983.09
496.974	20067.16
497.344	20276.64
497.713	20357.32
498.082	20562.06
498.452	20703.52
498.821	20832.11
499.19	20865.1
499.559	21092.89
499.928	21283.85
500.298	21433.9
500.667	21638.19
501.036	21587.57
501.405	21856.71
501.774	21944.85
502.143	22111.4
502.512	22170.15
502.88	22384.16
503.249	22437.72
503.618	22529.46
503.987	22784.82
504.356	22917.93
504.724	23144.36
505.093	23333.74
505.462	23386.39
505.83	23469.78
506.199	23632.94
506.567	24013.27
506.936	23937.79
507.304	24265.01
507.672	24314.73
508.041	24524.89
508.409	24594.95
508.777	24842.17
509.145	24944.99
509.514	25146.34
509.882	25304.98
510.25	25425.89
510.618	25733.45
510.986	25680.79
511.354	25932.09
511.722	26183.38
512.09	26513.09
512.458	26429.02
512.826	26702.01
513.193	26761.22
513.561	26927.54
513.929	27145.16
514.297	27478.26
514.664	27748.08
515.032	27889.32
515.4	27951.24
515.767	28227.17
516.135	28281.4
516.502	28273.72
516.869	28920.03
517.237	28987.15
517.604	28841.39
517.972	29362.96
518.339	29584.42
518.706	29604.76
519.073	29829.16
519.44	30058.98
519.808	30425.3
520.175	30423.04
520.542	30759.76
520.909	31028.68
521.276	31035.23
521.643	31409.46
522.009	31648.77
522.376	31717.02
522.743	32121.98
523.11	32300.05
523.477	32707.73
523.843	32945.69
524.21	33302.97
524.577	33468.84
524.943	33756.51
525.31	33984.53
525.676	34236.5
526.043	34418.64
526.409	34675.59
526.776	34899.53
527.142	35036.71
527.508	35149.02
527.874	35471.95
528.241	35688.67
528.607	35835.78
528.973	36179.5
529.339	36265.6
529.705	36653.39
530.071	36899.48
530.437	37117.1
530.803	37437.09
531.169	37477.09
531.535	37558.9
531.901	37616.07
532.267	37866.24
532.632	38155.49
532.998	38455.15
533.364	38569.95
533.73	38726.1
534.095	38972.2
534.461	39109.59
534.826	39425.97
535.192	39498.06
535.557	39757.49
535.923	39751.16
536.288	39963.13
536.653	40174.2
537.019	40120.87
537.384	40455.77
537.749	40523.34
538.114	40710
538.479	40725.82
538.845	41022.76
539.21	41099.15
539.575	41397.67
539.94	41472.02
540.305	41868.84
540.67	41790.2
541.034	41980.25
541.399	42146.8
541.764	42318.77
542.129	42660.69
542.494	42551.31
542.858	42754.02
543.223	42702.49
543.587	43054.12
543.952	43090.73
544.316	43209.37
544.681	43251.41
545.045	43525.3
545.41	43702.92
545.774	43911.95
546.138	43835.57
546.503	44058.84
546.867	44111.5
547.231	44511.48
547.595	44525.72
547.959	44718.94
548.324	44739.28
548.688	44933.39
549.052	45064.92
549.416	45245.93
549.779	45310.79
550.143	45528.18
550.507	45795.97
550.871	45961.84
551.235	45939.47
551.599	46315.96
551.962	46255.62
552.326	46441.15
552.689	46727.7
553.053	46606.57
553.417	46690.86
553.78	47242.03
554.143	47179.21
554.507	47377.17
554.87	47458.98
555.234	47963.37
555.597	47734.9
555.96	47926.99
556.323	48180.54
556.686	48237.94
557.05	48491.27
557.413	48669.57
557.776	48824.59
558.139	49189.33
558.502	49201.08
558.865	49293.96
559.228	49548.19
559.59	49685.81
559.953	49844.68
560.316	50179.58
560.679	50151.11
561.041	50318.11
561.404	50622.28
561.767	50913.58
562.129	50663.19
562.492	51142.5
562.854	51187.92
563.217	51099.79
563.579	51297.52
563.941	51620.22
564.304	51744.06
564.666	51855.02
565.028	51956.04
565.39	52119.42
565.753	52245.97
566.115	52421.56
566.477	52593.53
566.839	52665.17
567.201	52814.54
567.563	52925.5
567.925	53099.51
568.287	53082.11
568.648	53201.2
569.01	53322.78
569.372	53561.42
569.734	53519.61
570.095	53756.21
570.457	53924.57
570.819	53929.09
571.18	54015.42
571.542	54116.2
571.903	54167.95
572.265	54330.21
572.626	54444.56
572.987	54400.49
573.349	54608.17
573.71	54647.72
574.071	54688.39
574.432	54845.68
574.794	55036.18
575.155	54974.71
575.516	54951.21
575.877	55052.68
576.238	55154.82
576.599	55234.37
576.96	55163.86
577.32	55200.24
577.681	55364.31
578.042	55435.94
578.403	55469.61
578.763	55514.13
579.124	55588.48
579.485	55722.94
579.845	55769.72
580.206	55743.05
580.566	55722.72
580.927	55727.24
581.287	55819.66
581.648	55795.03
582.008	55900.56
582.368	55793.22
582.728	55808.59
583.089	55832.09
583.449	55869.6
583.809	55906.21
584.169	55936.5
584.529	55969.49
584.889	56090.84
585.249	55871.41
585.609	55848.81
585.969	55990.51
586.329	55895.59
586.688	55990.28
587.048	55930.62
587.408	55908.93
587.768	55946.44
588.127	55974.69
588.487	55897.17
588.846	56156.83
589.206	55842.49
589.565	55891.98
589.925	56079.77
590.284	55967.23
590.643	56065.08
591.003	56051.29
591.362	56172.2
591.721	56069.6
592.08	56137.85
592.44	56145.08
592.799	56163.38
593.158	56092.65
593.517	56129.26
593.876	56148.24
594.235	56147.11
594.593	56200.67
594.952	56172.42
595.311	56086.55
595.67	56189.37
596.029	56245.19
596.387	56272.08
596.746	56288.12
597.104	56206.77
597.463	56190.05
597.822	56351.85
598.18	56221.01
598.538	56213.78
598.897	56428.46
599.255	56140.33
599.613	56553.65
599.972	56354.56
600.33	56453.77
600.688	56358.18
601.046	56496.71
601.404	56568.12
601.762	56429.14
602.12	56638.4
602.478	56567.67
602.836	56604.05
603.194	56393.66
603.552	56547.78
603.91	56525.18
604.268	56640.66
604.625	56457.61
604.983	56648.12
605.341	56604.5
605.698	56762.91
606.056	56885.17
606.413	56762.24
606.771	56867.54
607.128	56790.26
607.485	56659.41
607.843	56721.56
608.2	56867.54
608.557	56895.57
608.914	56825.51
609.272	57048.1
609.629	57039.97
609.986	57141.44
610.343	57046.75
610.7	57173.75
611.057	57148.67
611.414	57037.26
611.771	57168.1
612.127	57206.52
612.484	57211.94
612.841	57234.77
613.198	57157.93
613.554	57208.78
613.911	57416.23
614.267	57354.99
614.624	57328.55
614.98	57348.21
615.337	57458.26
615.693	57500.52
616.05	57449
616.406	57544.59
616.762	57471.14
617.118	57433.41
617.475	57482.67
617.831	57439.51
618.187	57532.16
618.543	57585.49
618.899	57795.66
619.255	57653.74
619.611	57549.56
619.967	57678.14
620.323	57649.44
620.678	57581.65
621.034	57500.3
621.39	57537.13
621.746	57440.64
622.101	57834.98
622.457	57580.97
622.812	57662.55
623.168	57719.05
623.523	57689.67
623.879	57780.74
624.234	57651.93
624.589	57734.64
624.945	57714.98
625.3	57792.49
625.655	57809.21
626.01	57790.01
626.365	57818.03
626.72	57693.96
627.075	57762.66
627.43	57701.87
627.785	57637.92
628.14	57710.46
628.495	57694.42
628.85	57679.73
629.205	57588.43
629.559	57827.75
629.914	57581.65
630.269	57571.03
630.623	57444.93
630.978	57464.59
631.332	57487.19
631.687	57595.21
632.041	57461.43
632.396	57518.37
632.75	57407.64
633.104	57379.85
633.459	57340.98
633.813	57278.61
634.167	57238.16
634.521	57236.12
634.875	57217.82
635.229	57159.74
635.583	57048.56
635.937	56999.52
636.291	57000.42
636.645	57067.77
636.999	56983.02
637.352	56957.71
637.706	56849.69
638.06	56961.1
638.413	56955
638.767	56866.41
639.121	57001.33
639.474	56771.28
639.828	56831.16
640.181	56869.58
640.534	56816.7
640.888	56765.4
641.241	56691.28
641.594	56627.55
641.947	56691.73
642.301	56641.79
642.654	56579.64
643.007	56550.26
643.36	56514.33
643.713	56446.99
644.066	56578.29
644.419	56391.62
644.771	56129.48
645.124	55762.94
645.477	55602.49
645.83	55486.34
646.182	55388.94
646.535	55393.91
646.888	55632.1
647.24	55604.75
647.593	55800.68
647.945	55789.15
648.298	55520.69
648.65	55506.68
649.002	55400.46
649.355	55288.38
649.707	55177.87
650.059	55179.91
650.411	55568.37
650.763	55568.37
651.115	55904.18
651.467	55837.51
651.819	55800.23
652.171	55739.89
652.523	55616.5
652.875	55689.5
653.227	55442.27
653.578	55651.08
653.93	55651.76
654.282	55518.88
654.633	55432.1
654.985	55485.89
655.337	55408.83
655.688	55535.15
656.039	55601.81
656.391	55317.3
656.742	55306.68
657.094	55424.64
657.445	55471.42
657.796	55301.71
658.147	55352.56
658.498	55278.21
658.849	55314.59
659.2	55155.5
659.551	55207.7
659.902	55207.02
660.253	55162.5
660.604	55136.74
660.955	54944.88
661.306	55027.59
661.656	55010.42
662.007	55012.23
662.358	55070.53
662.708	55082.05
663.059	54896.52
663.409	54819.91
663.76	54995.5
664.11	54973.81
664.461	54962.51
664.811	54962.74
665.161	54939.23
665.511	54867.82
665.862	54831.89
666.212	54834.15
666.562	54908.27
666.912	54859.69
667.262	54859.69
667.612	54846.13
667.962	54780.82
668.312	54696.08
668.662	54879.12
669.011	54811.1
669.361	54687.26
669.711	54689.75
670.06	54633.7
670.41	54613.59
670.76	54556.87
671.109	54623.08
671.459	54512.8
671.808	54575.4
672.157	54639.81
672.507	54477.55
672.856	54331.57
673.205	54384.45
673.554	54492.92
673.904	54384.45
674.253	54567.04
674.602	54416.08
674.951	53998.02
675.3	53865.14
675.649	54231.68
675.998	54347.16
676.346	54297.44
676.695	54370.66
677.044	54128.18
677.393	54184
677.741	54246.14
678.09	54134.28
678.438	53968.41
678.787	54081.18
679.135	54104.45
679.484	53910.56
679.832	54054.28
680.181	53807.51
680.529	53971.35
680.877	53872.14
681.225	53793.5
681.573	53906.94
681.922	53685.48
682.27	53584.69
682.618	53559.83
682.966	53527.75
683.314	53615.88
683.661	53515.77
684.009	53390.12
684.357	53278.49
684.705	53160.52
685.053	53345.15
685.4	53274.42
685.748	53062.45
686.095	52997.14
686.443	52880.98
686.79	52894.09
687.138	52983.13
687.485	52943.58
687.832	52805.05
688.18	52778.61
688.527	52692.06
688.874	52619.75
689.221	52647.09
689.568	52321.9
689.915	52264.95
690.262	52309.7
690.609	52100.89
690.956	52066.99
691.303	52154.9
691.65	51976.83
691.997	51883.72
692.344	51740.67
692.69	51697.51
693.037	51691.86
693.383	51378.65
693.73	51664.74
694.077	51382.94
694.423	51410.96
694.769	51150.41
695.116	51236.05
695.462	51105.66
695.808	50909.28
696.155	51032.67
696.501	50773.47
696.847	50773.92
697.193	50399.24
697.539	50568.73
697.885	50288.73
698.231	50059.36
698.577	50211.67
698.923	50195.18
699.269	50150.43
699.614	49898.69
699.96	49673.16
700.306	49846.94
700.651	49504.12
700.997	49473.61
701.342	49447.63
701.688	49303
702.033	49213.06
702.379	49184.36
702.724	49040.63
703.069	49194.53
703.415	48726.29
703.76	48722.45
704.105	48672.73
704.45	48582.56
704.795	48296.92
705.14	48255.57
705.485	48202.46
705.83	47999.75
706.175	48179.19
706.52	47958.63
706.865	47854.45
707.209	47735.58
707.554	47667.56
707.899	47675.02
708.243	47382.37
708.588	47335.14
708.932	47175.6
709.277	47010.85
709.621	46950.97
709.966	46766.11
710.31	46920.24
710.654	46487.03
710.998	46693.35
711.342	46595.05
711.687	46561.37
712.031	46373.58
712.375	46250.42
712.719	46390.31
713.063	46242.96
713.407	46280.25
713.75	46195.06
714.094	46018.11
714.438	45740.15
714.782	45796.2
715.125	45660.38
715.469	45645.01
715.812	45371.8
716.156	45090.68
716.499	45121.19
716.843	45260.84
717.186	44803
717.53	45077.8
717.873	45097.01
718.216	45131.36
718.559	44756.9
718.902	44638.71
719.246	44568.21
719.589	44447.53
719.932	44376.12
720.275	44418.15
720.617	44316.69
720.96	44341.55
721.303	44293.19
721.646	44400.53
721.989	44026.98
722.331	44111.72
722.674	43988.79
723.016	43860.43
723.359	43744.5
723.701	43792.63
724.044	43589.93
724.386	43456.82
724.729	43614.56
725.071	43554.22
725.413	43441.46
725.755	43361.01
726.097	43064.29
726.439	43069.26
726.782	42781.81
727.124	43106.55
727.465	42649.39
727.807	42728.93
728.149	42483.29
728.491	42500.92
728.833	42717.41
729.175	42373.46
729.516	42403.97
729.858	42229.74
730.199	42303.63
730.541	42087.37
730.882	42115.84
731.224	42255.27
731.565	41990.65
731.906	42004.66
732.248	41941.16
732.589	41724.67
732.93	41638.34
733.271	41605.8
733.612	41804.66
733.953	41764.21
734.294	41451.45
734.635	41431.11
734.976	41352.25
735.317	41287.16
735.658	41175.53
735.999	41183.44
736.339	40974.63
736.68	41155.19
737.021	41018.47
737.361	40882.65
737.702	40972.37
738.042	40821.41
738.383	40785.48
738.723	40864.12
739.063	40517.01
739.404	40634.98
739.744	40434.76
740.084	40346.85
740.424	40365.83
740.764	40323.57
741.104	40462.78
741.444	40127.65
741.784	39968.55
742.124	39905.73
742.464	39865.51
742.804	39782.8
743.143	39810.37
743.483	39898.5
743.823	39644.95
744.162	39452.18
744.502	39611.27
744.841	39346.2
745.181	39485.85
745.52	39198.18
745.86	39374.44
746.199	39209.7
746.538	39146.43
746.877	39101.01
747.216	39301.68
747.556	38962.03
747.895	38935.81
748.234	38760.22
748.573	38775.36
748.911	38792.77
749.25	38775.36
749.589	38627.12
749.928	38582.6
750.267	38639.1
750.605	38282.95
750.944	38152.33
751.283	38109.39
751.621	38139.45
751.96	37889.06
752.298	37759.12
752.636	37852
752.975	37755.5
753.313	37678.44
753.651	37824.2
753.989	37386.02
754.327	37365.91
754.666	37202.07
755.004	37181.06
755.342	37359.36
755.679	37094.28
756.017	36901.74
756.355	36942.64
756.693	36978.8
757.031	36947.39
757.368	36593.95
757.706	36572.94
758.044	36513.73
758.381	36541.98
758.719	36333.62
759.056	36319.38
759.394	36127.3
759.731	35900.19
760.068	35798.04
760.405	35773.41
760.743	35584.49
761.08	35744.48
761.417	35401.44
761.754	35295.68
762.091	35381.56
762.428	35214.33
762.765	34994.67
763.102	35196.7
763.438	34870.61
763.775	34648.69
764.112	34693.66
764.449	34893.66
764.785	34604.17
765.122	34316.05
765.458	34313.11
765.795	34162.83
766.131	33960.12
766.467	33833.35
766.804	33660.47
767.14	33554.48
767.476	33528.5
767.812	33374.6
768.148	33341.84
768.485	33115.4
768.821	33044.22
769.157	32980.49
769.492	33025.23
769.828	32883.77
770.164	32468.86
770.5	32407.4
770.836	32405.81
771.171	32172.6
771.507	32138.48
771.842	31891.25
772.178	31892.83
772.513	31725.61
772.849	31715.21
773.184	31531.26
773.519	31543.46
773.855	31396.58
774.19	31269.12
774.525	31064.38
774.86	31070.71
775.195	30774.22
775.53	30834.33
775.865	30727.89
776.2	30607.67
776.535	30270.73
776.87	30233.22
777.205	30281.8
777.539	30096.5
777.874	30045.88
778.209	29805.21
778.543	29720.69
778.878	29621.93
779.212	29667.81
779.547	29416.74
779.881	29458.1
780.215	29269.17
780.55	29283.41
780.884	29084.09
781.218	28958.9
781.552	28905.12
781.886	28763.65
782.22	28570.21
782.554	28396.2
782.888	28123.22
783.222	28089.54
783.556	27957.12
783.889	27928.87
784.223	27824.24
784.557	27797.8
784.89	27861.75
785.224	27516.9
785.557	27407.98
785.891	27301.32
786.224	27159.17
786.558	27185.39
786.891	26911.27
787.224	26904.04
787.557	26744.72
787.891	26748.34
788.224	26655.01
788.557	26702.91
788.89	26603.71
789.223	26593.76
789.556	26444.62
789.888	26241.23
790.221	26073.55
790.554	26053.44
790.887	25948.58
791.219	25887.79
791.552	25768.02
791.884	25642.15
792.217	25555.37
792.549	25537.52
792.882	25302.72
793.214	25327.36
793.546	25279.22
793.879	25103.41
794.211	25012.79
794.543	25060.92
794.875	24900.25
795.207	24932.56
795.539	24777.77
795.871	24688.5
796.203	24465.91
796.535	24329.64
796.867	24439.92
797.198	24359.7
797.53	24228.63
797.862	24052.14
798.193	24176.43
798.525	24061.85
798.856	23945.47
799.188	23784.35
799.519	23754.74
799.85	23661.41
800.182	23640.62
800.513	23628.64
800.844	23376
801.175	23386.62
801.506	23240.63
801.837	23140.3
802.168	23042.9
802.499	22981.88
802.83	22850.81
803.161	22879.29
803.491	22844.94
803.822	22776.24
804.153	22625.05
804.483	22524.72
804.814	22392.52
805.145	22366.08
805.475	22415.57
805.805	22310.94
806.136	22239.98
806.466	22220.32
806.796	22271.39
807.126	22088.8
807.457	22111.62
807.787	21990.95
808.117	21898.07
808.447	21732.87
808.777	21770.61
809.107	21658.98
809.436	21743.5
809.766	21772.42
810.096	21630.5
810.426	21495.59
810.755	21516.38
811.085	21394.8
811.414	21288.37
811.744	21173.57
812.073	21197.75
812.403	21134.02
812.732	21040.24
813.061	20958.43
813.39	20807.7
813.719	20777.42
814.049	20972.89
814.378	20700.81
814.707	20643.41
815.036	20698.55
815.365	20659
815.693	20530.65
816.022	20469.86
816.351	20410.88
816.68	20249.3
817.008	20289.3
817.337	20086.36
817.665	20048.17
817.994	20051.34
818.322	20059.47
818.651	20039.59
818.979	19872.36
819.307	19889.76
819.636	19888.18
819.964	19731.57
820.292	19841.63
820.62	19812.47
820.948	19660.84
821.276	19767.73
821.604	19645.02
821.932	19658.58
822.259	19764.11
822.587	19725.92
822.915	19613.38
823.243	19673.27
823.57	19526.83
823.898	19579.03
824.225	19513.5
824.553	19465.36
824.88	19596.89
825.207	19581.29
825.535	19589.88
825.862	19493.39
826.189	19425.14
826.516	19649.54
826.843	19515.98
827.17	19610.22
827.497	19633.72
827.824	19550.56
828.151	19483.22
828.478	19484.12
828.805	19532.48
829.131	19441.86
829.458	19472.6
829.785	19483.44
830.111	19585.13
830.438	19614.96
830.764	19564.57
831.09	19534.97
831.417	19433.05
831.743	19482.09
832.069	19532.03
832.395	19435.08
832.722	19430.79
833.048	19371.36
833.374	19483.67
833.7	19340.62
834.026	19360.51
834.351	19362.54
834.677	19261.53
835.003	19217.91
835.329	19273.73
835.654	19173.39
835.98	19167.52
836.306	19149.21
836.631	18965.72
836.956	19094.07
837.282	19102.44
837.607	19031.03
837.932	18912.84
838.258	18936.11
838.583	18985.6
838.908	18922.78
839.233	18952.61
839.558	18970.69
839.883	18887.98
840.208	18812.5
840.533	18696.34
840.858	18817.47
841.182	18744.48
841.507	18782.44
841.832	18765.27
842.156	18749.22
842.481	18699.51
842.805	18606.18
843.13	18584.26
843.454	18502.9
843.778	18521.89
844.103	18334.77
844.427	18345.17
844.751	18290.48
845.075	18270.37
845.399	18259.97
845.723	18125.96
846.047	18179.07
846.371	18080.32
846.695	18061.11
847.019	17880.32
847.343	17836.03
847.666	17663.83
847.99	17583.38
848.313	17582.25
848.637	17565.53
848.96	17467
849.284	17461.12
849.607	17428.58
849.931	17235.82
850.254	17069.95
850.577	17049.61
850.9	16936.39
851.223	16902.72
851.546	16947.46
851.869	16828.6
852.192	16899.33
852.515	16703.63
852.838	16650.07
853.161	16624.31
853.483	16596.06
853.806	16474.48
854.129	16433.58
854.451	16394.48
854.774	16324.2
855.096	16219.8
855.419	16221.83
855.741	16250.76
856.063	16139.12
856.385	16062.97
856.708	16094.61
857.03	15995.85
857.352	15970.09
857.674	15948.85
857.996	15990.88
858.318	15823.43
858.64	15846.02
858.961	15708.85
859.283	15734.16
859.605	15732.35
859.926	15757.44
860.248	15692.58
860.57	15639.02
860.891	15652.81
861.212	15516.09
861.534	15491.23
861.855	15492.36
862.176	15451.91
862.498	15389.09
862.819	15454.85
863.14	15347.28
863.461	15460.27
863.782	15352.7
864.103	15226.38
864.424	15201.3
864.745	15265.93
865.065	15178.92
865.386	15131.24
865.707	15178.7
866.027	15180.73
866.348	14976.67
866.668	15146.16
866.989	15090.11
867.309	15017.12
867.63	15023.67
867.95	14972.6
868.27	14865.94
868.59	14903.22
868.91	14766.73
869.23	14926.27
869.55	14838.59
869.87	14936.67
870.19	14940.96
870.51	14945.03
870.83	14884.69
871.15	14715.43
871.469	14778.03
871.789	14757.69
872.109	14857.58
872.428	14750.91
872.748	14750.01
873.067	14827.75
873.386	14778.48
873.706	14648.32
874.025	14521.54
874.344	14551.82
874.663	14585.04
874.982	14526.74
875.301	14606.06
875.62	14579.84
875.939	14462.78
876.258	14464.59
876.577	14395.67
876.896	14469.79
877.214	14413.97
877.533	14316.35
877.852	14391.15
878.17	14371.71
878.489	14284.71
878.807	14386.63
879.125	14385.5
879.444	14280.42
879.762	14249.23
880.08	14323.35
880.398	14274.54
880.716	14245.61
881.034	14168.1
881.352	14192.51
881.67	14137.59
881.988	14113.87
882.306	14080.19
882.624	14115.67
882.941	14042
883.259	14001.55
883.577	13940.76
883.894	13996.81
884.212	13942.8
884.529	13942.12
884.846	13828.9
885.164	13867.54
885.481	13779.64
885.798	13821.22
886.115	13696.25
886.432	13702.58
886.75	13635.46
887.067	13626.2
887.383	13595.69
887.7	13602.92
888.017	13492.87
888.334	13594.11
888.651	13490.83
888.967	13493.09
889.284	13289.48
889.6	13242.02
889.917	13268.01
890.233	13358.86
890.55	13250.84
890.866	13357.05
891.182	13278.41
891.498	13202.48
891.815	13088.81
892.131	13172.42
892.447	13100.56
892.763	13037.06
893.079	13107.11
893.395	13002.48
893.71	13008.13
894.026	12923.16
894.342	12959.09
894.657	12804.75
894.973	12846.33
895.289	12811.75
895.604	12883.84
895.92	12714.13
896.235	12672.77
896.55	12688.82
896.865	12656.5
897.181	12653.11
897.496	12493.12
897.811	12466.23
898.126	12418.77
898.441	12456.28
898.756	12391.43
899.071	12323.63
899.386	12315.95
899.7	12165.89
900.015	12177.19
900.33	12077.54
900.644	12146.23
900.959	12014.71
901.273	12101.49
901.588	12017.88
901.902	11929.74
902.216	11962.74
902.531	11963.19
902.845	11939.91
903.159	11893.36
903.473	11879.8
903.787	11823.3
904.101	11712.12
904.415	11826.24
904.729	11606.14
905.042	11528.17
905.356	11495.18
905.67	11489.3
905.984	11484.33
906.297	11486.14
906.611	11335.86
906.924	11400.49
907.237	11367.72
907.551	11273.26
907.864	11259.25
908.177	11274.39
908.491	11142.42
908.804	11071.01
909.117	11001.86
909.43	10948.07
909.743	10932.03
910.056	10911.24
910.368	10971.35
910.681	10853.16
910.994	10863.56
911.307	10716.89
911.619	10627.4
911.932	10700.4
912.244	10638.7
912.557	10570
912.869	10601.87
913.181	10586.05
913.494	10557.35
913.806	10433.51
914.118	10415.21
914.43	10293.85
914.742	10387.86
915.054	10271.71
915.366	10229.22
915.678	10242.78
915.99	10152.16
916.302	10092.95
916.613	10106.29
916.925	10044.37
917.236	10010.47
917.548	9961.21
917.859	9907.88
918.171	9882.79
918.482	9888.89
918.794	9790.14
919.105	9745.39
919.416	9713.76
919.727	9686.64
920.038	9720.76
920.349	9608
920.66	9530.94
920.971	9556.02
921.282	9506.76
921.593	9365.74
921.903	9426.08
922.214	9372.97
922.525	9347.21
922.835	9345.63
923.146	9238.06
923.456	9267.21
923.767	9156.26
924.077	9163.94
924.387	9099.99
924.697	9010.5
925.008	9026.09
925.318	9018.63
925.628	8994.45
925.938	8933.21
926.248	8848.02
926.558	8867.22
926.867	8826.32
927.177	8793.55
927.487	8678.53
927.796	8645.54
928.106	8677.85
928.416	8688.02
928.725	8668.59
929.034	8518.31
929.344	8607.8
929.653	8572.54
929.962	8478.76
930.271	8445.99
930.581	8380.46
930.89	8336.16
931.199	8398.08
931.508	8294.36
931.817	8223.17
932.125	8249.84
932.434	8180.01
932.743	8086
933.051	8073.35
933.36	8063.4
933.669	7986.57
933.977	7998.32
934.286	7934.14
934.594	7986.34
934.902	7913.58
935.21	7839
935.519	7825.44
935.827	7785.67
936.135	7718.55
936.443	7726.69
936.751	7685.11
937.059	7697.09
937.367	7649.18
937.674	7684.2
937.982	7615.28
938.29	7551.33
938.597	7476.53
938.905	7451.67
939.213	7412.35
939.52	7434.27
939.827	7433.82
940.135	7354.5
940.442	7315.63
940.749	7271.79
941.056	7305.68
941.363	7223.2
941.67	7187.49
941.977	7159.47
942.284	7100.49
942.591	7119.47
942.898	7089.87
943.205	7091.68
943.511	7029.76
943.818	7027.5
944.125	6970.55
944.431	6988.86
944.738	6916.99
945.044	6921.29
945.35	6862.98
945.657	6820.72
945.963	6784.79
946.269	6730.56
946.575	6770.33
946.881	6638.13
947.187	6701.63
947.493	6627.96
947.799	6545.48
948.105	6520.39
948.41	6498.25
948.716	6539.38
949.022	6475.65
949.327	6467.51
949.633	6420.74
949.938	6420.96
950.244	6416.89
950.549	6367.86
950.854	6387.74
951.16	6298.93
951.465	6279.04
951.77	6209.22
952.075	6184.58
952.38	6140.97
952.685	6172.15
952.99	6069.11
953.294	6128.54
953.599	6052.61
953.904	6034.3
954.209	6009.45
954.513	5959.28
954.818	6038.82
955.122	5970.13
955.426	5958.6
955.731	5939.39
956.035	5912.73
956.339	5871.37
956.643	5853.97
956.948	5780.75
957.252	5811.03
957.556	5776.46
957.86	5659.63
958.163	5733.07
958.467	5705.27
958.771	5639.74
959.075	5624.15
959.378	5582.79
959.682	5634.09
959.985	5566.29
960.289	5510.7
960.592	5551.61
960.896	5505.73
961.199	5443.36
961.502	5483.36
961.805	5432.74
962.108	5462.34
962.411	5420.99
962.714	5324.72
963.017	5317.49
963.32	5335.11
963.623	5286.75
963.926	5280.2
964.228	5248.56
964.531	5206.76
964.833	5188.9
965.136	5129.7
965.438	5119.98
965.741	5096.93
966.043	5093.31
966.345	5086.31
966.648	5045.86
966.95	5056.48
967.252	5025.74
967.554	4993.88
967.856	5007.89
968.158	4925.18
968.46	4925.41
968.761	4843.38
969.063	4891.28
969.365	4845.64
969.666	4856.26
969.968	4818.07
970.269	4782.81
970.571	4800.66
970.872	4736.03
971.174	4730.84
971.475	4720.44
971.776	4712.76
972.077	4644.96
972.378	4642.02
972.679	4585.08
972.98	4610.84
973.281	4598.86
973.582	4586.89
973.883	4562.25
974.183	4503.05
974.484	4538.52
974.785	4496.94
975.085	4456.27
975.386	4495.81
975.686	4436.15
975.986	4471.63
976.287	4440.45
976.587	4381.01
976.887	4355.7
977.187	4333.56
977.487	4317.06
977.787	4293.79
978.087	4272.32
978.387	4213.56
978.687	4244.52
978.987	4237.97
979.286	4192.77
979.586	4206.33
979.885	4155.26
980.185	4153.68
980.484	4090.63
980.784	4096.73
981.083	4100.8
981.382	4074.81
981.682	4045.88
981.981	4038.2
982.28	3996.17
982.579	4010.85
982.878	3974.92
983.177	3953
983.475	3951.87
983.774	3898.99
984.073	3927.02
984.372	3884.3
984.67	3820.35
984.969	3867.58
985.267	3838.66
985.566	3807.92
985.864	3783.97
986.162	3768.83
986.461	3752.78
986.759	3745.78
987.057	3736.51
987.355	3696.51
987.653	3672.78
987.951	3675.04
988.249	3693.8
988.547	3634.14
988.844	3638.89
989.142	3589.85
989.44	3582.39
989.737	3585.78
990.035	3562.73
990.332	3564.77
990.63	3553.69
990.927	3515.73
991.224	3498.78
991.521	3468.72
991.819	3469.85
992.116	3403.19
992.413	3418.78
992.71	3408.61
993.006	3393.92
993.303	3342.17
993.6	3373.36
993.897	3374.71
994.193	3334.94
994.49	3324.77
994.787	3305.79
995.083	3264.43
995.379	3251.1
995.676	3223.98
995.972	3211.55
996.268	3231.89
996.565	3153.02
996.861	3136.75
997.157	3201.84
997.453	3145.34
997.749	3129.52
998.044	3143.53
998.34	3150.99
998.636	3085
998.932	3106.7
999.227	3035.29
999.523	3061.5
999.818	3007.72
1000.114	2992.58
1000.409	3009.98
1000.704	2965.01
1001	2957.1
1001.295	2946.25
1001.59	2939.24
1001.885	2898.12
1002.18	2853.37
1002.475	2871
1002.77	2879.81
1003.065	2836.65
1003.359	2848.63
1003.654	2831
1003.949	2776.09
1004.243	2803.2
1004.538	2762.98
1004.832	2768.18
1005.127	2727.5
1005.421	2707.61
1005.715	2689.31
1006.009	2688.4
1006.304	2651.34
1006.598	2659.25
1006.892	2627.39
1007.186	2587.39
1007.48	2569.31
1007.773	2595.75
1008.067	2537.9
1008.361	2544.9
1008.655	2494.74
1008.948	2544.23
1009.242	2502.87
1009.535	2499.03
1009.829	2492.93
1010.122	2457
1010.415	2450.22
1010.708	2396.66
1011.001	2416.55
1011.295	2431.01
1011.588	2402.08
1011.881	2393.5
1012.173	2338.36
1012.466	2351.92
1012.759	2350.11
1013.052	2306.27
1013.344	2307.4
1013.637	2275.99
1013.93	2278.47
1014.222	2279.38
1014.514	2257.91
1014.807	2231.92
1015.099	2193.73
1015.391	2209.77
1015.683	2193.95
1015.976	2187.85
1016.268	2182.88
1016.56	2168.87
1016.851	2118.93
1017.143	2131.58
1017.435	2115.99
1017.727	2132.26
1018.018	2079.15
1018.31	2066.95
1018.602	2048.42
1018.893	2057.46
1019.185	2038.93
1019.476	2033.96
1019.767	2012.49
1020.058	1958.03
1020.35	1982.21
1020.641	1934.98
1020.932	1977.01
1021.223	1945.82
1021.514	1909.89
1021.804	1904.47
1022.095	1868.54
1022.386	1870.8
1022.677	1876.9
1022.967	1860.18
1023.258	1844.81
1023.548	1843.91
1023.839	1798.94
1024.129	1798.71
1024.419	1777.69
1024.709	1734.98
1025	1725.49
1025.29	1736.56
1025.58	1744.7
1025.87	1681.42
1026.16	1696.57
1026.449	1690.92
1026.739	1665.38
1027.029	1687.53
1027.319	1671.03
1027.608	1635.1
1027.898	1630.58
1028.187	1640.52
1028.477	1609.11
1028.766	1597.13
1029.055	1594.65
1029.344	1560.98
1029.634	1546.96
1029.923	1550.81
1030.212	1526.17
1030.501	1543.12
1030.79	1485.5
1031.078	1495.44
1031.367	1514.65
1031.656	1464.03
1031.945	1486.85
1032.233	1451.6
1032.522	1476.91
1032.81	1450.02
1033.099	1452.5
1033.387	1445.5
1033.675	1412.05
1033.963	1406.63
1034.251	1427.87
1034.54	1352.62
1034.828	1393.75
1035.116	1356.01
1035.403	1324.6
1035.691	1335.9
1035.979	1308.55
1036.267	1295.45
1036.554	1312.62
1036.842	1336.35
1037.129	1297.48
1037.417	1290.47
1037.704	1279.18
1037.992	1286.18
1038.279	1266.52
1038.566	1256.35
1038.853	1256.35
1039.14	1256.35
