Data from foil_FLMS001491_028.txt Node
Date: Tue Feb 07 11:25:41 GMT 2017
User: dcchb
Spectrometer: FLMS00149
Trigger mode: 0
Integration Time (sec): 2.000000E-2
Scans to average: 10
Electric dark correction enabled: true
Nonlinearity correction enabled: false
Boxcar width: 0
XAxis mode: Wavelengths
Number of Pixels in Spectrum: 2048
>>>>>Begin Spectral Data<<<<<
341.393	0.49
341.776	0.49
342.16	0.49
342.543	-61.2
342.927	-76.34
343.31	-74.08
343.693	-68.43
344.077	-67.53
344.46	-88.77
344.843	-62.33
345.226	-41.31
345.61	-27.3
345.993	-16
346.376	-2.44
346.759	7.73
347.142	30.78
347.525	42.53
347.908	51.57
348.291	82.07
348.674	103.54
349.057	129.98
349.44	122.3
349.823	160.04
350.206	186.7
350.588	281.16
350.971	283.2
351.354	291.33
351.737	311.45
352.119	327.27
352.502	323.88
352.884	334.72
353.267	347.83
353.65	365.68
354.032	369.75
354.414	374.95
354.797	383.76
355.179	394.38
355.562	391.67
355.944	393.93
356.326	416.3
356.709	430.99
357.091	430.31
357.473	432.35
357.855	437.54
358.238	448.84
358.62	434.61
359.002	442.29
359.384	450.88
359.766	415.62
360.148	428.96
360.53	431.44
360.912	440.71
361.294	435.06
361.676	442.29
362.057	437.32
362.439	433.25
362.821	433.93
363.203	456.08
363.584	440.93
363.966	455.17
364.348	447.71
364.729	455.4
365.111	456.08
365.493	451.33
365.874	451.33
366.256	457.21
366.637	471.44
367.019	462.4
367.4	460.82
367.781	463.53
368.163	430.77
368.544	461.73
368.925	442.97
369.306	462.63
369.688	478
370.069	461.5
370.45	468.5
370.831	461.95
371.212	465.34
371.593	503.31
371.974	461.05
372.355	480.48
372.736	491.55
373.117	511.22
373.498	503.53
373.879	507.15
374.26	486.81
374.641	498.79
375.021	488.84
375.402	518.22
375.783	576.3
376.163	558.9
376.544	549.63
376.925	539.24
377.305	551.21
377.686	564.32
378.066	569.97
378.447	570.42
378.827	574.94
379.208	583.76
379.588	550.31
379.968	597.54
380.349	604.77
380.729	586.47
381.109	599.35
381.489	614.72
381.87	607.03
382.25	622.62
382.63	629.18
383.01	618.56
383.39	634.83
383.77	633.02
384.15	658.78
384.53	677.99
384.91	687.71
385.29	683.41
385.67	713.7
386.049	695.84
386.429	693.36
386.809	702.62
387.189	720.7
387.568	701.27
387.948	705.33
388.328	735.39
388.707	740.59
389.087	733.13
389.466	777.88
389.846	762.51
390.225	790.76
390.605	796.63
390.984	799.12
391.363	800.25
391.743	824.43
392.122	819.23
392.501	847.03
392.881	843.64
393.26	868.72
393.639	863.07
394.018	881.38
394.397	884.99
394.776	899.45
395.155	904.2
395.534	894.48
395.913	899.68
396.292	941.49
396.671	942.16
397.05	973.12
397.429	947.14
397.808	944.2
398.186	979.68
398.565	999.56
398.944	991.43
399.323	997.53
399.701	1025.1
400.08	1015.83
400.458	1049.73
400.837	1038.43
401.215	1068.26
401.594	1066.91
401.972	1077.3
402.351	1084.99
402.729	1086.57
403.107	1128.37
403.486	1138.32
403.864	1120.46
404.242	1128.83
404.62	1169.5
404.999	1175.83
405.377	1192.55
405.755	1210.18
406.133	1203.4
406.511	1255.83
406.889	1263.74
407.267	1268.48
407.645	1288.37
408.023	1285.21
408.401	1308.03
408.779	1326.34
409.156	1337.63
409.534	1373.11
409.912	1357.75
410.29	1410.17
410.667	1441.36
411.045	1466.9
411.422	1471.19
411.8	1474.35
412.178	1506.44
412.555	1531.3
412.933	1527.69
413.31	1577.18
413.687	1610.4
414.065	1612.66
414.442	1652.88
414.819	1656.04
415.197	1640.9
415.574	1675.48
415.951	1699.88
416.328	1725.87
416.705	1740.34
417.082	1730.62
417.46	1766.32
417.837	1801.12
418.214	1801.35
418.591	1841.12
418.967	1851.75
419.344	1862.37
419.721	1896.94
420.098	1875.7
420.475	1922.48
420.852	1970.61
421.228	1931.74
421.605	1955.47
421.982	1971.97
422.358	2008.58
422.735	2042.7
423.111	2012.64
423.488	2096.03
423.864	2076.82
424.241	2110.72
424.617	2136.48
424.994	2157.05
425.37	2165.41
425.746	2180.55
426.123	2214.9
426.499	2228.46
426.875	2249.7
427.251	2306.87
427.627	2344.84
428.003	2348.68
428.379	2390.49
428.756	2421.67
429.132	2479.53
429.507	2530.6
429.883	2533.76
430.259	2573.99
430.635	2567.66
431.011	2612.86
431.387	2659.86
431.763	2704.83
432.138	2721.55
432.514	2776.92
432.89	2767.2
433.265	2870.25
433.641	2906.18
434.016	2896.92
434.392	2955.9
434.767	3012.17
435.143	3002
435.518	3028.89
435.894	3076.35
436.269	3087.87
436.644	3149.79
437.02	3143.01
437.395	3212.39
437.77	3231.6
438.145	3318.83
438.52	3313.4
438.895	3367.64
439.271	3354.08
439.646	3399.73
440.021	3418.94
440.395	3441.99
440.77	3442.66
441.145	3480.63
441.52	3561.98
441.895	3532.15
442.27	3621.19
442.645	3612.38
443.019	3642.66
443.394	3616.44
443.769	3702.77
444.143	3648.76
444.518	3734.18
444.892	3717.23
445.267	3766.5
445.641	3845.59
446.016	3858.02
446.39	3835.42
446.764	3814.86
447.139	3851.69
447.513	3903.67
447.887	3919.94
448.262	3940.05
448.636	3964.91
449.01	4065.02
449.384	4090.56
449.758	4086.04
450.132	4178.01
450.506	4161.74
450.88	4205.81
451.254	4203.55
451.628	4288.52
452.002	4348.4
452.376	4352.7
452.75	4376.2
453.123	4466.82
453.497	4496.42
453.871	4490.09
454.244	4602.63
454.618	4629.75
454.992	4711.33
455.365	4763.31
455.739	4804.44
456.112	4848.5
456.486	4900.48
456.859	4997.65
457.232	5044.43
457.606	5076.07
457.979	5170.98
458.352	5222.05
458.725	5257.08
459.099	5330.98
459.472	5389.05
459.845	5494.81
460.218	5504.76
460.591	5542.04
460.964	5594.92
461.337	5771.64
461.71	5789.27
462.083	5872.43
462.456	5885.76
462.829	5919.43
463.201	6027.68
463.574	6064.74
463.947	6163.72
464.32	6260.89
464.692	6337.73
465.065	6349.48
465.438	6421.34
465.81	6542.92
466.183	6602.58
466.555	6753.31
466.928	6800.99
467.3	6772.29
467.672	6892.29
468.045	7058.39
468.417	7110.59
468.789	7116.92
469.161	7285.95
469.534	7342
469.906	7523.01
470.278	7498.15
470.65	7659.73
471.022	7793.74
471.394	7946.73
471.766	7993.96
472.138	8118.47
472.51	8319.37
472.882	8403.44
473.253	8515.52
473.625	8622.19
473.997	8806.14
474.369	8849.08
474.74	8900.83
475.112	9110.31
475.484	9287.71
475.855	9416.52
476.227	9484.31
476.598	9725.21
476.97	9803.63
477.341	10099.89
477.713	10209.94
478.084	10240.45
478.455	10524.29
478.827	10594.57
479.198	10938.06
479.569	10955.91
479.94	11276.36
480.311	11312.97
480.682	11620.3
481.053	11857.81
481.424	12129.67
481.795	12163.34
482.166	12357.68
482.537	12516.78
482.908	12789.99
483.279	12890.55
483.65	13089.64
484.021	13348.84
484.391	13487.37
484.762	13662.51
485.133	13796.06
485.503	13972.1
485.874	14331.64
486.244	14414.35
486.615	14688.02
486.985	14901.8
487.356	15136.59
487.726	15220.89
488.097	15549.69
488.467	15587.2
488.837	15883.01
489.207	16130.92
489.578	16364.36
489.948	16521.87
490.318	16742.65
490.688	16683.67
491.058	17071.46
491.428	17239.82
491.798	17412.24
492.168	17772.46
492.538	17965.9
492.908	18069.85
493.278	18376.73
493.648	18397.52
494.017	18624.86
494.387	18683.39
494.757	18882.71
495.126	19079.54
495.496	19089.26
495.866	19363.15
496.235	19518.4
496.605	19637.04
496.974	19939.86
497.344	19992.29
497.713	20153.41
498.082	20209.45
498.452	20455.78
498.821	20656.45
499.19	20720.85
499.559	20820.29
499.928	21055.76
500.298	21198.13
500.667	21371.91
501.036	21330.55
501.405	21632.47
501.774	21615.29
502.143	21904.55
502.512	21913.82
502.88	22106.35
503.249	22133.25
503.618	22333.47
503.987	22470.41
504.356	22670.63
504.724	22863.17
505.093	23042.6
505.462	23153.11
505.83	23220.45
506.199	23421.57
506.567	23749.25
506.936	23760.77
507.304	24000.09
507.672	24091.84
508.041	24251.83
508.409	24416.12
508.777	24541.54
509.145	24826.51
509.514	24878.94
509.882	25014.3
510.25	25099.04
510.618	25302.65
510.986	25396.21
511.354	25585.36
511.722	25910.1
512.09	26162.74
512.458	26176.08
512.826	26398.44
513.193	26560.7
513.561	26781.94
513.929	26840.24
514.297	27111.87
514.664	27261.7
515.032	27417.4
515.4	27743.95
515.767	27781.46
516.135	28008.57
516.502	27919.99
516.869	28433.65
517.237	28683.81
517.604	28781.66
517.972	28986.85
518.339	29196.11
518.706	29236.11
519.073	29453.28
519.44	29793.16
519.808	30014.62
520.175	29931.01
520.542	30315.18
520.909	30577.54
521.276	30679.69
521.643	31001.94
522.009	31300.69
522.376	31477.86
522.743	31730.96
523.11	31905.64
523.477	32328.91
523.843	32625.17
524.21	32965.5
524.577	33000.08
524.943	33252.05
525.31	33478.03
525.676	33749.44
526.043	34070.11
526.409	34119.15
526.776	34575.63
527.142	34608.85
527.508	34855.62
527.874	35193.47
528.241	35331.54
528.607	35373.58
528.973	35644.98
529.339	35781.02
529.705	36231.63
530.071	36592.98
530.437	36675.69
530.803	36836.14
531.169	37117.03
531.535	37159.74
531.901	37335.78
532.267	37460.3
532.632	37655.1
532.998	37884.24
533.364	38140.96
533.73	38428.86
534.095	38686.03
534.461	38813.71
534.826	38933.26
535.192	39177.77
535.557	39408.5
535.923	39294.38
536.288	39651.43
536.653	39801.93
537.019	39725.1
537.384	39996.96
537.749	40086.9
538.114	40382.48
538.479	40310.62
538.845	40459.77
539.21	40594
539.575	40831.51
539.94	41023.37
540.305	41291.84
540.67	41249.13
541.034	41378.16
541.399	41736.35
541.764	41753.97
542.129	42053.17
542.494	42002.78
542.858	42159.84
543.223	42213.17
543.587	42668.75
543.952	42594.63
544.316	42836.88
544.681	42757.56
545.045	42973.83
545.41	43334.72
545.774	43347.83
546.138	43442.29
546.503	43628.27
546.867	43599.8
547.231	44043.63
547.595	44028.04
547.959	44066.23
548.324	44209.05
548.688	44436.84
549.052	44694.46
549.416	44742.14
549.779	44801.58
550.143	45082.92
550.507	45493.31
550.871	45508.9
551.235	45531.5
551.599	45711.61
551.962	45905.28
552.326	46030.02
552.689	46207.87
553.053	46113.63
553.417	46327.64
553.78	46859.38
554.143	46805.37
554.507	47067.96
554.87	47077.9
555.234	47545.68
555.597	47289.42
555.96	47535.52
556.323	47724.89
556.686	47937.99
557.05	48184.09
557.413	48071.77
557.776	48337.3
558.139	48679.67
558.502	48671.3
558.865	48862.03
559.228	49236.49
559.59	49254.79
559.953	49334.34
560.316	49801.67
560.679	49777.72
561.041	49994.21
561.404	50138.61
561.767	50440.52
562.129	50241.21
562.492	50603.91
562.854	50657.92
563.217	50825.37
563.579	50974.07
563.941	51147.4
564.304	51438.01
564.666	51604.56
565.028	51655.18
565.39	51774.73
565.753	51908.51
566.115	52019.24
566.477	52242.51
566.839	52287.03
567.201	52507.59
567.563	52527.93
567.925	52771.99
568.287	52675.95
568.648	52817.64
569.01	53048.14
569.372	53201.13
569.734	53104.86
570.095	53388.24
570.457	53522.93
570.819	53649.25
571.18	53582.14
571.542	53735.13
571.903	53830.49
572.265	54047.21
572.626	53985.52
572.987	54199.52
573.349	54186.64
573.71	54370.82
574.071	54406.07
574.432	54538.27
574.794	54684.48
575.155	54724.71
575.516	54577.36
575.877	54755.66
576.238	54832.27
576.599	54879.05
576.96	54823.46
577.32	54844.7
577.681	54982.78
578.042	55064.13
578.403	55156.56
578.763	55203.34
579.124	55320.62
579.485	55424.8
579.845	55433.61
580.206	55407.4
580.566	55401.98
580.927	55439.71
581.287	55531.92
581.648	55424.35
582.008	55574.63
582.368	55510.9
582.728	55555.64
583.089	55552.48
583.449	55614.63
583.809	55615.98
584.169	55655.53
584.529	55589.32
584.889	55784.79
585.249	55680.61
585.609	55548.64
585.969	55654.85
586.329	55569.2
586.688	55672.25
587.048	55655.3
587.408	55595.19
587.768	55668.41
588.127	55622.99
588.487	55583.89
588.846	55734.85
589.206	55644.91
589.565	55588.86
589.925	55782.3
590.284	55683.32
590.643	55732.14
591.003	55758.58
591.362	55823.43
591.721	55713.61
592.08	55745.02
592.44	55908.63
592.799	55860.04
593.158	55808.97
593.517	55755.86
593.876	55808.07
594.235	55853.26
594.593	55877.22
594.952	55870.21
595.311	55824.79
595.67	55858.69
596.029	55913.37
596.387	55880.61
596.746	55994.5
597.104	55873.15
597.463	55970.1
597.822	56065.91
598.18	55865.24
598.538	55954.28
598.897	56173.25
599.255	55810.55
599.613	56269.75
599.972	56080.83
600.33	56138.45
600.688	56064.1
601.046	56170.99
601.404	56222.74
601.762	56175.74
602.12	56286.02
602.478	56296.64
602.836	56288.51
603.194	56187.49
603.552	56276.53
603.91	56203.99
604.268	56368.96
604.625	56145.23
604.983	56356.07
605.341	56251.22
605.698	56471.33
606.056	56589.06
606.413	56490.31
606.771	56515.84
607.128	56517.43
607.485	56382.29
607.843	56451.21
608.2	56533.02
608.557	56582.96
608.914	56547.03
609.272	56730.53
609.629	56737.53
609.986	56825.89
610.343	56644.65
610.7	56903.18
611.057	56815.27
611.414	56817.31
611.771	56841.03
612.127	56896.85
612.484	56896.4
612.841	56992.67
613.198	56907.7
613.554	56912.67
613.911	57107.92
614.267	57107.69
614.624	57041.93
614.98	57103.4
615.337	57185.43
615.693	57176.39
616.05	57168.03
616.406	57244.19
616.762	57144.3
617.118	57107.24
617.475	57120.35
617.831	57196.28
618.187	57198.54
618.543	57355.6
618.899	57496.61
619.255	57374.8
619.611	57257.97
619.967	57398.53
620.323	57409.15
620.678	57337.52
621.034	57167.8
621.39	57225.2
621.746	57243.28
622.101	57565.76
622.457	57278.99
622.812	57438.98
623.168	57439.89
623.523	57425.2
623.879	57511.75
624.234	57349.49
624.589	57500
624.945	57422.04
625.3	57533.44
625.655	57492.77
626.01	57533.44
626.365	57437.85
626.72	57405.76
627.075	57425.43
627.43	57466.1
627.785	57412.32
628.14	57382.49
628.495	57453.45
628.85	57342.94
629.205	57235.15
629.559	57432.88
629.914	57268.37
630.269	57248.25
630.623	57191.31
630.978	57197.41
631.332	57264.75
631.687	57307.91
632.041	57109.95
632.396	57239.44
632.75	57098.43
633.104	57123.51
633.459	57075.6
633.813	56988.6
634.167	56902.28
634.521	56943.4
634.875	56979.79
635.229	56886.91
635.583	56776.18
635.937	56760.13
636.291	56716.29
636.645	56716.52
636.999	56588.84
637.352	56717.42
637.706	56553.13
638.06	56704.54
638.413	56704.31
638.767	56594.26
639.121	56619.34
639.474	56484.88
639.828	56465.68
640.181	56609.63
640.534	56508.16
640.888	56490.76
641.241	56421.84
641.594	56348.84
641.947	56440.82
642.301	56246.47
642.654	56272.24
643.007	56213.71
643.36	56131.45
643.713	56209.64
644.066	56347.71
644.419	56064.1
644.771	55742.76
645.124	55429.77
645.477	55339.38
645.83	55162.43
646.182	54987.52
646.535	55103.68
646.888	55327.18
647.24	55249.89
647.593	55438.81
647.945	55394.97
648.298	55280.62
648.65	55173.05
649.002	55031.59
649.355	54984.59
649.707	54839.05
650.059	54870.92
650.411	55142.77
650.763	55221.42
651.115	55610.56
651.467	55500.28
651.819	55467.74
652.171	55440.84
652.523	55288.53
652.875	55307.51
653.227	55172.15
653.578	55407.85
653.93	55357
654.282	55274.3
654.633	55150.46
654.985	55146.84
655.337	55225.93
655.688	55242.43
656.039	55280.4
656.391	54980.29
656.742	54998.82
657.094	55071.59
657.445	55144.81
657.796	54976
658.147	54946.39
658.498	54956.34
658.849	54944.81
659.2	54912.04
659.551	54771.48
659.902	54893.74
660.253	54795.21
660.604	54772.16
660.955	54707.53
661.306	54790.92
661.656	54754.08
662.007	54705.04
662.358	54718.38
662.708	54692.39
663.059	54654.88
663.409	54483.36
663.76	54669.11
664.11	54706.17
664.461	54736.23
664.811	54769.68
665.161	54602.9
665.511	54496.01
665.862	54575.78
666.212	54625.95
666.562	54596.12
666.912	54627.76
667.262	54496.69
667.612	54512.06
667.962	54483.36
668.312	54437.26
668.662	54601.54
669.011	54458.05
669.361	54340.76
669.711	54296.24
670.06	54421.44
670.41	54284.04
670.76	54186.19
671.109	54282.46
671.459	54232.51
671.808	54225.74
672.157	54306.64
672.507	54071.61
672.856	54082.01
673.205	54024.16
673.554	54191.61
673.904	54049.69
674.253	54255.56
674.602	54149.13
674.951	53703.94
675.3	53549.82
675.649	53941
675.998	53975.35
676.346	53910.04
676.695	53994.55
677.044	53772.87
677.393	53931.51
677.741	53947.1
678.09	53769.25
678.438	53790.04
678.787	53828.91
679.135	53799.76
679.484	53642.7
679.832	53654.45
680.181	53439.54
680.529	53675.92
680.877	53485.19
681.225	53391.41
681.573	53647.67
681.922	53415.59
682.27	53223.05
682.618	53232.99
682.966	53167.68
683.314	53311.86
683.661	53142.37
684.009	53041.81
684.357	52960.23
684.705	52902.61
685.053	52926.79
685.4	52941.93
685.748	52689.28
686.095	52655.38
686.443	52635.27
686.79	52488.83
687.138	52651.31
687.485	52605.21
687.832	52365.22
688.18	52367.25
688.527	52258.78
688.874	52278.67
689.221	52237.09
689.568	52042.06
689.915	51952.8
690.262	51943.76
690.609	51827.15
690.956	51789.19
691.303	51813.14
691.65	51580.83
691.997	51543.55
692.344	51376.54
692.69	51237.34
693.037	51236.44
693.383	51065.37
693.73	51237.79
694.077	50953.96
694.423	50984.69
694.769	50916.67
695.116	50765.49
695.462	50744.24
695.808	50530.47
696.155	50616.34
696.501	50454.53
696.847	50368.89
697.193	50080.76
697.539	50303.8
697.885	49926.41
698.231	49683.03
698.577	49781.33
698.923	49801.67
699.269	49656.14
699.614	49480.55
699.96	49385.86
700.306	49450.04
700.651	49158.75
700.997	49061.58
701.342	48969.15
701.688	48837.63
702.033	48848.25
702.379	48848.7
702.724	48562.38
703.069	48677.18
703.415	48358.77
703.76	48276.74
704.105	48307.47
704.45	48078.55
704.795	47976.18
705.14	47798.33
705.485	47756.53
705.83	47705.45
706.175	47846.47
706.52	47591.56
706.865	47417.78
707.209	47327.84
707.554	47210.1
707.899	47268.4
708.243	47062.76
708.588	46941.86
708.932	46744.12
709.277	46696.89
709.621	46680.85
709.966	46433.85
710.31	46480.63
710.654	46176.68
710.998	46319.73
711.342	46207.19
711.687	45945.05
712.031	45917.03
712.375	45819.4
712.719	45896.91
713.063	45825.96
713.407	45838.84
713.75	45662.34
714.094	45497.6
714.438	45326.53
714.782	45373.99
715.125	45182.58
715.469	45248.8
715.812	44904.85
716.156	44607.01
716.499	44708.02
716.843	44646.78
717.186	44401.36
717.53	44618.76
717.873	44871.86
718.216	44630.96
718.559	44427.12
718.902	44145.32
719.246	44176.28
719.589	44070.3
719.932	43957.3
720.275	43878.89
720.617	43912.33
720.96	43848.83
721.303	43892.67
721.646	43852.67
721.989	43485.68
722.331	43684.77
722.674	43391.9
723.016	43376.53
723.359	43452.46
723.701	43459.01
724.044	43066.71
724.386	43027.61
724.729	43174.05
725.071	43104.67
725.413	42891.57
725.755	43048.4
726.097	42747.39
726.439	42620.62
726.782	42528.64
727.124	42655.87
727.465	42382.66
727.807	42437.8
728.149	42203.9
728.491	42032.84
728.833	42114.42
729.175	42122.32
729.516	42112.61
729.858	41829.45
730.199	41770.92
730.541	41756.46
730.882	41658.61
731.224	41859.51
731.565	41552.17
731.906	41482.34
732.248	41562.57
732.589	41333.64
732.93	41224.72
733.271	41298.84
733.612	41314.44
733.953	41415.68
734.294	41073.31
734.635	40989.93
734.976	40989.47
735.317	40861.34
735.658	40868.12
735.999	40681.01
736.339	40580.44
736.68	40715.58
737.021	40825.41
737.361	40409.6
737.702	40744.96
738.042	40446.89
738.383	40338.87
738.723	40365.53
739.063	40263.84
739.404	40220
739.744	40008.48
740.084	39948.14
740.424	39889.61
740.764	39868.15
741.104	40026.33
741.444	39736.62
741.784	39652.33
742.124	39668.6
742.464	39586.35
742.804	39462.51
743.143	39483.07
743.483	39436.97
743.823	39237.2
744.162	39216.86
744.502	39220.93
744.841	39034.04
745.181	39124.44
745.52	38878.79
745.86	39047.83
746.199	38846.7
746.538	38647.16
746.877	38764.67
747.216	38766.93
747.556	38659.59
747.895	38538.24
748.234	38266.83
748.573	38423.44
748.911	38414.63
749.25	38308.87
749.589	38046.27
749.928	38243.78
750.267	38065.93
750.605	37956.33
750.944	37855.54
751.283	37687.41
751.621	37646.51
751.96	37456.23
752.298	37533.74
752.636	37480.86
752.975	37324.71
753.313	37058.28
753.651	37442.9
753.989	37035.68
754.327	37058.28
754.666	36709.81
755.004	36966.53
755.342	36862.8
755.679	36747.78
756.017	36560.21
756.355	36541.23
756.693	36477.73
757.031	36564.28
757.368	36184.4
757.706	36062.15
758.044	36090.39
758.381	36251.74
758.719	35830.74
759.056	35894.01
759.394	35762.49
759.731	35487.02
760.068	35449.73
760.405	35362.73
760.743	35311.2
761.08	35242.51
761.417	34950.76
761.754	35024.66
762.091	35006.58
762.428	34977.65
762.765	34543.54
763.102	34778.79
763.438	34536.99
763.775	34385.8
764.112	34441.4
764.449	34437.55
764.785	34285.92
765.122	33961.41
765.458	33842.99
765.795	33851.81
766.131	33667.41
766.467	33537.92
766.804	33385.15
767.14	33259.96
767.476	33216.8
767.812	33026.74
768.148	33046.41
768.485	32835.56
768.821	32590.15
769.157	32618.85
769.492	32649.13
769.828	32321.23
770.164	32186.54
770.5	31990.16
770.836	32098.63
771.171	32030.84
771.507	31839.88
771.842	31653.9
772.178	31594.24
772.513	31413.91
772.849	31377.52
773.184	31184.08
773.519	31234.25
773.855	31123.29
774.19	30826.58
774.525	30699.57
774.86	30770.08
775.195	30608.5
775.53	30458.22
775.865	30461.39
776.2	30184.56
776.535	29912.02
776.87	29925.36
777.205	29911.57
777.539	29634.74
777.874	29830.67
778.209	29509.55
778.543	29485.14
778.878	29276.79
779.212	29295.54
779.547	29056.45
779.881	29160.63
780.215	28926.06
780.55	28964.93
780.884	28709.12
781.218	28600.65
781.552	28505.51
781.886	28413.31
782.22	28242.69
782.554	28120.66
782.888	27905.3
783.222	27853.77
783.556	27715.47
783.889	27618.98
784.223	27596.15
784.557	27502.6
784.89	27524.06
785.224	27312.54
785.557	27112.32
785.891	27137.41
786.224	26907.58
786.558	26848.38
786.891	26653.58
787.224	26483.41
787.557	26465.11
787.891	26411.78
788.224	26442.28
788.557	26448.61
788.89	26372.91
789.223	26387.82
789.556	26002.97
789.888	25987.83
790.221	25923.43
790.554	25630.78
790.887	25730.21
791.219	25574.74
791.552	25500.84
791.884	25432.59
792.217	25324.57
792.549	25223.11
792.882	25037.8
793.214	24859.28
793.546	25060.63
793.879	24806.17
794.211	24719.62
794.543	24775.66
794.875	24667.42
795.207	24681.88
795.539	24490.7
795.871	24468.78
796.203	24226.3
796.535	24117.15
796.867	24199.18
797.198	23967.77
797.53	24119.41
797.862	23883.03
798.193	23932.52
798.525	23817.5
798.856	23859.98
799.188	23552.64
799.519	23446.43
799.85	23410.73
800.182	23359.2
800.513	23353.78
800.844	23082.15
801.175	23174.8
801.506	23113.56
801.837	22900.91
802.168	22851.87
802.499	22858.42
802.83	22764.42
803.161	22726
803.491	22651.65
803.822	22524.42
804.153	22266.8
804.483	22239.91
804.814	22107.48
805.145	22011.44
805.475	22230.42
805.805	22108.84
806.136	21922.18
806.466	22048.95
806.796	21973.7
807.126	21875.63
807.457	21797.44
807.787	21869.3
808.117	21695.29
808.447	21605.8
808.777	21625.01
809.107	21474.73
809.436	21494.84
809.766	21495.3
810.096	21350.89
810.426	21441.96
810.755	21333.49
811.085	21170.56
811.414	21055.31
811.744	20847.4
812.073	20955.65
812.403	20906.16
812.732	20748.88
813.061	20673.4
813.39	20738.25
813.719	20655.09
814.049	20699.61
814.378	20640.4
814.707	20442.67
815.036	20531.03
815.365	20418.49
815.693	20239.06
816.022	20267.31
816.351	20154.09
816.68	19931.95
817.008	20118.84
817.337	19925.39
817.665	19853.08
817.994	19864.83
818.322	19936.69
818.651	19859.63
818.979	19718.17
819.307	19737.15
819.636	19655.57
819.964	19482.92
820.292	19567.66
820.62	19571.73
820.948	19416.71
821.276	19598.17
821.604	19422.13
821.932	19595.46
822.259	19474.33
822.587	19472.98
822.915	19363.38
823.243	19477.27
823.57	19236.15
823.898	19381.45
824.225	19280.67
824.553	19263.26
824.88	19290.16
825.207	19407.44
825.535	19272.3
825.862	19382.36
826.189	19206.09
826.516	19304.17
826.843	19480.89
827.17	19387.33
827.497	19410.61
827.824	19302.81
828.151	19262.13
828.478	19260.33
828.805	19349.59
829.131	19243.6
829.458	19344.17
829.785	19267.11
830.111	19319.08
830.438	19436.14
830.764	19378.52
831.09	19345.97
831.417	19264.62
831.743	19279.08
832.069	19269.14
832.395	19190.72
832.722	19250.16
833.048	19176.94
833.374	19237.28
833.7	19116.6
834.026	19180.55
834.351	19158.41
834.677	19021.69
835.003	19105.98
835.329	19028.69
835.654	18893.78
835.98	19029.82
836.306	18843.39
836.631	18840
836.956	18919.09
837.282	18757.52
837.607	18793.45
837.932	18788.02
838.258	18810.17
838.583	18815.14
838.908	18706.44
839.233	18788.25
839.558	18758.65
839.883	18732.21
840.208	18657.18
840.533	18643.17
840.858	18635.26
841.182	18674.81
841.507	18569.72
841.832	18566.33
842.156	18490.4
842.481	18463.74
842.805	18378.32
843.13	18411.54
843.454	18290.18
843.778	18210.64
844.103	18240.47
844.427	18091.32
844.751	18029.85
845.075	18110.75
845.399	17946.01
845.723	17935.84
846.047	17922.96
846.371	17945.11
846.695	17867.14
847.019	17682.74
847.343	17697.2
847.666	17573.59
847.99	17416.31
848.313	17426.02
848.637	17327.27
848.96	17360.26
849.284	17152.59
849.607	17102.64
849.931	17080.72
850.254	16946.26
850.577	16923.89
850.9	16696.1
851.223	16801.63
851.546	16683.45
851.869	16664.91
852.192	16715.99
852.515	16595.99
852.838	16464.69
853.161	16435.09
853.483	16426.28
853.806	16310.12
854.129	16320.74
854.451	16242.1
854.774	16172.5
855.096	16132.73
855.419	16115.78
855.741	16093.63
856.063	15946.74
856.385	15913.3
856.708	15883.01
857.03	15747.65
857.352	15802.34
857.674	15729.12
857.996	15773.19
858.318	15689.12
858.64	15733.41
858.961	15657.94
859.283	15645.96
859.605	15476.47
859.926	15603.7
860.248	15460.2
860.57	15421.33
860.891	15492.52
861.212	15384.5
861.534	15358.51
861.855	15276.25
862.176	15295.01
862.498	15242.35
862.819	15298.85
863.14	15247.33
863.461	15120.1
863.782	15219.08
864.103	15067.44
864.424	15071.96
864.745	15134.33
865.065	15006.43
865.386	14901.12
865.707	15012.3
866.027	15105.18
866.348	14959.42
866.668	15013.21
866.989	14895.02
867.309	14826.32
867.63	14892.31
867.95	14753.55
868.27	14675.59
868.59	14763.04
868.91	14708.13
869.23	14692.99
869.55	14712.88
869.87	14814.12
870.19	14849.14
870.51	14722.14
870.83	14779.99
871.15	14686.21
871.469	14629.04
871.789	14578.87
872.109	14612.99
872.428	14628.36
872.748	14706.1
873.067	14656.61
873.386	14617.06
873.706	14500
874.025	14538.42
874.344	14394.47
874.663	14437.4
874.982	14389.27
875.301	14384.07
875.62	14293.45
875.939	14331.64
876.258	14432.43
876.577	14341.36
876.896	14261.59
877.214	14235.83
877.533	14217.3
877.852	14269.72
878.17	14209.16
878.489	14154.25
878.807	14197.18
879.125	14219.78
879.444	14169.84
879.762	14135.49
880.08	14147.69
880.398	14119.45
880.716	14046.68
881.034	13966.45
881.352	13995.38
881.67	13963.29
881.988	14056.17
882.306	13922.84
882.624	13836.29
882.941	13837.19
883.259	13797.65
883.577	13762.39
883.894	13753.81
884.212	13803.97
884.529	13824.99
884.846	13734.37
885.164	13617.31
885.481	13606.69
885.798	13669.51
886.115	13590.42
886.432	13570.98
886.75	13460.25
887.067	13575.5
887.383	13420.48
887.7	13496.41
888.017	13364.66
888.334	13338.67
888.651	13297.09
888.967	13253.25
889.284	13345.45
889.6	13158.11
889.917	13171.45
890.233	13169.41
890.55	13147.04
890.866	13176.42
891.182	13158.57
891.498	13062.52
891.815	13011.68
892.131	12964.22
892.447	13042.86
892.763	12914.28
893.079	12913.83
893.395	12809.65
893.71	12821.4
894.026	12867.05
894.342	12875.18
894.657	12656.88
894.973	12669.31
895.289	12694.4
895.604	12699.82
895.92	12617.79
896.235	12582.31
896.55	12545.02
896.865	12564.23
897.181	12447.85
897.496	12459.15
897.811	12280.4
898.126	12375.76
898.441	12251.47
898.756	12244.01
899.071	12205.37
899.386	12149.1
899.7	12084.47
900.015	11999.05
900.33	11994.3
900.644	11929.45
900.959	11977.35
901.273	11934.64
901.588	11782.78
901.902	11822.78
902.216	11783.24
902.531	11873.63
902.845	11800.86
903.159	11744.82
903.473	11752.28
903.787	11731.03
904.101	11632.96
904.415	11652.17
904.729	11567.65
905.042	11472.96
905.356	11397.93
905.67	11387.54
905.984	11391.83
906.297	11343.7
906.611	11211.5
906.924	11242.01
907.237	11222.12
907.551	11166.75
907.864	11205.17
908.177	11125.63
908.491	11024.16
908.804	10962.01
909.117	10887.89
909.43	10747.33
909.743	10792.3
910.056	10835.92
910.368	10803.6
910.681	10684.73
910.994	10713.66
911.307	10677.95
911.619	10570.84
911.932	10546.21
912.244	10512.08
912.557	10531.06
912.869	10442.48
913.181	10504.17
913.494	10411.75
913.806	10379.2
914.118	10298.98
914.43	10171.53
914.742	10237.74
915.054	10157.29
915.366	10119.78
915.678	10034.13
915.99	10024.19
916.302	9999.1
916.613	9971.53
916.925	9975.83
917.236	9921.82
917.548	9891.31
917.859	9877.52
918.171	9826.22
918.482	9800.01
918.794	9736.51
919.105	9729.5
919.416	9630.52
919.727	9620.35
920.038	9582.84
920.349	9551.88
920.66	9466.46
920.971	9440.25
921.282	9455.39
921.593	9332.23
921.903	9339.68
922.214	9257.88
922.525	9247.93
922.835	9263.75
923.146	9160.48
923.456	9138.11
923.767	9056.08
924.077	9133.81
924.387	9048.17
924.697	8992.57
925.008	8951.45
925.318	8947.15
925.628	8915.06
925.938	8830.54
926.248	8774.5
926.558	8728.4
926.867	8723.2
927.177	8786.25
927.487	8687.95
927.796	8573.15
928.106	8582.64
928.416	8566.14
928.725	8613.38
929.034	8529.08
929.344	8488.63
929.653	8449.09
929.962	8419.03
930.271	8335.64
930.581	8271.69
930.89	8294.97
931.199	8210
931.508	8264.01
931.817	8189.43
932.125	8218.81
932.434	8098.59
932.743	8029.44
933.051	7955.54
933.36	7936.1
933.669	7856.78
933.977	7873.73
934.286	7806.16
934.594	7901.3
934.902	7780.85
935.21	7749.67
935.519	7782.44
935.827	7782.21
936.135	7708.54
936.443	7674.19
936.751	7657.92
937.059	7587.41
937.367	7551.26
937.674	7613.63
937.982	7515.78
938.29	7490.92
938.597	7473.97
938.905	7414.31
939.213	7394.65
939.52	7269.46
939.827	7323.47
940.135	7307.65
940.442	7278.04
940.749	7247.31
941.056	7209.12
941.363	7147.65
941.67	7193.75
941.977	7116.69
942.284	7084.6
942.591	7081.44
942.898	7084.6
943.205	6999.86
943.511	6955.79
943.818	6900.2
944.125	6902.91
944.431	6913.76
944.738	6785.17
945.044	6781.56
945.35	6750.15
945.657	6716.93
945.963	6728.45
946.269	6652.3
946.575	6634.9
946.881	6615.24
947.187	6609.13
947.493	6574.11
947.799	6541.34
948.105	6526.2
948.41	6439.42
948.716	6453.43
949.022	6434
949.327	6419.53
949.633	6374.11
949.938	6398.74
950.244	6330.72
950.549	6285.53
950.854	6310.61
951.16	6311.74
951.465	6228.35
951.77	6178.64
952.075	6173.44
952.38	6115.59
952.685	6108.58
952.99	6013.22
953.294	6051.63
953.599	6033.1
953.904	5972.09
954.209	5975.7
954.513	5960.34
954.818	5989.26
955.122	5911.75
955.426	5878.08
955.731	5889.15
956.035	5844.41
956.339	5845.54
956.643	5797.4
956.948	5741.59
957.252	5735.03
957.556	5721.47
957.86	5687.58
958.163	5628.59
958.467	5551.08
958.771	5636.96
959.075	5558.54
959.378	5521.71
959.682	5543.17
959.985	5512.44
960.289	5471.08
960.592	5448.94
960.896	5439.9
961.199	5415.04
961.502	5391.99
961.805	5392.22
962.108	5361.26
962.411	5370.97
962.714	5326.91
963.017	5308.83
963.32	5290.75
963.623	5238.55
963.926	5266.12
964.228	5205.33
964.531	5193.35
964.833	5165.33
965.136	5109.96
965.438	5111.77
965.741	5076.52
966.043	5039.91
966.345	5028.38
966.648	5008.27
966.95	4996.97
967.252	4961.04
967.554	5014.37
967.856	4966.24
968.158	4927.37
968.46	4869.29
968.761	4818.45
969.063	4815.06
969.365	4849.41
969.666	4830.65
969.968	4807.83
970.269	4789.75
970.571	4726.02
970.872	4704.1
971.174	4653.48
971.475	4695.96
971.776	4680.6
972.077	4636.98
972.378	4580.94
972.679	4559.02
972.98	4554.72
973.281	4546.36
973.582	4545.46
973.883	4519.25
974.183	4509.08
974.484	4493.48
974.785	4443.54
975.085	4479.02
975.386	4453.71
975.686	4404.22
975.986	4395.86
976.287	4380.04
976.587	4349.76
976.887	4317.22
977.187	4326.93
977.487	4288.52
977.787	4230.67
978.087	4242.42
978.387	4224.56
978.687	4215.75
978.987	4198.12
979.286	4140.5
979.586	4137.33
979.885	4120.84
980.185	4115.64
980.484	4062.53
980.784	4067.05
981.083	4084.45
981.382	4050.33
981.682	4025.93
981.981	4045.13
982.28	3967.85
982.579	3968.3
982.878	3974.18
983.177	3910.22
983.475	3903.67
983.774	3885.82
984.073	3898.02
984.372	3858.25
984.67	3852.14
984.969	3872.26
985.267	3825.48
985.566	3800.62
985.864	3786.16
986.162	3767.4
986.461	3735.09
986.759	3689.44
987.057	3660.29
987.355	3676.33
987.653	3676.78
987.951	3635.2
988.249	3670
988.547	3605.37
988.844	3556.79
989.142	3564.92
989.44	3555.66
989.737	3543.23
990.035	3518.14
990.332	3540.06
990.63	3486.5
990.927	3521.53
991.224	3460.06
991.521	3466.62
991.819	3470.01
992.116	3381.2
992.413	3379.61
992.71	3390.91
993.006	3394.3
993.303	3332.38
993.6	3336.45
993.897	3344.59
994.193	3309.33
994.49	3290.58
994.787	3274.08
995.083	3226.17
995.379	3236.79
995.676	3209.22
995.972	3220.3
996.268	3183.69
996.565	3130.13
996.861	3136.01
997.157	3158.15
997.453	3165.38
997.749	3124.93
998.044	3093.29
998.34	3138.94
998.636	3061.88
998.932	3020.3
999.227	3005.61
999.523	3067.53
999.818	3004.03
1000.114	2979.63
1000.409	2981.21
1000.704	2962.22
1001	2951.15
1001.295	2899.85
1001.59	2901.21
1001.885	2903.02
1002.18	2863.47
1002.475	2889.91
1002.77	2816.47
1003.065	2832.06
1003.359	2834.09
1003.654	2807.43
1003.949	2784.6
1004.243	2756.35
1004.538	2750.48
1004.832	2755.9
1005.127	2740.54
1005.421	2697.6
1005.715	2691.05
1006.009	2646.53
1006.304	2639.07
1006.598	2618.05
1006.892	2639.97
1007.186	2604.04
1007.48	2593.42
1007.773	2572.18
1008.067	2574.44
1008.361	2507.32
1008.655	2497.83
1008.948	2550.03
1009.242	2510.03
1009.535	2486.98
1009.829	2456.7
1010.122	2432.07
1010.415	2429.36
1010.708	2404.05
1011.001	2419.41
1011.295	2388
1011.588	2386.87
1011.881	2369.7
1012.173	2360.88
1012.466	2352.07
1012.759	2313.43
1013.052	2319.3
1013.344	2298.06
1013.637	2277.27
1013.93	2272.75
1014.222	2253.54
1014.514	2241.11
1014.807	2242.92
1015.099	2177.84
1015.391	2212.87
1015.683	2169.02
1015.976	2143.71
1016.268	2143.94
1016.56	2142.13
1016.851	2119.99
1017.143	2127.22
1017.435	2106.65
1017.727	2079.31
1018.018	2047.9
1018.31	2051.06
1018.602	2018.07
1018.893	2048.8
1019.185	2042.7
1019.476	1997.28
1019.767	1979.43
1020.058	1946.21
1020.35	1919.99
1020.641	1941.01
1020.932	1952.99
1021.223	1924.96
1021.514	1898.07
1021.804	1916.15
1022.095	1865.08
1022.386	1880.9
1022.677	1861.91
1022.967	1853.78
1023.258	1806.32
1023.548	1830.5
1023.839	1785.53
1024.129	1775.81
1024.419	1794.57
1024.709	1753.22
1025	1764.74
1025.29	1728.36
1025.58	1723.61
1025.87	1677.29
1026.16	1689.26
1026.449	1670.28
1026.739	1681.35
1027.029	1665.99
1027.319	1675.48
1027.608	1629.38
1027.898	1650.62
1028.187	1621.92
1028.477	1609.72
1028.766	1592.77
1029.055	1552.54
1029.344	1574.69
1029.634	1559.32
1029.923	1542.37
1030.212	1548.48
1030.501	1540.57
1030.79	1495.37
1031.078	1511.19
1031.367	1510.74
1031.656	1489.49
1031.945	1477.74
1032.233	1456.05
1032.522	1441.59
1032.81	1420.57
1033.099	1422.38
1033.387	1413.11
1033.675	1434.35
1033.963	1415.6
1034.251	1383.06
1034.54	1376.5
1034.828	1375.15
1035.116	1347.8
1035.403	1349.84
1035.691	1346.22
1035.979	1350.52
1036.267	1315.04
1036.554	1309.84
1036.842	1328.14
1037.129	1251.99
1037.417	1273.91
1037.704	1295.83
1037.992	1262.83
1038.279	1276.84
1038.566	1220.8
1038.853	1220.8
1039.14	1220.8
