Data from foil_FLMS001491_052.txt Node
Date: Tue Feb 07 11:27:10 GMT 2017
User: dcchb
Spectrometer: FLMS00149
Trigger mode: 0
Integration Time (sec): 2.000000E-2
Scans to average: 10
Electric dark correction enabled: true
Nonlinearity correction enabled: false
Boxcar width: 0
XAxis mode: Wavelengths
Number of Pixels in Spectrum: 2048
>>>>>Begin Spectral Data<<<<<
341.393	-27.84
341.776	-27.84
342.16	-27.84
342.543	-62.87
342.927	-56.76
343.31	-55.41
343.693	-67.61
344.077	-61.96
344.46	-56.09
344.843	-54.28
345.226	-56.76
345.61	-33.04
345.993	-28.97
346.376	5.16
346.759	3.35
347.142	16.45
347.525	43.12
347.908	77.47
348.291	61.88
348.674	91.93
349.057	114.76
349.44	131.71
349.823	157.47
350.206	156.79
350.588	224.58
350.971	253.51
351.354	259.16
351.737	288.99
352.119	300.97
352.502	308.2
352.884	330.8
353.267	333.96
353.65	350.23
354.032	340.06
354.414	342.32
354.797	346.84
355.179	366.5
355.562	361.08
355.944	374.86
356.326	389.33
356.709	389.1
357.091	393.39
357.473	405.82
357.855	401.75
358.238	407.86
358.62	402.43
359.002	404.92
359.384	419.83
359.766	399.95
360.148	406.27
360.53	398.82
360.912	393.17
361.294	406.27
361.676	426.39
362.057	418.7
362.439	410.34
362.821	429.78
363.203	399.5
363.584	383.22
363.966	400.4
364.348	393.39
364.729	409.44
365.111	392.49
365.493	438.59
365.874	433.84
366.256	409.66
366.637	396.56
367.019	408.08
367.4	403.34
367.781	389.1
368.163	417.12
368.544	411.92
368.925	404.92
369.306	415.54
369.688	435.43
370.069	444.92
370.45	445.14
370.831	435.43
371.212	432.94
371.593	436.56
371.974	455.76
372.355	432.71
372.736	438.36
373.117	460.74
373.498	448.76
373.879	451.25
374.26	434.07
374.641	450.79
375.021	440.4
375.402	457.57
375.783	493.28
376.163	504.8
376.544	504.58
376.925	475.65
377.305	503.22
377.686	508.42
378.066	500.96
378.447	478.59
378.827	503.45
379.208	510.9
379.588	514.75
379.968	517.68
380.349	514.97
380.729	537.8
381.109	537.57
381.489	546.16
381.87	536.44
382.25	534.18
382.63	557.91
383.01	551.81
383.39	556.55
383.77	569.66
384.15	577.34
384.53	588.42
384.91	587.29
385.29	616.66
385.67	601.52
386.049	611.92
386.429	614.4
386.809	611.47
387.189	629.32
387.568	648.75
387.948	652.37
388.328	673.39
388.707	641.52
389.087	638.81
389.466	653.27
389.846	677.68
390.225	702.99
390.605	699.6
390.984	705.7
391.363	726.04
391.743	710.45
392.122	740.96
392.501	744.8
392.881	758.36
393.26	740.96
393.639	764.91
394.018	770.33
394.397	799.48
394.776	787.96
395.155	794.29
395.534	806.72
395.913	802.42
396.292	819.82
396.671	827.05
397.05	836.32
397.429	832.7
397.808	838.35
398.186	849.88
398.565	877.9
398.944	874.96
399.323	893.72
399.701	893.27
400.08	913.61
400.458	917.67
400.837	933.72
401.215	929.42
401.594	915.41
401.972	954.06
402.351	953.15
402.729	970.78
403.107	968.29
403.486	1013.94
403.864	1017.11
404.242	1018.46
404.62	1036.77
404.999	1061.85
405.377	1043.32
405.755	1051.68
406.133	1103.88
406.511	1104.79
406.889	1139.14
407.267	1136.88
407.645	1161.73
408.023	1168.97
408.401	1187.72
408.779	1195.18
409.156	1220.72
409.534	1211.45
409.912	1225.01
410.29	1249.87
410.667	1288.51
411.045	1309.3
411.422	1312.01
411.8	1326.48
412.178	1367.61
412.555	1377.32
412.933	1410.54
413.31	1396.76
413.687	1441.5
414.065	1454.16
414.442	1480.82
414.819	1521.5
415.197	1513.14
415.574	1550.43
415.951	1554.94
416.328	1566.24
416.705	1581.38
417.082	1582.06
417.46	1602.63
417.837	1642.4
418.214	1638.11
418.591	1665.9
418.967	1665.9
419.344	1704.32
419.721	1737.31
420.098	1710.87
420.475	1736.18
420.852	1792
421.228	1807.59
421.605	1816.86
421.982	1866.8
422.358	1854.37
422.735	1895.73
423.111	1899.79
423.488	1947.03
423.864	1922.84
424.241	2003.29
424.617	1998.55
424.994	2010.75
425.37	2010.07
425.746	2072.22
426.123	2069.73
426.499	2065.67
426.875	2115.38
427.251	2178.66
427.627	2208.26
428.003	2217.07
428.379	2276.96
428.756	2290.07
429.132	2326.45
429.507	2355.38
429.883	2406.67
430.259	2414.81
430.635	2453.23
431.011	2490.29
431.387	2560.57
431.763	2592.21
432.138	2583.17
432.514	2653.22
432.89	2670.4
433.265	2742.94
433.641	2751.3
434.016	2810.96
434.392	2834.23
434.767	2937.96
435.143	2898.41
435.518	2923.04
435.894	2982.93
436.269	3035.13
436.644	3090.05
437.02	3099.76
437.395	3130.95
437.77	3158.29
438.145	3196.03
438.52	3269.93
438.895	3295.24
439.271	3298.63
439.646	3386.08
440.021	3370.26
440.395	3454.33
440.77	3422.01
441.145	3490.71
441.52	3551.5
441.895	3543.14
442.27	3581.11
442.645	3591.05
443.019	3678.73
443.394	3679.41
443.769	3749.92
444.143	3679.41
444.518	3808.67
444.892	3800.08
445.267	3854.77
445.641	3896.13
446.016	3922.79
446.39	3966.18
446.764	3983.58
447.139	4003.24
447.513	4095.44
447.887	4066.97
448.262	4111.26
448.636	4165.27
449.01	4229.45
449.384	4243.46
449.758	4306.51
450.132	4341.31
450.506	4358.94
450.88	4372.72
451.254	4381.54
451.628	4471.25
452.002	4553.96
452.376	4578.37
452.75	4624.69
453.123	4640.97
453.497	4714.18
453.871	4800.74
454.244	4899.26
454.618	4921.86
454.992	4994.63
455.365	4984.46
455.739	5095.64
456.112	5129.31
456.486	5200.5
456.859	5245.02
457.232	5332.25
457.606	5342.64
457.979	5389.65
458.352	5489.53
458.725	5613.37
459.099	5673.93
459.472	5768.17
459.845	5764.33
460.218	5771.78
460.591	5909.41
460.964	5954.15
461.337	5996.64
461.71	6148.95
462.083	6217.65
462.456	6287.25
462.829	6312.56
463.201	6387.81
463.574	6453.57
463.947	6474.36
464.32	6720.91
464.692	6668.48
465.065	6778.08
465.438	6836.61
465.81	6939.44
466.183	7020.56
466.555	7173.78
466.928	7165.19
467.3	7235.7
467.672	7352.08
468.045	7555.69
468.417	7534.67
468.789	7637.27
469.161	7722.01
469.534	7858.28
469.906	8039.29
470.278	8056.92
470.65	8149.57
471.022	8286.97
471.394	8470.7
471.766	8526.51
472.138	8662.55
472.51	8869.1
472.882	8954.75
473.253	9078.36
473.625	9274.52
473.997	9444.23
474.369	9492.14
474.74	9555.64
475.112	9778.23
475.484	9950.2
475.855	10122.63
476.227	10154.49
476.598	10476.52
476.97	10535.05
477.341	10819.79
477.713	10995.15
478.084	11021.59
478.455	11282.15
478.827	11446.89
479.198	11806.88
479.569	11794
479.94	12142.24
480.311	12281.89
480.682	12616.12
481.053	12791.94
481.424	13026.28
481.795	13109.44
482.166	13373.39
482.537	13520.05
482.908	13803.66
483.279	13909.87
483.65	14281.62
484.021	14486.81
484.391	14699.23
484.762	14838.44
485.133	15041.82
485.503	15247.24
485.874	15606.78
486.244	15684.07
486.615	15951.85
486.985	16192.07
487.356	16500.77
487.726	16606.07
488.097	16967.65
488.467	17109.34
488.837	17447.86
489.207	17584.13
489.578	17837.45
489.948	18115.64
490.318	18273.83
490.688	18380.94
491.058	18723.76
491.428	19025.67
491.798	19107.03
492.168	19576.84
492.538	19553.34
492.908	19853.22
493.278	20095.02
493.648	20156.72
494.017	20460.66
494.387	20622.92
494.757	20856.58
495.126	21017.94
495.496	21142.68
495.866	21210.7
496.235	21517.81
496.605	21747.63
496.974	22013.84
497.344	22015.88
497.713	22186.27
498.082	22341.07
498.452	22626.03
498.821	22734.73
499.19	22816.08
499.559	23098.56
499.928	23292.9
500.298	23452.45
500.667	23595.27
501.036	23683.18
501.405	23942.83
501.774	23958.88
502.143	24258.53
502.512	24434.8
502.88	24728.35
503.249	24650.83
503.618	24835.69
503.987	24972.86
504.356	25237.94
504.724	25285.17
505.093	25359.06
505.462	25540.75
505.83	25771.03
506.199	26037.92
506.567	26331.69
506.936	26373.95
507.304	26729.42
507.672	26845.81
508.041	26874.51
508.409	27180.03
508.777	27415.51
509.145	27515.62
509.514	27594.94
509.882	27846.01
510.25	28046
510.618	28199.44
510.986	28352.66
511.354	28549.04
511.722	28798.07
512.09	28973.43
512.458	29043.04
512.826	29378.17
513.193	29567.54
513.561	29642.34
513.929	29847.53
514.297	30115.1
514.664	30417.91
515.032	30384.02
515.4	30717.57
515.767	30923.44
516.135	31134.05
516.502	31055.19
516.869	31618.11
517.237	31711.67
517.604	31778.78
517.972	32069.17
518.339	32489.95
518.706	32627.8
519.073	32590.06
519.44	32844.97
519.808	33280.44
520.175	33301.68
520.542	33723.14
520.909	33984.15
521.276	34032.96
521.643	34320.64
522.009	34579.39
522.376	34801.75
522.743	34896.89
523.11	35301.85
523.477	35770.09
523.843	35915.4
524.21	36368.27
524.577	36490.98
524.943	36573.69
525.31	36935.26
525.676	37339.31
526.043	37444.62
526.409	37693.2
526.776	37907.66
527.142	38045.06
527.508	38320.76
527.874	38565.95
528.241	38968.88
528.607	38842.55
528.973	39320.73
529.339	39357.34
529.705	39851.34
530.071	40116.64
530.437	40245.91
530.803	40411.32
531.169	40706.23
531.535	40665.56
531.901	40950.75
532.267	41140.12
532.632	41341.02
532.998	41495.82
533.364	41699.65
533.73	41740.56
534.095	42144.16
534.461	42213.76
534.826	42300.31
535.192	42691.72
535.557	42941.65
535.923	42915.89
536.288	43071.14
536.653	43292.83
537.019	43246.05
537.384	43493.5
537.749	43814.62
538.114	43754.06
538.479	43903.66
538.845	44091.68
539.21	44036.77
539.575	44073.83
539.94	44380.26
540.305	44769.18
540.67	44621.61
541.034	44826.12
541.399	45071.54
541.764	45097.3
542.129	45376.39
542.494	45281.03
542.858	45467.69
543.223	45661.58
543.587	45808.02
543.952	45811.86
544.316	45946.32
544.681	45862.03
545.045	46302.47
545.41	46470.6
545.774	46488.68
546.138	46582.01
546.503	46729.58
546.867	46731.61
547.231	47207.3
547.595	47120.53
547.959	47324.81
548.324	47197.36
548.688	47490.91
549.052	47591.93
549.416	47658.14
549.779	47792.6
550.143	47847.74
550.507	48107.17
550.871	48151.01
551.235	48087.05
551.599	48387.16
551.962	48413.6
552.326	48587.38
552.689	48785.57
553.053	48649.53
553.417	48854.04
553.78	49292.22
554.143	49270.07
554.507	49425.78
554.87	49714.36
555.234	49972.88
555.597	49752.55
555.96	49859.89
556.323	50085.65
556.686	50157.73
557.05	50360.89
557.413	50496.71
557.776	50522.47
558.139	50828.68
558.502	50897.6
558.865	51026.19
559.228	51232.06
559.59	51317.93
559.953	51356.57
560.316	51738.48
560.679	51641.99
561.041	51799.95
561.404	51981.64
561.767	52195.42
562.129	52121.75
562.492	52419.6
562.854	52439.03
563.217	52579.14
563.579	52704.79
563.941	52804.22
564.304	53017.32
564.666	53085.12
565.028	53145.68
565.39	53183.64
565.753	53340.7
566.115	53510.64
566.477	53568.04
566.839	53678.55
567.201	53983.17
567.563	53954.47
567.925	54190.85
568.287	54169.83
568.648	54239.66
569.01	54448.92
569.372	54536.15
569.734	54545.87
570.095	54761.68
570.457	54810.95
570.819	54926.2
571.18	54906.76
571.542	55045.52
571.903	55021.56
572.265	55165.06
572.626	55223.82
572.987	55326.86
573.349	55384.49
573.71	55508.1
574.071	55577.25
574.432	55692.96
574.794	55810.47
575.155	55763.92
575.516	55804.82
575.877	55893.18
576.238	55977.02
576.599	56062.89
576.96	56002.33
577.32	56088.88
577.681	56106.05
578.042	56193.96
578.403	56214.75
578.763	56275.09
579.124	56211.59
579.485	56395.99
579.845	56358.93
580.206	56327.06
580.566	56387.18
580.927	56383.56
581.287	56552.14
581.648	56495.42
582.008	56613.38
582.368	56563.44
582.728	56549.66
583.089	56467.4
583.449	56488.42
583.809	56421.3
584.169	56473.95
584.529	56497.68
584.889	56748.3
585.249	56515.53
585.609	56432.37
585.969	56630.56
586.329	56573.84
586.688	56639.6
587.048	56555.98
587.408	56532.93
587.768	56548.08
588.127	56524.57
588.487	56602.76
588.846	56749.2
589.206	56533.39
589.565	56625.36
589.925	56611.8
590.284	56601.18
590.643	56667.62
591.003	56699.26
591.362	56779.26
591.721	56655.42
592.08	56640.28
592.44	56678.24
592.799	56733.83
593.158	56702.87
593.517	56718.92
593.876	56724.79
594.235	56664.46
594.593	56617.68
594.952	56752.59
595.311	56682.31
595.67	56701.29
596.029	56843.21
596.387	56864
596.746	56822.64
597.104	56684.12
597.463	56704.23
597.822	56868.29
598.18	56806.83
598.538	56758.24
598.897	56885.69
599.255	56631.46
599.613	56968.63
599.972	56816.09
600.33	56958.91
600.688	56787.17
601.046	56853.15
601.404	57005.24
601.762	56912.59
602.12	57039.14
602.478	57040.49
602.836	57040.27
603.194	56967.05
603.552	57049.08
603.91	56936.77
604.268	57123.2
604.625	56998.23
604.983	57116.42
605.341	57029.42
605.698	57158.91
606.056	57118.91
606.413	57123.88
606.771	57167.27
607.128	57166.59
607.485	57072.81
607.843	57157.1
608.2	57238.68
608.557	57266.7
608.914	57138.57
609.272	57355.74
609.629	57313.7
609.986	57430.76
610.343	57321.61
610.7	57456.98
611.057	57454.27
611.414	57418.79
611.771	57464.44
612.127	57509.86
612.484	57504.89
612.841	57640.02
613.198	57547.82
613.554	57594.38
613.911	57763.86
614.267	57599.12
614.624	57616.97
614.98	57658.1
615.337	57803.86
615.693	57760.7
616.05	57701.04
616.406	57845.44
616.762	57735.16
617.118	57743.3
617.475	57762.73
617.831	57739.46
618.187	57763.86
618.543	57789.4
618.899	57905.55
619.255	57861.71
619.611	57765.22
619.967	57827.82
620.323	57903.07
620.678	57841.15
621.034	57767.25
621.39	57728.84
621.746	57809.29
622.101	57972.67
622.457	57772.22
622.812	57841.37
623.168	57865.78
623.523	57836.85
623.879	57904.65
624.234	57733.81
624.589	57804.54
624.945	57791.88
625.3	57761.38
625.655	57764.31
626.01	57759.34
626.365	57775.39
626.72	57720.47
627.075	57729.06
627.43	57705.56
627.785	57679.12
628.14	57729.51
628.495	57728.38
628.85	57642.96
629.205	57552.34
629.559	57774.26
629.914	57606.58
630.269	57515.06
630.623	57461.72
630.978	57394.15
631.332	57529.07
631.687	57533.13
632.041	57424.66
632.396	57418.56
632.75	57288.85
633.104	57321.61
633.459	57209.53
633.813	57235.29
634.167	57152.58
634.521	57159.81
634.875	57189.64
635.229	57136.53
635.583	57044.33
635.937	56963.21
636.291	56910.1
636.645	57002.53
636.999	56909.42
637.352	56930.89
637.706	56721.63
638.06	56750.1
638.413	56791.68
638.767	56679.82
639.121	56825.36
639.474	56573.16
639.828	56557.57
640.181	56641.63
640.534	56530.9
640.888	56425.37
641.241	56355.09
641.594	56383.56
641.947	56390.57
642.301	56275.77
642.654	56266.73
643.007	56262.43
643.36	56237.12
643.713	56225.15
644.066	56217.46
644.419	56112.83
644.771	55869
645.124	55679.62
645.477	55549.68
645.83	55423.59
646.182	55289.13
646.535	55213.87
646.888	55260.88
647.24	55127.55
647.593	55180.88
647.945	55043.93
648.298	54872.19
648.65	54807.1
649.002	54789.25
649.355	54971.39
649.707	54922.58
650.059	54957.61
650.411	55256.36
650.763	55196.25
651.115	55540.64
651.467	55399.4
651.819	55328.67
652.171	55157.15
652.523	55181.56
652.875	55158.96
653.227	55072.63
653.578	55242.35
653.93	55161.67
654.282	54989.92
654.633	54881.45
654.985	54982.47
655.337	54924.39
655.688	54881.9
656.039	55031.96
656.391	54691.63
656.742	54796.71
657.094	54796.26
657.445	54875.8
657.796	54802.58
658.147	54635.36
658.498	54720.78
658.849	54711.51
659.2	54713.1
659.551	54639.65
659.902	54633.55
660.253	54618.86
660.604	54651.18
660.955	54481.01
661.306	54509.26
661.656	54458.41
662.007	54386.55
662.358	54428.36
662.708	54334.35
663.059	54372.54
663.409	54128.93
663.76	54412.09
664.11	54298.42
664.461	54322.15
664.811	54263.84
665.161	54309.94
665.511	54227.46
665.862	54293.9
666.212	54233.33
666.562	54209.61
666.912	54180
667.262	54201.02
667.612	54126.9
667.962	54197.85
668.312	53992.66
668.662	54179.32
669.011	54060.91
669.361	53959.22
669.711	53977.52
670.06	53887.58
670.41	53844.87
670.76	53802.61
671.109	53947.01
671.459	53789.05
671.808	53787.7
672.157	53795.15
672.507	53566.68
672.856	53626.12
673.205	53592.67
673.554	53667.7
673.904	53534.82
674.253	53740.01
674.602	53634.03
674.951	53138
675.3	52939.81
675.649	53485.56
675.998	53406.69
676.346	53333.02
676.695	53403.07
677.044	53262.51
677.393	53204.89
677.741	53299.8
678.09	53143.19
678.438	53058.22
678.787	53209.86
679.135	53172.34
679.484	52886.02
679.832	53025.23
680.181	52719.25
680.529	52942.29
680.877	52775.75
681.225	52691.91
681.573	52846.25
681.922	52719.7
682.27	52473.15
682.618	52580.04
682.966	52459.14
683.314	52622.75
683.661	52436.09
684.009	52196.33
684.357	52052.37
684.705	52171.92
685.053	52184.8
685.4	52073.16
685.748	51926.5
686.095	51901.42
686.443	51826.17
686.79	51698.94
687.138	51691.03
687.485	51725.15
687.832	51537.13
688.18	51597.7
688.527	51354.31
688.874	51242.9
689.221	51222.57
689.568	51046.53
689.915	50985.06
690.262	50967.88
690.609	50933.31
690.956	50804.27
691.303	50728.12
691.65	50574
691.997	50594.11
692.344	50344.4
692.69	50252.65
693.037	50256.94
693.383	49992.54
693.73	50185.98
694.077	49933.11
694.423	49761.81
694.769	49682.27
695.116	49504.19
695.462	49365.67
695.808	49241.15
696.155	49306.23
696.501	49163.64
696.847	49121.15
697.193	48904.66
697.539	48960.03
697.885	48569.08
698.231	48436.65
698.577	48483.43
698.923	48412.7
699.269	48210.89
699.614	48073.5
699.96	47968.19
700.306	48013.38
700.651	47820.85
700.997	47695.43
701.342	47608.65
701.688	47574.3
702.033	47419.73
702.379	47492.04
702.724	47269
703.069	47464.47
703.415	46860.42
703.76	46913.75
704.105	46834.66
704.45	46612.97
704.795	46443.48
705.14	46463.37
705.485	46324.62
705.83	46181.79
706.175	46275.8
706.52	46014.79
706.865	45997.39
707.209	45885.53
707.554	45677.4
707.899	45832.65
708.243	45602.15
708.588	45449.61
708.932	45144.53
709.277	45144.99
709.621	45279.9
709.966	45006.91
710.31	45048.72
710.654	44740.7
710.998	44794.71
711.342	44798.55
711.687	44400.6
712.031	44272.24
712.375	44246.93
712.719	44170.55
713.063	44101.62
713.407	44078.12
713.75	43962.42
714.094	43950.89
714.438	43596.78
714.782	43713.16
715.125	43402.21
715.469	43451.02
715.812	43294.86
716.156	43097.81
716.499	43046.51
716.843	43125.15
717.186	42870.24
717.53	42910.02
717.873	42896.23
718.216	42848.77
718.559	42654.66
718.902	42543.47
719.246	42532.17
719.589	42295.57
719.932	42181.9
720.275	42103.48
720.617	42079.3
720.96	42025.07
721.303	42068.46
721.646	41989.36
721.989	41705.75
722.331	41801.8
722.674	41644.29
723.016	41620.56
723.359	41681.57
723.701	41624.63
724.044	41405.65
724.386	41137.41
724.729	41252.21
725.071	41000.69
725.413	41047.47
725.755	40909.16
726.097	40756.63
726.439	40403.42
726.782	40367.26
727.124	40606.35
727.465	40440.7
727.807	40453.13
728.149	40277.77
728.491	40246.81
728.833	40202.29
729.175	40096.3
729.516	40037.77
729.858	40019.02
730.199	39972.24
730.541	39941.51
730.882	39677.33
731.224	39843.88
731.565	39440.28
731.906	39437.79
732.248	39555.75
732.589	39346.49
732.93	39202.32
733.271	39210
733.612	39110.12
733.953	39086.16
734.294	38928.88
734.635	38890.23
734.976	38845.49
735.317	38648.21
735.658	38583.12
735.999	38792.38
736.339	38478.27
736.68	38486.63
737.021	38387.2
737.361	38266.52
737.702	38363.24
738.042	38355.33
738.383	38149.69
738.723	38152.85
739.063	37877.15
739.404	38009.13
739.744	37868.34
740.084	37856.14
740.424	37869.47
740.764	37809.81
741.104	37779.53
741.444	37482.14
741.784	37402.14
742.124	37449.37
742.464	37366.21
742.804	37187.91
743.143	37421.8
743.483	37275.36
743.823	37023.39
744.162	36810.74
744.502	36947.69
744.841	36751.53
745.181	36782.04
745.52	36673.8
745.86	36681.93
746.199	36634.02
746.538	36400.13
746.877	36550.63
747.216	36484.87
747.556	36325.78
747.895	36335.95
748.234	36317.65
748.573	36188.38
748.911	36227.03
749.25	36132.57
749.589	35752.69
749.928	35917.21
750.267	35805.8
750.605	35715.85
750.944	35515.63
751.283	35462.75
751.621	35549.53
751.96	35304.57
752.298	35410.55
752.636	35395.64
752.975	35051.01
753.313	35035.19
753.651	35108.19
753.989	35023.22
754.327	34793.62
754.666	34618.48
755.004	34564.02
755.342	34589.56
755.679	34585.49
756.017	34337.36
756.355	34356.34
756.693	34111.6
757.031	34250.13
757.368	33970.14
757.706	33887.2
758.044	33805.62
758.381	33880.2
758.719	33683.37
759.056	33713.2
759.394	33443.82
759.731	33256.03
760.068	33228.91
760.405	33093.55
760.743	33068.92
761.08	32936.72
761.417	32766.55
761.754	32884.06
762.091	32686.56
762.428	32545.77
762.765	32454.7
763.102	32526.79
763.438	32228.26
763.775	32241.14
764.112	32225.1
764.449	32218.55
764.785	31898.33
765.122	31695.4
765.458	31578.34
765.795	31621.5
766.131	31532.91
766.467	31359.13
766.804	31176.54
767.14	30973.15
767.476	31055.41
767.812	30760.5
768.148	30859.94
768.485	30719.6
768.821	30391.93
769.157	30412.49
769.492	30329.56
769.828	30229.67
770.164	30052.27
770.5	29931.37
770.836	29796.69
771.171	29733.87
771.507	29748.33
771.842	29420.65
772.178	29512.85
772.513	29380.2
772.849	29172.52
773.184	29022.02
773.519	28982.7
773.855	28872.64
774.19	28677.17
774.525	28488.25
774.86	28517.4
775.195	28515.37
775.53	28335.03
775.865	28209.61
776.2	27888.94
776.535	27707.03
776.87	27867.02
777.205	27691.21
777.539	27582.74
777.874	27569.63
778.209	27382.06
778.543	27222.29
778.878	27208.96
779.212	27144.33
779.547	26913.37
779.881	26973.71
780.215	26750.21
780.55	26790.89
780.884	26529.88
781.218	26451.69
781.552	26582.08
781.886	26252.15
782.22	26118.37
782.554	26051.93
782.888	25866.17
783.222	25825.04
783.556	25750.92
783.889	25637.7
784.223	25514.99
784.557	25510.25
784.89	25485.16
785.224	25273.19
785.557	25180.99
785.891	25001.79
786.224	25019.19
786.558	24904.39
786.891	24722.02
787.224	24652.42
787.557	24685.64
787.891	24499.88
788.224	24535.58
788.557	24471.63
788.89	24316.83
789.223	24162.94
789.556	24059.44
789.888	23967.91
790.221	23827.35
790.554	23729.73
790.887	23780.8
791.219	23672.1
791.552	23656.06
791.884	23563.18
792.217	23281.61
792.549	23258.78
792.882	23069.63
793.214	23053.81
793.546	23098.79
793.879	22887.27
794.211	22722.3
794.543	22818.34
794.875	22637.78
795.207	22771.34
795.539	22520.5
795.871	22547.16
796.203	22314.63
796.535	22211.8
796.867	22204.8
797.198	22172.71
797.53	21992.15
797.862	21880.06
798.193	21905.6
798.525	21661.76
798.856	21746.96
799.188	21520.75
799.519	21454.99
799.85	21318.49
800.182	21470.35
800.513	21381.32
800.844	21230.36
801.175	21349.45
801.506	21272.17
801.837	21078.73
802.168	21026.98
802.499	20927.77
802.83	20742.69
803.161	20751.95
803.491	20840.99
803.822	20769.36
804.153	20604.16
804.483	20304.28
804.814	20351.74
805.145	20281.46
805.475	20272.64
805.805	20208.92
806.136	20121.91
806.466	20085.76
806.796	20159.88
807.126	19927.8
807.457	19964.63
807.787	19890.73
808.117	19839.21
808.447	19664.53
808.777	19688.93
809.107	19587.69
809.436	19558.77
809.766	19512.44
810.096	19513.57
810.426	19370.75
810.755	19454.59
811.085	19317.64
811.414	19283.29
811.744	19052.11
812.073	19081.72
812.403	19084.88
812.732	18900.48
813.061	18931.21
813.39	18792.91
813.719	18824.32
814.049	18935.05
814.378	18806.24
814.707	18611.67
815.036	18759.24
815.365	18669.07
815.693	18396.99
816.022	18496.65
816.351	18274.73
816.68	18235.18
817.008	18249.42
817.337	18078.8
817.665	18053.04
817.994	18142.08
818.322	18101.18
818.651	17928.53
818.979	17909.09
819.307	17856.44
819.636	17829.32
819.964	17721.98
820.292	17928.75
820.62	17775.99
820.948	17899.15
821.276	17785.25
821.604	17661.41
821.932	17888.75
822.259	17786.38
822.587	17689.44
822.915	17666.16
823.243	17762.43
823.57	17674.07
823.898	17687.85
824.225	17614.18
824.553	17612.15
824.88	17602.88
825.207	17752.71
825.535	17590
825.862	17636.56
826.189	17570.12
826.516	17702.99
826.843	17748.64
827.17	17710
827.497	17596.56
827.824	17653.5
828.151	17673.84
828.478	17506.84
828.805	17629.78
829.131	17566.73
829.458	17458.03
829.785	17548.65
830.111	17575.54
830.438	17637.23
830.764	17537.8
831.09	17516.56
831.417	17517.46
831.743	17498.93
832.069	17492.15
832.395	17345.49
832.722	17390.91
833.048	17380.74
833.374	17468.65
833.7	17343.91
834.026	17425.71
834.351	17456.67
834.677	17241.99
835.003	17378.03
835.329	17277.02
835.654	17291.71
835.98	17177.81
836.306	17245.83
836.631	17218.26
836.956	17286.73
837.282	17222.56
837.607	17088.77
837.932	17137.81
838.258	17046.29
838.583	17079.96
838.908	16928.55
839.233	16995.89
839.558	16907.99
839.883	16908.67
840.208	16771.04
840.533	16721.78
840.858	16919.51
841.182	16847.42
841.507	16861.89
841.832	16700.08
842.156	16753.87
842.481	16768.78
842.805	16663.25
843.13	16549.35
843.454	16607.2
843.778	16459.64
844.103	16415.57
844.427	16393.2
844.751	16417.61
845.075	16335.8
845.399	16283.6
845.723	16244.95
846.047	16295.35
846.371	16092.19
846.695	16069.59
847.019	16020.55
847.343	15821.46
847.666	15702.37
847.99	15621.47
848.313	15678.87
848.637	15581.24
848.96	15508.25
849.284	15477.74
849.607	15356.62
849.931	15400.23
850.254	15324.75
850.577	15258.31
850.9	15087.92
851.223	15048.83
851.546	15035.49
851.869	14934.03
852.192	14986.68
852.515	14919.34
852.838	14769.96
853.161	14840.7
853.483	14806.8
853.806	14610.87
854.129	14736.97
854.451	14574.72
854.774	14560.03
855.096	14475.28
855.419	14488.62
855.741	14436.41
856.063	14360.26
856.385	14409.3
856.708	14326.13
857.03	14223.54
857.352	14291.56
857.674	14193.03
857.996	14113.71
858.318	13985.13
858.64	14116.42
858.961	14029.87
859.283	13997.78
859.605	13843.89
859.926	13951.46
860.248	13897.22
860.57	13818.58
860.891	13796.88
861.212	13838.24
861.534	13678.69
861.855	13769.09
862.176	13760.27
862.498	13673.72
862.819	13748.3
863.14	13561.18
863.461	13554.86
863.782	13528.42
864.103	13526.38
864.424	13511.47
864.745	13468.98
865.065	13388.76
865.386	13442.09
865.707	13396.22
866.027	13435.54
866.348	13442.09
866.668	13376.56
866.989	13445.93
867.309	13214.98
867.63	13287.97
867.95	13184.92
868.27	13106.51
868.59	13221.76
868.91	13262.89
869.23	13134.53
869.55	13096.34
869.87	13206.62
870.19	13172.04
870.51	13142.89
870.83	13132.72
871.15	12989.67
871.469	13145.15
871.789	13017.02
872.109	13071.7
872.428	12949.67
872.748	13056.56
873.067	12978.6
873.386	13000.97
873.706	12964.14
874.025	12863.57
874.344	12832.16
874.663	12874.42
874.982	12758.49
875.301	12815.21
875.62	12822.67
875.939	12750.36
876.258	12877.13
876.577	12766.18
876.896	12750.81
877.214	12680.08
877.533	12786.74
877.852	12758.49
878.17	12781.99
878.489	12756.46
878.807	12658.38
879.125	12620.64
879.444	12634.2
879.762	12511.72
880.08	12424.26
880.398	12457.94
880.716	12425.39
881.034	12424.49
881.352	12444.83
881.67	12447.99
881.988	12493.64
882.306	12366.64
882.624	12314.21
882.941	12342.01
883.259	12233.53
883.577	12292.29
883.894	12176.13
884.212	12255.68
884.529	12071.5
884.846	12074.44
885.164	12076.48
885.481	11978.17
885.798	12077.83
886.115	12009.81
886.432	12038.06
886.75	11941.34
887.067	11968
887.383	11928.46
887.7	12018.85
888.017	11894.79
888.334	11942.47
888.651	11860.66
888.967	11843.49
889.284	11815.47
889.6	11824.51
889.917	11719.88
890.233	11719.88
890.55	11727.56
890.866	11693.44
891.182	11624.74
891.498	11597.39
891.815	11532.08
892.131	11514.23
892.447	11500.22
892.763	11362.37
893.079	11412.09
893.395	11324.86
893.71	11278.53
894.026	11283.73
894.342	11279.21
894.657	11236.72
894.973	11193.56
895.289	11247.8
895.604	11186.78
895.92	11067.24
896.235	11017.3
896.55	11100
896.865	10960.57
897.181	10993.11
897.496	10999.89
897.811	10886.45
898.126	10911.76
898.441	10835.6
898.756	10815.27
899.071	10749.96
899.386	10740.69
899.7	10627.93
900.015	10662.05
900.33	10562.62
900.644	10600.36
900.959	10572.11
901.273	10586.57
901.588	10459.8
901.902	10414.15
902.216	10415.5
902.531	10367.14
902.845	10357.65
903.159	10326.69
903.473	10281.5
903.787	10205.56
904.101	10187.26
904.415	10093.7
904.729	10109.75
905.042	10052.35
905.356	10030.88
905.67	9999.69
905.984	9981.39
906.297	10014.38
906.611	9959.92
906.924	9836.08
907.237	9827.27
907.551	9757.67
907.864	9748.18
908.177	9720.15
908.491	9671.34
908.804	9652.59
909.117	9611.46
909.43	9502.76
909.743	9551.57
910.056	9501.18
910.368	9500.72
910.681	9493.04
910.994	9481.29
911.307	9357.45
911.619	9299.83
911.932	9310
912.244	9218.02
912.557	9245.82
912.869	9191.81
913.181	9184.35
913.494	9231.13
913.806	9104.35
914.118	9071.13
914.43	8987.74
914.742	8986.39
915.054	9010.57
915.366	8921.08
915.678	8885.6
915.99	8844.02
916.302	8778.71
916.613	8667.75
916.925	8738.03
917.236	8698.94
917.548	8596.34
917.859	8674.31
918.171	8499.85
918.482	8489.23
918.794	8462.33
919.105	8425.05
919.416	8437.7
919.727	8358.61
920.038	8395.67
920.349	8268.67
920.66	8272.28
920.971	8252.85
921.282	8128.11
921.593	8150.93
921.903	8141.89
922.214	8100.54
922.525	8035.23
922.835	8081.55
923.146	7960.2
923.456	7993.19
923.767	7936.02
924.077	8040.42
924.387	7953.42
924.697	7933.53
925.008	7769.7
925.318	7792.97
925.628	7771.73
925.938	7757.04
926.248	7685.86
926.558	7735.35
926.867	7635.69
927.177	7639.3
927.487	7544.39
927.796	7516.82
928.106	7463.04
928.416	7475.92
928.725	7452.42
929.034	7368.13
929.344	7379.88
929.653	7340.33
929.962	7293.33
930.271	7292.65
930.581	7235.7
930.89	7187.11
931.199	7121.8
931.508	7103.05
931.817	7157.96
932.125	7080.22
932.434	7046.78
932.743	6998.87
933.051	6943.73
933.36	6905.09
933.669	6938.53
933.977	6921.13
934.286	6828.7
934.594	6826.67
934.902	6804.98
935.21	6775.37
935.519	6793
935.827	6698.31
936.135	6716.62
936.443	6620.57
936.751	6666.9
937.059	6608.37
937.367	6595.49
937.674	6592.1
937.982	6591.65
938.29	6552.1
938.597	6502.39
938.905	6445.21
939.213	6433.69
939.52	6354.82
939.827	6395.95
940.135	6299.9
940.442	6303.07
940.749	6292.45
941.056	6261.71
941.363	6247.48
941.67	6235.05
941.977	6182.62
942.284	6157.08
942.591	6117.54
942.898	6115.73
943.205	6087.03
943.511	6061.27
943.818	6056.3
944.125	6033.25
944.431	5948.28
944.738	5947.6
945.044	5917.32
945.35	5914.38
945.657	5857.2
945.963	5848.17
946.269	5859.24
946.575	5750.09
946.881	5750.09
947.187	5801.84
947.493	5696.31
947.799	5705.12
948.105	5689.98
948.41	5619.02
948.716	5593.26
949.022	5562.52
949.327	5569.75
949.633	5483.43
949.938	5480.72
950.244	5503.54
950.549	5508.06
950.854	5420.61
951.16	5427.84
951.465	5433.49
951.77	5380.16
952.075	5356.43
952.38	5365.01
952.685	5350.55
952.99	5247.05
953.294	5276.43
953.599	5253.83
953.904	5192.36
954.209	5158.01
954.513	5198.01
954.818	5081.86
955.122	5100.61
955.426	5085.02
955.731	5104.23
956.035	5048.64
956.339	5027.85
956.643	5033.27
956.948	4965.7
957.252	4972.93
957.556	4965.02
957.86	4991.92
958.163	4911.24
958.467	4870.34
958.771	4852.94
959.075	4801.19
959.378	4838.25
959.682	4764.8
959.985	4739.49
960.289	4744.01
960.592	4720.96
960.896	4682.09
961.199	4730.68
961.502	4726.16
961.805	4678.48
962.108	4585.83
962.411	4632.6
962.714	4562.32
963.017	4545.83
963.32	4554.19
963.623	4556.22
963.926	4531.36
964.228	4518.48
964.531	4456.11
964.833	4433.29
965.136	4436
965.438	4384.02
965.741	4410.69
966.043	4369.79
966.345	4353.06
966.648	4336.11
966.95	4365.49
967.252	4277.59
967.554	4311.03
967.856	4293.18
968.158	4266.96
968.46	4219.28
968.761	4229.9
969.063	4213.41
969.365	4187.64
969.666	4184.25
969.968	4129.11
970.269	4131.83
970.571	4092.28
970.872	4109.45
971.174	4029.23
971.475	4071.49
971.776	4023.35
972.077	3987.2
972.378	4015.9
972.679	3985.39
972.98	3966.41
973.281	3945.39
973.582	3934.32
973.883	3916.92
974.183	3864.71
974.484	3867.65
974.785	3834.89
975.085	3832.85
975.386	3802.12
975.686	3759.86
975.986	3797.6
976.287	3775
976.587	3722.8
976.887	3741.78
977.187	3693.42
977.487	3701.56
977.787	3695.45
978.087	3624.5
978.387	3596.25
978.687	3632.63
978.987	3633.99
979.286	3573.87
979.586	3601.9
979.885	3555.8
980.185	3529.13
980.484	3503.14
980.784	3493.65
981.083	3524.84
981.382	3481.9
981.682	3448.91
981.981	3477.15
982.28	3426.08
982.579	3392.64
982.878	3398.06
983.177	3330.72
983.475	3391.96
983.774	3340.89
984.073	3349.7
984.372	3343.15
984.67	3310.15
984.969	3306.31
985.267	3289.59
985.566	3303.15
985.864	3253.21
986.162	3212.75
986.461	3256.14
986.759	3243.49
987.057	3186.77
987.355	3193.09
987.653	3186.77
987.951	3186.99
988.249	3191.96
988.547	3142.47
988.844	3103.15
989.142	3131.17
989.44	3116.03
989.737	3075.81
990.035	3071.52
990.332	3058.41
990.63	3034.23
990.927	2992.65
991.224	3030.61
991.521	2984.51
991.819	2962.59
992.116	2968.02
992.413	2937.28
992.71	2903.61
993.006	2871.52
993.303	2901.58
993.6	2838.75
993.897	2859.54
994.193	2832.88
994.49	2818.87
994.787	2792.65
995.083	2781.58
995.379	2741.58
995.676	2791.75
995.972	2779.09
996.268	2768.7
996.565	2725.54
996.861	2733.9
997.157	2708.36
997.453	2663.84
997.749	2694.12
998.044	2651.41
998.34	2660.23
998.636	2625.88
998.932	2597.4
999.227	2622.26
999.523	2601.92
999.818	2586.33
1000.114	2596.5
1000.409	2581.13
1000.704	2500
1001	2535.26
1001.295	2521.25
1001.59	2532.32
1001.885	2473.79
1002.18	2474.24
1002.475	2471.31
1002.77	2468.37
1003.065	2446.9
1003.359	2433.57
1003.654	2428.37
1003.949	2388.14
1004.243	2382.95
1004.538	2367.58
1004.832	2354.02
1005.127	2368.93
1005.421	2339.33
1005.715	2343.17
1006.009	2352.66
1006.304	2303.17
1006.598	2293.91
1006.892	2291.65
1007.186	2290.29
1007.48	2244.42
1007.773	2211.42
1008.067	2215.49
1008.361	2214.36
1008.655	2161.03
1008.948	2172.78
1009.242	2194.02
1009.535	2153.12
1009.829	2150.86
1010.122	2125.55
1010.415	2097.3
1010.708	2089.17
1011.001	2089.39
1011.295	2079.45
1011.588	2061.15
1011.881	2057.3
1012.173	2039.45
1012.466	2018.21
1012.759	2007.81
1013.052	1980.7
1013.344	2009.62
1013.637	1985.89
1013.93	1952.9
1014.222	1961.49
1014.514	1973.24
1014.807	1946.57
1015.099	1917.2
1015.391	1928.04
1015.683	1914.26
1015.976	1893.69
1016.268	1876.52
1016.56	1855.73
1016.851	1826.35
1017.143	1816.86
1017.435	1839.23
1017.727	1844.88
1018.018	1826.12
1018.31	1814.83
1018.602	1781.15
1018.893	1770.98
1019.185	1779.35
1019.476	1742.06
1019.767	1720.82
1020.058	1716.52
1020.35	1691.66
1020.641	1720.59
1020.932	1690.99
1021.223	1664.77
1021.514	1662.96
1021.804	1660.7
1022.095	1665
1022.386	1637.65
1022.677	1620.48
1022.967	1599.01
1023.258	1578.9
1023.548	1556.75
1023.839	1606.24
1024.129	1576.19
1024.419	1550.65
1024.709	1533.7
1025	1531.44
1025.29	1548.62
1025.58	1505.45
1025.87	1513.14
1026.16	1492.57
1026.449	1497.55
1026.739	1466.13
1027.029	1501.39
1027.319	1451.67
1027.608	1421.84
1027.898	1453.03
1028.187	1441.5
1028.477	1425.46
1028.766	1412.12
1029.055	1410.77
1029.344	1402.18
1029.634	1361.96
1029.923	1356.53
1030.212	1376.42
1030.501	1343.88
1030.79	1337.78
1031.078	1331.9
1031.367	1322.18
1031.656	1309.3
1031.945	1288.06
1032.233	1283.54
1032.522	1281.05
1032.81	1274.95
1033.099	1252.58
1033.387	1278.12
1033.675	1282.64
1033.963	1253.03
1034.251	1227.27
1034.54	1218.91
1034.828	1230.43
1035.116	1209.42
1035.403	1180.72
1035.691	1188.63
1035.979	1199.25
1036.267	1169.87
1036.554	1148.18
1036.842	1169.87
1037.129	1152.92
1037.417	1152.47
1037.704	1153.6
1037.992	1123.32
1038.279	1124.67
1038.566	1101.4
1038.853	1101.4
1039.14	1101.4
