Data from foil_FLMS001491_093.txt Node
Date: Tue Feb 07 11:37:32 GMT 2017
User: dcchb
Spectrometer: FLMS00149
Trigger mode: 0
Integration Time (sec): 2.000000E-2
Scans to average: 10
Electric dark correction enabled: true
Nonlinearity correction enabled: false
Boxcar width: 0
XAxis mode: Wavelengths
Number of Pixels in Spectrum: 2048
>>>>>Begin Spectral Data<<<<<
341.393	5.18
341.776	5.18
342.16	5.18
342.543	-47.47
342.927	-81.82
343.31	-73.23
343.693	-64.42
344.077	-62.61
344.46	-54.7
344.843	-57.41
345.226	-40.24
345.61	-31.88
345.993	-11.99
346.376	7.22
346.759	8.12
347.142	10.38
347.525	54.9
347.908	56.48
348.291	74.79
348.674	88.8
349.057	95.8
349.44	115.92
349.823	150.04
350.206	155.91
350.588	228.23
350.971	269.81
351.354	270.94
351.737	282.69
352.119	298.74
352.502	306.42
352.884	318.4
353.267	332.18
353.65	371.95
354.032	342.12
354.414	360.2
354.797	347.77
355.179	383.25
355.562	368.79
355.944	366.53
356.326	400.2
356.709	402.69
357.091	403.37
357.473	416.92
357.855	390.71
358.238	416.7
358.62	392.52
359.002	407.66
359.384	401.56
359.766	391.39
360.148	424.38
360.53	414.66
360.912	421.67
361.294	415.57
361.676	406.98
362.057	419.64
362.439	409.01
362.821	408.79
363.203	412.18
363.584	404.27
363.966	407.43
364.348	413.53
364.729	427.55
365.111	422.35
365.493	425.74
365.874	408.34
366.256	417.6
366.637	441.56
367.019	412.4
367.4	418.05
367.781	463.25
368.163	430.26
368.544	418.73
368.925	435
369.306	418.28
369.688	428.45
370.069	451.27
370.45	437.04
370.831	465.51
371.212	434.1
371.593	443.36
371.974	435.68
372.355	458.5
372.736	458.96
373.117	467.77
373.498	421.44
373.879	438.62
374.26	439.75
374.641	451.95
375.021	426.87
375.402	475.23
375.783	497.83
376.163	500.54
376.544	526.53
376.925	487.66
377.305	512.51
377.686	503.48
378.066	506.64
378.447	515
378.827	514.32
379.208	525.4
379.588	516.81
379.968	520.42
380.349	529.01
380.729	516.36
381.109	553.64
381.489	556.58
381.87	547.09
382.25	572.4
382.63	571.04
383.01	585.73
383.39	580.99
383.77	587.09
384.15	594.32
384.53	607.65
384.91	611.5
385.29	611.5
385.67	610.14
386.049	628.9
386.429	624.38
386.809	648.56
387.189	636.13
387.568	617.37
387.948	643.36
388.328	658.05
388.707	664.15
389.087	667.31
389.466	682.45
389.846	698.95
390.225	676.35
390.605	709.12
390.984	700.76
391.363	738.5
391.743	730.14
392.122	726.75
392.501	744.6
392.881	747.76
393.26	770.81
393.639	795.67
394.018	779.17
394.397	801.77
394.776	808.55
395.155	776.24
395.534	811.04
395.913	809
396.292	846.97
396.671	842.9
397.05	846.97
397.429	877.48
397.808	842.68
398.186	873.86
398.565	894.2
398.944	905.5
399.323	876.57
399.701	919.28
400.08	918.83
400.458	922
400.837	956.8
401.215	953.41
401.594	975.78
401.972	938.94
402.351	975.78
402.729	986.17
403.107	997.93
403.486	1004.71
403.864	1029.56
404.242	1013.97
404.62	1044.48
404.999	1058.04
405.377	1070.47
405.755	1076.12
406.133	1104.59
406.511	1119.5
406.889	1126.96
407.267	1136.45
407.645	1145.49
408.023	1175.1
408.401	1192.27
408.779	1212.61
409.156	1222.78
409.534	1252.83
409.912	1230.01
410.29	1279.05
410.667	1281.76
411.045	1299.61
411.422	1318.37
411.8	1321.31
412.178	1366.5
412.555	1378.03
412.933	1348.42
413.31	1402.21
413.687	1434.3
414.065	1464.13
414.442	1437.01
414.819	1490.57
415.197	1483.34
415.574	1522.21
415.951	1553.39
416.328	1531.25
416.705	1565.59
417.082	1589.55
417.46	1604.46
417.837	1606.05
418.214	1634.75
418.591	1645.14
418.967	1677
419.344	1673.84
419.721	1676.55
420.098	1710.68
420.475	1698.7
420.852	1743.44
421.228	1754.29
421.605	1778.7
421.982	1801.52
422.358	1813.5
422.735	1833.84
423.111	1838.13
423.488	1867.06
423.864	1883.33
424.241	1912.03
424.617	1949.09
424.994	1957.22
425.37	1979.37
425.746	1990.22
426.123	2013.04
426.499	2015.98
426.875	2061.17
427.251	2122.19
427.627	2156.31
428.003	2166.26
428.379	2177.1
428.756	2193.6
429.132	2259.59
429.507	2271.56
429.883	2283.54
430.259	2378.68
430.635	2350.43
431.011	2396.53
431.387	2444.89
431.763	2484.44
432.138	2500.26
432.514	2510.65
432.89	2529.18
433.265	2596.53
433.641	2603.99
434.016	2643.76
434.392	2709.07
434.767	2721.95
435.143	2724.66
435.518	2796.75
435.894	2803.08
436.269	2836.97
436.644	2891.21
437.02	2934.15
437.395	2953.13
437.77	2958.33
438.145	3022.96
438.52	3036.29
438.895	3054.82
439.271	3118.32
439.646	3149.73
440.021	3197.19
440.395	3196.74
440.77	3189.96
441.145	3215.95
441.52	3284.19
441.895	3274.02
442.27	3356.73
442.645	3328.49
443.019	3345.66
443.394	3420.23
443.769	3419.78
444.143	3393.79
444.518	3442.16
444.892	3500.68
445.267	3488.48
445.641	3481.25
446.016	3575.49
446.39	3590.4
446.764	3604.18
447.139	3644.18
447.513	3653.9
447.887	3690.96
448.262	3713.11
448.636	3667.69
449.01	3738.42
449.384	3796.04
449.758	3818.19
450.132	3889.38
450.506	3908.58
450.88	3913.78
451.254	3918.53
451.628	4040.56
452.002	4079.65
452.376	4115.58
452.75	4157.62
453.123	4162.36
453.497	4196.03
453.871	4245.75
454.244	4332.53
454.618	4368.68
454.992	4476.48
455.365	4468.79
455.739	4526.87
456.112	4575.01
456.486	4610.03
456.859	4652.97
457.232	4786.07
457.606	4771.84
457.979	4879.63
458.352	4892.74
458.725	4968.67
459.099	5031.27
459.472	5160.98
459.845	5188.32
460.218	5278.27
460.591	5304.48
460.964	5321.2
461.337	5401.2
461.71	5531.82
462.083	5596.9
462.456	5648.65
462.829	5631.25
463.201	5727.29
463.574	5746.28
463.947	5849.55
464.32	6005.48
464.692	6054.97
465.065	6114.85
465.438	6146.49
465.81	6255.87
466.183	6272.82
466.555	6434.84
466.928	6481.62
467.3	6496.09
467.672	6608.17
468.045	6798.68
468.417	6800.26
468.789	6886.13
469.161	6971.78
469.534	7076.64
469.906	7272.79
470.278	7322.51
470.65	7372.45
471.022	7500.13
471.394	7640.01
471.766	7751.87
472.138	7760.91
472.51	7966.33
472.882	8071.41
473.253	8212.43
473.625	8292.88
473.997	8459.88
474.369	8537.61
474.74	8581.23
475.112	8780.32
475.484	8956.81
475.855	9094.89
476.227	9167.2
476.598	9451.71
476.97	9496.91
477.341	9727.87
477.713	9822.1
478.084	9927.41
478.455	10215.99
478.827	10227.97
479.198	10544.57
479.569	10630.67
479.94	10942.97
480.311	11034.5
480.682	11275.4
481.053	11523.07
481.424	11759.45
481.795	11798.55
482.166	11963.06
482.537	12112.21
482.908	12375.03
483.279	12574.34
483.65	12773.44
484.021	12977.72
484.391	13204.38
484.762	13297.04
485.133	13429.24
485.503	13645.73
485.874	13927.3
486.244	13993.29
486.615	14348.76
486.985	14502.88
487.356	14749.88
487.726	14898.13
488.097	15057.9
488.467	15263.99
488.837	15552.57
489.207	15740.59
489.578	15889.96
489.948	16138.77
490.318	16416.28
490.688	16449.27
491.058	16683.39
491.428	16887.68
491.798	17044.74
492.168	17421.45
492.538	17474.1
492.908	17681.33
493.278	17880.42
493.648	17960.64
494.017	18108.89
494.387	18314.76
494.757	18526.5
495.126	18692.83
495.496	18743.22
495.866	18884.46
496.235	19135.08
496.605	19311.57
496.974	19364.67
497.344	19552.47
497.713	19653.03
498.082	19829.75
498.452	20031.32
498.821	20154.94
499.19	20187.7
499.559	20441.26
499.928	20534.14
500.298	20805.99
500.667	20888.48
501.036	21008.7
501.405	21230.61
501.774	21145.19
502.143	21408.01
502.512	21572.07
502.88	21727.55
503.249	21741.11
503.618	21980.65
503.987	22097.71
504.356	22189.23
504.724	22399.85
505.093	22451.37
505.462	22556.68
505.83	22788.99
506.199	23029.66
506.567	23281.18
506.936	23236.44
507.304	23461.29
507.672	23670.1
508.041	23714.84
508.409	23835.07
508.777	24110.09
509.145	24281.16
509.514	24398.89
509.882	24591.2
510.25	24632.56
510.618	24858.09
510.986	24874.81
511.354	25152.09
511.722	25375.36
512.09	25515.93
512.458	25531.97
512.826	25832.98
513.193	25949.59
513.561	26213.76
513.929	26324.49
514.297	26575.56
514.664	26790.47
515.032	26857.36
515.4	27023.23
515.767	27197.01
516.135	27467.74
516.502	27217.12
516.869	27760.61
517.237	27907.73
517.604	27980.27
517.972	28435.4
518.339	28589.97
518.706	28539.12
519.073	28755.84
519.44	29029.28
519.808	29389.5
520.175	29246.22
520.542	29638.53
520.909	29750.62
521.276	29775.47
521.643	30309.7
522.009	30349.02
522.376	30702.23
522.743	30765.05
523.11	31022.22
523.477	31429.67
523.843	31620.85
524.21	31904.23
524.577	32229.87
524.943	32308.97
525.31	32393.26
525.676	32807.26
526.043	32920.48
526.409	33165.67
526.776	33440.01
527.142	33600.23
527.508	33767.46
527.874	33989.6
528.241	34291.74
528.607	34512.75
528.973	34667.77
529.339	34841.78
529.705	35089.01
530.071	35266.63
530.437	35528.54
530.803	35565.15
531.169	35906.39
531.535	35832.72
531.901	36056.89
532.267	36322.65
532.632	36471.34
532.998	36573.49
533.364	36916.76
533.73	36898.9
534.095	37244.88
534.461	37422.96
534.826	37599.22
535.192	37627.7
535.557	38062.71
535.923	38013.22
536.288	38142.49
536.653	38417.73
537.019	38307.68
537.384	38587.22
537.749	38743.15
538.114	38838.96
538.479	38941.33
538.845	39133.42
539.21	39041.67
539.575	39336.13
539.94	39505.16
540.305	39718.94
540.67	39689.11
541.034	39832.84
541.399	39885.04
541.764	40006.84
542.129	40192.83
542.494	40364.35
542.858	40424.69
543.223	40588.52
543.587	40758.24
543.952	40726.82
544.316	41016.99
544.681	41108.51
545.045	41256.75
545.41	41442.29
545.774	41559.35
546.138	41622.85
546.503	41814.48
546.867	41738.1
547.231	42167.01
547.595	42167.01
547.959	42358.19
548.324	42353.67
548.688	42507.12
549.052	42668.02
549.416	42569.71
549.779	42789.6
550.143	42926.77
550.507	43341.67
550.871	43465.06
551.235	43299.64
551.599	43590.25
551.962	43713.19
552.326	43761.77
552.689	44157.69
553.053	43967.19
553.417	44052.39
553.78	44710.22
554.143	44451.02
554.507	44794.29
554.87	44805.59
555.234	45234.28
555.597	45018.24
555.96	45239.25
556.323	45395.18
556.686	45504.78
557.05	45844.2
557.413	45997.65
557.776	46064.09
558.139	46244.19
558.502	46450.06
558.865	46603.05
559.228	46822.03
559.59	46991.97
559.953	46989.26
560.316	47333.43
560.679	47333.43
561.041	47692.07
561.404	47833.98
561.767	48106.74
562.129	47954.43
562.492	48263.12
562.854	48337.02
563.217	48407.07
563.579	48637.35
563.941	48885.93
564.304	48951.69
564.666	49156.21
565.028	49261.52
565.39	49451.11
565.753	49522.75
566.115	49773.82
566.477	49791.9
566.839	49979.69
567.201	50187.59
567.563	50261.49
567.925	50557.3
568.287	50456.51
568.648	50584.87
569.01	50837.29
569.372	50968.59
569.734	50945.31
570.095	51073.9
570.457	51280.45
570.819	51374.91
571.18	51379.88
571.542	51541.46
571.903	51576.93
572.265	51658.06
572.626	51798.62
572.987	51840.2
573.349	51912.52
573.71	52122.23
574.071	52246.3
574.432	52312.96
574.794	52512.28
575.155	52550.92
575.516	52439.51
575.877	52535.33
576.238	52572.39
576.599	52656.23
576.96	52729.9
577.32	52731.93
577.681	52805.38
578.042	52885.83
578.403	52920.85
578.763	52973.96
579.124	53064.58
579.485	53147.97
579.845	53257.57
580.206	53056.22
580.566	53112.94
580.927	53124.46
581.287	53378.24
581.648	53265.7
582.008	53364.01
582.368	53231.81
582.728	53306.38
583.089	53334.4
583.449	53227.74
583.809	53382.76
584.169	53412.37
584.529	53276.33
584.889	53505.02
585.249	53347.96
585.609	53262.09
585.969	53482.65
586.329	53339.83
586.688	53439.71
587.048	53456.66
587.408	53404.68
587.768	53427.73
588.127	53424.12
588.487	53354.06
588.846	53551.12
589.206	53398.36
589.565	53342.09
589.925	53499.82
590.284	53440.16
590.643	53418.02
591.003	53453.04
591.362	53618.69
591.721	53457.79
592.08	53423.21
592.44	53589.09
592.799	53589.99
593.158	53455.3
593.517	53398.81
593.876	53572.36
594.235	53493.49
594.593	53461.41
594.952	53552.93
595.311	53444.91
595.67	53499.14
596.029	53780.49
596.387	53707.27
596.746	53727.61
597.104	53639.03
597.463	53606.26
597.822	53773.49
598.18	53695.75
598.538	53566.26
598.897	53853.94
599.255	53535.53
599.613	53939.13
599.972	53750.21
600.33	53800.61
600.688	53646.94
601.046	53791.79
601.404	53915.63
601.762	53800.83
602.12	53929.42
602.478	53938
602.836	53989.75
603.194	53823.2
603.552	53966.02
603.91	53725.13
604.268	53969.19
604.625	53958.34
604.983	54065.23
605.341	53966.48
605.698	54037.89
606.056	54033.82
606.413	54057.77
606.771	54300.25
607.128	54262.06
607.485	54125.79
607.843	54094.38
608.2	54260.71
608.557	54291.44
608.914	54204.89
609.272	54276.52
609.629	54312.23
609.986	54438.33
610.343	54259.35
610.7	54582.73
611.057	54449.85
611.414	54383.87
611.771	54426.13
612.127	54637.87
612.484	54524.88
612.841	54572.11
613.198	54521.72
613.554	54542.05
613.911	54718.1
614.267	54707.47
614.624	54690.53
614.98	54802.84
615.337	54899.79
615.693	54818.88
616.05	54804.19
616.406	54891.2
616.762	54781.37
617.118	54828.15
617.475	54882.38
617.831	54877.19
618.187	54860.24
618.543	55057.52
618.899	55129.84
619.255	55006
619.611	54919.22
619.967	55084.87
620.323	55089.84
620.678	54969.16
621.034	54822.73
621.39	54869.28
621.746	54871.54
622.101	55117.41
622.457	54968.03
622.812	54981.59
623.168	55000.57
623.523	55024.3
623.879	55175.71
624.234	54853.91
624.589	55109.72
624.945	55003.96
625.3	55036.28
625.655	55058.2
626.01	55043.28
626.365	55032.21
626.72	55056.39
627.075	54922.84
627.43	54941.59
627.785	54827.47
628.14	54910.63
628.495	54996.96
628.85	54824.08
629.205	54754.48
629.559	54935.26
629.914	54764.87
630.269	54782.27
630.623	54775.49
630.978	54619.11
631.332	54783.63
631.687	54802.61
632.041	54667.48
632.396	54641.04
632.75	54528.04
633.104	54627.25
633.459	54413.24
633.813	54493.24
634.167	54370.31
634.521	54414.15
634.875	54406.69
635.229	54426.13
635.583	54160.82
635.937	54213.02
636.291	54119.24
636.645	54175.28
636.999	54074.5
637.352	54230.88
637.706	53978
638.06	54158.56
638.413	54057.77
638.767	53957.89
639.121	53975.29
639.474	53789.53
639.828	53832.92
640.181	53842.64
640.534	53726.03
640.888	53737.56
641.241	53498.01
641.594	53553.61
641.947	53654.62
642.301	53525.58
642.654	53457.11
643.007	53472.48
643.36	53353.16
643.713	53509.09
644.066	53484.46
644.419	53297.79
644.771	52909.78
645.124	52703.91
645.477	52541.43
645.83	52467.08
646.182	52301.21
646.535	52212.4
646.888	52308.22
647.24	52183.02
647.593	52263.92
647.945	52258.05
648.298	52040.2
648.65	52046.3
649.002	51943.93
649.355	51968.34
649.707	51923.59
650.059	52023.7
650.411	52329.46
650.763	52298.95
651.115	52643.57
651.467	52566.06
651.819	52508.89
652.171	52422.11
652.523	52414.65
652.875	52347.76
653.227	52227.77
653.578	52427.99
653.93	52354.99
654.282	52276.8
654.633	52116.58
654.985	52111.16
655.337	52129.01
655.688	52179.63
656.039	52147.54
656.391	51825.97
656.742	51875.91
657.094	51980.31
657.445	51983.25
657.796	51920.43
658.147	51697.84
658.498	51769.02
658.849	51827.32
659.2	51826.42
659.551	51672.3
659.902	51815.8
660.253	51659.87
660.604	51730.6
660.955	51513.43
661.306	51726.99
661.656	51509.37
662.007	51614.45
662.358	51431.18
662.708	51512.76
663.059	51407.22
663.409	51282.25
663.76	51521.34
664.11	51430.95
664.461	51484.51
664.811	51378.3
665.161	51406.32
665.511	51379.43
665.862	51289.71
666.212	51365.19
666.562	51372.42
666.912	51153.44
667.262	51254.46
667.612	51159.32
667.962	51233.44
668.312	51115.25
668.662	51262.14
669.011	51167.45
669.361	51131.3
669.711	51093.33
670.06	50985.76
670.41	50902.15
670.76	50853.79
671.109	50986.22
671.459	50891.98
671.808	50823.96
672.157	50724.53
672.507	50696.05
672.856	50723.17
673.205	50677.07
673.554	50724.3
673.904	50708.48
674.253	50825.77
674.602	50663.96
674.951	50179.23
675.3	50031.66
675.649	50524.99
675.998	50393.46
676.346	50476.85
676.695	50620.35
677.044	50248.61
677.393	50317.76
677.741	50327.48
678.09	50312.56
678.438	50126.8
678.787	50158.89
679.135	50199.34
679.484	50024.66
679.832	50154.83
680.181	49907.37
680.529	50011.1
680.877	49789.64
681.225	49756.42
681.573	49888.39
681.922	49612.01
682.27	49464.45
682.618	49478.68
682.966	49455.63
683.314	49439.14
683.661	49397.78
684.009	49070.11
684.357	49018.58
684.705	49111.01
685.053	49062.88
685.4	48953.5
685.748	48839.83
686.095	48846.61
686.443	48573.85
686.79	48536.11
687.138	48604.58
687.485	48585.15
687.832	48445.94
688.18	48269.23
688.527	48231.71
688.874	48139.06
689.221	48076.91
689.568	48036.01
689.915	47815.9
690.262	47930.03
690.609	47776.58
690.956	47529.81
691.303	47519.87
691.65	47285.75
691.997	47332.53
692.344	47182.02
692.69	47029.48
693.037	47067.45
693.383	46636.27
693.73	46686.67
694.077	46538.2
694.423	46497.07
694.769	46263.63
695.116	46248.49
695.462	46140.69
695.808	46171.65
696.155	46101.15
696.501	45823.19
696.847	45667.03
697.193	45374.84
697.539	45660.03
697.885	45299.36
698.231	45062.53
698.577	45183.2
698.923	45020.72
699.269	44840.61
699.614	44703.9
699.96	44696.21
700.306	44573.05
700.651	44362.66
700.997	44295.77
701.342	44276.79
701.688	44255.32
702.033	43878.83
702.379	43924.03
702.724	43792.05
703.069	43925.16
703.415	43392.29
703.76	43497.83
704.105	43351.61
704.45	43275.68
704.795	43100.55
705.14	42882.7
705.485	42841.35
705.83	42734
706.175	42798.18
706.52	42644.29
706.865	42451.07
707.209	42394.35
707.554	42169.95
707.899	42208.82
708.243	42087.24
708.588	41965.66
708.932	41786.91
709.277	41685.22
709.621	41760.7
709.966	41445.68
710.31	41484.77
710.654	41185.8
710.998	41159.58
711.342	41161.16
711.687	41149.41
712.031	40910.77
712.375	40746.26
712.719	40814.28
713.063	40740.38
713.407	40856.09
713.75	40485.02
714.094	40442.09
714.438	40474.18
714.782	40356.44
715.125	40107.41
715.469	40226.95
715.812	39719.17
716.156	39713.52
716.499	39802.33
716.843	39759.84
717.186	39453.41
717.53	39771.37
717.873	39725.95
718.216	39480.76
718.559	39468.55
718.902	39115.12
719.246	39231.95
719.589	39017.72
719.932	38841.68
720.275	38917.83
720.617	38855.24
720.96	38763.03
721.303	38667.9
721.646	38668.12
721.989	38398.3
722.331	38483.95
722.674	38386.77
723.016	38272.65
723.359	38147.46
723.701	38197.85
724.044	38059.1
724.386	37860.46
724.729	38043.28
725.071	37911.76
725.413	37859.1
725.755	37834.92
726.097	37527.36
726.439	37507.7
726.782	37340.47
727.124	37553.35
727.465	37287.37
727.807	37210.98
728.149	37237.42
728.491	37065.45
728.833	37120.59
729.175	36889.19
729.516	36742.75
729.858	36939.35
730.199	36846.93
730.541	36917.66
730.882	36606.93
731.224	36748.17
731.565	36517.9
731.906	36355.87
732.248	36446.71
732.589	36427.73
732.93	36141.18
733.271	36205.81
733.612	36104.35
733.953	36076.33
734.294	35892.15
734.635	35767.18
734.976	35944.8
735.317	35622.1
735.658	35649.9
735.999	35594.76
736.339	35493.06
736.68	35631.59
737.021	35412.61
737.361	35352.5
737.702	35533.06
738.042	35331.26
738.383	35221.21
738.723	35241.55
739.063	35093.3
739.404	35051.72
739.744	34929.01
740.084	34711.39
740.424	34954.77
740.764	34714.33
741.104	34839.3
741.444	34642.69
741.784	34636.14
742.124	34665.52
742.464	34523.15
742.804	34563.14
743.143	34277.5
743.483	34300.1
743.823	34074.12
744.162	34046.55
744.502	34151.63
744.841	33936.04
745.181	33895.82
745.52	33848.81
745.86	33842.71
746.199	33694.69
746.538	33569.27
746.877	33657.63
747.216	33621.7
747.556	33483.17
747.895	33551.19
748.234	33298.77
748.573	33300.58
748.911	33138.55
749.25	33127.02
749.589	33017.87
749.928	33068.49
750.267	32941.94
750.605	32961.83
750.944	32801.38
751.283	32765.45
751.621	32707.15
751.96	32520.26
752.298	32492.24
752.636	32418.12
752.975	32240.27
753.313	32270.78
753.651	32232.13
753.989	32093.61
754.327	32065.13
754.666	31794.4
755.004	31982.87
755.342	31911.01
755.679	31743.33
756.017	31601.19
756.355	31634.18
756.693	31494.98
757.031	31411.14
757.368	31214.31
757.706	31288.65
758.044	31244.59
758.381	31160.52
758.719	30997.14
759.056	30979.96
759.394	30821.1
759.731	30689.35
760.068	30606.64
760.405	30520.31
760.743	30425.63
761.08	30382.01
761.417	30217.95
761.754	30217.27
762.091	30032.19
762.428	29880.56
762.765	29785.19
763.102	29804.63
763.438	29722.14
763.775	29497.97
764.112	29578.42
764.449	29551.3
764.785	29375.71
765.122	29086.68
765.458	28955.61
765.795	28989.28
766.131	28969.39
766.467	28940.24
766.804	28591.55
767.14	28512
767.476	28539.57
767.812	28340.48
768.148	28281.73
768.485	28121.96
768.821	28009.87
769.157	27938.01
769.492	27867.5
769.828	27779.59
770.164	27553.84
770.5	27549.54
770.836	27493.5
771.171	27332.15
771.507	27305.48
771.842	27032.72
772.178	27040.63
772.513	26965.38
772.849	26801.77
773.184	26666.63
773.519	26628.44
773.855	26474.54
774.19	26380.99
774.525	26161.78
774.86	26214.89
775.195	26183.7
775.53	26013.77
775.865	25890.6
776.2	25687.45
776.535	25536.49
776.87	25547.11
777.205	25372.88
777.539	25192.32
777.874	25325.42
778.209	24967.24
778.543	25075.03
778.878	24887.69
779.212	24879.78
779.547	24627.81
779.881	24779
780.215	24613.35
780.55	24613.58
780.884	24378.55
781.218	24232.34
781.552	24353.02
781.886	24188.28
782.22	23954.61
782.554	23901.28
782.888	23636.88
783.222	23616.99
783.556	23482.53
783.889	23430.1
784.223	23255.65
784.557	23205.48
784.89	23240.5
785.224	23052.49
785.557	23023.56
785.891	22788.54
786.224	22920.51
786.558	22704.47
786.891	22590.13
787.224	22527.76
787.557	22425.61
787.891	22412.5
788.224	22296.12
788.557	22266.29
788.89	22302.68
789.223	22214.77
789.556	22073.53
789.888	21979.07
790.221	21916.47
790.554	21761
790.887	21636.93
791.219	21620.66
791.552	21639.19
791.884	21460.44
792.217	21409.14
792.549	21255.02
792.882	21134.8
793.214	21026.1
793.546	20981.81
793.879	21002.6
794.211	20761.7
794.543	20839.89
794.875	20761.25
795.207	20682.61
795.539	20671.08
795.871	20643.96
796.203	20360.81
796.535	20288.04
796.867	20321.26
797.198	20156.52
797.53	20192.68
797.862	20059.57
798.193	20063.41
798.525	19851.67
798.856	20000.36
799.188	19702.97
799.519	19631.33
799.85	19490.77
800.182	19589.98
800.513	19476.99
800.844	19387.95
801.175	19348.63
801.506	19270.67
801.837	19206.94
802.168	19077.68
802.499	19046.49
802.83	19007.4
803.161	18928.75
803.491	18874.74
803.822	18873.16
804.153	18767.63
804.483	18663.22
804.814	18521.76
805.145	18500.97
805.475	18454.42
805.805	18446.51
806.136	18419.61
806.466	18340.29
806.796	18329
807.126	18219.62
807.457	18099.17
807.787	18081.32
808.117	18021.66
808.447	17923.36
808.777	17982.79
809.107	17883.81
809.436	17847.65
809.766	17844.71
810.096	17795.22
810.426	17814.66
810.755	17736.24
811.085	17628.22
811.414	17592.29
811.744	17407.66
812.073	17406.53
812.403	17460.54
812.732	17301.9
813.061	17314.33
813.39	17134.68
813.719	17076.15
814.049	17150.95
814.378	17095.13
814.707	17039.09
815.036	16964.74
815.365	16820.11
815.693	16708.02
816.022	16712.99
816.351	16767.23
816.68	16591.19
817.008	16697.4
817.337	16468.93
817.665	16463.06
817.994	16464.41
818.322	16464.19
818.651	16350.97
818.979	16261.48
819.307	16377.86
819.636	16269.39
819.964	16115.49
820.292	16201.82
820.62	16195.04
820.948	16150.97
821.276	16077.3
821.604	16100.35
821.932	16164.31
822.259	16111.88
822.587	15970.64
822.915	15988.72
823.243	16053.12
823.57	16016.97
823.898	15978.32
824.225	15840.02
824.553	15998.89
824.88	16056.51
825.207	15953.92
825.535	16003.63
825.862	16009.73
826.189	15918.44
826.516	15936.06
826.843	16017.19
827.17	16015.16
827.497	16016.29
827.824	15964.31
828.151	15979.68
828.478	15852.68
828.805	15927.25
829.131	15796.18
829.458	15854.48
829.785	15862.85
830.111	15888.83
830.438	15938.78
830.764	15959.79
831.09	15900.36
831.417	15832.79
831.743	15850.19
832.069	15751.66
832.395	15731.78
832.722	15713.92
833.048	15805.22
833.374	15855.39
833.7	15675.51
834.026	15771.32
834.351	15706.92
834.677	15669.63
835.003	15685.22
835.329	15657.43
835.654	15681.61
835.98	15607.94
836.306	15650.42
836.631	15540.14
836.956	15562.51
837.282	15562.29
837.607	15463.99
837.932	15377.21
838.258	15415.17
838.583	15410.2
838.908	15367.27
839.233	15400.94
839.558	15346.48
839.883	15284.1
840.208	15197.78
840.533	15162.53
840.858	15182.19
841.182	15288.4
841.507	15212.24
841.832	15149.19
842.156	15153.03
842.481	15065.35
842.805	15042.75
843.13	15017.22
843.454	14937.9
843.778	14792.14
844.103	14824.91
844.427	14786.26
844.751	14826.71
845.075	14771.8
845.399	14768.86
845.723	14596.44
846.047	14614.52
846.371	14499.49
846.695	14530.45
847.019	14415.2
847.343	14328.2
847.666	14214.08
847.99	14185.38
848.313	14118.48
848.637	14115.55
848.96	14051.37
849.284	13957.58
849.607	14021.09
849.931	13926.4
850.254	13796.23
850.577	13782.45
850.9	13601.89
851.223	13596.46
851.546	13566.63
851.869	13548.1
852.192	13520.53
852.515	13463.59
852.838	13457.26
853.161	13427.66
853.483	13382.91
853.806	13281.22
854.129	13206.19
854.451	13249.13
854.774	13159.64
855.096	13080.77
855.419	13090.49
855.741	13071.96
856.063	12956.48
856.385	12924.17
856.708	12911.96
857.03	12874.22
857.352	12911.06
857.674	12815.69
857.996	12804.39
858.318	12704.06
858.64	12724.17
858.961	12657.51
859.283	12575.7
859.605	12560.79
859.926	12544.97
860.248	12564.63
860.57	12495.93
860.891	12505.87
861.212	12463.61
861.534	12474.46
861.855	12454.12
862.176	12358.53
862.498	12353.79
862.819	12301.36
863.14	12264.3
863.461	12293.67
863.782	12289.15
864.103	12257.97
864.424	12186.56
864.745	12134.58
865.065	12122.15
865.386	12107.92
865.707	12079.22
866.027	12115.6
866.348	12027.47
866.668	12129.84
866.989	12047.35
867.309	11893.01
867.63	11988.82
867.95	11957.64
868.27	11874.02
868.59	11926
868.91	11855.04
869.23	11876.28
869.55	11801.94
869.87	11969.61
870.19	11899.79
870.51	11867.92
870.83	11865.21
871.15	11734.14
871.469	11763.52
871.789	11755.38
872.109	11668.38
872.428	11693.01
872.748	11726.23
873.067	11601.04
873.386	11697.98
873.706	11645.56
874.025	11562.85
874.344	11465.9
874.663	11557.42
874.982	11500.7
875.301	11505.9
875.62	11486.01
875.939	11461.61
876.258	11499.57
876.577	11401.27
876.896	11428.84
877.214	11432.68
877.533	11392.91
877.852	11372.57
878.17	11418.44
878.489	11391.1
878.807	11316.98
879.125	11323.08
879.444	11355.85
879.762	11196.53
880.08	11296.64
880.398	11192.23
880.716	11227.71
881.034	11186.58
881.352	11210.09
881.67	11208.5
881.988	11151.33
882.306	11092.12
882.624	11166.92
882.941	11128.28
883.259	11058
883.577	10989.08
883.894	10972.35
884.212	10954.05
884.529	10953.82
884.846	10971.45
885.164	10920.38
885.481	10877.67
885.798	10928.74
886.115	10800.38
886.432	10784.56
886.75	10748.18
887.067	10775.75
887.383	10691.91
887.7	10658.46
888.017	10651.46
888.334	10699.82
888.651	10594.96
888.967	10599.26
889.284	10511.57
889.6	10593.38
889.917	10508.41
890.233	10443.1
890.55	10434.97
890.866	10400.84
891.182	10390.9
891.498	10382.31
891.815	10295.08
892.131	10333.27
892.447	10328.3
892.763	10201.75
893.079	10212.6
893.395	10132.37
893.71	10142.54
894.026	10161.07
894.342	10123.34
894.657	10041.76
894.973	10046.5
895.289	10067.97
895.604	9970.35
895.92	9971.25
896.235	9912.95
896.55	9942.32
896.865	9852.16
897.181	9848.77
897.496	9895.77
897.811	9810.12
898.126	9745.27
898.441	9733.52
898.756	9665.49
899.071	9673.4
899.386	9619.62
899.7	9550.02
900.015	9520.87
900.33	9436.12
900.644	9510.02
900.959	9495.1
901.273	9451.71
901.588	9385.28
901.902	9356.12
902.216	9333.07
902.531	9372.62
902.845	9301.89
903.159	9172.85
903.473	9171.95
903.787	9110.71
904.101	9123.59
904.415	9091.95
904.729	9059.86
905.042	8951.39
905.356	8939.64
905.67	9003.36
905.984	8975.34
906.297	8968.11
906.611	8942.58
906.924	8919.53
907.237	8782.35
907.551	8839.08
907.864	8782.35
908.177	8748.68
908.491	8762.47
908.804	8670.94
909.117	8658.74
909.43	8508.01
909.743	8430.27
910.056	8539.42
910.368	8468.69
910.681	8465.07
910.994	8385.98
911.307	8439.76
911.619	8301.24
911.932	8380.56
912.244	8352.99
912.557	8281.12
912.869	8267.11
913.181	8141.47
913.494	8201.8
913.806	8133.11
914.118	8075.48
914.43	8038.87
914.742	8040.9
915.054	8009.27
915.366	7926.11
915.678	7915.26
915.99	7895.15
916.302	7837.29
916.613	7817.63
916.925	7783.96
917.236	7799.78
917.548	7685.43
917.859	7726.34
918.171	7614.47
918.482	7597.98
918.794	7619.45
919.105	7515.04
919.416	7525.66
919.727	7528.15
920.038	7415.16
920.349	7372.45
920.66	7344.88
920.971	7416.51
921.282	7362.05
921.593	7304.43
921.903	7264.88
922.214	7259.91
922.525	7214.49
922.835	7153.7
923.146	7128.84
923.456	7128.61
923.767	7056.75
924.077	7092.45
924.387	7039.35
924.697	6971.55
925.008	6995.73
925.318	6929.97
925.628	6958
925.938	6873.25
926.248	6831.67
926.558	6842.07
926.867	6786.02
927.177	6772.92
927.487	6762.29
927.796	6689.3
928.106	6631.45
928.416	6675.06
928.725	6646.14
929.034	6586.25
929.344	6611.11
929.653	6563.66
929.962	6503.09
930.271	6465.58
930.581	6504.67
930.89	6425.58
931.199	6422.87
931.508	6390.78
931.817	6360.27
932.125	6375.19
932.434	6381.96
932.743	6241.4
933.051	6234.85
933.36	6204.12
933.669	6109.88
933.977	6147.85
934.286	6219.03
934.594	6123.89
934.902	6012.26
935.21	6042.09
935.519	5982.65
935.827	6024.91
936.135	5957.8
936.443	5927.97
936.751	5948.98
937.059	5911.47
937.367	5925.71
937.674	5886.38
937.982	5892.26
938.29	5833.28
938.597	5777.46
938.905	5695.2
939.213	5680.29
939.52	5683.23
939.827	5688.88
940.135	5585.38
940.442	5573.85
940.749	5592.61
941.056	5627.63
941.363	5525.94
941.67	5551.7
941.977	5475.1
942.284	5453.4
942.591	5459.5
942.898	5459.73
943.205	5394.87
943.511	5390.35
943.818	5384.7
944.125	5353.74
944.431	5284.37
944.738	5311.03
945.044	5273.52
945.35	5302.22
945.657	5232.62
945.963	5196.69
946.269	5164.6
946.575	5191.49
946.881	5177.93
947.187	5136.8
947.493	5068.55
947.799	5080.08
948.105	5055.45
948.41	5011.38
948.716	4991.95
949.022	4958.95
949.327	4971.83
949.633	4919.4
949.938	4895.22
950.244	4871.04
950.549	4884.6
950.854	4885.06
951.16	4883.47
951.465	4823.59
951.77	4780.43
952.075	4758.28
952.38	4753.76
952.685	4697.04
952.99	4647.1
953.294	4688
953.599	4686.42
953.904	4629.02
954.209	4586.76
954.513	4588.79
954.818	4543.82
955.122	4559.87
955.426	4556.48
955.731	4527.32
956.035	4496.59
956.339	4487.1
956.643	4494.1
956.948	4458.4
957.252	4405.97
957.556	4380.44
957.86	4383.6
958.163	4355.35
958.467	4332.08
958.771	4312.87
959.075	4310.83
959.378	4281
959.682	4283.49
959.985	4248.46
960.289	4273.32
960.592	4231.06
960.896	4207.11
961.199	4190.38
961.502	4154
961.805	4145.41
962.108	4155.36
962.411	4125.08
962.714	4048.92
963.017	4109.26
963.32	4100.22
963.623	4065.87
963.926	4019.77
964.228	3990.39
964.531	3998.98
964.833	4004.17
965.136	3950.84
965.438	3887.34
965.741	3859.77
966.043	3871.3
966.345	3878.53
966.648	3836.95
966.95	3860
967.252	3831.98
967.554	3833.11
967.856	3805.54
968.158	3772.54
968.46	3765.31
968.761	3716.95
969.063	3738.42
969.365	3730.06
969.666	3705.43
969.968	3665.65
970.269	3677.18
970.571	3668.36
970.872	3630.85
971.174	3603.73
971.475	3651.87
971.776	3631.08
972.077	3601.47
972.378	3559.21
972.679	3578.42
972.98	3526.22
973.281	3511.76
973.582	3504.3
973.883	3499.33
974.183	3470.18
974.484	3475.6
974.785	3415.49
975.085	3400.8
975.386	3413
975.686	3406.45
975.986	3369.61
976.287	3370.74
976.587	3302.72
976.887	3347.92
977.187	3320.8
977.487	3303.18
977.787	3262.27
978.087	3269.5
978.387	3240.58
978.687	3229.51
978.987	3223.63
979.286	3214.36
979.586	3180.02
979.885	3169.39
980.185	3133.24
980.484	3153.8
980.784	3170.75
981.083	3121.71
981.382	3095.05
981.682	3113.58
981.981	3071.54
982.28	3086.68
982.579	3038.32
982.878	3044.43
983.177	3044.88
983.475	2997.2
983.774	2988.38
984.073	3022.05
984.372	2989.74
984.67	2918.78
984.969	3009.17
985.267	2979.34
985.566	2930.08
985.864	2914.03
986.162	2900.25
986.461	2888.27
986.759	2893.02
987.057	2818.22
987.355	2846.24
987.653	2832
987.951	2812.79
988.249	2791.32
988.547	2806.92
988.844	2774.15
989.142	2778.67
989.44	2737.77
989.737	2723.53
990.035	2703.87
990.332	2722.4
990.63	2700.48
990.927	2697.32
991.224	2652.8
991.521	2661.16
991.819	2641.5
992.116	2677.2
992.413	2633.14
992.71	2638.33
993.006	2604.21
993.303	2611.89
993.6	2612.35
993.897	2563.76
994.193	2571.9
994.49	2523.54
994.787	2495.74
995.083	2507.94
995.379	2487.15
995.676	2515.4
995.972	2470.66
996.268	2449.41
996.565	2441.05
996.861	2411.45
997.157	2445.35
997.453	2434.27
997.749	2403.76
998.044	2378.91
998.34	2368.74
998.636	2361.28
998.932	2330.55
999.227	2350.88
999.523	2313.15
999.818	2302.98
1000.114	2306.82
1000.409	2283.77
1000.704	2274.28
1001	2257.1
1001.295	2254.39
1001.59	2220.94
1001.885	2248.06
1002.18	2227.72
1002.475	2179.36
1002.77	2197.89
1003.065	2165.35
1003.359	2149.76
1003.654	2148.4
1003.949	2139.82
1004.243	2142.53
1004.538	2146.14
1004.832	2110.44
1005.127	2119.48
1005.421	2082.87
1005.715	2063.66
1006.009	2087.61
1006.304	2050.33
1006.598	2038.8
1006.892	2076.54
1007.186	2033.38
1007.48	2022.31
1007.773	2009.2
1008.067	1983.44
1008.361	1956.32
1008.655	1925.58
1008.948	1955.87
1009.242	1931.91
1009.535	1925.58
1009.829	1902.31
1010.122	1898.69
1010.415	1905.02
1010.708	1901.18
1011.001	1868.64
1011.295	1891.69
1011.588	1846.94
1011.881	1809.43
1012.173	1827.28
1012.466	1801.52
1012.759	1776.44
1013.052	1804.91
1013.344	1775.31
1013.637	1743.22
1013.93	1782.99
1014.222	1767.85
1014.514	1727.4
1014.807	1731.24
1015.099	1700.96
1015.391	1716.32
1015.683	1704.12
1015.976	1688.3
1016.268	1667.74
1016.56	1663.22
1016.851	1703.44
1017.143	1631.13
1017.435	1615.76
1017.727	1632.94
1018.018	1599.72
1018.31	1601.07
1018.602	1599.04
1018.893	1588.19
1019.185	1550.45
1019.476	1527.18
1019.767	1574.41
1020.058	1524.01
1020.35	1510
1020.641	1497.35
1020.932	1516.1
1021.223	1487.4
1021.514	1506.16
1021.804	1493.28
1022.095	1461.87
1022.386	1466.84
1022.677	1430.91
1022.967	1470.23
1023.258	1407.41
1023.548	1433.85
1023.839	1443.79
1024.129	1395.43
1024.419	1372.15
1024.709	1365.83
1025	1378.71
1025.29	1359.95
1025.58	1358.82
1025.87	1325.83
1026.16	1321.99
1026.449	1359.5
1026.739	1338.03
1027.029	1317.01
1027.319	1293.06
1027.608	1268.43
1027.898	1289.9
1028.187	1284.02
1028.477	1296.67
1028.766	1256.68
1029.055	1238.15
1029.344	1216.23
1029.634	1255.55
1029.923	1227.98
1030.212	1209.45
1030.501	1232.95
1030.79	1203.12
1031.078	1162.89
1031.367	1178.94
1031.656	1168.99
1031.945	1166.51
1032.233	1158.6
1032.522	1172.16
1032.81	1154.31
1033.099	1146.85
1033.387	1170.8
1033.675	1113.85
1033.963	1121.99
1034.251	1122.89
1034.54	1117.47
1034.828	1099.62
1035.116	1096.91
1035.403	1077.02
1035.691	1060.52
1035.979	1030.47
1036.267	1039.96
1036.554	1051.48
1036.842	1040.64
1037.129	1070.01
1037.417	1054.65
1037.704	1022.78
1037.992	1006.51
1038.279	1019.39
1038.566	1010.35
1038.853	1010.35
1039.14	1010.35
