Data from foil_FLMS001491_031.txt Node
Date: Tue Feb 07 11:26:14 GMT 2017
User: dcchb
Spectrometer: FLMS00149
Trigger mode: 0
Integration Time (sec): 2.000000E-2
Scans to average: 10
Electric dark correction enabled: true
Nonlinearity correction enabled: false
Boxcar width: 0
XAxis mode: Wavelengths
Number of Pixels in Spectrum: 2048
>>>>>Begin Spectral Data<<<<<
341.393	-2.15
341.776	-2.15
342.16	-2.15
342.543	-62.03
342.927	-52.54
343.31	-75.59
343.693	-89.38
344.077	-64.52
344.46	-54.35
344.843	-63.61
345.226	-55.25
345.61	-8.47
345.993	-36.5
346.376	2.37
346.759	23.39
347.142	31.3
347.525	45.31
347.908	52.99
348.291	73.78
348.674	107.45
349.057	111.07
349.44	118.08
349.823	147
350.206	186.1
350.588	269.71
350.971	272.42
351.354	293.44
351.737	315.13
352.119	326.21
352.502	339.31
352.884	337.28
353.267	363.95
353.65	383.15
354.032	395.36
354.414	373.44
354.797	406.2
355.179	437.39
355.562	417.28
355.944	416.37
356.326	413.44
356.709	433.1
357.091	418.41
357.473	444.62
357.855	427.22
358.238	462.7
358.62	470.61
359.002	407.11
359.384	450.04
359.766	443.72
360.148	446.43
360.53	449.82
360.912	457.73
361.294	447.11
361.676	469.03
362.057	443.49
362.439	447.33
362.821	452.08
363.203	483.72
363.584	449.82
363.966	472.42
364.348	461.8
364.729	463.83
365.111	457.05
365.493	466.32
365.874	457.95
366.256	467.9
366.637	444.85
367.019	455.02
367.4	470.38
367.781	470.16
368.163	482.59
368.544	454.34
368.925	484.85
369.306	485.98
369.688	489.37
370.069	496.6
370.45	508.35
370.831	511.06
371.212	520.1
371.593	486.88
371.974	535.01
372.355	510.38
372.736	543.15
373.117	505.86
373.498	523.04
373.879	508.57
374.26	512.19
374.641	501.79
375.021	507.44
375.402	534.11
375.783	556.71
376.163	565.97
376.544	561.45
376.925	551.28
377.305	558.06
377.686	581.11
378.066	571.62
378.447	578.18
378.827	587.44
379.208	607.55
379.588	609.36
379.968	603.26
380.349	633.77
380.729	617.27
381.109	636.71
381.489	616.82
381.87	636.48
382.25	636.71
382.63	635.12
383.01	650.94
383.39	652.53
383.77	673.32
384.15	675.58
384.53	689.13
384.91	679.19
385.29	680.32
385.67	716.7
386.049	725.74
386.429	735.46
386.809	745.63
387.189	735.46
387.568	739.75
387.948	749.92
388.328	734.56
388.707	766.19
389.087	779.08
389.466	792.86
389.846	804.84
390.225	808.45
390.605	833.99
390.984	846.42
391.363	831.73
391.743	843.93
392.122	861.33
392.501	872.18
392.881	892.74
393.26	896.36
393.639	920.54
394.018	910.82
394.397	934.78
394.776	936.59
395.155	930.26
395.534	931.39
395.913	958.51
396.292	972.06
396.671	992.63
397.05	986.53
397.429	984.72
397.808	1013.87
398.186	1005.96
398.565	1050.48
398.944	1015.68
399.323	1051.84
399.701	1042.57
400.08	1070.37
400.458	1090.25
400.837	1087.32
401.215	1115.56
401.594	1095.45
401.972	1149.91
402.351	1146.3
402.729	1160.76
403.107	1160.08
403.486	1171.16
403.864	1201.66
404.242	1210.25
404.62	1212.06
404.999	1265.84
405.377	1263.36
405.755	1262
406.133	1285.05
406.511	1345.61
406.889	1316.01
407.267	1328.44
407.645	1350.81
408.023	1345.39
408.401	1391.26
408.779	1397.59
409.156	1400.75
409.534	1419.74
409.912	1476.01
410.29	1508.1
410.667	1516.01
411.045	1557.36
411.422	1560.07
411.8	1559.39
412.178	1600.75
412.555	1638.04
412.933	1647.75
413.31	1677.36
413.687	1704.25
414.065	1709.22
414.442	1743.57
414.819	1758.26
415.197	1774.76
415.574	1793.06
415.951	1823.12
416.328	1850.01
416.705	1862.66
417.082	1847.97
417.46	1901.31
417.837	1916.45
418.214	1945.15
418.591	1914.86
418.967	1978.82
419.344	2014.52
419.721	1988.76
420.098	2003.22
420.475	2004.58
420.852	2101.07
421.228	2087.06
421.605	2120.51
421.982	2177
422.358	2152.37
422.735	2172.94
423.111	2182.43
423.488	2233.27
423.864	2230.34
424.241	2256.1
424.617	2293.61
424.994	2328.19
425.37	2326.83
425.746	2356.89
426.123	2397.34
426.499	2395.98
426.875	2444.79
427.251	2510.78
427.627	2563.89
428.003	2526.83
428.379	2612.93
428.756	2623.77
429.132	2676.88
429.507	2717.1
429.883	2739.7
430.259	2768.85
430.635	2793.94
431.011	2833.94
431.387	2856.99
431.763	2948.28
432.138	2941.96
432.514	3007.49
432.89	3000.94
433.265	3086.36
433.641	3172.23
434.016	3165.23
434.392	3197.77
434.767	3231.67
435.143	3296.98
435.518	3318.44
435.894	3334.04
436.269	3394.6
436.644	3461.26
437.02	3431.21
437.395	3465.33
437.77	3541.04
438.145	3595.72
438.52	3610.19
438.895	3662.84
439.271	3647.7
439.646	3736.06
440.021	3741.26
440.395	3749.62
440.77	3770.86
441.145	3828.03
441.52	3907.13
441.895	3879.11
442.27	3929.28
442.645	3936.96
443.019	4007.92
443.394	3969.95
443.769	4045.66
444.143	4013.79
444.518	4143.28
444.892	4084.98
445.267	4155.94
445.641	4196.84
446.016	4197.74
446.39	4180.34
446.764	4247.91
447.139	4253.33
447.513	4340.79
447.887	4327.91
448.262	4334.69
448.636	4406.55
449.01	4449.71
449.384	4499.43
449.758	4514.57
450.132	4587.79
450.506	4651.74
450.88	4657.62
451.254	4635.47
451.628	4733.1
452.002	4779.42
452.376	4844.28
452.75	4861.23
453.123	4901.23
453.497	4966.99
453.871	4978.74
454.244	5166.76
454.618	5170.6
454.992	5201.78
455.365	5236.59
455.739	5386.19
456.112	5430.93
456.486	5425.51
456.859	5525.17
457.232	5598.38
457.606	5628.21
457.979	5678.61
458.352	5807.19
458.725	5885.61
459.099	5906.62
459.472	6044.93
459.845	6102.1
460.218	6112.27
460.591	6206.05
460.964	6234.3
461.337	6396.55
461.71	6528.08
462.083	6596.55
462.456	6607.62
462.829	6640.16
463.201	6797.9
463.574	6764
463.947	6853.27
464.32	7084.67
464.692	7083.77
465.065	7103.43
465.438	7262.52
465.81	7392.24
466.183	7429.3
466.555	7613.47
466.928	7653.47
467.3	7668.84
467.672	7827.7
468.045	7965.1
468.417	7993.12
468.789	8126.68
469.161	8186.34
469.534	8321.25
469.906	8561.92
470.278	8532.54
470.65	8669.72
471.022	8843.27
471.394	8983.15
471.766	9038.07
472.138	9150.83
472.51	9408
472.882	9513.31
473.253	9633.98
473.625	9744.26
473.997	9903.36
474.369	10070.81
474.74	10116.68
475.112	10355.09
475.484	10484.36
475.855	10671.47
476.227	10822.2
476.598	11127.73
476.97	11193.72
477.341	11445.91
477.713	11584.89
478.084	11612.91
478.455	12042.28
478.827	12128.61
479.198	12443.4
479.569	12450.41
479.94	12753.68
480.311	12975.37
480.682	13273.44
481.053	13556.14
481.424	13684.72
481.795	13854.66
482.166	14042.68
482.537	14213.3
482.908	14489.68
483.279	14708.65
483.65	14946.16
484.021	15249.66
484.391	15459.37
484.762	15549.31
485.133	15709.76
485.503	15872.69
485.874	16318.1
486.244	16509.28
486.615	16864.53
486.985	16944.3
487.356	17308.36
487.726	17336.61
488.097	17900.66
488.467	17723.04
488.837	18144.72
489.207	18393.53
489.578	18724.82
489.948	18872.84
490.318	19065.6
490.688	19239.16
491.058	19416.1
491.428	19803.21
491.798	20025.58
492.168	20364.1
492.538	20311.44
492.908	20633.02
493.278	20934.25
493.648	21022.16
494.017	21420.57
494.387	21480.23
494.757	21681.58
495.126	21813.1
495.496	21997.73
495.866	22109.59
496.235	22336.7
496.605	22549.35
496.974	22729.46
497.344	22846.74
497.713	23014.42
498.082	23157.02
498.452	23462.55
498.821	23481.53
499.19	23710.68
499.559	23914.96
499.928	24080.84
500.298	24267.72
500.667	24446.25
501.036	24535.06
501.405	24689.86
501.774	24796.07
502.143	25066.8
502.512	25184.99
502.88	25413.68
503.249	25438.77
503.618	25756.72
503.987	25770.73
504.356	26126.21
504.724	26198.07
505.093	26339.53
505.462	26476.93
505.83	26702.69
506.199	26888.45
506.567	27158.04
506.936	27052.74
507.304	27484.14
507.672	27433.06
508.041	27741.76
508.409	28090.45
508.777	28083.22
509.145	28338.35
509.514	28328.41
509.882	28809.3
510.25	28855.17
510.618	29094.72
510.986	29127.71
511.354	29389.17
511.722	29789.16
512.09	29898.08
512.458	29789.16
512.826	30169.49
513.193	30423.95
513.561	30521.34
513.929	30762.47
514.297	31053.08
514.664	31338.05
515.032	31470.7
515.4	31667.08
515.767	31867.98
516.135	32079.5
516.502	32092.15
516.869	32669.76
517.237	32772.58
517.604	32685.58
517.972	33136.64
518.339	33342.74
518.706	33429.97
519.073	33670.87
519.44	33912.67
519.808	34231.76
520.175	34449.6
520.542	34851.17
520.909	35066.99
521.276	35031.28
521.643	35420.2
522.009	35676.46
522.376	35842.79
522.743	36082.33
523.11	36533.39
523.477	36826.49
523.843	37014.51
524.21	37440.94
524.577	37704.21
524.943	37925.9
525.31	38009.74
525.676	38536.5
526.043	38657.63
526.409	38905.08
526.776	39392.98
527.142	39406.99
527.508	39683.14
527.874	40024.37
528.241	40263.91
528.607	40493.74
528.973	40830.68
529.339	40851.47
529.705	41256.43
530.071	41527.38
530.437	41699.58
530.803	41820.48
531.169	42189.29
531.535	42087.82
531.901	42277.65
532.267	42557.19
532.632	42880.79
532.998	43040.56
533.364	43326.21
533.73	43542.24
534.095	43723.71
534.461	43920.31
534.826	44074.89
535.192	44247.99
535.557	44642.78
535.923	44640.3
536.288	44676.45
536.653	44993.96
537.019	44785.83
537.384	45217.91
537.749	45490.67
538.114	45489.76
538.479	45656.54
538.845	45797.78
539.21	45923.65
539.575	46175.62
539.94	46174.94
540.305	46472.56
540.67	46589.85
541.034	46704.42
541.399	46910.74
541.764	46933.34
542.129	47258.76
542.494	47329.26
542.858	47468.02
543.223	47538.3
543.587	47734.68
543.952	47819.87
544.316	47912.07
544.681	48030.94
545.045	48181.44
545.41	48399.74
545.774	48547.54
546.138	48538.72
546.503	48833.86
546.867	48743.01
547.231	49267.97
547.595	49229.78
547.959	49331.47
548.324	49386.16
548.688	49660.5
549.052	49672.71
549.416	49759.48
549.779	49906.6
550.143	49862.98
550.507	50251.45
550.871	50452.57
551.235	50447.83
551.599	50792.45
551.962	50683.75
552.326	50914.03
552.689	51185.43
553.053	51076.74
553.417	51163.06
553.78	51662.94
554.143	51539.32
554.507	51665.42
554.87	51669.94
555.234	52090.72
555.597	51822.93
555.96	52054.34
556.323	52311.73
556.686	52322.35
557.05	52632.85
557.413	52787.88
557.776	52809.35
558.139	53053.18
558.502	53130.69
558.865	53206.4
559.228	53443.23
559.59	53515.99
559.953	53617.46
560.316	53983.55
560.679	53944.23
561.041	54140.84
561.404	54266.71
561.767	54420.6
562.129	54437.33
562.492	54760.03
562.854	54732.46
563.217	54765.23
563.579	54917.77
563.941	55113.47
564.304	55216.29
564.666	55472.55
565.028	55506
565.39	55633.68
565.753	55763.39
566.115	55860.79
566.477	55908.02
566.839	56056.72
567.201	56215.13
567.563	56331.06
567.925	56447.67
568.287	56517.72
568.648	56622.58
569.01	56795
569.372	56896.92
569.734	56832.52
570.095	57042.23
570.457	57145.05
570.819	57151.6
571.18	57239.51
571.542	57359.96
571.903	57387.53
572.265	57473.86
572.626	57609.22
572.987	57682.89
573.349	57823.9
573.71	57987.51
574.071	57949.32
574.432	57992.26
574.794	58153.16
575.155	58144.57
575.516	58005.82
575.877	58198.81
576.238	58334.17
576.599	58355.19
576.96	58391.12
577.32	58424.34
577.681	58516.31
578.042	58519.25
578.403	58551.79
578.763	58540.04
579.124	58645.12
579.485	58712.02
579.845	58798.57
580.206	58755.4
580.566	58785.69
580.927	58809.64
581.287	58970.09
581.648	58836.98
582.008	58963.31
582.368	58957.88
582.728	58948.85
583.089	58973.93
583.449	58982.97
583.809	59016.87
584.169	59082.63
584.529	59019.58
584.889	59174.83
585.249	59065.9
585.609	58955.17
585.969	59056.41
586.329	59044.44
586.688	59089.41
587.048	59119.69
587.408	59084.89
587.768	59072.46
588.127	59073.36
588.487	59069.75
588.846	59228.61
589.206	59003.31
589.565	59069.97
589.925	59219.35
590.284	59143.87
590.643	59154.94
591.003	59174.38
591.362	59308.61
591.721	59270.64
592.08	59240.36
592.44	59270.87
592.799	59284.2
593.158	59181.83
593.517	59158.11
593.876	59148.39
594.235	59106.58
594.593	59163.3
594.952	59269.97
595.311	59221.38
595.67	59232.68
596.029	59440.58
596.387	59377.31
596.746	59485.78
597.104	59317.42
597.463	59323.98
597.822	59443.75
598.18	59361.72
598.538	59345.9
598.897	59536.85
599.255	59353.81
599.613	59651.88
599.972	59491.43
600.33	59611.43
600.688	59450.3
601.046	59469.06
601.404	59603.29
601.762	59561.26
602.12	59707.24
602.478	59637.64
602.836	59690.29
603.194	59560.13
603.552	59609.62
603.91	59580.24
604.268	59693.46
604.625	59692.55
604.983	59676.06
605.341	59639.22
605.698	59770.74
606.056	59812.33
606.413	59774.59
606.771	59811.87
607.128	59917.86
607.485	59797.41
607.843	59841.03
608.2	59972.77
608.557	60049.61
608.914	59973
609.272	60095.71
609.629	60149.72
609.986	60220
610.343	60105.2
610.7	60289.83
611.057	60222.48
611.414	60156.72
611.771	60213.9
612.127	60321.69
612.484	60297.06
612.841	60373.21
613.198	60275.14
613.554	60276.04
613.911	60452.08
614.267	60389.71
614.624	60429.71
614.98	60460.67
615.337	60602.59
615.693	60551.06
616.05	60488.24
616.406	60610.04
616.762	60580.22
617.118	60541.8
617.475	60591.74
617.831	60608.01
618.187	60627.67
618.543	60577.96
618.899	60758.52
619.255	60700.89
619.611	60687.33
619.967	60737.73
620.323	60815.46
620.678	60739.53
621.034	60645.3
621.39	60631.06
621.746	60590.84
622.101	60895.91
622.457	60707.22
622.812	60718.52
623.168	60797.61
623.523	60801.9
623.879	60910.15
624.234	60717.84
624.589	60808.68
624.945	60840.77
625.3	60881.45
625.655	60862.47
626.01	60897.95
626.365	60859.76
626.72	60718.06
627.075	60736.6
627.43	60737.05
627.785	60708.12
628.14	60726.43
628.495	60748.12
628.85	60717.84
629.205	60631.74
629.559	60746.09
629.914	60591.29
630.269	60625.64
630.623	60663.6
630.978	60535.24
631.332	60686.65
631.687	60681.91
632.041	60607.11
632.396	60610.5
632.75	60561.01
633.104	60541.8
633.459	60424.29
633.813	60437.62
634.167	60453.66
634.521	60405.08
634.875	60419.32
635.229	60351.29
635.583	60200.11
635.937	60204.86
636.291	60189.94
636.645	60201.69
636.999	60094.58
637.352	60163.28
637.706	59991.76
638.06	60094.13
638.413	60032.66
638.767	59985.88
639.121	60060.91
639.474	59915.15
639.828	59890.97
640.181	60017.74
640.534	60029.5
640.888	59903.4
641.241	59806
641.594	59842.16
641.947	59927.58
642.301	59773.23
642.654	59829.27
643.007	59717.64
643.36	59746.11
643.713	59730.29
644.066	59827.24
644.419	59561.71
644.771	59373.02
645.124	59021.84
645.477	58950.2
645.83	58772.8
646.182	58804.44
646.535	58775.97
646.888	58913.14
647.24	58750.21
647.593	59037.66
647.945	58978.22
648.298	58664.33
648.65	58647.84
649.002	58620.27
649.355	58660.04
649.707	58547.5
650.059	58612.13
650.411	58852.12
650.763	58884.67
651.115	59112.68
651.467	59109.97
651.819	59063.64
652.171	59036.3
652.523	58975.06
652.875	58988.84
653.227	58878.11
653.578	59050.76
653.93	58860.49
654.282	58772.58
654.633	58744.11
654.985	58758.79
655.337	58768.74
655.688	58802.63
656.039	58869.53
656.391	58623.88
656.742	58658.91
657.094	58663.66
657.445	58728.51
657.796	58624.11
658.147	58648.51
658.498	58563.09
658.849	58655.97
659.2	58571.45
659.551	58574.84
659.902	58604.22
660.253	58491.91
660.604	58599.48
660.955	58443.77
661.306	58537.1
661.656	58479.48
662.007	58473.38
662.358	58475.19
662.708	58447.39
663.059	58410.55
663.409	58277.68
663.76	58414.4
664.11	58423.66
664.461	58519.7
664.811	58393.83
665.161	58370.33
665.511	58261.63
665.862	58304.79
666.212	58313.16
666.562	58243.33
666.912	58225.7
667.262	58197
667.612	58180.05
667.962	58215.53
668.312	58174.18
668.662	58301.4
669.011	58239.03
669.361	58195.42
669.711	58141.64
670.06	58129.66
670.41	58099.83
670.76	58118.36
671.109	58182.54
671.459	58138.25
671.808	57990
672.157	58034.97
672.507	57913.39
672.856	57886.95
673.205	58004.46
673.554	58107.51
673.904	58003.33
674.253	58071.58
674.602	58030.68
674.951	57701.65
675.3	57499.62
675.649	57910.23
675.998	57819.38
676.346	57816.22
676.695	57905.48
677.044	57627.07
677.393	57765.6
677.741	57832.26
678.09	57636.34
678.438	57583.91
678.787	57601.31
679.135	57702.1
679.484	57533.06
679.832	57594.76
680.181	57328.55
680.529	57419.17
680.877	57376.01
681.225	57328.55
681.573	57454.2
681.922	57270.7
682.27	57158.38
682.618	57245.84
682.966	57187.08
683.314	57258.95
683.661	56989.12
684.009	56893.31
684.357	56926.3
684.705	56889.24
685.053	56922.01
685.4	56884.49
685.748	56671.39
686.095	56719.07
686.443	56658.51
686.79	56605.4
687.138	56683.59
687.485	56598.62
687.832	56514.56
688.18	56549.13
688.527	56378.74
688.874	56466.88
689.221	56313.43
689.568	56296.03
689.915	56138.52
690.262	56156.38
690.609	56140.11
690.956	55964.07
691.303	55976.49
691.65	55846.78
691.997	55761.36
692.344	55565.66
692.69	55655.37
693.037	55662.15
693.383	55336.06
693.73	55369.96
694.077	55212.67
694.423	55127.25
694.769	55173.58
695.116	55171.32
695.462	55029.17
695.808	54991.89
696.155	54919.57
696.501	54691.78
696.847	54724.32
697.193	54547.38
697.539	54625.34
697.885	54398.46
698.231	54415.41
698.577	54405.91
698.923	54280.27
699.269	54154.62
699.614	53944.68
699.96	53859.49
700.306	53878.24
700.651	53767.51
700.997	53774.52
701.342	53721.86
701.688	53673.5
702.033	53572.94
702.379	53659.49
702.724	53505.37
703.069	53444.13
703.415	53151.71
703.76	53173.86
704.105	53186.74
704.45	53167.53
704.795	52811.61
705.14	52838.95
705.485	52773.87
705.83	52604.83
706.175	52734.77
706.52	52520.99
706.865	52322.35
707.209	52317.61
707.554	52319.19
707.899	52321.22
708.243	52076.03
708.588	52036.71
708.932	51902.03
709.277	51949.93
709.621	51965.3
709.966	51623.16
710.31	51687.79
710.654	51518.31
710.998	51556.95
711.342	51433.56
711.687	51343.62
712.031	51179.33
712.375	51070.18
712.719	51114.02
713.063	51015.27
713.407	51104.08
713.75	50976.17
714.094	50904.76
714.438	50772.56
714.782	50853.47
715.125	50539.12
715.469	50503.87
715.812	50460.03
716.156	50244.22
716.499	50220.49
716.843	50307.49
717.186	49892.13
717.53	50285.34
717.873	50122.64
718.216	50169.19
718.559	49864.34
718.902	49687.62
719.246	49728.75
719.589	49592.71
719.932	49502.09
720.275	49498.92
720.617	49411.7
720.96	49403.11
721.303	49404.01
721.646	49378.93
721.989	49182.32
722.331	49262.77
722.674	49006.28
723.016	49013.29
723.359	48938.26
723.701	48934.19
724.044	48708.44
724.386	48591.15
724.729	48801.09
725.071	48639.06
725.413	48581.89
725.755	48475.22
726.097	48218.73
726.439	48079.07
726.782	48208.79
727.124	48262.35
727.465	47898.74
727.807	47939.42
728.149	47918.18
728.491	47672.98
728.833	47742.59
729.175	47515.47
729.516	47484.74
729.858	47352.77
730.199	47483.38
730.541	47353.44
730.882	47361.58
731.224	47439.54
731.565	47190.51
731.906	47312.77
732.248	47080.68
732.589	47021.02
732.93	46805.89
733.271	46974.7
733.612	46967.01
733.953	47012.89
734.294	46771.99
734.635	46712.78
734.976	46765.44
735.317	46443.64
735.658	46567.25
735.999	46485.9
736.339	46264.89
736.68	46357.76
737.021	46159.58
737.361	45986.93
737.702	46189.63
738.042	45886.59
738.383	46006.36
738.723	45908.06
739.063	45790.77
739.404	45743.54
739.744	45672.58
740.084	45608.86
740.424	45631.68
740.764	45468.97
741.104	45502.42
741.444	45424.91
741.784	45356.43
742.124	45235.31
742.464	45166.61
742.804	45068.53
743.143	45077.35
743.483	45052.71
743.823	44865.15
744.162	44874.64
744.502	44818.82
744.841	44473.97
745.181	44692.72
745.52	44596
745.86	44655.66
746.199	44420.19
746.538	44217.71
746.877	44276.69
747.216	44281.89
747.556	44118.05
747.895	43952.63
748.234	43960.31
748.573	43961.22
748.911	43822.92
749.25	43797.83
749.589	43659.53
749.928	43690.49
750.267	43771.62
750.605	43458.63
750.944	43324.17
751.283	43321.01
751.621	43409.82
751.96	43178.86
752.298	43095.25
752.636	43085.31
752.975	42796.28
753.313	42669.73
753.651	42841.02
753.989	42564.42
754.327	42539.33
754.666	42252.56
755.004	42300.7
755.342	42314.93
755.679	42221.15
756.017	41993.13
756.355	42159
756.693	41760.14
757.031	41794.95
757.368	41555.63
757.706	41408.29
758.044	41399.93
758.381	41421.62
758.719	41198.58
759.056	41276.32
759.394	41092.59
759.731	40948.87
760.068	40860.51
760.405	40768.98
760.743	40640.17
761.08	40612.15
761.417	40395.44
761.754	40307.08
762.091	40347.98
762.428	40071.15
762.765	39814.43
763.102	39900.76
763.438	39529.24
763.775	39361.34
764.112	39357.27
764.449	39346.2
764.785	39284.5
765.122	38931.74
765.458	38684.29
765.795	38718.42
766.131	38550.06
766.467	38597.29
766.804	38416.73
767.14	38120.01
767.476	38221.48
767.812	37952.56
768.148	37975.16
768.485	37682.51
768.821	37553.25
769.157	37417.89
769.492	37384.21
769.828	37467.38
770.164	36972.25
770.5	36991.46
770.836	37053.15
771.171	36713.95
771.507	36672.82
771.842	36469.66
772.178	36553.28
772.513	36369.55
772.849	36367.29
773.184	36020.18
773.519	35896.8
773.855	35805.5
774.19	35596.69
774.525	35466.07
774.86	35478.73
775.195	35417.49
775.53	35293.87
775.865	35023.6
776.2	34803.94
776.535	34536.61
776.87	34464.74
777.205	34415.48
777.539	34278.08
777.874	34271.3
778.209	33968.71
778.543	33822.27
778.878	33546.8
779.212	33621.83
779.547	33498.67
779.881	33476.75
780.215	33264.1
780.55	33286.7
780.884	33038.79
781.218	32865.69
781.552	32851.23
781.886	32740.04
782.22	32522.2
782.554	32347.51
782.888	32301.18
783.222	32199.04
783.556	32034.3
783.889	31935.77
784.223	31616.68
784.557	31636.12
784.89	31580.3
785.224	31425.28
785.557	31289.01
785.891	31188.22
786.224	31109.8
786.558	31143.93
786.891	30832.3
787.224	30627.1
787.557	30541.46
787.891	30599.53
788.224	30485.19
788.557	30483.15
788.89	30373.78
789.223	30312.99
789.556	30070.28
789.888	29917.74
790.221	29816.28
790.554	29628.26
790.887	29527.47
791.219	29464.42
791.552	29512.33
791.884	29271.21
792.217	29202.73
792.549	29162.06
792.882	28802.52
793.214	28665.35
793.546	28815.63
793.879	28525.92
794.211	28493.15
794.543	28582.41
794.875	28335.19
795.207	28492.47
795.539	28309.43
795.871	28245.7
796.203	27924.58
796.535	27818.59
796.867	27758.71
797.198	27790.12
797.53	27736.33
797.862	27537.02
798.193	27479.39
798.525	27369.11
798.856	27290.92
799.188	27078.27
799.519	27071.94
799.85	26846.41
800.182	26936.35
800.513	26743.82
800.844	26511.28
801.175	26660.65
801.506	26553.09
801.837	26445.07
802.168	26376.37
802.499	26367.1
802.83	26128.24
803.161	25954.23
803.491	26052.54
803.822	26057.73
804.153	25829.72
804.483	25710.4
804.814	25572.77
805.145	25438.77
805.475	25565.32
805.805	25422.95
806.136	25386.34
806.466	25452.78
806.796	25401.7
807.126	25132.79
807.457	25021.83
807.787	25078.78
808.117	25009.4
808.447	24948.61
808.777	24897.54
809.107	24884.2
809.436	24613.7
809.766	24646.02
810.096	24532.8
810.426	24420.71
810.755	24494.38
811.085	24371.45
811.414	24302.07
811.744	24102.53
812.073	24083.55
812.403	24014.4
812.732	23822.31
813.061	23815.31
813.39	23739.6
813.719	23668.64
814.049	23793.39
814.378	23629.32
814.707	23512.04
815.036	23490.34
815.365	23401.08
815.693	23115.89
816.022	23213.51
816.351	23174.19
816.68	23040.86
817.008	23207.41
817.337	22924.48
817.665	22894.43
817.994	22957.93
818.322	22954.54
818.651	22899.62
818.979	22735.79
819.307	22682.91
819.636	22640.2
819.964	22446.08
820.292	22470.71
820.62	22592.97
820.948	22474.55
821.276	22542.57
821.604	22399.07
821.932	22515.45
822.259	22571.04
822.587	22422.57
822.915	22376.25
823.243	22427.77
823.57	22282.46
823.898	22281.56
824.225	22370.82
824.553	22275.46
824.88	22272.97
825.207	22274.33
825.535	22325.18
825.862	22316.59
826.189	22294.44
826.516	22361.56
826.843	22433.42
827.17	22319.53
827.497	22375.8
827.824	22384.84
828.151	22329.47
828.478	22174.45
828.805	22307.32
829.131	22284.05
829.458	22193.88
829.785	22129.7
830.111	22017.16
830.438	22278.85
830.764	22191.62
831.09	22277.27
831.417	22151.85
831.743	22177.38
832.069	22130.6
832.395	22007.9
832.722	22227.78
833.048	22057.61
833.374	22116.82
833.7	21989.37
834.026	21911.63
834.351	21913.44
834.677	21903.49
835.003	21963.6
835.329	22008.57
835.654	21955.02
835.98	21930.61
836.306	21870.05
836.631	21934.45
836.956	21770.39
837.282	21817.62
837.607	21697.62
837.932	21635.7
838.258	21715.47
838.583	21762.7
838.908	21558.19
839.233	21700.11
839.558	21570.85
839.883	21558.64
840.208	21550.96
840.533	21400.23
840.858	21364.75
841.182	21440.45
841.507	21544.86
841.832	21307.12
842.156	21202.27
842.481	21281.59
842.805	21206.34
843.13	21088.37
843.454	21149.16
843.778	21034.36
844.103	20990.07
844.427	21012.89
844.751	21050.86
845.075	20926.12
845.399	20939.68
845.723	20663.98
846.047	20684.99
846.371	20647.71
846.695	20519.57
847.019	20473.25
847.343	20308.73
847.666	20197.77
847.99	20146.48
848.313	20114.61
848.637	20004.11
848.96	19960.49
849.284	19938.12
849.607	19795.07
849.931	19740.16
850.254	19615.42
850.577	19477.57
850.9	19402.77
851.223	19401.86
851.546	19313.28
851.869	19204.81
852.192	19238.7
852.515	19012.95
852.838	18993.96
853.161	19085.03
853.483	18972.72
853.806	18910.12
854.129	18764.59
854.451	18735.89
854.774	18677.14
855.096	18607.08
855.419	18513.75
855.741	18596.46
856.063	18417.48
856.385	18397.14
856.708	18417.93
857.03	18365.05
857.352	18438.5
857.674	18211.84
857.996	18111.05
858.318	18028.34
858.64	17932.52
858.961	18063.82
859.283	18030.37
859.605	17913.99
859.926	17925.29
860.248	17859.53
860.57	17722.13
860.891	17745.41
861.212	17607.79
861.534	17673.77
861.855	17613.89
862.176	17492.31
862.498	17579.99
862.819	17662.7
863.14	17525.3
863.461	17513.78
863.782	17441.01
864.103	17468.58
864.424	17364.85
864.745	17335.7
865.065	17219.1
865.386	17187.68
865.707	17220
866.027	17175.48
866.348	17180.45
866.668	17229.04
866.989	17156.05
867.309	16950.63
867.63	17126.67
867.95	16962.38
868.27	16904.98
868.59	17029.27
868.91	16947.92
869.23	17044.41
869.55	16929.61
869.87	17061.36
870.19	17041.47
870.51	16934.58
870.83	16803.96
871.15	16817.52
871.469	16884.41
871.789	16876.51
872.109	16692.56
872.428	16681.26
872.748	16670.86
873.067	16684.65
873.386	16689.39
873.706	16642.84
874.025	16642.39
874.344	16604.2
874.663	16517.87
874.982	16508.38
875.301	16514.03
875.62	16510.19
875.939	16496.4
876.258	16447.36
876.577	16403.98
876.896	16389.29
877.214	16367.82
877.533	16372.11
877.852	16239.01
878.17	16155.39
878.489	16249.18
878.807	16193.81
879.125	16186.13
879.444	16076.3
879.762	16191.33
880.08	16146.81
880.398	16080.59
880.716	16117.2
881.034	16080.37
881.352	16257.99
881.67	16131.89
881.988	16025.68
882.306	16033.82
882.624	15928.28
882.941	15848.96
883.259	15772.58
883.577	15847.38
883.894	15830.66
884.212	15851.45
884.529	15766.7
884.846	15737.33
885.164	15716.31
885.481	15614.62
885.798	15742.52
886.115	15581.17
886.432	15549.31
886.75	15564.22
887.067	15627.72
887.383	15543.43
887.7	15518.35
888.017	15381.4
888.334	15425.92
888.651	15344.12
888.967	15269.77
889.284	15241.75
889.6	15263.21
889.917	15168.08
890.233	15101.64
890.55	15081.75
890.866	15126.72
891.182	14985.26
891.498	15049.43
891.815	14931.47
892.131	14819.16
892.447	14907.52
892.763	14822.55
893.079	14816.9
893.395	14763.34
893.71	14713.17
894.026	14741.87
894.342	14682.21
894.657	14560.41
894.973	14510.47
895.289	14510.47
895.604	14437.47
895.92	14471.14
896.235	14315.89
896.55	14348.66
896.865	14251.04
897.181	14245.61
897.496	14382.33
897.811	14214.2
898.126	14113.87
898.441	14016.69
898.756	14008.33
899.071	13932.63
899.386	13943.7
899.7	13810.37
900.015	13776.02
900.33	13695.57
900.644	13762.91
900.959	13748
901.273	13630.26
901.588	13602.02
901.902	13591.17
902.216	13451.96
902.531	13438.86
902.845	13451.06
903.159	13419.2
903.473	13273.21
903.787	13227.79
904.101	13200.9
904.415	13116.83
904.729	13137.62
905.042	13102.37
905.356	13063.72
905.67	13075.7
905.984	13030.73
906.297	12954.12
906.611	12901.47
906.924	12893.56
907.237	12786.67
907.551	12793.9
907.864	12702.6
908.177	12687.01
908.491	12497.86
908.804	12479.78
909.117	12415.38
909.43	12376.28
909.743	12324.31
910.056	12369.28
910.368	12356.62
910.681	12233.01
910.994	12271.43
911.307	12109.17
911.619	12070.53
911.932	12020.59
912.244	11960.25
912.557	12025.56
912.869	11939.46
913.181	11826.47
913.494	11830.08
913.806	11772.23
914.118	11711.67
914.43	11659.47
914.742	11621.73
915.054	11561.16
915.366	11537.44
915.678	11538.34
915.99	11437.55
916.302	11336.31
916.613	11363.43
916.925	11328.18
917.236	11355.07
917.548	11186.26
917.859	11242.08
918.171	11138.13
918.482	11030.56
918.794	10989.2
919.105	10914.85
919.416	10832.14
919.727	10858.36
920.038	10786.72
920.349	10784.69
920.66	10743.79
920.971	10676.89
921.282	10733.16
921.593	10550.34
921.903	10624.47
922.214	10546.73
922.525	10541.53
922.835	10523.45
923.146	10471.7
923.456	10387.64
923.767	10378.6
924.077	10313.74
924.387	10218.6
924.697	10185.38
925.008	10177.47
925.318	10143.8
925.628	10099.96
925.938	10009.79
926.248	9951.49
926.558	9883.92
926.867	9869.91
927.177	9903.58
927.487	9860.42
927.796	9700.65
928.106	9730.48
928.416	9676.24
928.725	9696.58
929.034	9593.31
929.344	9573.42
929.653	9598.28
929.962	9429.47
930.271	9433.31
930.581	9366.87
930.89	9374.56
931.199	9259.98
931.508	9323.48
931.817	9252.53
932.125	9167.56
932.434	9210.72
932.743	9107.67
933.051	9106.54
933.36	9021.8
933.669	9011.18
933.977	8958.52
934.286	8930.5
934.594	8920.33
934.902	8831.97
935.21	8757.17
935.519	8718.98
935.827	8710.17
936.135	8697.96
936.443	8631.52
936.751	8604.86
937.059	8610.51
937.367	8544.52
937.674	8541.58
937.982	8472.88
938.29	8449.61
938.597	8455.94
938.905	8293
939.213	8263.62
939.52	8332.32
939.827	8303.17
940.135	8163.51
940.442	8138.88
940.749	8057.08
941.056	8135.49
941.363	8010.75
941.67	8054.59
941.977	7977.53
942.284	7896.18
942.591	8034.93
942.898	7920.81
943.205	7860.92
943.511	7790.64
943.818	7799.46
944.125	7827.03
944.431	7758.1
944.738	7684.2
945.044	7686.24
945.35	7547.71
945.657	7523.53
945.963	7568.05
946.269	7512.46
946.575	7530.54
946.881	7417.09
947.187	7433.14
947.493	7375.51
947.799	7401.5
948.105	7310.88
948.41	7261.62
948.716	7264.33
949.022	7182.07
949.327	7136.42
949.633	7095.75
949.938	7169.19
950.244	7102.98
950.549	7063.2
950.854	6956.31
951.16	6954.51
951.465	6931
951.77	6980.95
952.075	6899.59
952.38	6848.07
952.685	6837.67
952.99	6757.9
953.294	6754.06
953.599	6758.81
953.904	6729.65
954.209	6649.88
954.513	6685.36
954.818	6627.51
955.122	6660.28
955.426	6614.4
955.731	6560.39
956.035	6545.48
956.339	6481.3
956.643	6511.35
956.948	6404.46
957.252	6445.59
957.556	6358.82
957.86	6316.56
958.163	6266.39
958.467	6250.57
958.771	6238.37
959.075	6221.64
959.378	6302.77
959.682	6226.16
959.985	6137.8
960.289	6134.41
960.592	6072.5
960.896	6058.94
961.199	6040.86
961.502	6004.93
961.805	6023.46
962.108	5971.48
962.411	5990.69
962.714	5906.4
963.017	5846.51
963.32	5840.19
963.623	5805.61
963.926	5843.12
964.228	5818.04
964.531	5766.52
964.833	5734.88
965.136	5697.82
965.438	5694.88
965.741	5627.99
966.043	5641.77
966.345	5608.1
966.648	5572.17
966.95	5562.68
967.252	5543.02
967.554	5489.01
967.856	5511.83
968.158	5393.19
968.46	5418.95
968.761	5376.47
969.063	5329.01
969.365	5332.4
969.666	5310.03
969.968	5346.87
970.269	5294.89
970.571	5269.35
970.872	5234.78
971.174	5200.2
971.475	5245.4
971.776	5221.22
972.077	5154.55
972.378	5117.04
972.679	5124.95
972.98	5095.12
973.281	5101.22
973.582	5031.39
973.883	4972.19
974.183	4980.32
974.484	4957.95
974.785	4914.56
975.085	4914.33
975.386	4918.18
975.686	4899.42
975.986	4863.04
976.287	4831.17
976.587	4764.96
976.887	4804.05
977.187	4768.35
977.487	4764.73
977.787	4751.85
978.087	4730.38
978.387	4644.51
978.687	4668.92
978.987	4585.76
979.286	4581.24
979.586	4592.76
979.885	4559.99
980.185	4557.73
980.484	4546.89
980.784	4488.81
981.083	4500.11
981.382	4476.61
981.682	4459.66
981.981	4418.98
982.28	4431.41
982.579	4397.96
982.878	4408.81
983.177	4312.99
983.475	4319.32
983.774	4278.42
984.073	4225.31
984.372	4293.11
984.67	4174.92
984.969	4180.79
985.267	4180.12
985.566	4131.98
985.864	4133.79
986.162	4158.87
986.461	4127.46
986.759	4061.48
987.057	4054.02
987.355	4063.51
987.653	4057.63
987.951	4044.53
988.249	4016.05
988.547	4011.53
988.844	3996.39
989.142	3912.55
989.44	3902.61
989.737	3891.54
990.035	3843.18
990.332	3831.2
990.63	3844.53
990.927	3843.18
991.224	3809.28
991.521	3795.04
991.819	3793.01
992.116	3742.39
992.413	3758.21
992.71	3721.15
993.006	3704.42
993.303	3691.77
993.6	3668.27
993.897	3640.47
994.193	3623.75
994.49	3639.79
994.787	3615.84
995.083	3578.78
995.379	3565.89
995.676	3573.35
995.972	3523.18
996.268	3472.56
996.565	3510.3
996.861	3494.26
997.157	3457.2
997.453	3443.19
997.749	3432.57
998.044	3379.69
998.34	3351.44
998.636	3406.58
998.932	3342.17
999.227	3299.46
999.523	3318.44
999.818	3265.11
1000.114	3252.46
1000.409	3257.2
1000.704	3238.67
1001	3245.23
1001.295	3196.19
1001.59	3157.77
1001.885	3137.43
1002.18	3131.78
1002.475	3115.96
1002.77	3105.34
1003.065	3066.02
1003.359	3041.39
1003.654	3060.37
1003.949	3043.87
1004.243	3033.03
1004.538	3005.46
1004.832	2988.96
1005.127	2913.71
1005.421	2922.52
1005.715	2872.35
1006.009	2924.33
1006.304	2845.01
1006.598	2894.95
1006.892	2858.57
1007.186	2840.49
1007.48	2800.04
1007.773	2804.11
1008.067	2784.22
1008.361	2748.29
1008.655	2777.22
1008.948	2738.8
1009.242	2701.06
1009.535	2706.71
1009.829	2688.86
1010.122	2683.66
1010.415	2629.2
1010.708	2610.44
1011.001	2600.04
1011.295	2602.76
1011.588	2631.46
1011.881	2562.08
1012.173	2514.85
1012.466	2549.42
1012.759	2495.64
1013.052	2477.34
1013.344	2520.5
1013.637	2482.76
1013.93	2446.6
1014.222	2436.89
1014.514	2457.22
1014.807	2456.32
1015.099	2409.77
1015.391	2391.24
1015.683	2369.54
1015.976	2367.51
1016.268	2370.9
1016.56	2330.67
1016.851	2285.48
1017.143	2288.64
1017.435	2287.96
1017.727	2271.47
1018.018	2245.25
1018.31	2239.6
1018.602	2196.44
1018.893	2222.65
1019.185	2176.33
1019.476	2170.45
1019.767	2129.77
1020.058	2120.51
1020.35	2093.17
1020.641	2076.89
1020.932	2069.44
1021.223	2087.06
1021.514	2036.67
1021.804	2034.86
1022.095	2000.51
1022.386	2035.09
1022.677	1990.57
1022.967	1975.65
1023.258	1963.23
1023.548	1944.02
1023.839	1955.99
1024.129	1922.32
1024.419	1906.05
1024.709	1883
1025	1907.41
1025.29	1831.93
1025.58	1855.88
1025.87	1825.83
1026.16	1815.43
1026.449	1828.54
1026.739	1792.16
1027.029	1800.74
1027.319	1771.82
1027.608	1774.76
1027.898	1780.86
1028.187	1740.41
1028.477	1728.66
1028.766	1671.71
1029.055	1690.46
1029.344	1693.18
1029.634	1699.5
1029.923	1690.01
1030.212	1621.09
1030.501	1658.6
1030.79	1621.77
1031.078	1615.21
1031.367	1605.04
1031.656	1583.8
1031.945	1584.7
1032.233	1556
1032.522	1533.41
1032.81	1540.19
1033.099	1527.98
1033.387	1531.15
1033.675	1523.91
1033.963	1487.76
1034.251	1507.42
1034.54	1493.18
1034.828	1461.32
1035.116	1439.4
1035.403	1443.01
1035.691	1433.97
1035.979	1405.05
1036.267	1422.45
1036.554	1361.66
1036.842	1401.88
1037.129	1370.92
1037.417	1354.2
1037.704	1362.56
1037.992	1345.61
1038.279	1347.65
1038.566	1316.46
1038.853	1316.46
1039.14	1316.46
