Data from foil_FLMS001491_087.txt Node
Date: Tue Feb 07 11:36:56 GMT 2017
User: dcchb
Spectrometer: FLMS00149
Trigger mode: 0
Integration Time (sec): 2.000000E-2
Scans to average: 10
Electric dark correction enabled: true
Nonlinearity correction enabled: false
Boxcar width: 0
XAxis mode: Wavelengths
Number of Pixels in Spectrum: 2048
>>>>>Begin Spectral Data<<<<<
341.393	-25.2
341.776	-25.2
342.16	-25.2
342.543	-86.44
342.927	-72.2
343.31	-63.39
343.693	-54.57
344.077	-80.34
344.46	-66.33
344.843	-53.9
345.226	-17.51
345.61	-26.33
345.993	-20.9
346.376	10.96
346.759	-7.34
347.142	16.61
347.525	43.73
347.908	59.77
348.291	63.84
348.674	94.35
349.057	101.35
349.44	138.87
349.823	130.05
350.206	187.9
350.588	264.96
350.971	312.42
351.354	348.13
351.737	338.86
352.119	356.71
352.502	385.41
352.884	382.93
353.267	382.93
353.65	405.75
354.032	395.58
354.414	421.57
354.797	440.55
355.179	453.66
355.562	463.15
355.944	449.37
356.326	455.24
356.709	471.96
357.091	459.54
357.473	460.44
357.855	488.91
358.238	482.13
358.62	485.52
359.002	466.77
359.384	479.65
359.766	476.94
360.148	484.62
360.53	503.83
360.912	490.95
361.294	492.3
361.676	497.95
362.057	484.39
362.439	502.92
362.821	494.56
363.203	491.17
363.584	518.07
363.966	490.72
364.348	505.86
364.729	498.18
365.111	513.55
365.493	503.6
365.874	514.45
366.256	514
366.637	541.34
367.019	531.62
367.4	531.85
367.781	513.09
368.163	530.04
368.544	540.21
368.925	538.4
369.306	550.38
369.688	534.11
370.069	514.68
370.45	545.64
370.831	532.08
371.212	547.9
371.593	544.05
371.974	549.25
372.355	547.9
372.736	581.34
373.117	580.21
373.498	565.97
373.879	567.1
374.26	556.71
374.641	545.86
375.021	547.9
375.402	609.14
375.783	627.89
376.163	661.34
376.544	666.76
376.925	608.46
377.305	600.1
377.686	638.51
378.066	631.51
378.447	648.23
378.827	654.11
379.208	669.47
379.588	650.94
379.968	677.61
380.349	668.8
380.729	667.44
381.109	698.4
381.489	699.3
381.87	715.35
382.25	703.82
382.63	713.09
383.01	716.03
383.39	736.82
383.77	742.92
384.15	767.55
384.53	785.86
384.91	798.74
385.29	792.18
385.67	794.67
386.049	785.18
386.429	804.84
386.809	821.33
387.189	830.37
387.568	839.64
387.948	854.1
388.328	850.49
388.707	886.42
389.087	876.47
389.466	861.79
389.846	892.74
390.225	913.31
390.605	919.18
390.984	942.46
391.363	957.38
391.743	941.33
392.122	959.86
392.501	986.08
392.881	978.62
393.26	993.53
393.639	996.24
394.018	1021.1
394.397	1054.32
394.776	1055.23
395.155	1051.16
395.534	1081.44
395.913	1085.96
396.292	1083.47
396.671	1116.92
397.05	1114.21
397.429	1122.8
397.808	1132.96
398.186	1142
398.565	1141.33
398.944	1168.22
399.323	1204.83
399.701	1189.23
400.08	1189.91
400.458	1228.1
400.837	1229.46
401.215	1282.34
401.594	1226.3
401.972	1261.1
402.351	1275.79
402.729	1289.12
403.107	1307.65
403.486	1302.68
403.864	1313.75
404.242	1365.27
404.62	1361.89
404.999	1397.14
405.377	1415.67
405.755	1414.99
406.133	1457.7
406.511	1465.39
406.889	1464.71
407.267	1513.07
407.645	1545.16
408.023	1517.14
408.401	1549.68
408.779	1578.83
409.156	1607.53
409.534	1603.23
409.912	1657.7
410.29	1683.46
410.667	1704.93
411.045	1707.86
411.422	1729.56
411.8	1742.89
412.178	1822.89
412.555	1812.04
412.933	1833.96
413.31	1863.11
413.687	1875.32
414.065	1933.17
414.442	1947.86
414.819	1983.56
415.197	1982.21
415.574	1978.82
415.951	2005.48
416.328	2007.97
416.705	2048.65
417.082	2055.65
417.46	2110.11
417.837	2108.08
418.214	2103.56
418.591	2119.15
418.967	2162.99
419.344	2186.5
419.721	2219.49
420.098	2233.05
420.475	2282.54
420.852	2257.68
421.228	2283.44
421.605	2310.33
421.982	2323.44
422.358	2379.71
422.735	2383.78
423.111	2394.17
423.488	2419.48
423.864	2448.86
424.241	2521.18
424.617	2533.61
424.994	2523.44
425.37	2598.24
425.746	2600.5
426.123	2668.97
426.499	2637.11
426.875	2663.77
427.251	2710.55
427.627	2775.63
428.003	2804.33
428.379	2859.92
428.756	2866.48
429.132	2918.91
429.507	2951
429.883	2987.15
430.259	3068.05
430.635	3040.71
431.011	3059.47
431.387	3169.3
431.763	3211.55
432.138	3204.32
432.514	3286.58
432.89	3240.25
433.265	3369.74
433.641	3393.02
434.016	3396.41
434.392	3490.87
434.767	3547.82
435.143	3535.61
435.518	3601.15
435.894	3637.53
436.269	3655.38
436.644	3757.3
437.02	3718.21
437.395	3738.77
437.77	3813.35
438.145	3834.36
438.52	3854.25
438.895	3900.58
439.271	3930.18
439.646	4050.85
440.021	4057.18
440.395	4057.41
440.77	4018.09
441.145	4117.07
441.52	4157.97
441.895	4187.12
442.27	4237.29
442.645	4188.25
443.019	4285.65
443.394	4303.5
443.769	4350.96
444.143	4308.25
444.518	4417.85
444.892	4345.31
445.267	4386.44
445.641	4448.36
446.016	4440.9
446.39	4504.63
446.764	4550.95
447.139	4510.95
447.513	4617.17
447.887	4623.04
448.262	4635.47
448.636	4669.82
449.01	4701.91
449.384	4762.02
449.758	4757.05
450.132	4886.09
450.506	4850.83
450.88	4884.28
451.254	4929.47
451.628	5036.36
452.002	5051.51
452.376	5092.63
452.75	5152.29
453.123	5159.3
453.497	5272.52
453.871	5313.42
454.244	5417.37
454.618	5420.54
454.992	5505.28
455.365	5484.49
455.739	5666.63
456.112	5690.81
456.486	5723.35
456.859	5817.36
457.232	5887.87
457.606	5904.36
457.979	5991.14
458.352	6110.69
458.725	6131.93
459.099	6234.53
459.472	6341.42
459.845	6366.95
460.218	6428.19
460.591	6510.9
460.964	6522.43
461.337	6703.67
461.71	6740.5
462.083	6887.62
462.456	6880.16
462.829	6941.4
463.201	6985.24
463.574	7076.09
463.947	7174.16
464.32	7338.23
464.692	7390.2
465.065	7398.34
465.438	7544.55
465.81	7617.99
466.183	7740.02
466.555	7830.64
466.928	7937.08
467.3	7934.82
467.672	8031.99
468.045	8235.15
468.417	8281.93
468.789	8362.6
469.161	8461.59
469.534	8608.25
469.906	8754.46
470.278	8791.52
470.65	8927.34
471.022	9153.32
471.394	9296.82
471.766	9363.48
472.138	9468.56
472.51	9680.08
472.882	9809.35
473.253	9836.92
473.625	10033.75
473.997	10223.8
474.369	10257.24
474.74	10393.29
475.112	10601.64
475.484	10784.69
475.855	10907.85
476.227	11072.36
476.598	11403.88
476.97	11425.35
477.341	11724.32
477.713	11861.27
478.084	11870.31
478.455	12282.5
478.827	12386
479.198	12709.84
479.569	12726.78
479.94	13106.44
480.311	13263.04
480.682	13449.02
481.053	13776.93
481.424	13943.93
481.795	14124.49
482.166	14319.51
482.537	14499.84
482.908	14813.73
483.279	14997.46
483.65	15243.78
484.021	15557.67
484.391	15651.23
484.762	15785.23
485.133	16016.64
485.503	16235.62
485.874	16681.48
486.244	16736.4
486.615	16993.79
486.985	17266.33
487.356	17535.47
487.726	17749.93
488.097	18052.29
488.467	18056.81
488.837	18497.03
489.207	18710.13
489.578	18955.55
489.948	19072.15
490.318	19237.57
490.688	19456.1
491.058	19693.38
491.428	20015.63
491.798	20201.39
492.168	20582.4
492.538	20673.47
492.908	20902.39
493.278	21051.31
493.648	21167.69
494.017	21427.57
494.387	21594.57
494.757	21733.78
495.126	22083.37
495.496	22049.48
495.866	22206.31
496.235	22599.52
496.605	22700.53
496.974	22894.2
497.344	23158.37
497.713	23170.13
498.082	23289.44
498.452	23586.16
498.821	23681.75
499.19	23835.87
499.559	24076.77
499.928	24295.29
500.298	24467.49
500.667	24595.17
501.036	24505.91
501.405	24835.17
501.774	24732.12
502.143	25033.81
502.512	25198.32
502.88	25473.34
503.249	25555.37
503.618	25731.41
503.987	25891.86
504.356	26019.99
504.724	26325.3
505.093	26253.66
505.462	26524.61
505.83	26613.88
506.199	26914.66
506.567	27301.54
506.936	27221.32
507.304	27558.03
507.672	27629.67
508.041	27672.15
508.409	27946.95
508.777	28279.37
509.145	28467.39
509.514	28370.89
509.882	28718.23
510.25	28817.21
510.618	29143.75
510.986	29216.29
511.354	29379
511.722	29749.84
512.09	30004.52
512.458	29930.4
512.826	30285.19
513.193	30455.81
513.561	30612.19
513.929	30904.61
514.297	31239.52
514.664	31351.83
515.032	31397.93
515.4	31799.05
515.767	31977.8
516.135	32041.76
516.502	31956.79
516.869	32608.07
517.237	32807.84
517.604	32819.36
517.972	33277.2
518.339	33494.6
518.706	33434.94
519.073	33672.22
519.44	33969.62
519.808	34336.61
520.175	34372.77
520.542	34823.38
520.909	34907.22
521.276	35191.05
521.643	35521.89
522.009	35741.09
522.376	36090.24
522.743	36169.11
523.11	36536.55
523.477	36896.54
523.843	36998.69
524.21	37412.01
524.577	37765.67
524.943	37947.59
525.31	38262.84
525.676	38627.8
526.043	38781.92
526.409	39021.91
526.776	39370.15
527.142	39515.23
527.508	39776.02
527.874	39968.55
528.241	40223.91
528.607	40410.12
528.973	40743
529.339	40870.9
529.705	41396.99
530.071	41695.97
530.437	41763.08
530.803	42080.59
531.169	42226.12
531.535	42397.87
531.901	42426.57
532.267	42537.07
532.632	43010.28
532.998	43071.07
533.364	43378.41
533.73	43481.91
534.095	43855.01
534.461	43973.65
534.826	44286.86
535.192	44258.84
535.557	44732.95
535.923	44723.23
536.288	44902.66
536.653	45160.73
537.019	44999.16
537.384	45247.74
537.749	45604.79
538.114	45649.08
538.479	45883.43
538.845	46157.54
539.21	46116.64
539.575	46299.46
539.94	46537.19
540.305	46899.9
540.67	46745.32
541.034	46743.52
541.399	47072.32
541.764	47178.08
542.129	47364.74
542.494	47421.92
542.858	47590.95
543.223	47691.97
543.587	48033.88
543.952	47962.69
544.316	48151.16
544.681	48141.22
545.045	48492.4
545.41	48593.19
545.774	48858.49
546.138	48798.15
546.503	49091.7
546.867	49010.12
547.231	49377.35
547.595	49424.35
547.959	49580.5
548.324	49687.62
548.688	49685.13
549.052	49922.42
549.416	49981.62
549.779	50156.99
550.143	50307.04
550.507	50529.86
550.871	50774.37
551.235	50731.66
551.599	50990.18
551.962	50949.28
552.326	51215.26
552.689	51434.69
553.053	51302.04
553.417	51438.53
553.78	51876.49
554.143	51689.6
554.507	51924.85
554.87	51998.75
555.234	52444.84
555.597	52354.67
555.96	52539.52
556.323	52699.74
556.686	52680.08
557.05	52973.18
557.413	53033.75
557.776	53148.32
558.139	53369.33
558.502	53411.36
558.865	53538.82
559.228	53815.2
559.59	53856.32
559.953	53956.89
560.316	54358.68
560.679	54335.86
561.041	54442.52
561.404	54708.96
561.767	54848.39
562.129	54753.02
562.492	55078.66
562.854	55113.69
563.217	55168.61
563.579	55364.31
563.941	55529.5
564.304	55641.36
564.666	55787.8
565.028	55827.8
565.39	55946.44
565.753	56159.31
566.115	56264.85
566.477	56366.09
566.839	56432.3
567.201	56665.29
567.563	56708.68
567.925	56924.04
568.287	56860.54
568.648	56892.4
569.01	57166.97
569.372	57324.03
569.734	57249.46
570.095	57444.7
570.457	57551.82
570.819	57606.51
571.18	57734.19
571.542	57915.65
571.903	57917.91
572.265	58006.5
572.626	58041.75
572.987	58136.21
573.349	58201.29
573.71	58245.59
574.071	58314.74
574.432	58465.92
574.794	58670.43
575.155	58554.73
575.516	58534.39
575.877	58646.03
576.238	58727.83
576.599	58832.01
576.96	58868.17
577.32	58893.48
577.681	58955.62
578.042	59096.86
578.403	58978.22
578.763	59070.88
579.124	59121.72
579.485	59227.71
579.845	59258.89
580.206	59238.78
580.566	59301.83
580.927	59344.32
581.287	59422.51
581.648	59252.11
582.008	59500.7
582.368	59368.95
582.728	59471.77
583.089	59455.95
583.449	59378.89
583.809	59551.77
584.169	59528.72
584.529	59474.71
584.889	59650.97
585.249	59472
585.609	59429.96
585.969	59555.84
586.329	59446.23
586.688	59611.88
587.048	59584.31
587.408	59571.65
587.768	59606.46
588.127	59554.03
588.487	59505.22
588.846	59657.53
589.206	59503.63
589.565	59536.4
589.925	59737.07
590.284	59693.01
590.643	59633.12
591.003	59681.03
591.362	59733.46
591.721	59667.92
592.08	59718.99
592.44	59728.94
592.799	59782.04
593.158	59703.4
593.517	59777.75
593.876	59750.86
594.235	59751.08
594.593	59788.82
594.952	59766
595.311	59744.53
595.67	59801.7
596.029	59900.23
596.387	59917.41
596.746	59936.39
597.104	59793.34
597.463	59830.63
597.822	59982.04
598.18	59858.65
598.538	59788.15
598.897	60043.96
599.255	59796.05
599.613	60159.66
599.972	60001.93
600.33	60084.63
600.688	59921.25
601.046	60046.9
601.404	60147.91
601.762	60103.17
602.12	60202.82
602.478	60167.57
602.836	60187.46
603.194	60055.03
603.552	60117.4
603.91	60050.29
604.268	60277.85
604.625	60181.36
604.983	60267.45
605.341	60138.87
605.698	60331.41
606.056	60384.51
606.413	60326.89
606.771	60385.19
607.128	60415.25
607.485	60320.11
607.843	60363.5
608.2	60394.01
608.557	60486.66
608.914	60446.43
609.272	60604.85
609.629	60603.72
609.986	60611.17
610.343	60558.97
610.7	60722.13
611.057	60709.25
611.414	60730.95
611.771	60751.96
612.127	60767.55
612.484	60797.16
612.841	60836.48
613.198	60792.19
613.554	60791.96
613.911	60994.89
614.267	60932.97
614.624	60903.14
614.98	60973.65
615.337	61115.12
615.693	61008
616.05	61002.12
616.406	61127.09
616.762	61040.77
617.118	61069.24
617.475	61119.64
617.831	61131.61
618.187	61121.22
618.543	61211.84
618.899	61286.41
619.255	61217.03
619.611	61161.22
619.967	61258.84
620.323	61273.53
620.678	61247.09
621.034	61138.39
621.39	61217.03
621.746	61179.07
622.101	61370.7
622.457	61203.25
622.812	61249.8
623.168	61306.75
623.523	61358.73
623.879	61384.49
624.234	61239.18
624.589	61309.24
624.945	61314.21
625.3	61367.09
625.655	61325.73
626.01	61316.69
626.365	61324.38
626.72	61310.14
627.075	61297.71
627.43	61258.84
627.785	61256.13
628.14	61290.48
628.495	61247.09
628.85	61239.63
629.205	61093.42
629.559	61273.53
629.914	61134.55
630.269	61189.01
630.623	61021.79
630.978	61057.94
631.332	61217.26
631.687	61207.32
632.041	61022.69
632.396	61117.6
632.75	61062.01
633.104	61013.42
633.459	60919.19
633.813	60914.67
634.167	60908.79
634.521	60892.07
634.875	60970.49
635.229	60921.22
635.583	60778.18
635.937	60766.65
636.291	60734.11
636.645	60823.37
636.999	60687.56
637.352	60718.52
637.706	60591.97
638.06	60662.47
638.413	60588.58
638.767	60615.92
639.121	60581.12
639.474	60497.96
639.828	60491.86
640.181	60563.94
640.534	60474.91
640.888	60436.49
641.241	60376.6
641.594	60343.16
641.947	60361.92
642.301	60240.11
642.654	60294.12
643.007	60341.13
643.36	60219.32
643.713	60274.01
644.066	60323.72
644.419	60034.01
644.771	59730.75
645.124	59322.39
645.477	59249.4
645.83	59253.24
646.182	59310.64
646.535	59364.65
646.888	59554.93
647.24	59455.72
647.593	59599.45
647.945	59548.6
648.298	59464.54
648.65	59397.42
649.002	59166.92
649.355	59292.57
649.707	59023.87
650.059	59091.21
650.411	59341.38
650.763	59414.82
651.115	59767.81
651.467	59649.17
651.819	59705.21
652.171	59531.43
652.523	59513.35
652.875	59496.4
653.227	59360.59
653.578	59592.67
653.93	59449.17
654.282	59391.77
654.633	59307.03
654.985	59377.31
655.337	59348.16
655.688	59341.6
656.039	59316.52
656.391	59139.12
656.742	59205.79
657.094	59300.25
657.445	59313.36
657.796	59271.77
658.147	59171.66
658.498	59187.48
658.849	59197.88
659.2	59112.46
659.551	59036.3
659.902	59176.64
660.253	59096.41
660.604	59130.54
660.955	58955.62
661.306	59070.2
661.656	58970.77
662.007	59066.36
662.358	59007.15
662.708	58946.59
663.059	58909.3
663.409	58677.44
663.76	58943.2
664.11	58909.75
664.461	59049.86
664.811	58962.4
665.161	58889.41
665.511	58815.06
665.862	58768.74
666.212	58892.12
666.562	58889.41
666.912	58882.86
667.262	58806.25
667.612	58694.39
667.962	58775.97
668.312	58727.16
668.662	58831.79
669.011	58772.58
669.361	58742.07
669.711	58738.23
670.06	58633.6
670.41	58567.61
670.76	58634.5
671.109	58672.92
671.459	58571.68
671.808	58557.44
672.157	58610.32
672.507	58399.93
672.856	58449.88
673.205	58468.18
673.554	58561.74
673.904	58486.03
674.253	58545.92
674.602	58478.12
674.951	58116.78
675.3	57971.92
675.649	58416.2
675.998	58352.25
676.346	58419.59
676.695	58427.5
677.044	58215.76
677.393	58293.5
677.741	58347.05
678.09	58217.57
678.438	58154.52
678.787	58243.78
679.135	58259.6
679.484	58036.55
679.832	58100.73
680.181	57983
680.529	57997.46
680.877	58013.95
681.225	57888.08
681.573	58031.81
681.922	57912.04
682.27	57806.73
682.618	57834.75
682.966	57679.27
683.314	57692.38
683.661	57657.58
684.009	57543.01
684.357	57415.78
684.705	57434.76
685.053	57473.63
685.4	57410.35
685.748	57297.36
686.095	57265.05
686.443	57102.79
686.79	57146.86
687.138	57196.58
687.485	57100.08
687.832	56962.01
688.18	57036.81
688.527	56929.46
688.874	56878.39
689.221	56850.37
689.568	56687.44
689.915	56643.82
690.262	56687.21
690.609	56522.69
690.956	56456.26
691.303	56481.57
691.65	56282.47
691.997	56393.43
692.344	56251.97
692.69	56167.22
693.037	56145.76
693.383	55986.21
693.73	56139.65
694.077	55859.89
694.423	55764.75
694.769	55816.5
695.116	55651.31
695.462	55582.61
695.808	55526.79
696.155	55632.1
696.501	55357.98
696.847	55322.05
697.193	55192.79
697.539	55195.72
697.885	54985.56
698.231	54962.28
698.577	54919.12
698.923	54898.33
699.269	54745.79
699.614	54623.99
699.96	54446.82
700.306	54511
700.651	54382.19
700.997	54280.95
701.342	54214.51
701.688	54183.1
702.033	54171.12
702.379	54117.33
702.724	53938.58
703.069	53982.2
703.415	53711.47
703.76	53756.44
704.105	53664.46
704.45	53532.49
704.795	53335.89
705.14	53265.83
705.485	53362.33
705.83	53310.58
706.175	53432.15
706.52	53237.81
706.865	53033.97
707.209	52989.23
707.554	52869.46
707.899	52918.5
708.243	52784.94
708.588	52762.34
708.932	52465.85
709.277	52396.93
709.621	52407.55
709.966	52155.35
710.31	52275.12
710.654	52075.81
710.998	52100.21
711.342	52055.47
711.687	51953.78
712.031	51869.71
712.375	51587.46
712.719	51746.77
713.063	51697.74
713.407	51730.5
713.75	51541.58
714.094	51584.75
714.438	51459.32
714.782	51219.33
715.125	51179.11
715.469	51196.96
715.812	51051.2
716.156	50947.25
716.499	50991.77
716.843	50949.28
717.186	50660.25
717.53	50883.07
717.873	50886.91
718.216	50770.98
718.559	50508.39
718.902	50348.85
719.246	50421.61
719.589	50286.47
719.932	50150.21
720.275	50097.1
720.617	50097.78
720.96	49888.52
721.303	49934.85
721.646	49857.11
721.989	49694.85
722.331	49803.78
722.674	49649.88
723.016	49621.41
723.359	49574.18
723.701	49657.34
724.044	49398.81
724.386	49151.36
724.729	49444.46
725.071	49145.49
725.413	49073.4
725.755	49044.47
726.097	48776.01
726.439	48794.76
726.782	48869.11
727.124	48926.06
727.465	48784.82
727.807	48578.04
728.149	48509.57
728.491	48380.08
728.833	48465.05
729.175	48270.93
729.516	48195.46
729.858	48093.99
730.199	48028.23
730.541	47954.11
730.882	48046.53
731.224	48115.46
731.565	47862.36
731.906	47858.74
732.248	47821.91
732.589	47567.22
732.93	47443.84
733.271	47449.49
733.612	47438.41
733.953	47486.32
734.294	47185.99
734.635	47102.38
734.976	47283.16
735.317	47028.71
735.658	47097.63
735.999	46890.63
736.339	46813.57
736.68	46943.74
737.021	46656.97
737.361	46541.04
737.702	46774.7
738.042	46654.03
738.383	46494.48
738.723	46638.21
739.063	46382.4
739.404	46318.44
739.744	46140.82
740.084	46018.56
740.424	46153.25
740.764	46098.56
741.104	46127.49
741.444	45920.04
741.784	45916.87
742.124	45964.55
742.464	45880.49
742.804	45749.64
743.143	45692.92
743.483	45797.78
743.823	45609.54
744.162	45503.55
744.502	45548.52
744.841	45242.09
745.181	45274.63
745.52	45072.83
745.86	44994.41
746.199	44785.15
746.538	44797.81
746.877	44909.21
747.216	44820.63
747.556	44624.25
747.895	44539.05
748.234	44427.87
748.573	44382
748.911	44343.58
749.25	44258.61
749.589	43971.84
749.928	44118.27
750.267	44158.27
750.605	43858.62
750.944	43858.62
751.283	43653.88
751.621	43788.11
751.96	43525.75
752.298	43596.03
752.636	43526.2
752.975	43214.8
753.313	43197.4
753.651	43297.73
753.989	42986.55
754.327	43061.13
754.666	42828.82
755.004	42812.77
755.342	42904.52
755.679	42695.71
756.017	42449.39
756.355	42419.34
756.693	42234.93
757.031	42298.21
757.368	42154.94
757.706	42039.91
758.044	41965.56
758.381	41917.65
758.719	41661.16
759.056	41604.67
759.394	41390.66
759.731	41246.71
760.068	41093.72
760.405	40923.56
760.743	40895.08
761.08	40975.31
761.417	40717.01
761.754	40458.26
762.091	40469.11
762.428	40126.97
762.765	40166.74
763.102	40175.78
763.438	39956.8
763.775	39824.15
764.112	39812.4
764.449	39882
764.785	39668
765.122	39379.87
765.458	39132.87
765.795	39188.46
766.131	38992.76
766.467	38770.62
766.804	38688.14
767.14	38440.91
767.476	38555.94
767.812	38233.68
768.148	38289.5
768.485	37939.68
768.821	37809.06
769.157	37670.53
769.492	37622.85
769.828	37662.85
770.164	37275.29
770.5	37216.99
770.836	37211.34
771.171	36816.55
771.507	36784.91
771.842	36657.68
772.178	36559.6
772.513	36561.64
772.849	36464.69
773.184	36205.94
773.519	36079.62
773.855	36151.93
774.19	35789.23
774.525	35711.94
774.86	35555.11
775.195	35576.13
775.53	35306.98
775.865	35257.94
776.2	34946.09
776.535	34661.8
776.87	34825.64
777.205	34489.6
777.539	34322.83
777.874	34481.24
778.209	34221.81
778.543	34138.2
778.878	33867.02
779.212	33923.51
779.547	33636.74
779.881	33632
780.215	33508.16
780.55	33577.08
780.884	33256.19
781.218	33162.4
781.552	33092.8
781.886	32948.4
782.22	32797.44
782.554	32600.39
782.888	32421.63
783.222	32218.02
783.556	32097.12
783.889	31895.32
784.223	31813.51
784.557	31820.97
784.89	31810.12
785.224	31539.85
785.557	31361.55
785.891	31487.65
786.224	31292.62
786.558	31270.48
786.891	30931.73
787.224	30830.26
787.557	30714.56
787.891	30697.38
788.224	30614.9
788.557	30527.45
788.89	30418.3
789.223	30352.54
789.556	30146.66
789.888	30025.99
790.221	29964.97
790.554	29615.83
790.887	29752.55
791.219	29543.29
791.552	29598.2
791.884	29277.76
792.217	29321.38
792.549	29141.95
792.882	28957.54
793.214	28847.72
793.546	29007.49
793.879	28673.71
794.211	28461.06
794.543	28662.18
794.875	28578.12
795.207	28448.63
795.539	28355.98
795.871	28347.62
796.203	27999.38
796.535	27842.54
796.867	27841.64
797.198	27740.63
797.53	27707.41
797.862	27576.34
798.193	27568.88
798.525	27302.22
798.856	27313.07
799.188	27091.83
799.519	27019.74
799.85	26871.27
800.182	26757.38
800.513	26823.59
800.844	26539.53
801.175	26612.97
801.506	26595.12
801.837	26384.73
802.168	26398.06
802.499	26234
802.83	26122.36
803.161	26044.4
803.491	26003.72
803.822	25902.48
804.153	25809.6
804.483	25726.89
804.814	25572.1
805.145	25528.26
805.475	25616.84
805.805	25439.9
806.136	25415.04
806.466	25420.91
806.796	25299.11
807.126	25067.93
807.457	24958.33
807.787	25088.94
808.117	24882.4
808.447	24765.56
808.777	24819.8
809.107	24849.18
809.436	24526.93
809.766	24499.13
810.096	24442.86
810.426	24470.43
810.755	24407.15
811.085	24325.35
811.414	24306.82
811.744	24106.15
812.073	24237.89
812.403	24048.29
812.732	23904.12
813.061	23924.91
813.39	23737.79
813.719	23776.66
814.049	23866.6
814.378	23685.14
814.707	23605.37
815.036	23565.37
815.365	23387.52
815.693	23171.48
816.022	23198.6
816.351	23095.55
816.68	22908.66
817.008	23029.11
817.337	22802
817.665	22746.86
817.994	22835.22
818.322	22838.61
818.651	22624.38
818.979	22544.38
819.307	22528.33
819.636	22436.81
819.964	22283.14
820.292	22494.89
820.62	22476.13
820.948	22338.28
821.276	22419.64
821.604	22369.69
821.932	22442.69
822.259	22346.64
822.587	22319.53
822.915	22201.79
823.243	22322.24
823.57	22212.64
823.898	22279.3
824.225	22194.56
824.553	22131.51
824.88	22185.07
825.207	22221.68
825.535	22143.03
825.862	22159.3
826.189	22151.39
826.516	22181.68
826.843	22279.98
827.17	22212.64
827.497	22138.06
827.824	22027.33
828.151	22105.07
828.478	22123.37
828.805	22174.9
829.131	22111.4
829.458	22015.81
829.785	21896.26
830.111	21988.01
830.438	22154.33
830.764	22173.09
831.09	22089.48
831.417	22010.38
831.743	22157.72
832.069	22068.69
832.395	21979.42
832.722	21930.84
833.048	21933.32
833.374	21965.19
833.7	21792.53
834.026	21790.5
834.351	21905.53
834.677	21827.79
835.003	21792.31
835.329	21812.19
835.654	21802.03
835.98	21629.37
836.306	21661.69
836.631	21623.73
836.956	21678.64
837.282	21626.89
837.607	21584.63
837.932	21560.68
838.258	21549.83
838.583	21444.52
838.908	21344.41
839.233	21336.28
839.558	21437.29
839.883	21375.6
840.208	21242.94
840.533	21303.96
840.858	21231.42
841.182	21250.85
841.507	21240.91
841.832	21149.61
842.156	21086.79
842.481	21200.01
842.805	21126.56
843.13	21058.09
843.454	20917.76
843.778	20816.29
844.103	20815.61
844.427	20647.93
844.751	20814.03
845.075	20691.32
845.399	20615.16
845.723	20481.61
846.047	20563.64
846.371	20507.14
846.695	20390.31
847.019	20186.93
847.343	20120.26
847.666	19974.96
847.99	19749.88
848.313	19925.46
848.637	19724.34
848.96	19745.81
849.284	19678.47
849.607	19551.69
849.931	19520.73
850.254	19327.06
850.577	19294.52
850.9	19106.96
851.223	19119.16
851.546	19026.73
851.869	18944.47
852.192	19013.17
852.515	18869.22
852.838	18884.14
853.161	18820.41
853.483	18627.65
853.806	18589.68
854.129	18576.35
854.451	18571.6
854.774	18535.9
855.096	18499.29
855.419	18426.52
855.741	18330.03
856.063	18257.49
856.385	18121.22
856.708	18121.9
857.03	18157.6
857.352	18121.22
857.674	18063.14
857.996	17898.85
858.318	17768.46
858.64	17770.04
858.961	17802.58
859.283	17755.58
859.605	17578.41
859.926	17677.39
860.248	17677.84
860.57	17528.69
860.891	17538.18
861.212	17470.16
861.534	17376.61
861.855	17330.5
862.176	17455.02
862.498	17375.7
862.819	17352.88
863.14	17261.35
863.461	17229.49
863.782	17173.9
864.103	17252.31
864.424	17185.42
864.745	17207.57
865.065	17095.71
865.386	17068.14
865.707	17014.35
866.027	17001.02
866.348	17032.43
866.668	17008.25
866.989	16939.1
867.309	16892.55
867.63	16859.56
867.95	16837.41
868.27	16750.86
868.59	16761.71
868.91	16726.9
869.23	16718.32
869.55	16594.25
869.87	16707.92
870.19	16743.18
870.51	16702.95
870.83	16717.19
871.15	16585.67
871.469	16561.49
871.789	16578.66
872.109	16536.18
872.428	16547.02
872.748	16529.4
873.067	16489.62
873.386	16539.57
873.706	16417.31
874.025	16280.59
874.344	16238.78
874.663	16294.6
874.982	16217.31
875.301	16343.19
875.62	16155.17
875.939	16223.87
876.258	16250.76
876.577	16129.41
876.896	16183.42
877.214	16161.27
877.533	16138.9
877.852	15991.56
878.17	16167.37
878.489	16176.18
878.807	16082.85
879.125	16090.54
879.444	15952.46
879.762	16046.47
880.08	15849.87
880.398	15870.43
880.716	15867.94
881.034	15786.82
881.352	15847.38
881.67	15835.18
881.988	15771.22
882.306	15704.78
882.624	15723.99
882.941	15665.24
883.259	15610.1
883.577	15554.73
883.894	15527.84
884.212	15489.65
884.529	15521.29
884.846	15452.36
885.164	15440.61
885.481	15329.43
885.798	15406.94
886.115	15334.63
886.432	15275.42
886.75	15289.65
887.067	15330.78
887.383	15221.41
887.7	15212.59
888.017	15117
888.334	15137.57
888.651	14999.49
888.967	15031.58
889.284	15011.7
889.6	15015.54
889.917	14887.86
890.233	14959.72
890.55	14871.13
890.866	14862.32
891.182	14831.36
891.498	14796.79
891.815	14693.29
892.131	14600.86
892.447	14567.41
892.763	14474.31
893.079	14564.7
893.395	14444.48
893.71	14439.06
894.026	14471.14
894.342	14343.24
894.657	14282.22
894.973	14404.93
895.289	14336.01
895.604	14218.95
895.92	14157.71
896.235	14090.14
896.55	14105.96
896.865	13931.72
897.181	13964.72
897.496	14014.21
897.811	13853.31
898.126	13894.21
898.441	13849.69
898.756	13807.43
899.071	13711.62
899.386	13683.82
899.7	13613.77
900.015	13549.81
900.33	13470.27
900.644	13479.76
900.959	13367.67
901.273	13449.48
901.588	13351.4
901.902	13269.37
902.216	13222.59
902.531	13210.39
902.845	13235.7
903.159	13191.86
903.473	13113.67
903.787	13036.38
904.101	13023.95
904.415	12978.53
904.729	12934.91
905.042	12850.17
905.356	12887.23
905.67	12745.54
905.984	12782.83
906.297	12641.81
906.611	12599.1
906.924	12522.95
907.237	12530.86
907.551	12476.17
907.864	12450.18
908.177	12350.3
908.491	12380.58
908.804	12266.01
909.117	12256.74
909.43	12210.19
909.743	12087.03
910.056	12055.62
910.368	12004.09
910.681	12055.62
910.994	11895.39
911.307	11834.6
911.619	11777.43
911.932	11876.41
912.244	11786.24
912.557	11772.23
912.869	11676.42
913.181	11655.63
913.494	11580.15
913.806	11536.31
914.118	11456.08
914.43	11322.08
914.742	11430.09
915.054	11381.06
915.366	11298.35
915.678	11205.69
915.99	11266.48
916.302	11097
916.613	11134.06
916.925	11043.66
917.236	11172.02
917.548	10957.11
917.859	11030.78
918.171	10906.72
918.482	10796.21
918.794	10739.94
919.105	10734.07
919.416	10713.05
919.727	10614.07
920.038	10607.97
920.349	10515.32
920.66	10489.55
920.971	10413.85
921.282	10426.73
921.593	10366.62
921.903	10305.6
922.214	10330.69
922.525	10212.27
922.835	10153.52
923.146	10166.17
923.456	10100.19
923.767	10071.94
924.077	10040.3
924.387	10028.78
924.697	10031.49
925.008	9926.41
925.318	9897.48
925.628	9848.89
925.938	9845.05
926.248	9741.55
926.558	9749.01
926.867	9635.79
927.177	9592.18
927.487	9558.73
927.796	9509.47
928.106	9459.53
928.416	9505.63
928.725	9534.33
929.034	9429.47
929.344	9378.4
929.653	9349.02
929.962	9247.1
930.271	9230.38
930.581	9192.64
930.89	9109.03
931.199	9152.64
931.508	9060.67
931.817	9070.83
932.125	9036.26
932.434	8920.33
932.743	8848.47
933.051	8826.77
933.36	8774.35
933.669	8697.06
933.977	8756.04
934.286	8784.74
934.594	8702.26
934.902	8571.19
935.21	8554.01
935.519	8614.35
935.827	8506.56
936.135	8433.79
936.443	8405.99
936.751	8387.69
937.059	8323.96
937.367	8340.01
937.674	8276.96
937.982	8251.42
938.29	8179.56
938.597	8198.77
938.905	8112.44
939.213	8112.89
939.52	8123.97
939.827	8102.95
940.135	8039
940.442	7966.68
940.749	7958.77
941.056	7983.41
941.363	7908.61
941.67	7867.25
941.977	7822.28
942.284	7726.01
942.591	7775.95
942.898	7711.77
943.205	7679.69
943.511	7597.43
943.818	7613.7
944.125	7580.25
944.431	7559.91
944.738	7571.44
945.044	7447.83
945.35	7389.52
945.657	7404.66
945.963	7365.34
946.269	7293.93
946.575	7319.02
946.881	7247.38
947.187	7186.14
947.493	7194.73
947.799	7182.97
948.105	7111.34
948.41	7092.81
948.716	7120.38
949.022	7093.94
949.327	7079.02
949.633	6936.88
949.938	7017.78
950.244	6960.61
950.549	6820.5
950.854	6888.75
951.16	6868.86
951.465	6818.92
951.77	6748.18
952.075	6753.61
952.38	6746.38
952.685	6716.32
952.99	6645.81
953.294	6618.24
953.599	6606.27
953.904	6566.27
954.209	6522.2
954.513	6502.09
954.818	6426.61
955.122	6470.9
955.426	6429.77
955.731	6322.66
956.035	6317.69
956.339	6302.09
956.643	6264.36
956.948	6274.52
957.252	6234.53
957.556	6179.84
957.86	6157.92
958.163	6139.16
958.467	6147.97
958.771	6132.61
959.075	6107.07
959.378	6027.07
959.682	6052.84
959.985	6023.46
960.289	6000.86
960.592	5892.61
960.896	5920.86
961.199	5861.65
961.502	5902.1
961.805	5844.93
962.108	5759.28
962.411	5780.53
962.714	5764.26
963.017	5766.29
963.32	5748.44
963.623	5765.39
963.926	5699.4
964.228	5641.77
964.531	5632.28
964.833	5653.52
965.136	5569.68
965.438	5500.31
965.741	5510.7
966.043	5497.37
966.345	5450.37
966.648	5439.74
966.95	5443.36
967.252	5413.3
967.554	5379.18
967.856	5352.06
968.158	5300.09
968.46	5248.11
968.761	5256.92
969.063	5243.59
969.365	5246.98
969.666	5269.13
969.968	5157.27
970.269	5132.63
970.571	5130.15
970.872	5111.17
971.174	5036.36
971.475	5089.24
971.776	5031.85
972.077	5031.17
972.378	4989.59
972.679	4960.66
972.98	4962.24
973.281	4963.37
973.582	4872.3
973.883	4863.94
974.183	4842.7
974.484	4865.3
974.785	4809.03
975.085	4802.47
975.386	4823.04
975.686	4772.64
975.986	4732.64
976.287	4705.75
976.587	4706.66
976.887	4660.1
977.187	4666.66
977.487	4635.7
977.787	4564.74
978.087	4603.38
978.387	4562.7
978.687	4575.81
978.987	4524.74
979.286	4490.39
979.586	4484.06
979.885	4435.48
980.185	4437.06
980.484	4398.19
980.784	4368.59
981.083	4405.42
981.382	4395.93
981.682	4379.88
981.981	4321.81
982.28	4300.11
982.579	4304.63
982.878	4268.02
983.177	4186.44
983.475	4169.04
983.774	4169.04
984.073	4158.42
984.372	4118.65
984.67	4179.66
984.969	4129.27
985.267	4072.77
985.566	4071.19
985.864	4051.31
986.162	4011.08
986.461	4026.67
986.759	3997.52
987.057	3931.99
987.355	3978.09
987.653	3976.28
987.951	3928.37
988.249	3897.64
988.547	3918.43
988.844	3867.36
989.142	3854.02
989.44	3814.02
989.737	3831.42
990.035	3773.35
990.332	3807.7
990.63	3794.59
990.927	3724.31
991.224	3746
991.521	3678.66
991.819	3726.12
992.116	3639.11
992.413	3647.93
992.71	3624.42
993.006	3639.79
993.303	3637.76
993.6	3594.37
993.897	3511.89
994.193	3543.3
994.49	3540.58
994.787	3495.39
995.083	3502.17
995.379	3432.57
995.676	3463.98
995.972	3423.98
996.268	3421.04
996.565	3399.8
996.861	3360.25
997.157	3385.33
997.453	3356.86
997.749	3301.72
998.044	3335.17
998.34	3297.43
998.636	3286.81
998.932	3258.56
999.227	3238.22
999.523	3237.09
999.818	3191.89
1000.114	3196.87
1000.409	3201.16
1000.704	3179.01
1001	3169.97
1001.295	3142.18
1001.59	3119.8
1001.885	3076.87
1002.18	3065.34
1002.475	3047.04
1002.77	3038.68
1003.065	3026.7
1003.359	3046.13
1003.654	2978.79
1003.949	2956.19
1004.243	2956.42
1004.538	2898.34
1004.832	2878.23
1005.127	2890.66
1005.421	2841.17
1005.715	2847.72
1006.009	2816.54
1006.304	2838
1006.598	2806.82
1006.892	2778.35
1007.186	2752.58
1007.48	2749.87
1007.773	2725.47
1008.067	2723.43
1008.361	2698.12
1008.655	2674.17
1008.948	2666.48
1009.242	2632.36
1009.535	2633.26
1009.829	2659.7
1010.122	2610.21
1010.415	2614.96
1010.708	2597.56
1011.001	2586.03
1011.295	2522.53
1011.588	2542.42
1011.881	2548.75
1012.173	2508.07
1012.466	2484.34
1012.759	2511.46
1013.052	2459.26
1013.344	2461.52
1013.637	2433.72
1013.93	2402.08
1014.222	2402.54
1014.514	2369.32
1014.807	2322.76
1015.099	2342.65
1015.391	2360.95
1015.683	2326.38
1015.976	2273.05
1016.268	2298.13
1016.56	2249.32
1016.851	2254.52
1017.143	2243.22
1017.435	2226.95
1017.727	2160.06
1018.018	2172.03
1018.31	2153.28
1018.602	2177.91
1018.893	2159.15
1019.185	2122.54
1019.476	2121.87
1019.767	2109.44
1020.058	2086.16
1020.35	2051.58
1020.641	2038.48
1020.932	2017.24
1021.223	2058.82
1021.514	2022.66
1021.804	2006.84
1022.095	1992.6
1022.386	1965.94
1022.677	1930.68
1022.967	1906.5
1023.258	1924.81
1023.548	1916.9
1023.839	1894.75
1024.129	1851.59
1024.419	1864.92
1024.709	1813.62
1025	1846.84
1025.29	1821.08
1025.58	1838.03
1025.87	1814.98
1026.16	1734.53
1026.449	1797.58
1026.739	1737.47
1027.029	1748.99
1027.319	1699.5
1027.608	1724.14
1027.898	1703.35
1028.187	1667.64
1028.477	1674.19
1028.766	1662.44
1029.055	1672.39
1029.344	1614.99
1029.634	1614.76
1029.923	1624.03
1030.212	1624.25
1030.501	1600.3
1030.79	1572.73
1031.078	1568.89
1031.367	1550.35
1031.656	1528.43
1031.945	1540.19
1032.233	1530.47
1032.522	1517.36
1032.81	1510.58
1033.099	1472.62
1033.387	1478.27
1033.675	1476.46
1033.963	1497.47
1034.251	1448.89
1034.54	1403.01
1034.828	1422
1035.116	1424.26
1035.403	1377.7
1035.691	1400.08
1035.979	1392.17
1036.267	1374.31
1036.554	1368.21
1036.842	1358.5
1037.129	1359.63
1037.417	1324.82
1037.704	1311.26
1037.992	1309.68
1038.279	1338.38
1038.566	1302.45
1038.853	1302.45
1039.14	1302.45
