Data from foil_FLMS001491_064.txt Node
Date: Tue Feb 07 11:36:26 GMT 2017
User: dcchb
Spectrometer: FLMS00149
Trigger mode: 0
Integration Time (sec): 2.000000E-2
Scans to average: 10
Electric dark correction enabled: true
Nonlinearity correction enabled: false
Boxcar width: 0
XAxis mode: Wavelengths
Number of Pixels in Spectrum: 2048
>>>>>Begin Spectral Data<<<<<
341.393	-22.99
341.776	-22.99
342.16	-22.99
342.543	-71.13
342.927	-71.35
343.31	-67.06
343.693	-68.19
344.077	-70
344.46	-60.28
344.843	-57.8
345.226	-46.27
345.61	-44.01
345.993	-18.93
346.376	3.22
346.759	30.56
347.142	18.59
347.525	37.8
347.908	49.32
348.291	82.77
348.674	91.81
349.057	118.47
349.44	141.52
349.823	157.57
350.206	200.96
350.588	265.36
350.971	291.12
351.354	307.39
351.737	318.92
352.119	334.51
352.502	329.31
352.884	353.27
353.267	357.34
353.65	353.49
354.032	393.49
354.414	391.68
354.797	392.36
355.179	395.3
355.562	410.67
355.944	419.03
356.326	428.52
356.709	411.12
357.091	414.96
357.473	457.22
357.855	446.37
358.238	430.33
358.62	431.68
359.002	434.62
359.384	432.14
359.766	460.61
360.148	436.2
360.53	449.08
360.912	438.01
361.294	459.03
361.676	434.85
362.057	444.79
362.439	456.32
362.821	444.56
363.203	450.89
363.584	445.47
363.966	448.18
364.348	462.64
364.729	481.85
365.111	443.66
365.493	456.32
365.874	454.73
366.256	455.41
366.637	457.22
367.019	447.95
367.4	463.55
367.781	459.93
368.163	475.3
368.544	472.81
368.925	487.28
369.306	488.86
369.688	476.43
370.069	475.52
370.45	473.94
370.831	485.69
371.212	507.61
371.593	490.89
371.974	501.06
372.355	490.21
372.736	510.1
373.117	517.56
373.498	496.99
373.879	473.49
374.26	499.7
374.641	459.48
375.021	496.99
375.402	540.83
375.783	528.18
376.163	567.5
376.544	551
376.925	558.23
377.305	541.51
377.686	540.38
378.066	562.98
378.447	558.46
378.827	558.01
379.208	568.18
379.588	569.31
379.968	586.71
380.349	576.54
380.729	575.86
381.109	606.59
381.489	583.54
381.87	599.59
382.25	597.33
382.63	631.9
383.01	629.42
383.39	626.71
383.77	616.76
384.15	641.62
384.53	632.58
384.91	677.1
385.29	678.91
385.67	664.45
386.049	679.81
386.429	694.73
386.809	696.99
387.189	696.31
387.568	708.74
387.948	716.65
388.328	731.34
388.707	757.55
389.087	756.19
389.466	768.62
389.846	766.59
390.225	786.93
390.605	782.86
390.984	785.35
391.363	805.23
391.743	794.84
392.122	815.4
392.501	848.62
392.881	827.38
393.26	844.78
393.639	857.89
394.018	849.75
394.397	861.73
394.776	868.51
395.155	886.13
395.534	905.34
395.913	912.35
396.292	910.32
396.671	930.2
397.05	928.17
397.429	937.43
397.808	961.39
398.186	975.17
398.565	959.81
398.944	969.52
399.323	974.49
399.701	994.83
400.08	972.23
400.458	1007.04
400.837	1034.38
401.215	1054.27
401.594	1069.18
401.972	1058.11
402.351	1068.95
402.729	1065.34
403.107	1094.72
403.486	1116.41
403.864	1110.08
404.242	1100.82
404.62	1151.21
404.999	1156.86
405.377	1150.53
405.755	1152.79
406.133	1190.76
406.511	1230.53
406.889	1238.44
407.267	1246.8
407.645	1257.42
408.023	1295.84
408.401	1289.74
408.779	1337.65
409.156	1322.96
409.534	1303.53
409.912	1362.28
410.29	1384.88
410.667	1421.49
411.045	1430.08
411.422	1457.42
411.8	1435.72
412.178	1442.5
412.555	1493.35
412.933	1528.38
413.31	1539
413.687	1550.98
414.065	1573.8
414.442	1592.11
414.819	1593.46
415.197	1614.48
415.574	1631.43
415.951	1675.49
416.328	1668.49
416.705	1690.63
417.082	1708.94
417.46	1759.78
417.837	1733.8
418.214	1787.58
418.591	1785.55
418.967	1797.75
419.344	1829.39
419.721	1849.95
420.098	1828.71
420.475	1882.04
420.852	1874.81
421.228	1902.15
421.605	1936.28
421.982	1925.43
422.358	1971.53
422.735	1983.28
423.111	2021.47
423.488	2040.45
423.864	2064.86
424.241	2063.28
424.617	2113.9
424.994	2114.13
425.37	2164.75
425.746	2172.43
426.123	2204.74
426.499	2211.3
426.875	2240.22
427.251	2286.55
427.627	2311.86
428.003	2348.47
428.379	2354.8
428.756	2368.81
429.132	2453.1
429.507	2447
429.883	2524.06
430.259	2554.34
430.635	2546.43
431.011	2582.81
431.387	2611.51
431.763	2644.51
432.138	2698.29
432.514	2724.96
432.89	2748.46
433.265	2823.26
433.641	2821.68
434.016	2853.31
434.392	2915.23
434.767	2947.1
435.143	2961.11
435.518	3015.34
435.894	3053.99
436.269	3066.19
436.644	3144.61
437.02	3159.07
437.395	3171.05
437.77	3196.13
438.145	3258.28
438.52	3278.39
438.895	3341.21
439.271	3345.28
439.646	3401.1
440.021	3395.9
440.395	3431.83
440.77	3395
441.145	3449.23
441.52	3535.78
441.895	3528.78
442.27	3569.91
442.645	3562
443.019	3659.62
443.394	3627.08
443.769	3679.06
444.143	3644.25
444.518	3758.15
444.892	3728.09
445.267	3738.26
445.641	3796.34
446.016	3848.32
446.39	3867.07
446.764	3867.07
447.139	3850.12
447.513	3917.69
447.887	3925.38
448.262	3990.23
448.636	3998.14
449.01	4063.23
449.384	4065.71
449.758	4088.76
450.132	4195.88
450.506	4210.79
450.88	4197.23
451.254	4227.74
451.628	4296.89
452.002	4357.68
452.376	4381.18
452.75	4418.25
453.123	4445.59
453.497	4503.67
453.871	4517.9
454.244	4688.52
454.618	4685.36
454.992	4752.02
455.365	4792.47
455.739	4908.18
456.112	4924.9
456.486	4955.63
456.859	5045.57
457.232	5146.81
457.606	5091.67
457.979	5198.56
458.352	5307.94
458.725	5360.59
459.099	5329.86
459.472	5490.99
459.845	5561.94
460.218	5580.7
460.591	5637.42
460.964	5685.33
461.337	5734.59
461.71	5921.03
462.083	5944.76
462.456	6003.97
462.829	6033.57
463.201	6096.39
463.574	6143.85
463.947	6220.23
464.32	6391.75
464.692	6388.82
465.065	6495.03
465.438	6549.71
465.81	6636.49
466.183	6727.11
466.555	6910.61
466.928	6985.86
467.3	6944.05
467.672	7009.82
468.045	7274.44
468.417	7254.78
468.789	7309.02
469.161	7385.4
469.534	7485.06
469.906	7711.94
470.278	7724.83
470.65	7833.75
471.022	7984.25
471.394	8092.95
471.766	8189.67
472.138	8247.75
472.51	8515.09
472.882	8571.36
473.253	8668.08
473.625	8827.85
473.997	8965.02
474.369	9047.05
474.74	9153.71
475.112	9380.83
475.484	9466.7
475.855	9659.46
476.227	9717.32
476.598	9999.79
476.97	10096.74
477.341	10380.35
477.713	10407.01
478.084	10480.23
478.455	10903.5
478.827	10887.91
479.198	11192.08
479.569	11270.72
479.94	11545.97
480.311	11702.57
480.682	11998.16
481.053	12218.49
481.424	12368.77
481.795	12489.9
482.166	12646.28
482.537	12831.36
482.908	13193.16
483.279	13281.29
483.65	13561.28
484.021	13764.44
484.391	13979.35
484.762	14083.3
485.133	14233.35
485.503	14460.02
485.874	14706.34
486.244	14885.99
486.615	15153.1
486.985	15281.69
487.356	15622.02
487.726	15760.55
488.097	16062.23
488.467	16117.15
488.837	16518.94
489.207	16596.46
489.578	16883
489.948	17010.91
490.318	17279.6
490.688	17330.22
491.058	17562.31
491.428	17781.06
491.798	18009.75
492.168	18347.37
492.538	18441.15
492.908	18637.53
493.278	18911.2
493.648	18911.65
494.017	19205.88
494.387	19343.95
494.757	19454.91
495.126	19716.83
495.496	19745.98
495.866	19972.19
496.235	20130.37
496.605	20343.02
496.974	20461.21
497.344	20574.66
497.713	20808.55
498.082	20983.01
498.452	21231.59
498.821	21209.44
499.19	21380.96
499.559	21517.68
499.928	21661.41
500.298	21866.83
500.667	22065.47
501.036	22074.28
501.405	22329.41
501.774	22393.82
502.143	22547.71
502.512	22688.27
502.88	22945.22
503.249	22792.68
503.618	23099.11
503.987	23202.16
504.356	23452.77
504.724	23589.27
505.093	23639.89
505.462	23772.31
505.83	23894.34
506.199	24229.48
506.567	24401.67
506.936	24430.37
507.304	24673.31
507.672	24829.46
508.041	24880.08
508.409	25186.06
508.777	25372.72
509.145	25570.01
509.514	25640.51
509.882	25834.41
510.25	25827.17
510.618	26174.96
510.986	26198.01
511.354	26466.03
511.722	26725.91
512.09	26864.43
512.458	26926.35
512.826	27173.13
513.193	27304.2
513.561	27390.3
513.929	27734.69
514.297	27899.44
514.664	28223.95
515.032	28349.37
515.4	28556.82
515.767	28590.04
516.135	28776.02
516.502	28667.78
516.869	29259.17
517.237	29321.77
517.604	29404.93
517.972	29745.26
518.339	29948.87
518.706	29956.33
519.073	30260.05
519.44	30385.7
519.808	30818
520.175	30713.83
520.542	31267.48
520.909	31399.46
521.276	31435.39
521.643	31737.08
522.009	31955.83
522.376	32273.33
522.743	32338.64
523.11	32663.83
523.477	33022.92
523.843	33276.24
524.21	33548.78
524.577	33793.97
524.943	33852.27
525.31	34094.53
525.676	34397.57
526.043	34681.63
526.409	34715.98
526.776	35160.94
527.142	35372.46
527.508	35593.24
527.874	35717.54
528.241	35885.44
528.607	35941.48
528.973	36560.45
529.339	36516.16
529.705	36874.34
530.071	37122.47
530.437	37223.26
530.803	37542.35
531.169	37839.51
531.535	37703.47
531.901	37863.47
532.267	38083.35
532.632	38274.98
532.998	38469.55
533.364	38772.37
533.73	38704.12
534.095	39020.27
534.461	39268.85
534.826	39458.23
535.192	39552.46
535.557	39841.49
535.923	39846.24
536.288	40019.57
536.653	40173.92
537.019	40221.15
537.384	40542.27
537.749	40680.79
538.114	40714.92
538.479	40723.51
538.845	40952.88
539.21	40986.1
539.575	41181.8
539.94	41360.78
540.305	41657.72
540.67	41617.49
541.034	41736.59
541.399	41999.86
541.764	42101.55
542.129	42182
542.494	42243.92
542.858	42443.69
543.223	42547.19
543.587	42833.96
543.952	42810.23
544.316	43168.64
544.681	43110.34
545.045	43319.14
545.41	43556.43
545.774	43701.05
546.138	43578.57
546.503	43915.06
546.867	43840.49
547.231	44094.04
547.595	44175.84
547.959	44441.83
548.324	44393.69
548.688	44519.34
549.052	44682.27
549.416	44776.96
549.779	44954.58
550.143	45096.72
550.507	45398.41
550.871	45483.38
551.235	45547.56
551.599	45829.81
551.962	45929.47
552.326	46144.15
552.689	46233.87
553.053	46172.18
553.417	46451.49
553.78	46890.35
554.143	46690.13
554.507	46841.76
554.87	47042.89
555.234	47473.61
555.597	47367.17
555.96	47472.25
556.323	47654.17
556.686	47782.98
557.05	47887.84
557.413	48114.27
557.776	48197.43
558.139	48488.5
558.502	48610.53
558.865	48741.15
559.228	48983.18
559.59	49159.44
559.953	49212.1
560.316	49571.41
560.679	49612.99
561.041	49834.45
561.404	49915.81
561.767	50204.39
562.129	50164.84
562.492	50463.81
562.854	50503.59
563.217	50575.9
563.579	50656.35
563.941	50979.73
564.304	51061.76
564.666	51284.36
565.028	51385.82
565.39	51503.56
565.753	51744.46
566.115	51831.69
566.477	52009.76
566.839	52033.72
567.201	52218.8
567.563	52325.01
567.925	52572.91
568.287	52492.69
568.648	52629.63
569.01	52783.98
569.372	52977.42
569.734	52975.84
570.095	53240.46
570.457	53405.66
570.819	53442.95
571.18	53420.57
571.542	53541.02
571.903	53593.22
572.265	53698.31
572.626	53837.28
572.987	53807.91
573.349	54024.85
573.71	54100.55
574.071	54130.16
574.432	54277.73
574.794	54435.01
575.155	54480.88
575.516	54360.66
575.877	54514.56
576.238	54555.68
576.599	54746.41
576.96	54672.29
577.32	54807.2
577.681	54900.53
578.042	55025.28
578.403	54922
578.763	54963.58
579.124	55083.81
579.485	55133.07
579.845	55199.96
580.206	55139.85
580.566	55183.69
580.927	55235.89
581.287	55301.2
581.648	55165.16
582.008	55380.97
582.368	55275.89
582.728	55304.59
583.089	55297.81
583.449	55351.37
583.809	55337.58
584.169	55397.47
584.529	55325.61
584.889	55629.55
585.249	55383.01
585.609	55306.85
585.969	55543.68
586.329	55479.5
586.688	55563.79
587.048	55460.75
587.408	55398.6
587.768	55414.87
588.127	55364.7
588.487	55376
588.846	55599.5
589.206	55338.04
589.565	55417.13
589.925	55563.12
590.284	55540.07
590.643	55519.5
591.003	55680.17
591.362	55635.88
591.721	55501.65
592.08	55560.63
592.44	55680.63
592.799	55713.17
593.158	55693.28
593.517	55641.98
593.876	55645.82
594.235	55537.58
594.593	55573.28
594.952	55623
595.311	55512.95
595.67	55714.75
596.029	55784.35
596.387	55789.55
596.746	55845.82
597.104	55675.65
597.463	55768.31
597.822	55857.12
598.18	55673.39
598.538	55750.46
598.897	55841.07
599.255	55730.79
599.613	56065.93
599.972	55905.93
600.33	55952.26
600.688	55905.71
601.046	55988.19
601.404	55993.16
601.762	56009.21
602.12	56093.95
602.478	56047.17
602.836	56047.85
603.194	55970.11
603.552	55997.45
603.91	55980.73
604.268	56171.91
604.625	55994.74
604.983	56137.79
605.341	55991.58
605.698	56146.6
606.056	56185.47
606.413	56198.35
606.771	56276.99
607.128	56307.5
607.485	56218.92
607.843	56234.51
608.2	56375.75
608.557	56481.28
608.914	56341.4
609.272	56488.51
609.629	56557.89
609.986	56585.46
610.343	56504.33
610.7	56673.37
611.057	56630.66
611.414	56622.52
611.771	56664.33
612.127	56757.43
612.484	56723.76
612.841	56796.3
613.198	56686.7
613.554	56707.94
613.911	56868.62
614.267	56861.84
614.624	56863.65
614.98	56878.79
615.337	56966.69
615.693	56960.14
616.05	56946.13
616.406	57160.14
616.762	56976.64
617.118	56988.84
617.475	57069.74
617.831	57082.62
618.187	57159.01
618.543	57125.33
618.899	57254.82
619.255	57152.45
619.611	57144.54
619.967	57240.59
620.323	57222.28
620.678	57210.98
621.034	57073.81
621.39	57060.48
621.746	57128.72
622.101	57383.41
622.457	57120.36
622.812	57175.95
623.168	57243.07
623.523	57280.36
623.879	57286.01
624.234	57136.86
624.589	57254.14
624.945	57248.27
625.3	57244.43
625.655	57217.99
626.01	57270.42
626.365	57286.01
626.72	57224.09
627.075	57223.41
627.43	57185.9
627.785	57129.85
628.14	57202.17
628.495	57203.75
628.85	57084.88
629.205	57077.2
629.559	57218.66
629.914	57079.91
630.269	57105
630.623	57025.9
630.978	56913.81
631.332	56972.8
631.687	56979.35
632.041	56933.47
632.396	56927.15
632.75	56890.31
633.104	56885.11
633.459	56761.73
633.813	56712.01
634.167	56749.07
634.521	56745.68
634.875	56732.8
635.229	56643.09
635.583	56565.8
635.937	56572.81
636.291	56543.2
636.645	56580.26
636.999	56457.33
637.352	56579.59
637.706	56425.01
638.06	56475.41
638.413	56367.39
638.767	56340.27
639.121	56371.46
639.474	56232.48
639.828	56260.27
640.181	56220.27
640.534	56255.98
640.888	56199.93
641.241	56055.31
641.594	56098.02
641.947	56189.54
642.301	56070.9
642.654	56064.8
643.007	56070.45
643.36	56005.59
643.713	56002.88
644.066	55985.7
644.419	55761.53
644.771	55508.65
645.124	55155.67
645.477	55070.7
645.83	55023.02
646.182	54992.06
646.535	54997.03
646.888	55065.95
647.24	54975.79
647.593	55122.9
647.945	54961.78
648.298	54834.55
648.65	54732.63
649.002	54768.56
649.355	54751.16
649.707	54744.15
650.059	54776.02
650.411	54963.58
650.763	55029.12
651.115	55298.04
651.467	55337.58
651.819	55224.37
652.171	55203.35
652.523	55105.5
652.875	55115.9
653.227	54991.15
653.578	55210.81
653.93	55108.44
654.282	54923.58
654.633	54932.17
654.985	54861.21
655.337	54882.23
655.688	54836.58
656.039	55020.98
656.391	54710.48
656.742	54821.67
657.094	54799.52
657.445	54921.55
657.796	54759.75
658.147	54597.72
658.498	54760.2
658.849	54680.43
659.2	54701.44
659.551	54609.02
659.902	54724.95
660.253	54647.66
660.604	54603.59
660.955	54457.38
661.306	54539.41
661.656	54556.81
662.007	54578.96
662.358	54538.74
662.708	54400.21
663.059	54502.13
663.409	54263.49
663.76	54508.45
664.11	54411.51
664.461	54478.85
664.811	54326.09
665.161	54425.97
665.511	54285.86
665.862	54338.06
666.212	54421
666.562	54402.69
666.912	54277.5
667.262	54211.96
667.612	54244.96
667.962	54205.86
668.312	54187.33
668.662	54348.68
669.011	54136.94
669.361	54107.56
669.711	54089.71
670.06	54084.96
670.41	54039.31
670.76	53968.13
671.109	54078.86
671.459	54032.53
671.808	53862.14
672.157	53996.83
672.507	53843.61
672.856	53828.92
673.205	53860.11
673.554	53937.17
673.904	53857.85
674.253	53944.85
674.602	53830.28
674.951	53416.05
675.3	53251.31
675.649	53687.68
675.998	53627.12
676.346	53717.06
676.695	53772.65
677.044	53523.62
677.393	53646.78
677.741	53640.91
678.09	53570.4
678.438	53381.03
678.787	53477.97
679.135	53577.63
679.484	53426.45
679.832	53471.64
680.181	53248.6
680.529	53379.9
680.877	53280.92
681.225	53189.84
681.573	53352.1
681.922	53084.31
682.27	53022.84
682.618	53077.53
682.966	53022.84
683.314	53008.38
683.661	52884.32
684.009	52742.17
684.357	52583.31
684.705	52540.37
685.053	52741.27
685.4	52621.95
685.748	52474.16
686.095	52384.44
686.443	52338.12
686.79	52331.11
687.138	52279.81
687.485	52233.49
687.832	52069.42
688.18	52036.88
688.527	52023.77
688.874	51992.59
689.221	51832.37
689.568	51753.95
689.915	51680.96
690.262	51614.97
690.609	51622.88
690.956	51466.05
691.303	51402.09
691.65	51207.07
691.997	51265.15
692.344	51063.8
692.69	50997.81
693.037	51083.46
693.383	50784.71
693.73	50776.12
694.077	50653.87
694.423	50584.04
694.769	50479.63
695.116	50444.38
695.462	50388.56
695.808	50224.27
696.155	50312.63
696.501	49946.09
696.847	50038.97
697.193	49728.24
697.539	49898.86
697.885	49617.06
698.231	49616.15
698.577	49517.4
698.923	49390.17
699.269	49273.56
699.614	49005.77
699.96	48971.88
700.306	48925.1
700.651	48821.6
700.997	48724.65
701.342	48732.79
701.688	48571.43
702.033	48396.3
702.379	48295.06
702.724	48175.96
703.069	48250.99
703.415	47812.81
703.76	47916.54
704.105	47874.73
704.45	47803.77
704.795	47460.28
705.14	47482.65
705.485	47479.94
705.83	47152.04
706.175	47342.77
706.52	47100.06
706.865	46947.3
707.209	46966.28
707.554	46783.91
707.899	46685.61
708.243	46676.34
708.588	46613.75
708.932	46324.71
709.277	46269.57
709.621	46332.4
709.966	46001.56
710.31	46060.99
710.654	45738.51
710.998	45840.43
711.342	45927.21
711.687	45778.74
712.031	45509.59
712.375	45269.37
712.719	45381.91
713.063	45338.07
713.407	45401.12
713.75	45162.26
714.094	45181.24
714.438	44895.83
714.782	44869.61
715.125	44814.25
715.469	44750.29
715.812	44607.25
716.156	44399.34
716.499	44327.48
716.843	44527.47
717.186	44186.92
717.53	44316.86
717.873	44452.22
718.216	44089.52
718.559	43884.55
718.902	43635.29
719.246	43855.85
719.589	43689.53
719.932	43484.56
720.275	43619.47
720.617	43458.8
720.96	43424
721.303	43456.31
721.646	43351.46
721.989	43099.71
722.331	43192.14
722.674	42984.01
723.016	42977.68
723.359	43037.57
723.701	42908.98
724.044	42676.45
724.386	42377.7
724.729	42466.96
725.071	42514.64
725.413	42469
725.755	42476.68
726.097	42269.23
726.439	42013.42
726.782	42006.41
727.124	42092.51
727.465	41913.08
727.807	41886.19
728.149	41928.9
728.491	41881.22
728.833	41788.11
729.175	41607.1
729.516	41499.08
729.858	41328.69
730.199	41500.21
730.541	41403.94
730.882	41226.77
731.224	41367.33
731.565	41147.45
731.906	41046.43
732.248	41074.46
732.589	40822.71
732.93	40721.92
733.271	40745.65
733.612	40838.08
733.953	40799.21
734.294	40498.88
734.635	40523.96
734.976	40689.83
735.317	40325.55
735.658	40411.42
735.999	40343.85
736.339	40157.42
736.68	40282.61
737.021	40022.51
737.361	39830.42
737.702	40128.72
738.042	39895.5
738.383	39846.24
738.723	39998.78
739.063	39715.62
739.404	39771.44
739.744	39730.31
740.084	39560.15
740.424	39554.04
740.764	39426.82
741.104	39417.55
741.444	39103.89
741.784	39172.59
742.124	39196.09
742.464	39158.12
742.804	39033.61
743.143	38922.2
743.483	39006.49
743.823	38740.96
744.162	38587.74
744.502	38763.11
744.841	38557.23
745.181	38631.81
745.52	38486.95
745.86	38458.93
746.199	38280.18
746.538	38314.3
746.877	38262.55
747.216	38202.22
747.556	38171.93
747.895	38170.58
748.234	37856.69
748.573	37907.76
748.911	37789.57
749.25	37794.77
749.589	37630.48
749.928	37515.23
750.267	37499.18
750.605	37500.77
750.944	37322.01
751.283	37173.32
751.621	37313.2
751.96	37119.98
752.298	37012.87
752.636	37168.8
752.975	36821.91
753.313	36750.73
753.651	36774.46
753.989	36678.19
754.327	36597.51
754.666	36379.21
755.004	36384.41
755.342	36399.1
755.679	36331.76
756.017	36009.96
756.355	36217.18
756.693	36001.14
757.031	36083.63
757.368	35819.45
757.706	35671.21
758.044	35689.74
758.381	35592.34
758.719	35329.97
759.056	35372.01
759.394	35220.6
759.731	35011.34
760.068	35040.04
760.405	34908.52
760.743	34710.33
761.08	34847.5
761.417	34539.04
761.754	34592.37
762.091	34360.28
762.428	34417.46
762.765	34122.32
763.102	34162.1
763.438	33949.9
763.775	33750.58
764.112	33740.64
764.449	33876
764.785	33772.05
765.122	33325.51
765.458	33250.71
765.795	33288.22
766.131	33237.83
766.467	33096.81
766.804	32953.77
767.14	32757.39
767.476	32894.11
767.812	32569.14
768.148	32662.02
768.485	32291.86
768.821	32250.96
769.157	32040.57
769.492	32049.16
769.828	32034.69
770.164	31672.22
770.5	31770.07
770.836	31654.82
771.171	31511.09
771.507	31345.67
771.842	31274.71
772.178	31287.82
772.513	31236.3
772.849	30945.68
773.184	30919.02
773.519	30872.24
773.855	30755.86
774.19	30498.92
774.525	30422.53
774.86	30372.14
775.195	30285.14
775.53	30234.52
775.865	29905.26
776.2	29790.23
776.535	29625.27
776.87	29662.33
777.205	29498.94
777.539	29303.01
777.874	29392.28
778.209	29069.57
778.543	29008.56
778.878	28880.43
779.212	28938.73
779.547	28621.45
779.881	28672.97
780.215	28519.31
780.55	28501.23
780.884	28240.22
781.218	28221.91
781.552	28246.55
781.886	27977.4
782.22	27863.5
782.554	27798.87
782.888	27514.14
783.222	27410.64
783.556	27355.95
783.889	27211.32
784.223	27037.09
784.557	27117.99
784.89	26997.09
785.224	26817.88
785.557	26723.2
785.891	26595.52
786.224	26492.02
786.558	26522.75
786.891	26355.07
787.224	26186.71
787.557	26103.55
787.891	25988.3
788.224	25948.75
788.557	25966.15
788.89	25995.31
789.223	25851.58
789.556	25629.89
789.888	25471.03
790.221	25464.02
790.554	25280.97
790.887	25373.17
791.219	25171.6
791.552	25137.47
791.884	24934.09
792.217	24888.67
792.549	24973.64
792.882	24723.93
793.214	24591.05
793.546	24664.04
793.879	24436.48
794.211	24213.43
794.543	24299.53
794.875	24102.47
795.207	24247.55
795.539	24016.6
795.871	24121.68
796.203	23909.94
796.535	23582.94
796.867	23662.49
797.198	23600.57
797.53	23546.56
797.862	23415.26
798.193	23406.45
798.525	23314.02
798.856	23289.39
799.188	23004.65
799.519	23060.02
799.85	22870.87
800.182	22943.41
800.513	22874.48
800.844	22597.2
801.175	22597.2
801.506	22668.39
801.837	22512.46
802.168	22395.17
802.499	22399.02
802.83	22308.85
803.161	22205.57
803.491	22166.03
803.822	22192.02
804.153	22042.64
804.483	21772.59
804.814	21847.62
805.145	21728.07
805.475	21761.29
805.805	21566.95
806.136	21706.15
806.466	21607.85
806.796	21563.11
807.126	21404.92
807.457	21394.3
807.787	21357.69
808.117	21153.85
808.447	21087.19
808.777	21079.5
809.107	21042.67
809.436	21034.76
809.766	20918.6
810.096	20871.37
810.426	20867.3
810.755	20858.27
811.085	20794.09
811.414	20760.64
811.744	20529.69
812.073	20508.67
812.403	20568.33
812.732	20385.28
813.061	20380.76
813.39	20141.9
813.719	20206.08
814.049	20248.11
814.378	20200.2
814.707	20048.79
815.036	20012.19
815.365	19830.04
815.693	19723.83
816.022	19877.95
816.351	19738.97
816.68	19602.93
817.008	19754.79
817.337	19490.39
817.665	19518.19
817.994	19564.29
818.322	19541.92
818.651	19459.66
818.979	19320
819.307	19374.01
819.636	19265.54
819.964	19085.2
820.292	19248.59
820.62	19141.7
820.948	19057.63
821.276	19070.29
821.604	19098.99
821.932	19215.14
822.259	19186.67
822.587	19087.69
822.915	19012.66
823.243	19099.44
823.57	19010.63
823.898	18991.2
824.225	18899.9
824.553	18962.95
824.88	18907.58
825.207	18993.91
825.535	18842.27
825.862	18961.82
826.189	18858.32
826.516	19009.27
826.843	19028.71
827.17	19026
827.497	19022.38
827.824	18989.16
828.151	18970.18
828.478	18830.75
828.805	19041.36
829.131	18888.15
829.458	18881.37
829.785	18817.41
830.111	18734.71
830.438	18976.05
830.764	18884.53
831.09	18964.98
831.417	18787.81
831.743	18863.29
832.069	18833.23
832.395	18677.31
832.722	18675.95
833.048	18684.99
833.374	18779.45
833.7	18739.9
834.026	18696.29
834.351	18704.88
834.677	18790.75
835.003	18734.93
835.329	18786.91
835.654	18745.55
835.98	18546.46
836.306	18546.46
836.631	18486.58
836.956	18613.35
837.282	18523.86
837.607	18442.06
837.932	18393.7
838.258	18487.25
838.583	18347.6
838.908	18233.93
839.233	18431.66
839.558	18329.52
839.883	18230.54
840.208	18138.56
840.533	18173.82
840.858	18227.37
841.182	18218.56
841.507	18195.06
841.832	18116.19
842.156	18032.12
842.481	18021.73
842.805	17913.94
843.13	17900.38
843.454	17869.19
843.778	17877.78
844.103	17744.45
844.427	17757.1
844.751	17875.74
845.075	17814.5
845.399	17652.7
845.723	17518.47
846.047	17484.34
846.371	17427.17
846.695	17425.81
847.019	17327.06
847.343	17165.71
847.666	17155.76
847.99	17091.81
848.313	17005.03
848.637	16847.75
848.96	16839.16
849.284	16897.69
849.607	16840.74
849.931	16647.75
850.254	16643.23
850.577	16548.32
850.9	16410.25
851.223	16468.1
851.546	16389.91
851.869	16259.52
852.192	16250.25
852.515	16109.69
852.838	16179.52
853.161	16107.2
853.483	16013.87
853.806	15942.91
854.129	15930.26
854.451	15888.9
854.774	15750.6
855.096	15719.87
855.419	15775.46
855.741	15667.89
856.063	15501.8
856.385	15579.31
856.708	15461.34
857.03	15412.08
857.352	15412.76
857.674	15321.91
857.996	15290.5
858.318	15194.23
858.64	15244.4
858.961	15084.41
859.283	15083.73
859.605	15010.06
859.926	15122.14
860.248	15033.79
860.57	15022.71
860.891	15078.98
861.212	14873.79
861.534	14901.81
861.855	14892.32
862.176	14969.15
862.498	14936.84
862.819	14908.37
863.14	14856.62
863.461	14796.28
863.782	14745.21
864.103	14749.05
864.424	14668.15
864.745	14729.16
865.065	14534.14
865.386	14530.3
865.707	14540.24
866.027	14577.98
866.348	14540.69
866.668	14500.01
866.989	14496.85
867.309	14345.44
867.63	14421.15
867.95	14433.12
868.27	14296.4
868.59	14354.03
868.91	14304.09
869.23	14250.3
869.55	14263.18
869.87	14382.5
870.19	14136.41
870.51	14172.57
870.83	14231.77
871.15	14108.84
871.469	14148.39
871.789	14218.89
872.109	14064.77
872.428	14054.15
872.748	14100.25
873.067	14077.65
873.386	14046.01
873.706	13999.46
874.025	14006.92
874.344	13926.24
874.663	13957.66
874.982	13943.87
875.301	13870.88
875.62	13859.58
875.939	13786.81
876.258	13899.58
876.577	13775.74
876.896	13793.14
877.214	13738.23
877.533	13827.94
877.852	13778.23
878.17	13660.94
878.489	13732.12
878.807	13695.97
879.125	13618.23
879.444	13595.63
879.762	13605.12
880.08	13684.67
880.398	13495.07
880.716	13563.77
881.034	13502.53
881.352	13524.45
881.67	13407.61
881.988	13484.9
882.306	13440.16
882.624	13401.51
882.941	13334.4
883.259	13333.94
883.577	13284.23
883.894	13218.47
884.212	13250.1
884.529	13273.38
884.846	13158.81
885.164	13142.54
885.481	13157.45
885.798	13182.31
886.115	13027.51
886.432	13047.17
886.75	13034.97
887.067	12920.62
887.383	12936.21
887.7	12945.25
888.017	12842.43
888.334	12865.03
888.651	12823.67
888.967	12753.39
889.284	12745.94
889.6	12665.03
889.917	12590.23
890.233	12648.09
890.55	12594.98
890.866	12628.88
891.182	12594.98
891.498	12586.62
891.815	12455.1
892.131	12405.83
892.447	12432.72
892.763	12389.11
893.079	12360.86
893.395	12276.12
893.71	12282.45
894.026	12295.33
894.342	12221.66
894.657	12072.51
894.973	12068.21
895.289	12085.16
895.604	12056.46
895.92	11917.71
896.235	11880.42
896.55	11938.95
896.865	11950.25
897.181	11910.25
897.496	11851.72
897.811	11841.55
898.126	11802.23
898.441	11738.96
898.756	11719.97
899.071	11673.42
899.386	11633.2
899.7	11529.92
900.015	11535.12
900.33	11377.38
900.644	11478.85
900.959	11456.25
901.273	11394.56
901.588	11351.62
901.902	11309.59
902.216	11317.05
902.531	11300.55
902.845	11243.83
903.159	11241.12
903.473	11074.34
903.787	11076.6
904.101	10999.77
904.415	10998.41
904.729	10950.73
905.042	10920.22
905.356	10891.97
905.67	10857.4
905.984	10846.1
906.297	10794.12
906.611	10687.69
906.924	10673.45
907.237	10619.21
907.551	10543.73
907.864	10528.59
908.177	10505.32
908.491	10437.3
908.804	10415.15
909.117	10310.29
909.43	10325.43
909.743	10280.01
910.056	10214.25
910.368	10270.97
910.681	10169.05
910.994	10110.3
911.307	10086.34
911.619	9974.94
911.932	10008.61
912.244	10015.61
912.557	10013.8
912.869	9920.93
913.181	9895.84
913.494	9823.08
913.806	9746.47
914.118	9811.55
914.43	9659.92
914.742	9646.36
915.054	9567.94
915.366	9569.07
915.678	9567.49
915.99	9553.7
916.302	9418.11
916.613	9516.87
916.925	9514.83
917.236	9402.75
917.548	9285.24
917.859	9337.89
918.171	9237.33
918.482	9137.44
918.794	9192.81
919.105	9065.13
919.416	9049.99
919.727	9032.81
920.038	8988.07
920.349	8933.83
920.66	8865.59
920.971	8920.5
921.282	8866.49
921.593	8792.59
921.903	8740.39
922.214	8722.31
922.525	8718.02
922.835	8668.3
923.146	8609.32
923.456	8565.03
923.767	8523.9
924.077	8537.91
924.387	8474.41
924.697	8492.94
925.008	8415.43
925.318	8383.34
925.628	8342.21
925.938	8316.45
926.248	8185.15
926.558	8254.08
926.867	8148.54
927.177	8193.97
927.487	8158.26
927.796	8056.34
928.106	8025.38
928.416	8034.65
928.725	7972.28
929.034	7938.6
929.344	7925.5
929.653	7889.57
929.962	7799.85
930.271	7819.96
930.581	7785.16
930.89	7671.95
931.199	7608.9
931.508	7636.01
931.817	7675.56
932.125	7589.91
932.434	7588.56
932.743	7507.88
933.051	7511.27
933.36	7490.71
933.669	7431.73
933.977	7446.19
934.286	7353.31
934.594	7370.94
934.902	7308.56
935.21	7251.84
935.519	7274.67
935.827	7199.19
936.135	7219.3
936.443	7126.42
936.751	7090.72
937.059	7108.57
937.367	6993.54
937.674	6983.15
937.982	6913.55
938.29	6965.98
938.597	6936.6
938.905	6846.2
939.213	6834.91
939.52	6830.39
939.827	6855.7
940.135	6769.6
940.442	6694.57
940.749	6701.58
941.056	6729.15
941.363	6605.08
941.67	6634.91
941.977	6530.96
942.284	6550.62
942.591	6565.99
942.898	6458.87
943.205	6445.76
943.511	6440.79
943.818	6373.9
944.125	6371.19
944.431	6334.13
944.738	6333
945.044	6339.55
945.35	6211.64
945.657	6221.59
945.963	6184.53
946.269	6219.33
946.575	6240.12
946.881	6122.83
947.187	6129.16
947.493	6023.63
947.799	6072.21
948.105	6018.66
948.41	6002.61
948.716	5955.61
949.022	5949.28
949.327	5928.94
949.633	5882.39
949.938	5880.35
950.244	5859.56
950.549	5818.89
950.854	5776.4
951.16	5750.64
951.465	5665.44
951.77	5693.69
952.075	5681.04
952.38	5672.68
952.685	5656.18
952.99	5559.01
953.294	5636.74
953.599	5532.11
953.904	5536.63
954.209	5512
954.513	5501.61
954.818	5454.38
955.122	5460.7
955.426	5455.96
955.731	5414.15
956.035	5390.42
956.339	5372.8
956.643	5349.97
956.948	5244.66
957.252	5292.12
957.556	5231.33
957.86	5243.53
958.163	5207.15
958.467	5176.19
958.771	5170.77
959.075	5105.23
959.378	5129.64
959.682	5078.12
959.985	5044.44
960.289	5045.35
960.592	5009.64
960.896	5010.77
961.199	4973.49
961.502	4959.25
961.805	4918.8
962.108	4881.96
962.411	4876.99
962.714	4834.28
963.017	4855.75
963.32	4844.45
963.623	4824.79
963.926	4775.07
964.228	4728.07
964.531	4743.89
964.833	4770.33
965.136	4735.53
965.438	4649.2
965.741	4661.63
966.043	4652.36
966.345	4590.44
966.648	4528.3
966.95	4566.26
967.252	4525.59
967.554	4513.84
967.856	4543.89
968.158	4472.71
968.46	4441.97
968.761	4466.83
969.063	4435.42
969.365	4402.88
969.666	4399.26
969.968	4357.23
970.269	4340.06
970.571	4321.3
970.872	4291.47
971.174	4273.16
971.475	4217.8
971.776	4216.89
972.077	4228.65
972.378	4195.2
972.679	4190.91
972.98	4173.28
973.281	4152.04
973.582	4163.56
973.883	4150.46
974.183	4114.07
974.484	4101.64
974.785	4048.09
975.085	4007.41
975.386	4020.74
975.686	4003.57
975.986	3990.91
976.287	3988.65
976.587	3925.15
976.887	3959.95
977.187	3905.49
977.487	3907.3
977.787	3860.52
978.087	3855.1
978.387	3829.79
978.687	3840.86
978.987	3800.41
979.286	3807.41
979.586	3745.04
979.885	3775.32
980.185	3740.52
980.484	3763.57
980.784	3711.82
981.083	3682.45
981.382	3684.48
981.682	3639.06
981.981	3647.19
982.28	3604.03
982.579	3568.32
982.878	3612.84
983.177	3539.4
983.475	3565.61
983.774	3560.41
984.073	3478.38
984.372	3507.08
984.67	3489.23
984.969	3459.4
985.267	3506.4
985.566	3415.33
985.864	3399.29
986.162	3404.94
986.461	3380.31
986.759	3413.07
987.057	3385.5
987.355	3383.02
987.653	3311.61
987.951	3331.27
988.249	3271.16
988.547	3267.99
988.844	3282.91
989.142	3225.28
989.44	3211.5
989.737	3221.44
990.035	3202.91
990.332	3173.53
990.63	3180.31
990.927	3164.27
991.224	3143.02
991.521	3134.66
991.819	3111.84
992.116	3115
992.413	3051.5
992.71	3054.89
993.006	3079.3
993.303	3045.85
993.6	3051.5
993.897	2991.39
994.193	2953.65
994.49	2976.48
994.787	2955.46
995.083	2914.78
995.379	2903.71
995.676	2917.95
995.972	2876.59
996.268	2840.43
996.565	2858.74
996.861	2874.33
997.157	2839.53
997.453	2789.59
997.749	2828.46
998.044	2769.02
998.34	2769.48
998.636	2788.46
998.932	2745.97
999.227	2738.29
999.523	2725.63
999.818	2721.34
1000.114	2715.01
1000.409	2661.68
1000.704	2637.95
1001	2648.8
1001.295	2648.12
1001.59	2629.37
1001.885	2614.9
1002.18	2614
1002.475	2588.46
1002.77	2575.13
1003.065	2522.25
1003.359	2549.37
1003.654	2532.19
1003.949	2484.28
1004.243	2522.48
1004.538	2486.09
1004.832	2484.96
1005.127	2438.41
1005.421	2436.83
1005.715	2439.54
1006.009	2398.41
1006.304	2386.43
1006.598	2381.91
1006.892	2338.98
1007.186	2349.83
1007.48	2346.21
1007.773	2313.89
1008.067	2305.76
1008.361	2309.83
1008.655	2282.48
1008.948	2268.47
1009.242	2211.3
1009.535	2237.96
1009.829	2214.69
1010.122	2194.58
1010.415	2190.06
1010.708	2149.6
1011.001	2153.45
1011.295	2138.76
1011.588	2120.9
1011.881	2138.08
1012.173	2119.77
1012.466	2108.93
1012.759	2113.45
1013.052	2081.81
1013.344	2024.41
1013.637	2059.89
1013.93	2041.81
1014.222	2008.59
1014.514	1991.42
1014.807	1981.93
1015.099	1983.28
1015.391	1964.3
1015.683	1943.73
1015.976	1967.01
1016.268	1959.1
1016.56	1923.85
1016.851	1931.53
1017.143	1903.51
1017.435	1879.56
1017.727	1879.78
1018.018	1863.51
1018.31	1871.87
1018.602	1839.33
1018.893	1829.61
1019.185	1783.51
1019.476	1800.46
1019.767	1792.33
1020.058	1801.14
1020.35	1736.06
1020.641	1751.2
1020.932	1740.12
1021.223	1708.94
1021.514	1711.88
1021.804	1698.32
1022.095	1685.44
1022.386	1677.07
1022.677	1651.99
1022.967	1659.45
1023.258	1620.8
1023.548	1646.34
1023.839	1597.08
1024.129	1623.06
1024.419	1597.75
1024.709	1566.34
1025	1561.6
1025.29	1569.05
1025.58	1539.45
1025.87	1562.73
1026.16	1521.37
1026.449	1545.1
1026.739	1510.98
1027.029	1490.86
1027.319	1495.84
1027.608	1498.55
1027.898	1466.91
1028.187	1459.91
1028.477	1453.35
1028.766	1423.52
1029.055	1452.67
1029.344	1440.92
1029.634	1409.28
1029.923	1412.45
1030.212	1398.66
1030.501	1402.73
1030.79	1348.27
1031.078	1361.15
1031.367	1342.62
1031.656	1362.73
1031.945	1331.55
1032.233	1346.01
1032.522	1322.96
1032.81	1322.51
1033.099	1305.33
1033.387	1285.45
1033.675	1269.85
1033.963	1274.15
1034.251	1266.24
1034.54	1252
1034.828	1240.02
1035.116	1255.39
1035.403	1230.53
1035.691	1219.91
1035.979	1191.89
1036.267	1202.51
1036.554	1194.6
1036.842	1170.2
1037.129	1181.27
1037.417	1166.81
1037.704	1144.66
1037.992	1146.47
1038.279	1151.21
1038.566	1132.23
1038.853	1132.23
1039.14	1132.23
