Data from foil_FLMS001491_013.txt Node
Date: Tue Feb 07 11:25:27 GMT 2017
User: dcchb
Spectrometer: FLMS00149
Trigger mode: 0
Integration Time (sec): 2.000000E-2
Scans to average: 10
Electric dark correction enabled: true
Nonlinearity correction enabled: false
Boxcar width: 0
XAxis mode: Wavelengths
Number of Pixels in Spectrum: 2048
>>>>>Begin Spectral Data<<<<<
341.393	-4.39
341.776	-4.39
342.16	-4.39
342.543	-49.82
342.927	-62.02
343.31	-43.94
343.693	-81.23
344.077	-60.66
344.46	-68.8
344.843	-55.01
345.226	-53.66
345.61	-20.89
345.993	-11.4
346.376	5.55
346.759	17.08
347.142	15.49
347.525	59.11
347.908	54.14
348.291	61.82
348.674	90.52
349.057	91.88
349.44	121.71
349.823	141.82
350.206	183.85
350.588	212.1
350.971	249.84
351.354	279.89
351.737	302.04
352.119	303.17
352.502	315.15
352.884	302.94
353.267	330.97
353.65	348.37
354.032	364.86
354.414	341.59
354.797	360.8
355.179	363.96
355.562	361.02
355.944	396.73
356.326	385.2
356.709	407.12
357.091	396.73
357.473	396.73
357.855	410.29
358.238	410.29
358.62	406.67
359.002	410.51
359.384	397.4
359.766	402.6
360.148	401.02
360.53	418.65
360.912	405.99
361.294	427.23
361.676	411.64
362.057	389.5
362.439	401.92
362.821	427.91
363.203	408.03
363.584	426.33
363.966	432.66
364.348	417.97
364.729	421.81
365.111	415.48
365.493	410.06
365.874	426.56
366.256	410.51
366.637	409.16
367.019	406.44
367.4	406.67
367.781	407.12
368.163	413.22
368.544	433.56
368.925	440.34
369.306	440.57
369.688	416.39
370.069	426.1
370.45	440.12
370.831	436.73
371.212	436.73
371.593	452.09
371.974	438.99
372.355	438.31
372.736	464.75
373.117	461.13
373.498	433.56
373.879	441.92
374.26	443.73
374.641	464.3
375.021	474.69
375.402	476.27
375.783	509.72
376.163	524.18
376.544	507.23
376.925	492.54
377.305	494.8
377.686	503.84
378.066	501.81
378.447	507.01
378.827	510.85
379.208	521.7
379.588	501.13
379.968	526.89
380.349	515.37
380.729	566.21
381.109	534.8
381.489	552.43
381.87	565.76
382.25	579.77
382.63	572.09
383.01	566.44
383.39	595.59
383.77	559.21
384.15	577.97
384.53	581.58
384.91	601.47
385.29	604.86
385.67	622.94
386.049	640.34
386.429	623.61
386.809	647.79
387.189	634.01
387.568	630.62
387.948	655.48
388.328	648.02
388.707	660.9
389.087	675.82
389.466	687.34
389.846	667.68
390.225	699.77
390.605	711.75
390.984	724.4
391.363	714.91
391.743	730.05
392.122	748.36
392.501	744.74
392.881	763.5
393.26	774.57
393.639	770.05
394.018	770.05
394.397	791.97
394.776	791.74
395.155	789.71
395.534	811.41
395.913	822.48
396.292	803.72
396.671	836.26
397.05	828.13
397.429	845.3
397.808	855.7
398.186	862.93
398.565	866.09
398.944	875.13
399.323	887.56
399.701	876.26
400.08	910.61
400.458	916.71
400.837	913.1
401.215	947.9
401.594	948.8
401.972	958.75
402.351	946.77
402.729	989.25
403.107	989.93
403.486	1014.11
403.864	1007.56
404.242	1013.43
404.62	1012.98
404.999	1015.24
405.377	1074.68
405.755	1070.38
406.133	1060.44
406.511	1082.58
406.889	1103.83
407.267	1132.3
407.645	1123.04
408.023	1156.48
408.401	1138.85
408.779	1161.45
409.156	1234.22
409.534	1193.54
409.912	1244.84
410.29	1259.3
410.667	1251.39
411.045	1278.06
411.422	1316.7
411.8	1301.34
412.178	1314.67
412.555	1352.41
412.933	1351.28
413.31	1381.79
413.687	1400.99
414.065	1419.3
414.442	1415.23
414.819	1451.16
415.197	1482.12
415.574	1504.27
415.951	1492.74
416.328	1497.26
416.705	1543.82
417.082	1540.43
417.46	1562.12
417.837	1590.14
418.214	1603.02
418.591	1607.54
418.967	1631.27
419.344	1641.44
419.721	1667.88
420.098	1670.82
420.475	1714.88
420.852	1696.35
421.228	1707.43
421.605	1737.71
421.982	1774.77
422.358	1824.94
422.735	1792.17
423.111	1838.72
423.488	1851.83
423.864	1877.14
424.241	1883.92
424.617	1899.96
424.994	1937.48
425.37	1933.86
425.746	1933.86
426.123	1970.92
426.499	1991.26
426.875	1984.93
427.251	2056.57
427.627	2109.45
428.003	2118.72
428.379	2129.11
428.756	2147.64
429.132	2223.8
429.507	2210.69
429.883	2250.69
430.259	2294.08
430.635	2333.17
431.011	2361.42
431.387	2414.75
431.763	2446.84
432.138	2463.34
432.514	2499.95
432.89	2526.39
433.265	2575.65
433.641	2590.57
434.016	2605.26
434.392	2638.25
434.767	2750.34
435.143	2734.97
435.518	2728.87
435.894	2772.26
436.269	2853.39
436.644	2884.35
437.02	2910.56
437.395	2871.69
437.77	2929.54
438.145	3052.7
438.52	3017.67
438.895	3076.2
439.271	3058.58
439.646	3179.7
440.021	3166.37
440.395	3197.56
440.77	3156.88
441.145	3245.69
441.52	3308.29
441.895	3287.05
442.27	3348.51
442.645	3338.57
443.019	3352.58
443.394	3420.6
443.769	3447.49
444.143	3441.62
444.518	3511.9
444.892	3503.31
445.267	3554.38
445.641	3571.78
446.016	3604.1
446.39	3619.24
446.764	3661.95
447.139	3706.02
447.513	3706.24
447.887	3738.56
448.262	3759.8
448.636	3796.41
449.01	3882.28
449.384	3892.68
449.758	3911.44
450.132	3959.8
450.506	3984.88
450.88	4048.38
451.254	4059.68
451.628	4117.76
452.002	4141.94
452.376	4156.85
452.75	4244.08
453.123	4248.38
453.497	4303.52
453.871	4343.74
454.244	4454.25
454.618	4434.59
454.992	4525.43
455.365	4539.44
455.739	4581.93
456.112	4629.84
456.486	4703.73
456.859	4717.97
457.232	4865.54
457.606	4811.75
457.979	4877.51
458.352	4986.44
458.725	5059.43
459.099	5077.96
459.472	5163.38
459.845	5242.02
460.218	5218.07
460.591	5242.93
460.964	5331.74
461.337	5428.01
461.71	5502.58
462.083	5529.25
462.456	5578.06
462.829	5589.13
463.201	5663.71
463.574	5686.53
463.947	5829.58
464.32	5894.21
464.692	5962.68
465.065	5990.93
465.438	6126.75
465.81	6204.26
466.183	6238.61
466.555	6383.01
466.928	6398.6
467.3	6449.9
467.672	6514.98
468.045	6716.33
468.417	6741.64
468.789	6726.28
469.161	6804.69
469.534	7003.56
469.906	7072.26
470.278	7167.4
470.65	7297.11
471.022	7358.8
471.394	7483.09
471.766	7557.44
472.138	7595.41
472.51	7826.36
472.882	7924.89
473.253	8032.01
473.625	8085.56
473.997	8324.2
474.369	8320.36
474.74	8404.43
475.112	8535.5
475.484	8719.22
475.855	8887.13
476.227	8877.18
476.598	9207.34
476.97	9292.31
477.341	9471.29
477.713	9580.21
478.084	9606.88
478.455	9939.07
478.827	10048
479.198	10252.51
479.569	10340.87
479.94	10546.74
480.311	10734.53
480.682	10927.52
481.053	11203.9
481.424	11313.28
481.795	11475.76
482.166	11685.92
482.537	11779.25
482.908	12018.57
483.279	12144.21
483.65	12404.09
484.021	12644.77
484.391	12821.94
484.762	12881.6
485.133	13124.98
485.503	13233
485.874	13512.54
486.244	13663.95
486.615	13919.31
486.985	14116.37
487.356	14286.98
487.726	14430.48
488.097	14715.9
488.467	14778.27
488.837	15110.24
489.207	15241.76
489.578	15527.18
489.948	15609.66
490.318	15841.74
490.688	15953.15
491.058	16244.67
491.428	16370.77
491.798	16654.83
492.168	16931.89
492.538	16971.66
492.908	17207.58
493.278	17428.6
493.648	17517.18
494.017	17688.7
494.387	17838.53
494.757	18079.43
495.126	18155.58
495.496	18225.41
495.866	18452.07
496.235	18628.56
496.605	18778.39
496.974	18891.38
497.344	19065.61
497.713	19223.12
498.082	19349.67
498.452	19605.71
498.821	19664.92
499.19	19773.62
499.559	19948.76
499.928	20191.01
500.298	20282.31
500.667	20494.28
501.036	20438.01
501.405	20762.97
501.774	20762.52
502.143	20902.85
502.512	21048.16
502.88	21156.18
503.249	21244.31
503.618	21496.96
503.987	21521.6
504.356	21722.72
504.724	21915.71
505.093	21994.58
505.462	22080.45
505.83	22278.41
506.199	22417.62
506.567	22737.16
506.936	22783.48
507.304	23074.77
507.672	23118.62
508.041	23204.49
508.409	23432.96
508.777	23573.74
509.145	23865.94
509.514	23781.87
509.882	24034.07
510.25	24206.27
510.618	24370.11
510.986	24314.06
511.354	24713.38
511.722	24855.52
512.09	25108.39
512.458	25007.61
512.826	25297.77
513.193	25446.46
513.561	25601.04
513.929	25819.79
514.297	26031.53
514.664	26336.16
515.032	26373.44
515.4	26674.68
515.767	26681.46
516.135	26914.45
516.502	26771.17
516.869	27392.85
517.237	27377.26
517.604	27443.93
517.972	27911.48
518.339	27964.59
518.706	28076
519.073	28299.27
519.44	28468.53
519.808	28750.11
520.175	28721.86
520.542	29182.64
520.909	29299.02
521.276	29342.63
521.643	29766.58
522.009	29861.04
522.376	30105.78
522.743	30365.66
523.11	30665.08
523.477	30868.02
523.843	31149.59
524.21	31484.95
524.577	31636.13
524.943	31750.7
525.31	31938.72
525.676	32238.6
526.043	32478.6
526.409	32654.41
526.776	33011.91
527.142	32990.45
527.508	33283.77
527.874	33600.37
528.241	33606.48
528.607	33843.31
528.973	34139.12
529.339	34208.72
529.705	34537.52
530.071	34852.32
530.437	34954.01
530.803	35154.23
531.169	35258.86
531.535	35399.65
531.901	35371.63
532.267	35789.47
532.632	35943.81
532.998	36128.89
533.364	36321.43
533.73	36404.59
534.095	36676
534.461	36721.2
534.826	37060.85
535.192	37178.13
535.557	37527.5
535.923	37534.06
536.288	37503.32
536.653	37899.24
537.019	37599.59
537.384	37912.12
537.749	38098.56
538.114	38188.05
538.479	38259.46
538.845	38531.32
539.21	38406.57
539.575	38681.14
539.94	38674.82
540.305	39080.68
540.67	39093.79
541.034	39289.72
541.399	39421.46
541.764	39489.03
542.129	39654.45
542.494	39751.62
542.858	39959.75
543.223	39932.18
543.587	40242.68
543.952	40281.55
544.316	40436.8
544.681	40445.84
545.045	40573.98
545.41	40947.53
545.774	40876.79
546.138	41035.43
546.503	41173.51
546.867	41062.32
547.231	41389.55
547.595	41535.31
547.959	41651.24
548.324	41729.43
548.688	41881.96
549.052	41980.72
549.416	41999.47
549.779	42193.59
550.143	42286.92
550.507	42613.92
550.871	42732.79
551.235	42659.12
551.599	42987.25
551.962	43057.07
552.326	43238.99
552.689	43512.43
553.053	43381.13
553.417	43569.6
553.78	43921.01
554.143	43815.92
554.507	44071.28
554.87	44231.05
555.234	44510.82
555.597	44307.44
555.96	44649.35
556.323	44816.12
556.686	44926.86
557.05	45231.48
557.413	45222.21
557.776	45464.92
558.139	45669.66
558.502	45706.27
558.865	45960.95
559.228	46145.58
559.59	46252.47
559.953	46346.71
560.316	46805.68
560.679	46771.78
561.041	46937.2
561.404	47093.35
561.767	47412.21
562.129	47264.42
562.492	47854.69
562.854	47808.59
563.217	47834.58
563.579	48061.01
563.941	48192.53
564.304	48330.83
564.666	48584.84
565.028	48610.37
565.39	48848.33
565.753	49053.07
566.115	49076.12
566.477	49343.46
566.839	49380.3
567.201	49677.92
567.563	49654.64
567.925	49881.98
568.287	49929.44
568.648	49961.75
569.01	50272.03
569.372	50538.69
569.734	50280.39
570.095	50547.5
570.457	50654.39
570.819	50730.54
571.18	50850.09
571.542	50943.65
571.903	50932.8
572.265	51120.59
572.626	51138.22
572.987	51313.81
573.349	51345.67
573.71	51525.55
574.071	51527.59
574.432	51707.02
574.794	51876.28
575.155	51902.27
575.516	51849.84
575.877	51973.45
576.238	52058.65
576.599	52118.3
576.96	52067.46
577.32	52112.66
577.681	52289.37
578.042	52339.77
578.403	52348.58
578.763	52396.49
579.124	52468.58
579.485	52599.42
579.845	52577.5
580.206	52639.42
580.566	52512.42
580.927	52661.79
581.287	52622.92
581.648	52558.75
582.008	52731.4
582.368	52684.17
582.728	52684.39
583.089	52674.45
583.449	52748.57
583.809	52706.09
584.169	52711.96
584.529	52678.97
584.889	52944.27
585.249	52671.96
585.609	52773.2
585.969	52839.19
586.329	52768.01
586.688	52785.63
587.048	52758.06
587.408	52641
587.768	52697.27
588.127	52709.7
588.487	52649.82
588.846	52917.38
589.206	52846.87
589.565	52759.64
589.925	52894.56
590.284	52709.48
590.643	52766.65
591.003	52879.64
591.362	52958.06
591.721	52791.51
592.08	52786.08
592.44	52850.26
592.799	52840.32
593.158	52869.02
593.517	52776.37
593.876	52875.35
594.235	52751.51
594.593	52778.63
594.952	52869.92
595.311	52757.16
595.67	52937.27
596.029	52868.79
596.387	52986.98
596.746	53003.48
597.104	52810.26
597.463	52899.08
597.822	53034.89
598.18	52937.04
598.538	52826.53
598.897	53060.88
599.255	52819.53
599.613	53205.06
599.972	52951.5
600.33	52984.27
600.688	52903.59
601.046	53118.5
601.404	53159.63
601.762	52993.76
602.12	53169.35
602.478	53196.47
602.836	53266.52
603.194	53034.89
603.552	53128.22
603.91	53086.41
604.268	53207.54
604.625	53156.47
604.983	53243.7
605.341	53104.49
605.698	53267.2
606.056	53333.64
606.413	53287.99
606.771	53356.69
607.128	53380.42
607.485	53209.8
607.843	53288.67
608.2	53377.03
608.557	53454.99
608.914	53310.59
609.272	53551.26
609.629	53544.26
609.986	53622.45
610.343	53563.24
610.7	53711.48
611.057	53619.73
611.414	53583.8
611.771	53661.32
612.127	53685.04
612.484	53646.85
612.841	53784.93
613.198	53636.23
613.554	53659.28
613.911	53855.89
614.267	53888.43
614.624	53706.74
614.98	53829.45
615.337	54059.27
615.693	53906.28
616.05	53853.4
616.406	54111.47
616.762	54007.07
617.118	53909.9
617.475	53946.05
617.831	53963.91
618.187	53966.84
618.543	53901.08
618.899	54082.32
619.255	54064.02
619.611	53898.82
619.967	54059.04
620.323	54042.77
620.678	53988.09
621.034	53920.97
621.39	54026.96
621.746	53899.73
622.101	54197.57
622.457	53954.41
622.812	54001.65
623.168	54094.98
623.523	54010.68
623.879	54114.41
624.234	53863.8
624.589	53984.24
624.945	53957.58
625.3	54077.35
625.655	54014.75
626.01	53993.28
626.365	54022.89
626.72	53888.88
627.075	53889.33
627.43	53879.39
627.785	53756.68
628.14	53864.02
628.495	53948.77
628.85	53915.77
629.205	53723.01
629.559	53956
629.914	53793.51
630.269	53919.39
630.623	53694.31
630.978	53595.55
631.332	53725.04
631.687	53786.06
632.041	53544.26
632.396	53577.25
632.75	53469.91
633.104	53446.18
633.459	53346.75
633.813	53372.74
634.167	53324.15
634.521	53369.35
634.875	53392.62
635.229	53314.66
635.583	53022.24
635.937	53026.53
636.291	53011.39
636.645	53014.78
636.999	52912.63
637.352	52942.46
637.706	52764.62
638.06	52874.9
638.413	52732.75
638.767	52782.47
639.121	52735.46
639.474	52521.68
639.828	52583.38
640.181	52575.02
640.534	52527.79
640.888	52349.49
641.241	52264.06
641.594	52278.07
641.947	52374.34
642.301	52243.27
642.654	52243.27
643.007	52155.59
643.36	52076.95
643.713	52052.09
644.066	52207.57
644.419	51972.77
644.771	51676.96
645.124	51355.39
645.477	51201.72
645.83	51061.16
646.182	50877.89
646.535	50789.98
646.888	50877.66
647.24	50656.87
647.593	50990.2
647.945	50837.66
648.298	50736.65
648.65	50512.92
649.002	50392.93
649.355	50523.32
649.707	50453.49
650.059	50561.06
650.411	50946.13
650.763	50799.24
651.115	51126.01
651.467	51050.08
651.819	51044.66
652.171	50789.07
652.523	50859.35
652.875	51010.09
653.227	50722.41
653.578	50907.04
653.93	50867.72
654.282	50734.16
654.633	50610.32
654.985	50714.73
655.337	50631.56
655.688	50552.7
656.039	50580.72
656.391	50368.07
656.742	50406.03
657.094	50459.82
657.445	50434.28
657.796	50341.85
658.147	50332.59
658.498	50125.36
658.849	50394.28
659.2	50200.39
659.551	50150.67
659.902	50189.32
660.253	50095.53
660.604	50127.4
660.955	49924.92
661.306	50061.41
661.656	49948.19
662.007	49913.84
662.358	49896.44
662.708	49877.91
663.059	49914.75
663.409	49593.63
663.76	49918.59
664.11	49838.36
664.461	49834.52
664.811	49848.99
665.161	49818.7
665.511	49551.37
665.862	49679.5
666.212	49695.32
666.562	49747.97
666.912	49695.77
667.262	49518.37
667.612	49481.54
667.962	49521.54
668.312	49513.18
668.662	49658.03
669.011	49453.52
669.361	49379.85
669.711	49317.02
670.06	49306.4
670.41	49208.1
670.76	49165.84
671.109	49279.74
671.459	49091.72
671.808	49020.76
672.157	49135.11
672.507	48804.27
672.856	48819.86
673.205	48853.31
673.554	49013.08
673.904	48865.73
674.253	49009.46
674.602	49042.91
674.951	48424.39
675.3	48130.16
675.649	48821.22
675.998	48638.17
676.346	48659.86
676.695	48883.59
677.044	48519.08
677.393	48575.35
677.741	48600.66
678.09	48364.51
678.438	48329.48
678.787	48397.05
679.135	48377.39
679.484	48017.4
679.832	48123.61
680.181	48053.55
680.529	48063.72
680.877	47877.96
681.225	47845.2
681.573	48038.41
681.922	47782.6
682.27	47689.27
682.618	47712.54
682.966	47552.1
683.314	47578.31
683.661	47558.2
684.009	47426.22
684.357	47280.69
684.705	47208.6
685.053	47089.51
685.4	47180.81
685.748	46904.66
686.095	46908.72
686.443	46800.48
686.79	46649.07
687.138	46676.64
687.485	46690.88
687.832	46712.35
688.18	46626.92
688.527	46313.26
688.874	46253.83
689.221	46187.84
689.568	45931.12
689.915	45862.42
690.262	45832.14
690.609	45764.8
690.956	45722.54
691.303	45680.96
691.65	45501.08
691.997	45459.5
692.344	45076.68
692.69	45185.83
693.037	44992.84
693.383	44683.92
693.73	44911.94
694.077	44485.96
694.423	44482.35
694.769	44483.7
695.116	44306.98
695.462	44158.06
695.808	44024.28
696.155	44090.04
696.501	43842.36
696.847	43707.68
697.193	43381.81
697.539	43683.95
697.885	43313.34
698.231	43191.76
698.577	43173.91
698.923	43084.42
699.269	42890.98
699.614	42758.78
699.96	42659.8
700.306	42531.21
700.651	42469.29
700.997	42222.29
701.342	42220.94
701.688	42200.37
702.033	41951.11
702.379	41932.81
702.724	41928.52
703.069	41953.15
703.415	41285.14
703.76	41350.9
704.105	41469.09
704.45	41184.35
704.795	40995.21
705.14	40971.48
705.485	40803.35
705.83	40720.19
706.175	40736.46
706.52	40580.98
706.865	40507.76
707.209	40461.21
707.554	40299.41
707.899	40447.88
708.243	40185.51
708.588	40115.23
708.932	39787.78
709.277	39784.39
709.621	39815.13
709.966	39442.03
710.31	39516.15
710.654	39076.84
710.998	39317.51
711.342	39153.45
711.687	39108.25
712.031	39040.46
712.375	38960.01
712.719	38835.72
713.063	38729.5
713.407	39022.15
713.75	38671.2
714.094	38650.86
714.438	38525.22
714.782	38481.38
715.125	38221.5
715.469	38312.11
715.812	38048.39
716.156	38019.24
716.499	38006.13
716.843	37963.2
717.186	37613.15
717.53	37721.62
717.873	37740.83
718.216	37481.85
718.559	37524.34
718.902	37202.54
719.246	37451.12
719.589	37271.01
719.932	37114.18
720.275	36968.19
720.617	36968.19
720.96	36969.78
721.303	36913.96
721.646	36828.09
721.989	36689.11
722.331	36681.2
722.674	36587.19
723.016	36576.57
723.359	36596.23
723.701	36473.97
724.044	36237.37
724.386	35989.46
724.729	36141.78
725.071	36022.46
725.413	36030.82
725.755	35955.57
726.097	35657.72
726.439	35669.7
726.782	35498.4
727.124	35853.87
727.465	35463.38
727.807	35443.04
728.149	35260.22
728.491	35297.5
728.833	35312.19
729.175	35334.79
729.516	35214.57
729.858	35170.28
730.199	35033.33
730.541	34909.94
730.882	34898.64
731.224	34997.4
731.565	34656.17
731.906	34788.59
732.248	34733.68
732.589	34594.7
732.93	34356.51
733.271	34326
733.612	34376.62
733.953	34389.73
734.294	34182.96
734.635	34164.65
734.976	34336.63
735.317	33961.04
735.658	34044.2
735.999	33955.39
736.339	33872
736.68	33908.84
737.021	33706.13
737.361	33605.12
737.702	33718.11
738.042	33571.67
738.383	33471.79
738.723	33624.78
739.063	33362.19
739.404	33493.26
739.744	33393.37
740.084	33283.77
740.424	33292.36
740.764	33206.03
741.104	33326.48
741.444	33195.41
741.784	32842.88
742.124	32875.19
742.464	33038.58
742.804	32822.77
743.143	32747.06
743.483	32886.27
743.823	32639.72
744.162	32552.27
744.502	32579.38
744.841	32343.01
745.181	32425.94
745.52	32267.53
745.86	32227.98
746.199	32169
746.538	32092.62
746.877	32230.47
747.216	32142.11
747.556	32020.3
747.895	31972.85
748.234	31850.82
748.573	31696.24
748.911	31676.81
749.25	31555.23
749.589	31392.52
749.928	31442.01
750.267	31548
750.605	31511.39
750.944	31403.6
751.283	31319.08
751.621	31294.67
751.96	31071.85
752.298	31068.01
752.636	31007
752.975	30886.55
753.313	30795.93
753.651	30912.53
753.989	30634.35
754.327	30672.09
754.666	30405.88
755.004	30412.43
755.342	30436.39
755.679	30293.79
756.017	30296.28
756.355	30288.14
756.693	30047.25
757.031	30178.77
757.368	29860.81
757.706	29915.27
758.044	29626.01
758.381	29756.18
758.719	29611.33
759.056	29583.3
759.394	29470.09
759.731	29171.11
760.068	29244.33
760.405	29131.11
760.743	28935.86
761.08	29003.66
761.417	28917.78
761.754	28770.44
762.091	28835.53
762.428	28683.67
762.765	28492.26
763.102	28619.49
763.438	28398.48
763.775	28237.12
764.112	28254.53
764.449	28081.2
764.785	28024.47
765.122	27854.76
765.458	27766.63
765.795	27729.34
766.131	27560.31
766.467	27507.88
766.804	27281.22
767.14	27289.35
767.476	27205.29
767.812	27033.54
768.148	27118.74
768.485	26984.05
768.821	26843.26
769.157	26713.1
769.492	26639.88
769.828	26569.82
770.164	26369.83
770.5	26383.61
770.836	26357.85
771.171	26101.81
771.507	25928.26
771.842	25868.37
772.178	25966.68
772.513	25801.71
772.849	25756.29
773.184	25731.88
773.519	25615.5
773.855	25559
774.19	25367.37
774.525	25214.61
774.86	25244.89
775.195	25189.52
775.53	24963.31
775.865	24856.65
776.2	24747.95
776.535	24552.02
776.87	24575.53
777.205	24361.97
777.539	24292.6
777.874	24418.47
778.209	24198.36
778.543	24083.56
778.878	23898.03
779.212	23987.74
779.547	23717.02
779.881	23839.95
780.215	23624.36
780.55	23572.61
780.884	23449
781.218	23315.9
781.552	23312.73
781.886	23315.22
782.22	23081.55
782.554	23010.82
782.888	22851.05
783.222	22748
783.556	22602.47
783.889	22468.69
784.223	22453.32
784.557	22373.78
784.89	22431.18
785.224	22203.61
785.557	22166.32
785.891	22020.57
786.224	22063.5
786.558	21935.82
786.891	21801.14
787.224	21712.32
787.557	21691.31
787.891	21651.31
788.224	21502.84
788.557	21349.4
788.89	21377.19
789.223	21289.51
789.556	21270.3
789.888	21059.01
790.221	21048.61
790.554	20881.84
790.887	20897.88
791.219	20873.7
791.552	20839.81
791.884	20734.5
792.217	20599.36
792.549	20590.55
792.882	20430.78
793.214	20355.07
793.546	20409.53
793.879	20137.45
794.211	20026.49
794.543	20160.05
794.875	20012.26
795.207	20032.37
795.539	19970.45
795.871	19959.6
796.203	19784.69
796.535	19597.35
796.867	19548.09
797.198	19514.64
797.53	19507.41
797.862	19333.63
798.193	19376.11
798.525	19256.12
798.856	19337.02
799.188	19080.08
799.519	18999.85
799.85	18879.86
800.182	18940.19
800.513	18816.58
800.844	18699.07
801.175	18848.45
801.506	18760.76
801.837	18511.28
802.168	18590.37
802.499	18519.41
802.83	18465.86
803.161	18345.18
803.491	18324.17
803.822	18234.9
804.153	18213.21
804.483	18049.14
804.814	17963.5
805.145	18034.23
805.475	17972.31
805.805	17747.46
806.136	17841.24
806.466	17807.12
806.796	17770.96
807.126	17672.2
807.457	17568.7
807.787	17549.27
808.117	17436.96
808.447	17368.26
808.777	17371.2
809.107	17324.19
809.436	17229.5
809.766	17259.33
810.096	17172.33
810.426	17123.07
810.755	17027.48
811.085	16967.36
811.414	16936.18
811.744	16879.91
812.073	16742.51
812.403	16810.53
812.732	16727.82
813.061	16719.69
813.39	16519.01
813.719	16587.49
814.049	16691.21
814.378	16589.07
814.707	16484.89
815.036	16409.87
815.365	16410.77
815.693	16165.35
816.022	16218.91
816.351	16143.66
816.68	16119.93
817.008	16194.73
817.337	15944.57
817.665	15899.14
817.994	15975.3
818.322	15944.34
818.651	15909.54
818.979	15753.61
819.307	15892.36
819.636	15833.84
819.964	15739.6
820.292	15864.34
820.62	15753.84
820.948	15680.84
821.276	15692.82
821.604	15567.18
821.932	15649.89
822.259	15605.37
822.587	15642.88
822.915	15540.96
823.243	15650.56
823.57	15534.63
823.898	15534.86
824.225	15521.75
824.553	15511.36
824.88	15556.1
825.207	15612.15
825.535	15491.92
825.862	15581.64
826.189	15508.65
826.516	15542.32
826.843	15559.27
827.17	15538.25
827.497	15517.46
827.824	15430.68
828.151	15525.59
828.478	15427.29
828.805	15511.13
829.131	15385.26
829.458	15423.22
829.785	15341.42
830.111	15402.66
830.438	15456.9
830.764	15472.94
831.09	15434.98
831.417	15343.45
831.743	15353.17
832.069	15338.03
832.395	15288.76
832.722	15329.44
833.048	15316.11
833.374	15334.87
833.7	15336.9
834.026	15212.61
834.351	15301.19
834.677	15385.03
835.003	15267.3
835.329	15307.3
835.654	15247.41
835.98	15137.36
836.306	15163.34
836.631	15146.4
836.956	15231.59
837.282	15134.42
837.607	15097.81
837.932	15018.04
838.258	15106.85
838.583	15063.23
838.908	14999.51
839.233	14963.58
839.558	14935.78
839.883	14881.77
840.208	14876.8
840.533	14885.61
840.858	14819.4
841.182	14811.04
841.507	14805.84
841.832	14737.14
842.156	14620.76
842.481	14620.53
842.805	14615.11
843.13	14538.73
843.454	14574.89
843.778	14548.67
844.103	14516.58
844.427	14495.11
844.751	14468.67
845.075	14415.79
845.399	14304.84
845.723	14334.44
846.047	14340.54
846.371	14241.11
846.695	14204.5
847.019	13970.61
847.343	14021
847.666	13942.36
847.99	13911.17
848.313	13896.48
848.637	13765.41
848.96	13762.03
849.284	13780.56
849.607	13650.39
849.931	13663.95
850.254	13499.66
850.577	13565.42
850.9	13388.7
851.223	13376.95
851.546	13212.21
851.869	13263.06
852.192	13245.43
852.515	13145.54
852.838	13072.33
853.161	13147.13
853.483	13031.65
853.806	13034.59
854.129	12933.35
854.451	12951.2
854.774	12827.36
855.096	12791.88
855.419	12798.21
855.741	12748.04
856.063	12716.18
856.385	12683.41
856.708	12634.15
857.03	12520.02
857.352	12614.26
857.674	12574.26
857.996	12420.59
858.318	12338.56
858.64	12347.15
858.961	12328.39
859.283	12327.94
859.605	12280.26
859.926	12300.82
860.248	12263.08
860.57	12214.5
860.891	12188.51
861.212	12139.92
861.534	12095.63
861.855	12119.36
862.176	12148.51
862.498	12084.1
862.819	12108.51
863.14	12044.78
863.461	12002.07
863.782	11975.86
864.103	11969.53
864.424	11976.76
864.745	11988.29
865.065	11969.08
865.386	11894.5
865.707	11896.99
866.027	11898.57
866.348	11821.06
866.668	11863.77
866.989	11768.41
867.309	11719.82
867.63	11697.22
867.95	11651.57
868.27	11615.87
868.59	11654.96
868.91	11648.18
869.23	11666.71
869.55	11636.66
869.87	11734.96
870.19	11584.23
870.51	11623.1
870.83	11576.55
871.15	11540.84
871.469	11472.82
871.789	11512.82
872.109	11455.19
872.428	11450.22
872.748	11496.32
873.067	11401.86
873.386	11469.88
873.706	11327.96
874.025	11358.47
874.344	11352.15
874.663	11347.85
874.982	11375.42
875.301	11351.69
875.62	11260.62
875.939	11305.37
876.258	11291.81
876.577	11174.3
876.896	11275.31
877.214	11142.66
877.533	11216.56
877.852	11225.82
878.17	11144.69
878.489	11169.78
878.807	11189.44
879.125	11170.23
879.444	11144.24
879.762	11103.34
880.08	11069.21
880.398	10992.61
880.716	11076.67
881.034	11080.51
881.352	10988.09
881.67	10974.3
881.988	10965.94
882.306	10911.48
882.624	10957.58
882.941	10873.97
883.259	10780.63
883.577	10843.23
883.894	10885.04
884.212	10795.78
884.529	10804.14
884.846	10747.64
885.164	10786.96
885.481	10676.68
885.798	10676.68
886.115	10586.74
886.432	10582.67
886.75	10584.93
887.067	10611.15
887.383	10606.18
887.7	10497.48
888.017	10515.56
888.334	10529.12
888.651	10490.47
888.967	10464.71
889.284	10438.04
889.6	10374.09
889.917	10302
890.233	10377.48
890.55	10353.75
890.866	10307.88
891.182	10234.66
891.498	10214.32
891.815	10202.8
892.131	10141.56
892.447	10137.26
892.763	10086.19
893.079	10120.09
893.395	10046.42
893.71	9999.86
894.026	10017.49
894.342	9954.67
894.657	9915.12
894.973	9872.18
895.289	9831.06
895.604	9877.61
895.92	9766.42
896.235	9761
896.55	9677.39
896.865	9742.7
897.181	9687.56
897.496	9694.34
897.811	9570.95
898.126	9555.58
898.441	9577.5
898.756	9593.32
899.071	9522.14
899.386	9514.68
899.7	9448.92
900.015	9443.72
900.33	9348.13
900.644	9281.69
900.959	9313.78
901.273	9248.7
901.588	9276.49
901.902	9149.49
902.216	9182.03
902.531	9153.33
902.845	9123.5
903.159	9121.24
903.473	9097.74
903.787	9008.03
904.101	9048.25
904.415	9037.86
904.729	8895.71
905.042	8838.76
905.356	8840.8
905.67	8813.23
905.984	8881.7
906.297	8838.31
906.611	8711.08
906.924	8680.8
907.237	8667.24
907.551	8649.39
907.864	8607.13
908.177	8634.93
908.491	8579.56
908.804	8547.47
909.117	8485.1
909.43	8438.1
909.743	8368.04
910.056	8412.79
910.368	8406.23
910.681	8302.06
910.994	8296.63
911.307	8222.96
911.619	8234.71
911.932	8202.17
912.244	8101.16
912.557	8114.94
912.869	8124.66
913.181	8034.94
913.494	8067.26
913.806	7943.65
914.118	7959.01
914.43	7944.1
914.742	7862.97
915.054	7879.47
915.366	7819.81
915.678	7745.91
915.99	7737.1
916.302	7709.3
916.613	7711.11
916.925	7681.73
917.236	7670.66
917.548	7581.4
917.859	7611.23
918.171	7590.66
918.482	7515.41
918.794	7443.1
919.105	7466.82
919.416	7402.42
919.727	7451.46
920.038	7362.87
920.349	7276.09
920.66	7364.23
920.971	7271.8
921.282	7273.38
921.593	7173.05
921.903	7164.23
922.214	7143.89
922.525	7170.11
922.835	7122.2
923.146	7066.83
923.456	6986.16
923.767	6935.76
924.077	6988.64
924.387	6941.41
924.697	6931.47
925.008	6898.48
925.318	6902.54
925.628	6805.82
925.938	6799.5
926.248	6706.39
926.558	6707.97
926.867	6714.98
927.177	6703.45
927.487	6631.82
927.796	6601.76
928.106	6572.61
928.416	6564.47
928.725	6538.26
929.034	6499.17
929.344	6468.43
929.653	6470.47
929.962	6401.99
930.271	6377.36
930.581	6369.45
930.89	6325.38
931.199	6323.58
931.508	6259.17
931.817	6277.7
932.125	6256.23
932.434	6235.44
932.743	6146.41
933.051	6169.46
933.36	6139.85
933.669	6030.25
933.977	6054.43
934.286	6043.58
934.594	6002.91
934.902	5983.47
935.21	6017.6
935.519	5945.06
935.827	5925.62
936.135	5902.57
936.443	5863.93
936.751	5835.45
937.059	5785.96
937.367	5753.42
937.674	5817.15
937.982	5750.94
938.29	5745.06
938.597	5721.33
938.905	5637.04
939.213	5670.71
939.52	5645.4
939.827	5586.87
940.135	5558.17
940.442	5564.73
940.749	5525.18
941.056	5545.74
941.363	5462.81
941.67	5469.81
941.977	5448.8
942.284	5378.52
942.591	5396.6
942.898	5308.69
943.205	5412.19
943.511	5298.74
943.818	5344.17
944.125	5244.06
944.431	5241.8
944.738	5232.76
945.044	5233.21
945.35	5222.59
945.657	5192.31
945.963	5165.42
946.269	5128.13
946.575	5083.84
946.881	5022.37
947.187	5047.45
947.493	5014.91
947.799	4971.97
948.105	5010.39
948.41	4983.72
948.716	4914.57
949.022	4897.85
949.327	4919.32
949.633	4913.44
949.938	4880.22
950.244	4837.29
950.549	4828.25
950.854	4822.15
951.16	4752.09
951.465	4760.45
951.77	4746.22
952.075	4679.1
952.38	4693.56
952.685	4664.41
952.99	4640.91
953.294	4603.85
953.599	4614.92
953.904	4597.29
954.209	4551.19
954.513	4542.61
954.818	4519.33
955.122	4481.82
955.426	4517.07
955.731	4486.34
956.035	4421.03
956.339	4433.68
956.643	4382.38
956.948	4403.4
957.252	4352.78
957.556	4379.45
957.86	4327.92
958.163	4292.9
958.467	4320.92
958.771	4277.3
959.075	4289.73
959.378	4249.05
959.682	4290.86
959.985	4201.37
960.289	4190.07
960.592	4205.89
960.896	4134.03
961.199	4176.29
961.502	4082.51
961.805	4068.04
962.108	4069.85
962.411	4073.24
962.714	4032.79
963.017	4044.99
963.32	3999.57
963.623	3992.79
963.926	3973.36
964.228	3889.97
964.531	3962.06
964.833	3938.78
965.136	3887.26
965.438	3882.06
965.741	3882.51
966.043	3876.18
966.345	3843.19
966.648	3823.08
966.95	3839.35
967.252	3787.6
967.554	3734.72
967.856	3784.21
968.158	3732.01
968.46	3750.99
968.761	3691.1
969.063	3695.17
969.365	3668.73
969.666	3671.89
969.968	3635.29
970.269	3619.24
970.571	3587.6
970.872	3635.06
971.174	3598.68
971.475	3581.28
971.776	3572.01
972.077	3578.34
972.378	3547.38
972.679	3520.71
972.98	3515.51
973.281	3468.74
973.582	3485.01
973.883	3440.49
974.183	3393.71
974.484	3373.6
974.785	3363.2
975.085	3438.68
975.386	3373.6
975.686	3325.46
975.986	3305.8
976.287	3296.09
976.587	3273.94
976.887	3282.98
977.187	3312.36
977.487	3235.52
977.787	3221.96
978.087	3245.24
978.387	3223.77
978.687	3210.44
978.987	3172.47
979.286	3176.31
979.586	3155.3
979.885	3115.53
980.185	3095.64
980.484	3140.38
980.784	3117.33
981.083	3110.78
981.382	3091.57
981.682	3106.71
981.981	3053.61
982.28	3040.73
982.579	3018.35
982.878	3041.18
983.177	3023.32
983.475	2977.45
983.774	2985.81
984.073	2915.3
984.372	2931.12
984.67	2928.19
984.969	2924.8
985.267	2970.67
985.566	2922.99
985.864	2867.4
986.162	2869.66
986.461	2854.74
986.759	2862.2
987.057	2827.62
987.355	2811.35
987.653	2779.04
987.951	2787.4
988.249	2738.81
988.547	2755.53
988.844	2743.78
989.142	2726.16
989.44	2716.21
989.737	2727.06
990.035	2700.85
990.332	2695.88
990.63	2663.11
990.927	2679.6
991.224	2660.62
991.521	2643.67
991.819	2641.64
992.116	2638.93
992.413	2629.21
992.71	2604.13
993.006	2584.47
993.303	2555.77
993.6	2522.55
993.897	2518.93
994.193	2487.29
994.49	2537.01
994.787	2481.64
995.083	2488.65
995.379	2446.84
995.676	2453.85
995.972	2469.21
996.268	2423.11
996.565	2400.97
996.861	2400.52
997.157	2403.45
997.453	2375.66
997.749	2378.37
998.044	2370.23
998.34	2374.3
998.636	2363.91
998.932	2295.21
999.227	2287.98
999.523	2283.68
999.818	2291.37
1000.114	2265.6
1000.409	2238.26
1000.704	2247.07
1001	2259.05
1001.295	2219.05
1001.59	2218.37
1001.885	2185.61
1002.18	2209.11
1002.475	2191.71
1002.77	2176.12
1003.065	2177.25
1003.359	2142.9
1003.654	2119.62
1003.949	2113.07
1004.243	2113.97
1004.538	2105.61
1004.832	2090.47
1005.127	2076.91
1005.421	2059.28
1005.715	2043.01
1006.009	2052.28
1006.304	2039.62
1006.598	1993.52
1006.892	1981.77
1007.186	2007.76
1007.48	1985.84
1007.773	1985.84
1008.067	1961.43
1008.361	1957.82
1008.655	1916.91
1008.948	1932.73
1009.242	1931.38
1009.535	1918.95
1009.829	1902
1010.122	1871.26
1010.415	1859.97
1010.708	1853.64
1011.001	1883.47
1011.295	1830.14
1011.588	1818.38
1011.881	1806.41
1012.173	1812.06
1012.466	1795.11
1012.759	1797.37
1013.052	1800.08
1013.344	1760.53
1013.637	1748.56
1013.93	1739.29
1014.222	1723.92
1014.514	1712.85
1014.807	1709.91
1015.099	1715.11
1015.391	1690.7
1015.683	1669.01
1015.976	1661.33
1016.268	1676.47
1016.56	1659.74
1016.851	1652.74
1017.143	1619.07
1017.435	1648.9
1017.727	1605.06
1018.018	1594.66
1018.31	1595.79
1018.602	1582.01
1018.893	1549.24
1019.185	1572.97
1019.476	1534.78
1019.767	1560.54
1020.058	1526.87
1020.35	1488.68
1020.641	1510.14
1020.932	1500.65
1021.223	1511.95
1021.514	1472.86
1021.804	1494.33
1022.095	1443.03
1022.386	1455.46
1022.677	1460.65
1022.967	1426.76
1023.258	1420.2
1023.548	1412.52
1023.839	1399.41
1024.129	1427.66
1024.419	1385.4
1024.709	1373.88
1025	1379.07
1025.29	1368.45
1025.58	1335.01
1025.87	1344.95
1026.16	1311.28
1026.449	1336.14
1026.739	1317.15
1027.029	1284.84
1027.319	1269.25
1027.608	1299.3
1027.898	1288
1028.187	1286.42
1028.477	1264.05
1028.766	1275.35
1029.055	1242.35
1029.344	1244.39
1029.634	1223.15
1029.923	1231.06
1030.212	1217.04
1030.501	1183.6
1030.79	1193.32
1031.078	1169.59
1031.367	1188.12
1031.656	1184.05
1031.945	1163.49
1032.233	1158.74
1032.522	1149.25
1032.81	1165.52
1033.099	1137.95
1033.387	1118.06
1033.675	1110.61
1033.963	1126.65
1034.251	1105.63
1034.54	1102.92
1034.828	1083.04
1035.116	1078.97
1035.403	1074.68
1035.691	1064.28
1035.979	1055.69
1036.267	1043.26
1036.554	1043.94
1036.842	1043.94
1037.129	1029.48
1037.417	1028.35
1037.704	1019.31
1037.992	1048.91
1038.279	1004.62
1038.566	997.62
1038.853	997.62
1039.14	997.62
