Data from foil_FLMS001491_027.txt Node
Date: Tue Feb 07 11:25:41 GMT 2017
User: dcchb
Spectrometer: FLMS00149
Trigger mode: 0
Integration Time (sec): 2.000000E-2
Scans to average: 10
Electric dark correction enabled: true
Nonlinearity correction enabled: false
Boxcar width: 0
XAxis mode: Wavelengths
Number of Pixels in Spectrum: 2048
>>>>>Begin Spectral Data<<<<<
341.393	12.75
341.776	12.75
342.16	12.75
342.543	-61.14
342.927	-67.7
343.31	-60.69
343.693	-77.87
344.077	-74.48
344.46	-71.99
344.843	-49.39
345.226	-40.58
345.61	-24.99
345.993	-23.86
346.376	-15.49
346.759	21.79
347.142	19.31
347.525	49.59
347.908	68.12
348.291	75.13
348.674	102.02
349.057	103.37
349.44	113.99
349.823	132.75
350.206	188.57
350.588	261.33
350.971	266.08
351.354	300.88
351.737	306.53
352.119	320.09
352.502	343.59
352.884	333.2
353.267	371.16
353.65	357.15
354.032	399.64
354.414	386.76
354.797	378.17
355.179	403.93
355.562	394.44
355.944	392.4
356.326	400.31
356.709	417.49
357.091	426.75
357.473	428.56
357.855	430.82
358.238	410.94
358.62	419.3
359.002	441.22
359.384	425.85
359.766	418.39
360.148	434.44
360.53	453.65
360.912	437.83
361.294	425.4
361.676	424.49
362.057	456.58
362.439	433.08
362.821	452.29
363.203	452.74
363.584	417.04
363.966	435.79
364.348	428.34
364.729	440.77
365.111	414.1
365.493	415.46
365.874	445.51
366.256	439.64
366.637	460.65
367.019	469.01
367.4	472.85
367.781	448
368.163	463.36
368.544	462.46
368.925	463.59
369.306	465.17
369.688	439.86
370.069	478.5
370.45	490.26
370.831	474.21
371.212	488
371.593	488.9
371.974	479.86
372.355	502.01
372.736	486.41
373.117	499.75
373.498	510.37
373.879	498.39
374.26	483.48
374.641	500.2
375.021	492.29
375.402	512.63
375.783	536.36
376.163	573.19
376.544	565.73
376.925	545.62
377.305	539.97
377.686	544.27
378.066	559.63
378.447	556.47
378.827	572.06
379.208	593.98
379.588	570.03
379.968	588.56
380.349	567.09
380.729	603.47
381.109	610.03
381.489	615.68
381.87	625.85
382.25	611.38
382.63	649.12
383.01	617.71
383.39	639.86
383.77	647.54
384.15	654.54
384.53	666.3
384.91	663.81
385.29	668.78
385.67	684.15
386.049	718.95
386.429	668.56
386.809	704.49
387.189	699.06
387.568	699.29
387.948	729.57
388.328	737.03
388.707	737.03
389.087	736.8
389.466	771.38
389.846	774.54
390.225	779.06
390.605	783.36
390.984	802.34
391.363	801.43
391.743	818.61
392.122	818.83
392.501	836.91
392.881	837.36
393.26	831.72
393.639	861.32
394.018	865.84
394.397	890.02
394.776	898.38
395.155	909.91
395.534	904.03
395.913	884.6
396.292	921.43
396.671	942.45
397.05	958.04
397.429	964.14
397.808	966.85
398.186	966.4
398.565	1000.98
398.944	991.94
399.323	1001.88
399.701	1013.63
400.08	1012.95
400.458	1041.2
400.837	1047.98
401.215	1074.19
401.594	1057.47
401.972	1080.3
402.351	1090.69
402.729	1098.38
403.107	1127.3
403.486	1122.1
403.864	1107.87
404.242	1147.87
404.62	1158.71
404.999	1182.44
405.377	1203.91
405.755	1208.88
406.133	1228.99
406.511	1239.61
406.889	1253.17
407.267	1287.07
407.645	1268.99
408.023	1327.07
408.401	1316
408.779	1345.6
409.156	1350.57
409.534	1366.16
409.912	1373.62
410.29	1444.35
410.667	1446.16
411.045	1437.12
411.422	1465.37
411.8	1490.46
412.178	1510.57
412.555	1537.01
412.933	1544.92
413.31	1596.44
413.687	1615.42
414.065	1613.16
414.442	1581.53
414.819	1616.78
415.197	1642.54
415.574	1667.63
415.951	1702.2
416.328	1761.18
416.705	1753.73
417.082	1751.69
417.46	1784.91
417.837	1805.7
418.214	1813.38
418.591	1826.72
418.967	1823.33
419.344	1859.71
419.721	1883.67
420.098	1888.41
420.475	1927.51
420.852	1930.22
421.228	1962.31
421.605	1956.21
421.982	1970.44
422.358	2005.47
422.735	2050.21
423.111	2035.75
423.488	2100.83
423.864	2113.72
424.241	2139.7
424.617	2119.59
424.994	2174.28
425.37	2140.83
425.746	2191.45
426.123	2240.49
426.499	2257.89
426.875	2256.08
427.251	2315.07
427.627	2352.35
428.003	2381.05
428.379	2391.9
428.756	2470.09
429.132	2452.46
429.507	2496.08
429.883	2512.35
430.259	2553.7
430.635	2586.02
431.011	2607.04
431.387	2648.39
431.763	2686.58
432.138	2729.74
432.514	2788.27
432.89	2814.71
433.265	2830.31
433.641	2878.89
434.016	2891.32
434.392	2948.95
434.767	2984.43
435.143	2995.73
435.518	3040.02
435.894	3089.74
436.269	3105.78
436.644	3146.23
437.02	3184.87
437.395	3195.04
437.77	3267.58
438.145	3283.4
438.52	3307.58
438.895	3353.68
439.271	3329.5
439.646	3400.46
440.021	3477.3
440.395	3448.82
440.77	3417.18
441.145	3479.56
441.52	3616.05
441.895	3581.25
442.27	3555.49
442.645	3607.01
443.019	3647.69
443.394	3625.77
443.769	3674.35
444.143	3681.36
444.518	3768.81
444.892	3730.62
445.267	3756.61
445.641	3776.95
446.016	3815.82
446.39	3859.43
446.764	3858.53
447.139	3865.53
447.513	3913.22
447.887	3903.95
448.262	3977.17
448.636	4009.94
449.01	4022.59
449.384	4103.95
449.758	4084.96
450.132	4100.33
450.506	4159.09
450.88	4197.95
451.254	4206.99
451.628	4293.09
452.002	4282.47
452.376	4335.58
452.75	4359.98
453.123	4449.02
453.497	4524.05
453.871	4550.94
454.244	4681.33
454.618	4710.71
454.992	4691.27
455.365	4709.13
455.739	4862.34
456.112	4894.66
456.486	4876.81
456.859	4945.05
457.232	5065.5
457.606	5062.34
457.979	5171.04
458.352	5239.74
458.725	5306.63
459.099	5331.48
459.472	5457.13
459.845	5508.43
460.218	5515.43
460.591	5566.28
460.964	5652.83
461.337	5730.8
461.71	5821.87
462.083	5870
462.456	5871.13
462.829	5939.38
463.201	6030
463.574	6027.74
463.947	6123.1
464.32	6302.76
464.692	6305.92
465.065	6358.35
465.438	6461.85
465.81	6553.82
466.183	6626.37
466.555	6772.12
466.928	6816.87
467.3	6783.65
467.672	6899.35
468.045	7103.41
468.417	7105.9
468.789	7202.4
469.161	7283.3
469.534	7447.36
469.906	7566.23
470.278	7592.89
470.65	7645.77
471.022	7824.07
471.394	7961.02
471.766	8057.06
472.138	8173.22
472.51	8281.69
472.882	8418.18
473.253	8514
473.625	8605.52
473.997	8814.56
474.369	8840.09
474.74	8937.49
475.112	9129.35
475.484	9260.87
475.855	9401.66
476.227	9562.79
476.598	9828.54
476.97	9884.81
477.341	10069.44
477.713	10267.17
478.084	10303.56
478.455	10639.82
478.827	10664.68
479.198	10938.34
479.569	10936.08
479.94	11323.64
480.311	11341.95
480.682	11560.7
481.053	11810.41
481.424	12064.41
481.795	12177.63
482.166	12415.14
482.537	12512.09
482.908	12795.92
483.279	12856.94
483.65	13154.56
484.021	13451.95
484.391	13578.05
484.762	13651.27
485.133	13823.01
485.503	14035.89
485.874	14334.86
486.244	14514.75
486.615	14651.92
486.985	14939.14
487.356	15088.74
487.726	15257.32
488.097	15555.85
488.467	15604.66
488.837	15968.04
489.207	16182.27
489.578	16366.45
489.948	16558.76
490.318	16758.08
490.688	16741.58
491.058	17011.63
491.428	17323.26
491.798	17424.05
492.168	17740.88
492.538	17919.85
492.908	18115.78
493.278	18356.23
493.648	18363.91
494.017	18671.92
494.387	18779.04
494.757	18985.36
495.126	19104.23
495.496	19104.23
495.866	19320.49
496.235	19573.14
496.605	19758.9
496.974	19790.09
497.344	20113.47
497.713	20126.35
498.082	20263.97
498.452	20493.12
498.821	20615.15
499.19	20701.93
499.559	20938.08
499.928	21121.8
500.298	21282.03
500.667	21457.16
501.036	21431.63
501.405	21721.34
501.774	21655.8
502.143	21827.55
502.512	21901.67
502.88	22207.42
503.249	22272.28
503.618	22403.35
503.987	22589.56
504.356	22782.1
504.724	22835.43
505.093	23026.84
505.462	23126.95
505.83	23297.57
506.199	23460.05
506.567	23703.88
506.936	23748.85
507.304	24026.59
507.672	24212.12
508.041	24205.11
508.409	24393.36
508.777	24719.67
509.145	24879.22
509.514	24859.11
509.882	25050.51
510.25	25118.99
510.618	25361.24
510.986	25356.04
511.354	25682.59
511.722	25926.65
512.09	26186.3
512.458	26256.58
512.826	26455.45
513.193	26591.26
513.561	26657.48
513.929	26990.35
514.297	27247.52
514.664	27446.38
515.032	27537.23
515.4	27776.32
515.767	27809.31
516.135	28044.33
516.502	28072.81
516.869	28553.92
517.237	28738.1
517.604	28644.09
517.972	29055.61
518.339	29248.37
518.706	29235.49
519.073	29535.14
519.44	29668.02
519.808	30039.99
520.175	30153.43
520.542	30508.22
520.909	30570.59
521.276	30705.28
521.643	31111.15
522.009	31390.69
522.376	31612.38
522.743	31747.74
523.11	32104.57
523.477	32422.3
523.843	32522.18
524.21	32978.67
524.577	33218.66
524.943	33204.42
525.31	33550.86
525.676	33872.65
526.043	34158.3
526.409	34171.86
526.776	34486.2
527.142	34661.33
527.508	34800.77
527.874	35227.65
528.241	35282.79
528.607	35346.51
528.973	35842.32
529.339	35946.27
529.705	36286.6
530.071	36628.97
530.437	36850.2
530.803	36915.96
531.169	37290.19
531.535	37144.88
531.901	37332.22
532.267	37571.09
532.632	37753.23
532.998	38021.92
533.364	38300.56
533.73	38444.74
534.095	38744.62
534.461	38868.23
534.826	38947.55
535.192	39124.49
535.557	39386.86
535.923	39579.85
536.288	39611.71
536.653	39841.54
537.019	39864.36
537.384	40144.13
537.749	40163.11
538.114	40248.76
538.479	40470.45
538.845	40656.88
539.21	40658.46
539.575	40896.2
539.94	41030.43
540.305	41430.65
540.67	41411.44
541.034	41679.91
541.399	41761.71
541.764	41872.44
542.129	42126
542.494	42211.42
542.858	42231.98
543.223	42344.97
543.587	42754
543.952	42643.05
544.316	42747.45
544.681	42863.6
545.045	43230.37
545.41	43241
545.774	43515.11
546.138	43515.56
546.503	43617.48
546.867	43789.91
547.231	44159.62
547.595	44096.57
547.959	44295.66
548.324	44357.58
548.688	44402.55
549.052	44783.1
549.416	44880.5
549.779	45003.21
550.143	45047.05
550.507	45426.25
550.871	45599.58
551.235	45636.64
551.599	45940.36
551.962	45897.42
552.326	46096.74
552.689	46281.59
553.053	46262.61
553.417	46431.87
553.78	46955.02
554.143	46774.01
554.507	47039.31
554.87	47141.91
555.234	47550.49
555.597	47375.58
555.96	47577.6
556.323	47720.88
556.686	47851.5
557.05	48057.82
557.413	48231.6
557.776	48342.33
558.139	48750
558.502	48762.43
558.865	48871.36
559.228	49199.94
559.59	49341.4
559.953	49454.62
560.316	49844.21
560.679	49736.19
561.041	49945.9
561.404	50238.55
561.767	50490.07
562.129	50359.68
562.492	50711.99
562.854	50784.53
563.217	50937.06
563.579	50892.32
563.941	51361.46
564.304	51474.9
564.666	51598.29
565.028	51726.87
565.39	51775.46
565.753	51946.3
566.115	52033.31
566.477	52187.88
566.839	52360.98
567.201	52505.16
567.563	52605.72
567.925	52792.16
568.287	52784.47
568.648	52919.61
569.01	53046.39
569.372	53233.28
569.734	53199.15
570.095	53396.43
570.457	53616.09
570.819	53666.26
571.18	53658.57
571.542	53820.6
571.903	53902.64
572.265	54015.85
572.626	54101.73
572.987	54129.98
573.349	54264.89
573.71	54314.15
574.071	54420.81
574.432	54565.67
574.794	54708.04
575.155	54752.11
575.516	54714.37
575.877	54804.08
576.238	54875.94
576.599	54938.99
576.96	54877.07
577.32	54879.11
577.681	55087.24
578.042	55228.25
578.403	55153
578.763	55256.27
579.124	55261.92
579.485	55402.71
579.845	55481.58
580.206	55464.63
580.566	55440
580.927	55404.29
581.287	55519.09
581.648	55427.34
582.008	55581.24
582.368	55526.55
582.728	55596.15
583.089	55586.43
583.449	55626.66
583.809	55707.79
584.169	55752.76
584.529	55595.93
584.889	55832.08
585.249	55617.62
585.609	55577.39
585.969	55793.89
586.329	55697.62
586.688	55760.44
587.048	55680.67
587.408	55643.61
587.768	55700.1
588.127	55616.04
588.487	55596.15
588.846	55840.44
589.206	55588.47
589.565	55729.26
589.925	55880.44
590.284	55654.91
590.643	55734.9
591.003	55816.71
591.362	55930.61
591.721	55847.22
592.08	55833.21
592.44	55893.77
592.799	55933.09
593.158	55904.17
593.517	55752.76
593.876	55885.41
594.235	55881.57
594.593	55844.51
594.952	55914.79
595.311	55793.21
595.67	55917.5
596.029	56055.57
596.387	56067.78
596.746	56001.11
597.104	55897.84
597.463	55960.89
597.822	56127.66
598.18	55961.11
598.538	55988.01
598.897	56154.1
599.255	55857.61
599.613	56338.73
599.972	56069.81
600.33	56234.33
600.688	56109.36
601.046	56259.41
601.404	56264.83
601.762	56212.63
602.12	56310.03
602.478	56334.44
602.836	56366.53
603.194	56185.06
603.552	56289.01
603.91	56191.84
604.268	56387.54
604.625	56296.47
604.983	56441.1
605.341	56343.25
605.698	56577.59
606.056	56557.26
606.413	56480.42
606.771	56597.25
607.128	56524.71
607.485	56510.7
607.843	56463.47
608.2	56658.27
608.557	56696.24
608.914	56646.97
609.272	56743.69
609.629	56736.46
609.986	56876.8
610.343	56725.84
610.7	56903.24
611.057	56863.01
611.414	56764.48
611.771	56900.07
612.127	56983.01
612.484	56922.67
612.841	56990.46
613.198	56959.05
613.554	56950.92
613.911	57089.67
614.267	57110.24
614.624	57114.3
614.98	57050.8
615.337	57230.68
615.693	57166.51
616.05	57183.45
616.406	57333.05
616.762	57195.88
617.118	57218.03
617.475	57225.71
617.831	57309.1
618.187	57272.94
618.543	57321.53
618.899	57503.45
619.255	57417.12
619.611	57318.82
619.967	57459.6
620.323	57450.34
620.678	57319.27
621.034	57324.69
621.39	57387.29
621.746	57341.19
622.101	57500.28
622.457	57349.78
622.812	57401.08
623.168	57521.07
623.523	57455.09
623.879	57571.69
624.234	57371.02
624.589	57472.03
624.945	57485.37
625.3	57582.99
625.655	57435.2
626.01	57527.4
626.365	57483.79
626.72	57555.2
627.075	57434.52
627.43	57489.66
627.785	57401.08
628.14	57455.54
628.495	57464.35
628.85	57441.53
629.205	57316.78
629.559	57498.93
629.914	57351.59
630.269	57307.97
630.623	57166.28
630.978	57199.5
631.332	57326.95
631.687	57331.7
632.041	57214.87
632.396	57156.34
632.75	57069.78
633.104	57137.13
633.459	57101.2
633.813	56964.02
634.167	56907.3
634.521	56982.33
634.875	57062.78
635.229	56947.75
635.583	56824.82
635.937	56778.04
636.291	56800.87
636.645	56784.82
636.999	56723.58
637.352	56805.61
637.706	56572.62
638.06	56773.97
638.413	56679.74
638.767	56631.6
639.121	56663.47
639.474	56428.9
639.828	56605.16
640.181	56559.74
640.534	56660.98
640.888	56527.88
641.241	56437.94
641.594	56410.37
641.947	56465.28
642.301	56324.04
642.654	56322.46
643.007	56272.74
643.36	56231.61
643.713	56241.33
644.066	56376.47
644.419	56098.74
644.771	55835.69
645.124	55445.19
645.477	55391.41
645.83	55114.36
646.182	55141.47
646.535	55162.26
646.888	55343.95
647.24	55245.65
647.593	55508.02
647.945	55522.93
648.298	55261.24
648.65	55308.93
649.002	55135.6
649.355	55024.41
649.707	54900.12
650.059	54915.72
650.411	55285.65
650.763	55376.27
651.115	55694.68
651.467	55619.65
651.819	55601.12
652.171	55418.3
652.523	55346.21
652.875	55399.09
653.227	55259.66
653.578	55496.94
653.93	55384.86
654.282	55294.01
654.633	55183.28
654.985	55216.95
655.337	55255.14
655.688	55217.18
656.039	55322.71
656.391	54993.68
656.742	55083.4
657.094	55116.39
657.445	55177.63
657.796	55022.15
658.147	55035.94
658.498	54887.47
658.849	54908.71
659.2	54896.73
659.551	54796.17
659.902	54908.26
660.253	54943.29
660.604	54893.57
660.955	54704.2
661.306	54795.27
661.656	54767.7
662.007	54756.17
662.358	54799.56
662.708	54766.34
663.059	54637.76
663.409	54554.6
663.76	54692.45
664.11	54654.71
664.461	54729.06
664.811	54780.81
665.161	54728.6
665.511	54522.28
665.862	54584.43
666.212	54622.84
666.562	54606.57
666.912	54598.44
667.262	54573.13
667.612	54549.63
667.962	54560.92
668.312	54434.15
668.662	54587.36
669.011	54441.83
669.361	54348.73
669.711	54424.88
670.06	54374.49
670.41	54421.72
670.76	54226.47
671.109	54313.25
671.459	54279.12
671.808	54258.79
672.157	54337.2
672.507	54108.73
672.856	54132.69
673.205	54069.41
673.554	54241.16
673.904	54169.52
674.253	54251.1
674.602	54073.25
674.951	53680.95
675.3	53628.97
675.649	53980.15
675.998	54043.65
676.346	54042.29
676.695	54032.35
677.044	53840.04
677.393	53921.62
677.741	54048.85
678.09	53792.81
678.438	53736.99
678.787	53891.34
679.135	53800.94
679.484	53655.41
679.832	53663.32
680.181	53451.35
680.529	53607.28
680.877	53554.62
681.225	53429.65
681.573	53624.23
681.922	53405.7
682.27	53179.04
682.618	53311.24
682.966	53258.13
683.314	53388.98
683.661	53244.12
684.009	53118.02
684.357	52955.77
684.705	52852.72
685.053	53009.78
685.4	52981.98
685.748	52711.26
686.095	52686.85
686.443	52600.07
686.79	52648.66
687.138	52644.36
687.485	52665.15
687.832	52567.98
688.18	52378.16
688.527	52299.51
688.874	52341.77
689.221	52291.38
689.568	52003.03
689.915	52043.7
690.262	51948.34
690.609	51934.33
690.956	51705.18
691.303	51783.82
691.65	51641.23
691.997	51574.56
692.344	51338.86
692.69	51419.54
693.037	51354.23
693.383	51018.42
693.73	51344.96
694.077	51036.05
694.423	51015.48
694.769	50915.37
695.116	50865.2
695.462	50869.04
695.808	50641.93
696.155	50756.28
696.501	50394.03
696.847	50482.39
697.193	50199
697.539	50458.21
697.885	49958.56
698.231	49831.11
698.577	49919.24
698.923	49924.66
699.269	49719.7
699.614	49557.21
699.96	49499.14
700.306	49440.38
700.651	49307.5
700.997	49067.28
701.342	49163.55
701.688	49052.82
702.033	48878.14
702.379	48889.89
702.724	48687.18
703.069	48621.19
703.415	48287.19
703.76	48299.39
704.105	48340.52
704.45	48232.05
704.795	48010.14
705.14	47846.52
705.485	47817.6
705.83	47790.48
706.175	47932.17
706.52	47546.87
706.865	47412.41
707.209	47343.49
707.554	47284.96
707.899	47295.58
708.243	47087.45
708.588	46836.61
708.932	46691.07
709.277	46795.93
709.621	46737.18
709.966	46418.99
710.31	46575.6
710.654	46337.19
710.998	46381.03
711.342	46239.79
711.687	46117.76
712.031	46002.96
712.375	45837.09
712.719	45842.96
713.063	45822.62
713.407	45959.57
713.75	45649.75
714.094	45662.63
714.438	45490.2
714.782	45451.33
715.125	45364.56
715.469	45223.99
715.812	44871.91
716.156	44789.43
716.499	44656.78
716.843	44794.85
717.186	44579.72
717.53	44580.62
717.873	44785.59
718.216	44593.73
718.559	44470.79
718.902	44175.66
719.246	44234.64
719.589	44152.38
719.932	43911.26
720.275	44107.41
720.617	44088.88
720.96	43866.52
721.303	43954.42
721.646	43916.23
721.989	43643.47
722.331	43693.41
722.674	43603.7
723.016	43573.64
723.359	43486.87
723.701	43467.66
724.044	43236.02
724.386	43064.96
724.729	43413.65
725.071	43211.39
725.413	42964.62
725.755	42874.45
726.097	42767.34
726.439	42683.04
726.782	42617.96
727.124	42798.3
727.465	42427.91
727.807	42313.79
728.149	42255.94
728.491	42162.15
728.833	42230.17
729.175	42068.15
729.516	41940.92
729.858	41976.62
730.199	41940.47
730.541	41842.39
730.882	41759
731.224	41887.81
731.565	41712.45
731.906	41580.7
732.248	41473.58
732.589	41269.75
732.93	41338.22
733.271	41353.59
733.612	41352.91
733.953	41265.91
734.294	41251.67
734.635	41035.63
734.976	41116.98
735.317	40741.63
735.658	41002.86
735.999	40898.01
736.339	40726.71
736.68	40787.05
737.021	40736.43
737.361	40540.95
737.702	40739.59
738.042	40352.03
738.383	40383.9
738.723	40513.16
739.063	40429.09
739.404	40216.67
739.744	40078.82
740.084	39885.38
740.424	40057.58
740.764	39908.43
741.104	39959.73
741.444	39957.01
741.784	39734.42
742.124	39612.62
742.464	39538.27
742.804	39545.5
743.143	39359.74
743.483	39632.28
743.823	39403.81
744.162	39080.88
744.502	39225.51
744.841	39037.72
745.181	39047.21
745.52	38917.27
745.86	38950.71
746.199	38812.19
746.538	38773.99
746.877	38891.73
747.216	38774.22
747.556	38672.53
747.895	38578.52
748.234	38389.15
748.573	38565.64
748.911	38426.89
749.25	38478.18
749.589	38222.37
749.928	38237.51
750.267	38241.81
750.605	38017.86
750.944	38055.6
751.283	37750.74
751.621	37783.96
751.96	37480.7
752.298	37540.81
752.636	37564.08
752.975	37292.23
753.313	37216.52
753.651	37451.77
753.989	37112.8
754.327	37123.42
754.666	36698.34
755.004	37046.58
755.342	36980.82
755.679	36926.13
756.017	36571.57
756.355	36570.21
756.693	36603.88
757.031	36667.38
757.368	36263.1
757.706	36143.33
758.044	36128.19
758.381	36221.29
758.719	35953.28
759.056	35919.38
759.394	35760.06
759.731	35500.41
760.068	35430.35
760.405	35286.4
760.743	35377.02
761.08	35355.78
761.417	35093.41
761.754	35043.7
762.091	35106.52
762.428	34892.97
762.765	34700.88
763.102	34782.01
763.438	34649.13
763.775	34257.05
764.112	34373.43
764.449	34584.05
764.785	34314
765.122	34035.81
765.458	33766.89
765.795	33825.42
766.131	33771.19
766.467	33607.35
766.804	33371.65
767.14	33220.47
767.476	33354.7
767.812	33074.94
768.148	33108.83
768.485	32894.15
768.821	32702.06
769.157	32670.2
769.492	32648.51
769.828	32540.94
770.164	32179.82
770.5	32084.23
770.836	32241.29
771.171	31979.82
771.507	31872.71
771.842	31636.33
772.178	31617.35
772.513	31342.55
772.849	31404.02
773.184	31296.45
773.519	31240.63
773.855	31101.65
774.19	30883.81
774.525	30874.99
774.86	30868.44
775.195	30567.2
775.53	30608.56
775.865	30499.18
776.2	30150.27
776.535	29978.75
776.87	29942.14
777.205	29977.39
777.539	29697.85
777.874	29735.59
778.209	29491.3
778.543	29581.47
778.878	29320.46
779.212	29477.52
779.547	29144.19
779.881	29195.26
780.215	28918.66
780.55	29000.01
780.884	28771.09
781.218	28609.97
781.552	28686.8
781.886	28510.54
782.22	28376.75
782.554	28148.74
782.888	27892.47
783.222	27901.29
783.556	27683.21
783.889	27667.85
784.223	27490.68
784.557	27541.75
784.89	27521.41
785.224	27245.48
785.557	27147.18
785.891	27168.42
786.224	26912.61
786.558	27013.85
786.891	26760.75
787.224	26633.07
787.557	26570.47
787.891	26605.05
788.224	26377.48
788.557	26409.8
788.89	26377.71
789.223	26305.62
789.556	26161.67
789.888	26007.32
790.221	26049.36
790.554	25719.2
790.887	25767.56
791.219	25621.57
791.552	25556.26
791.884	25402.82
792.217	25329.6
792.549	25327.12
792.882	25226.1
793.214	24927.35
793.546	25008.48
793.879	24924.64
794.211	24723.52
794.543	24871.08
794.875	24740.69
795.207	24717.42
795.539	24568.72
795.871	24576.85
796.203	24219.12
796.535	24169.86
796.867	24121.05
797.198	24130.31
797.53	24086.7
797.862	23848.96
798.193	23998.79
798.525	23770.1
798.856	23931.9
799.188	23624.34
799.519	23442.19
799.85	23392.48
800.182	23320.16
800.513	23381.63
800.844	23008.76
801.175	23234.29
801.506	23077.01
801.837	23006.05
802.168	22895.32
802.499	22807.41
802.83	22673.85
803.161	22670.46
803.491	22673.63
803.822	22486.06
804.153	22530.35
804.483	22248.78
804.814	22265.28
805.145	22214.66
805.475	22269.8
805.805	22037.26
806.136	22044.49
806.466	22149.35
806.796	22040.88
807.126	21850.6
807.457	21825.06
807.787	21776.25
808.117	21676.37
808.447	21628.46
808.777	21798.85
809.107	21599.98
809.436	21527.67
809.766	21481.34
810.096	21436.82
810.426	21466.43
810.755	21379.88
811.085	21231.86
811.414	21152.54
811.744	20830.74
812.073	21027.57
812.403	20895.59
812.732	20806.11
813.061	20767.69
813.39	20659.22
813.719	20657.86
814.049	20676.17
814.378	20602.04
814.707	20435.95
815.036	20536.28
815.365	20389.85
815.693	20342.16
816.022	20257.19
816.351	20117.99
816.68	19943.53
817.008	20112.79
817.337	19977.88
817.665	19841.61
817.994	19840.71
818.322	19920.25
818.651	19836.64
818.979	19748.73
819.307	19763.2
819.636	19751.67
819.964	19581.73
820.292	19601.39
820.62	19626.7
820.948	19532.24
821.276	19525.24
821.604	19444.33
821.932	19488.85
822.259	19604.33
822.587	19478.23
822.915	19355.75
823.243	19518.46
823.57	19309.65
823.898	19443.2
824.225	19240.5
824.553	19281.85
824.88	19325.92
825.207	19416.09
825.535	19354.84
825.862	19372.7
826.189	19245.02
826.516	19410.89
826.843	19402.98
827.17	19485.91
827.497	19400.27
827.824	19425.35
828.151	19261.74
828.478	19341.74
828.805	19303.77
829.131	19281.4
829.458	19255.64
829.785	19274.62
830.111	19405.01
830.438	19398.91
830.764	19460.83
831.09	19441.17
831.417	19286.82
831.743	19243.66
832.069	19307.39
832.395	19163.66
832.722	19264
833.048	19273.94
833.374	19276.65
833.7	19223.55
834.026	19242.53
834.351	19137.22
834.677	19182.19
835.003	19156.43
835.329	19055.87
835.654	19080.95
835.98	19073.5
836.306	19033.95
836.631	18882.99
836.956	18865.82
837.282	18947.17
837.607	18761.64
837.932	18784.69
838.258	18818.14
838.583	18755.76
838.908	18626.28
839.233	18859.72
839.558	18765.03
839.883	18690.23
840.208	18625.6
840.533	18635.99
840.858	18672.83
841.182	18650.68
841.507	18661.08
841.832	18550.35
842.156	18613.62
842.481	18541.53
842.805	18466.51
843.13	18392.16
843.454	18267.42
843.778	18151.03
844.103	18205.04
844.427	18126.63
844.751	18141.77
845.075	18133.63
845.399	17932.51
845.723	17873.08
846.047	17965.5
846.371	17923.7
846.695	17795.11
847.019	17683.02
847.343	17595.57
847.666	17584.5
847.99	17465.18
848.313	17373.88
848.637	17343.15
848.96	17387.21
849.284	17235.8
849.607	17145.18
849.931	17094.56
850.254	16958.3
850.577	16924.17
850.9	16688.47
851.223	16827.68
851.546	16707.23
851.869	16584.3
852.192	16744.07
852.515	16577.52
852.838	16473.11
853.161	16523.05
853.483	16370.06
853.806	16300.46
854.129	16322.83
854.451	16279.44
854.774	16292.55
855.096	16126.68
855.419	16094.36
855.741	16091.43
856.063	15963.29
856.385	15984.54
856.708	15922.39
857.03	15785.22
857.352	15825.22
857.674	15710.42
857.996	15754.03
858.318	15681.49
858.64	15741.15
858.961	15659.57
859.283	15693.7
859.605	15490.31
859.926	15599.24
860.248	15493.02
860.57	15470.43
860.891	15454.16
861.212	15408.96
861.534	15355.85
861.855	15298
862.176	15378.23
862.498	15331.9
862.819	15318.57
863.14	15214.84
863.461	15242.18
863.782	15130.1
864.103	15129.64
864.424	15199.02
864.745	15113.37
865.065	15025.24
865.386	15047.39
865.707	15087.16
866.027	15118.8
866.348	14894.17
866.668	14928.97
866.989	14927.39
867.309	14960.61
867.63	14855.75
867.95	14813.72
868.27	14673.61
868.59	14621.86
868.91	14780.05
869.23	14688.98
869.55	14547.06
869.87	14804
870.19	14815.3
870.51	14766.94
870.83	14734.63
871.15	14647.17
871.469	14573.95
871.789	14607.17
872.109	14680.84
872.428	14663.89
872.748	14726.04
873.067	14711.12
873.386	14612.6
873.706	14566.04
874.025	14447.4
874.344	14338.7
874.663	14473.39
874.982	14394.97
875.301	14417.8
875.62	14429.78
875.939	14352.94
876.258	14316.56
876.577	14271.59
876.896	14293.06
877.214	14176.68
877.533	14250.8
877.852	14256.67
878.17	14261.87
878.489	14229.33
878.807	14210.8
879.125	14232.72
879.444	14175.55
879.762	14191.36
880.08	14153.4
880.398	14050.12
880.716	14081.99
881.034	13999.96
881.352	14051.25
881.67	13996.57
881.988	13937.81
882.306	13928.77
882.624	13934.87
882.941	13887.19
883.259	13821.2
883.577	13848.32
883.894	13712.51
884.212	13825.95
884.529	13772.39
884.846	13750.02
885.164	13722.9
885.481	13676.8
885.798	13662.34
886.115	13544.38
886.432	13572.17
886.75	13509.8
887.067	13640.64
887.383	13533.08
887.7	13590.25
888.017	13440.42
888.334	13374.89
888.651	13333.99
888.967	13275.91
889.284	13243.14
889.6	13213.08
889.917	13152.3
890.233	13299.64
890.55	13157.94
890.866	13190.94
891.182	13222.58
891.498	13106.19
891.815	12998.63
892.131	12986.42
892.447	13022.81
892.763	12970.15
893.079	12957.05
893.395	12881.34
893.71	12846.54
894.026	12913.21
894.342	12814
894.657	12658.3
894.973	12792.08
895.289	12666.88
895.604	12802.02
895.92	12639.77
896.235	12557.73
896.55	12506.66
896.865	12494.91
897.181	12463.05
897.496	12405.2
897.811	12407.68
898.126	12291.98
898.441	12355.71
898.756	12231.42
899.071	12141.02
899.386	12141.93
899.7	12082.49
900.015	12070.29
900.33	11922.95
900.644	11996.85
900.959	11940.12
901.273	11975.38
901.588	11931.31
901.902	11840.69
902.216	11796.62
902.531	11827.13
902.845	11869.17
903.159	11798.88
903.473	11677.76
903.787	11659.68
904.101	11614.93
904.415	11660.13
904.729	11591.21
905.042	11458.1
905.356	11404.77
905.67	11361.61
905.984	11360.7
906.297	11315.51
906.611	11221.27
906.924	11274.15
907.237	11260.59
907.551	11149.86
907.864	11164.1
908.177	11132.46
908.491	11008.62
908.804	10928.17
909.117	10962.3
909.43	10882.3
909.743	10797.56
910.056	10798.46
910.368	10831.23
910.681	10781.06
910.994	10727.05
911.307	10647.5
911.619	10627.84
911.932	10542.19
912.244	10527.73
912.557	10463.1
912.869	10479.15
913.181	10439.37
913.494	10461.52
913.806	10375.65
914.118	10360.73
914.43	10245.25
914.742	10224.69
915.054	10189.89
915.366	10184.46
915.678	10181.98
915.99	10058.37
916.302	9990.12
916.613	10031.02
916.925	9957.13
917.236	9928.88
917.548	9888.88
917.859	9967.29
918.171	9845.04
918.482	9767.98
918.794	9707.41
919.105	9720.97
919.416	9546.74
919.727	9645.27
920.038	9596.91
920.349	9525.95
920.66	9601.2
920.971	9512.62
921.282	9369.12
921.593	9338.16
921.903	9377.93
922.214	9327.99
922.525	9327.09
922.835	9312.4
923.146	9251.38
923.456	9083.7
923.767	9067.43
924.077	9064.04
924.387	9060.43
924.697	8970.94
925.008	8939.3
925.318	8909.02
925.628	8940.88
925.938	8860.2
926.248	8721
926.558	8752.19
926.867	8715.12
927.177	8720.32
927.487	8670.83
927.796	8613.43
928.106	8592.42
928.416	8605.52
928.725	8618.63
929.034	8433.78
929.344	8553.32
929.653	8469.48
929.962	8410.95
930.271	8335.02
930.581	8382.25
930.89	8271.29
931.199	8212.99
931.508	8178.19
931.817	8232.2
932.125	8179.32
932.434	8201.24
932.743	8037.85
933.051	7980
933.36	8009.61
933.669	7919.44
933.977	7845.99
934.286	7886.45
934.594	7864.75
934.902	7836.73
935.21	7796.28
935.519	7744.3
935.827	7785.66
936.135	7700.46
936.443	7655.04
936.751	7595.61
937.059	7590.86
937.367	7585.44
937.674	7611.65
937.982	7513.57
938.29	7481.71
938.597	7505.21
938.905	7387.7
939.213	7373.92
939.52	7394.71
939.827	7391.09
940.135	7337.76
940.442	7293.92
940.749	7278.33
941.056	7221.83
941.363	7132.11
941.67	7154.94
941.977	7110.65
942.284	7060.93
942.591	7043.53
942.898	7041.72
943.205	7042.85
943.511	6941.16
943.818	7013.93
944.125	6925.11
944.431	6847.6
944.738	6909.3
945.044	6803.76
945.35	6768.96
945.657	6741.84
945.963	6700.26
946.269	6694.84
946.575	6687.15
946.881	6586.14
947.187	6623.2
947.493	6560.6
947.799	6540.72
948.105	6507.5
948.41	6437.9
948.716	6470.89
949.022	6442.64
949.327	6415.98
949.633	6371.23
949.938	6406.26
950.244	6312.93
950.549	6290.33
950.854	6280.84
951.16	6291.46
951.465	6239.71
951.77	6200.39
952.075	6155.87
952.38	6094.18
952.685	6131.92
952.99	6070.45
953.294	6043.33
953.599	5998.36
953.904	5932.37
954.209	5952.94
954.513	5942.77
954.818	5962.88
955.122	5943.67
955.426	5860.96
955.731	5872.26
956.035	5893.96
956.339	5855.54
956.643	5785.94
956.948	5760.85
957.252	5740.96
957.556	5754.3
957.86	5670.23
958.163	5583.68
958.467	5592.27
958.771	5636.11
959.075	5568.77
959.378	5574.87
959.682	5514.98
959.985	5506.62
960.289	5471.82
960.592	5484.93
960.896	5443.57
961.199	5445.83
961.502	5441.54
961.805	5375.55
962.108	5359.96
962.411	5376
962.714	5286.29
963.017	5337.36
963.32	5257.36
963.623	5270.69
963.926	5266.18
964.228	5215.33
964.531	5190.7
964.833	5210.36
965.136	5106.18
965.438	5118.83
965.741	5104.15
966.043	5081.77
966.345	5032.28
966.648	5038.38
966.95	5009.68
967.252	4992.74
967.554	4957.93
967.856	4974.66
968.158	4860.54
968.46	4882.46
968.761	4884.94
969.063	4818.05
969.365	4844.04
969.666	4829.35
969.968	4750.03
970.269	4766.75
970.571	4764.95
970.872	4752.52
971.174	4733.99
971.475	4705.29
971.776	4621.22
972.077	4662.58
972.378	4629.13
972.679	4598.85
972.98	4570.6
973.281	4591.39
973.582	4568.79
973.883	4501.9
974.183	4513.43
974.484	4500.09
974.785	4467.1
975.085	4447.44
975.386	4474.78
975.686	4413.54
975.986	4392.75
976.287	4353.88
976.587	4330.61
976.887	4317.73
977.187	4328.8
977.487	4290.83
977.787	4254.68
978.087	4226.43
978.387	4234.79
978.687	4237.28
978.987	4193.21
979.286	4117.28
979.586	4188.24
979.885	4154.79
980.185	4147.56
980.484	4103.95
980.784	4107.34
981.083	4041.57
981.382	4021.24
981.682	4058.75
981.981	3980.11
982.28	3965.87
982.579	3985.98
982.878	3961.8
983.177	3976.72
983.475	3959.32
983.774	3885.42
984.073	3875.7
984.372	3861.92
984.67	3821.69
984.969	3857.62
985.267	3762.94
985.566	3773.33
985.864	3776.72
986.162	3764.29
986.461	3750.96
986.759	3737.85
987.057	3687.01
987.355	3684.52
987.653	3673.45
987.951	3656.95
988.249	3645.88
988.547	3581.47
988.844	3592.09
989.142	3580.12
989.44	3577.63
989.737	3538.08
990.035	3554.81
990.332	3555.71
990.63	3524.75
990.927	3466
991.224	3456.28
991.521	3422.83
991.819	3435.04
992.116	3411.99
992.413	3401.14
992.71	3402.95
993.006	3350.75
993.303	3360.46
993.6	3357.3
993.897	3329.73
994.193	3325.89
994.49	3288.37
994.787	3247.7
995.083	3236.4
995.379	3226.45
995.676	3231.88
995.972	3181.26
996.268	3155.95
996.565	3161.15
996.861	3151.88
997.157	3138.77
997.453	3095.84
997.749	3106.46
998.044	3112.11
998.34	3116.18
998.636	3063.07
998.932	3067.59
999.227	3052.22
999.523	3035.27
999.818	3020.58
1000.114	3003.86
1000.409	2979.68
1000.704	2960.7
1001	2956.63
1001.295	2901.49
1001.59	2897.2
1001.885	2908.5
1002.18	2879.57
1002.475	2842.06
1002.77	2876.41
1003.065	2812.45
1003.359	2843.87
1003.654	2811.78
1003.949	2787.14
1004.243	2741.04
1004.538	2752.57
1004.832	2735.39
1005.127	2712.8
1005.421	2731.55
1005.715	2677.32
1006.009	2693.14
1006.304	2642.74
1006.598	2661.27
1006.892	2629.63
1007.186	2560.26
1007.48	2586.47
1007.773	2564.1
1008.067	2564.78
1008.361	2495.63
1008.655	2502.41
1008.948	2515.74
1009.242	2500.82
1009.535	2466.25
1009.829	2471.45
1010.122	2436.19
1010.415	2429.41
1010.708	2434.16
1011.001	2424.89
1011.295	2387.61
1011.588	2391.67
1011.881	2343.77
1012.173	2322.98
1012.466	2358.23
1012.759	2326.14
1013.052	2346.93
1013.344	2316.2
1013.637	2287.72
1013.93	2259.25
1014.222	2238.68
1014.514	2249.53
1014.807	2238.68
1015.099	2201.85
1015.391	2196.43
1015.683	2173.38
1015.976	2193.04
1016.268	2168.63
1016.56	2125.69
1016.851	2109.65
1017.143	2115.98
1017.435	2094.96
1017.727	2084.79
1018.018	2060.16
1018.31	2066.71
1018.602	2058.35
1018.893	2011.8
1019.185	2022.19
1019.476	1988.75
1019.767	1977.9
1020.058	1981.97
1020.35	1918.69
1020.641	1945.13
1020.932	1925.25
1021.223	1919.37
1021.514	1917.11
1021.804	1911.69
1022.095	1906.26
1022.386	1873.27
1022.677	1835.76
1022.967	1826.27
1023.258	1790.56
1023.548	1830.79
1023.839	1808.86
1024.129	1797.11
1024.419	1786.94
1024.709	1741.75
1025	1763.89
1025.29	1722.54
1025.58	1694.74
1025.87	1748.3
1026.16	1691.81
1026.449	1713.95
1026.739	1660.17
1027.029	1663.56
1027.319	1655.87
1027.608	1624.24
1027.898	1618.59
1028.187	1594.18
1028.477	1569.32
1028.766	1595.09
1029.055	1584.24
1029.344	1548.08
1029.634	1556.67
1029.923	1542.21
1030.212	1497.23
1030.501	1516.67
1030.79	1515.99
1031.078	1500.4
1031.367	1446.16
1031.656	1474.64
1031.945	1472.6
1032.233	1479.16
1032.522	1464.92
1032.81	1422.66
1033.099	1432.38
1033.387	1417.24
1033.675	1410.46
1033.963	1414.52
1034.251	1412.72
1034.54	1385.15
1034.828	1356.67
1035.116	1337.92
1035.403	1334.75
1035.691	1329.78
1035.979	1329.33
1036.267	1339.72
1036.554	1298.82
1036.842	1291.14
1037.129	1315.32
1037.417	1302.66
1037.704	1287.3
1037.992	1278.03
1038.279	1252.72
1038.566	1234.42
1038.853	1234.42
1039.14	1234.42
