Data from foil_FLMS001491_054.txt Node
Date: Tue Feb 07 11:27:11 GMT 2017
User: dcchb
Spectrometer: FLMS00149
Trigger mode: 0
Integration Time (sec): 2.000000E-2
Scans to average: 10
Electric dark correction enabled: true
Nonlinearity correction enabled: false
Boxcar width: 0
XAxis mode: Wavelengths
Number of Pixels in Spectrum: 2048
>>>>>Begin Spectral Data<<<<<
341.393	-21.62
341.776	-21.62
342.16	-21.62
342.543	-58.68
342.927	-53.71
343.31	-72.7
343.693	-76.09
344.077	-100.72
344.46	-48.97
344.843	-34.96
345.226	-43.09
345.61	-36.54
345.993	-25.47
346.376	-11.23
346.759	36.68
347.142	34.42
347.525	38.71
347.908	65.61
348.291	73.52
348.674	92.72
349.057	108.09
349.44	133.85
349.823	148.99
350.206	166.85
350.588	242.32
350.971	259.27
351.354	278.03
351.737	309.22
352.119	299.27
352.502	312.6
352.884	302.44
353.267	337.01
353.65	311.47
354.032	354.41
354.414	337.46
354.797	366.61
355.179	386.28
355.562	357.12
355.944	381.08
356.326	395.31
356.709	381.98
357.091	385.15
357.473	399.83
357.855	367.97
358.238	384.24
358.62	402.09
359.002	392.15
359.384	400.74
359.766	410.68
360.148	379.95
360.53	394.64
360.912	416.33
361.294	412.04
361.676	410.46
362.057	419.95
362.439	410.68
362.821	431.92
363.203	390.34
363.584	407.29
363.966	407.74
364.348	403.9
364.729	412.04
365.111	423.34
365.493	410.23
365.874	410.23
366.256	414.75
366.637	418.36
367.019	385.82
367.4	430.34
367.781	412.72
368.163	430.57
368.544	424.24
368.925	436.67
369.306	428.08
369.688	429.21
370.069	412.49
370.45	432.38
370.831	409.33
371.212	450.68
371.593	446.16
371.974	432.6
372.355	446.16
372.736	432.83
373.117	447.97
373.498	470.57
373.879	437.8
374.26	437.35
374.641	419.27
375.021	436.44
375.402	457.23
375.783	463.79
376.163	526.61
376.544	510.11
376.925	514.41
377.305	479.83
377.686	518.02
378.066	492.49
378.447	491.36
378.827	521.19
379.208	515.99
379.588	505.82
379.968	512.15
380.349	532.03
380.729	527.29
381.109	537.01
381.489	561.64
381.87	551.69
382.25	537.23
382.63	557.8
383.01	561.86
383.39	572.03
383.77	579.72
384.15	565.48
384.53	577.68
384.91	591.02
385.29	593.28
385.67	603.44
386.049	608.87
386.429	631.01
386.809	618.81
387.189	638.02
387.568	637.12
387.948	656.1
388.328	642.54
388.707	678.47
389.087	650.9
389.466	679.15
389.846	676.21
390.225	671.92
390.605	688.87
390.984	693.39
391.363	710.11
391.743	740.62
392.122	743.1
392.501	760.05
392.881	753.5
393.26	776.77
393.639	791.01
394.018	782.2
394.397	786.49
394.776	788.3
395.155	802.54
395.534	805.93
395.913	824.46
396.292	824.46
396.671	834.17
397.05	846.6
397.429	857
397.808	872.14
398.186	865.36
398.565	860.61
398.944	875.98
399.323	886.6
399.701	895.41
400.08	908.52
400.458	922.76
400.837	932.93
401.215	922.08
401.594	963.21
401.972	976.32
402.351	977.67
402.729	988.52
403.107	999.59
403.486	982.87
403.864	1022.19
404.242	1009.08
404.62	1040.95
404.999	1036.43
405.377	1089.53
405.755	1084.56
406.133	1087.73
406.511	1098.8
406.889	1113.04
407.267	1145.35
407.645	1162.3
408.023	1178.12
408.401	1210.66
408.779	1198.46
409.156	1223.77
409.534	1241.39
409.912	1236.65
410.29	1277.55
410.667	1293.37
411.045	1293.37
411.422	1322.97
411.8	1319.36
412.178	1336.98
412.555	1388.73
412.933	1406.59
413.31	1438.22
413.687	1442.52
414.065	1451.78
414.442	1445
414.819	1503.31
415.197	1507.15
415.574	1520.93
415.951	1548.96
416.328	1563.65
416.705	1575.17
417.082	1588.5
417.46	1596.19
417.837	1635.96
418.214	1647.03
418.591	1650.87
418.967	1675.28
419.344	1707.14
419.721	1710.31
420.098	1747.82
420.475	1756.41
420.852	1762.28
421.228	1807.71
421.605	1800.02
421.982	1850.19
422.358	1848.38
422.735	1850.64
423.111	1897.42
423.488	1907.82
423.864	1919.34
424.241	1960.47
424.617	1982.62
424.994	2010.19
425.37	2034.82
425.746	2046.8
426.123	2063.29
426.499	2080.92
426.875	2152.1
427.251	2189.62
427.627	2221.26
428.003	2246.79
428.379	2283.4
428.756	2307.58
429.132	2354.13
429.507	2364.3
429.883	2369.73
430.259	2430.29
430.635	2444.98
431.011	2481.59
431.387	2513.9
431.763	2591.19
432.138	2604.52
432.514	2634.58
432.89	2690.62
433.265	2722.03
433.641	2801.8
434.016	2779.88
434.392	2795.03
434.767	2883.38
435.143	2917.73
435.518	2969.03
435.894	2999.31
436.269	3054.91
436.644	3068.92
437.02	3098.07
437.395	3100.1
437.77	3163.6
438.145	3240.21
438.52	3261
438.895	3283.15
439.271	3316.59
439.646	3352.07
440.021	3451.28
440.395	3451.96
440.77	3441.11
441.145	3466.87
441.52	3550.49
441.895	3534.21
442.27	3616.7
442.645	3591.84
443.019	3691.72
443.394	3680.65
443.769	3750.71
444.143	3722.91
444.518	3765.4
444.892	3810.82
445.267	3836.35
445.641	3827.09
446.016	3894.21
446.39	3940.31
446.764	3972.17
447.139	3959.74
447.513	4005.16
447.887	4098.49
448.262	4106.4
448.636	4165.38
449.01	4181.88
449.384	4269.34
449.758	4280.86
450.132	4355.44
450.506	4353.4
450.88	4394.08
451.254	4424.81
451.628	4512.04
452.002	4530.57
452.376	4588.65
452.75	4637.24
453.123	4685.82
453.497	4752.26
453.871	4795.42
454.244	4882.2
454.618	4912.26
454.992	5011.24
455.365	4997.23
455.739	5119.48
456.112	5201.74
456.486	5144.34
456.859	5203.55
457.232	5338.24
457.606	5301.63
457.979	5408.74
458.352	5545.01
458.725	5617.78
459.099	5603.09
459.472	5726.93
459.845	5761.05
460.218	5822.06
460.591	5852.57
460.964	5890.76
461.337	6057.76
461.71	6085.56
462.083	6260.47
462.456	6153.58
462.829	6280.81
463.201	6392.67
463.574	6398.09
463.947	6524.64
464.32	6652.1
464.692	6686.9
465.065	6682.61
465.438	6863.84
465.81	6928.48
466.183	7001.69
466.555	7198.98
466.928	7240.11
467.3	7197.4
467.672	7370.27
468.045	7488.91
468.417	7531.17
468.789	7641.23
469.161	7704.5
469.534	7883.25
469.906	8036.02
470.278	8094.1
470.65	8184.04
471.022	8340.42
471.394	8465.84
471.766	8607.08
472.138	8643.91
472.51	8787.86
472.882	9007.97
473.253	9123.45
473.625	9201.18
473.997	9422.2
474.369	9473.95
474.74	9592.13
475.112	9784.22
475.484	9894.27
475.855	10111.67
476.227	10116.41
476.598	10486.12
476.97	10575.16
477.341	10869.62
477.713	10920.24
478.084	10929.05
478.455	11338.3
478.827	11410.39
479.198	11805.41
479.569	11771.96
479.94	12136.02
480.311	12252.86
480.682	12526.75
481.053	12784.59
481.424	13012.84
481.795	13156.33
482.166	13352.94
482.537	13453.28
482.908	13787.96
483.279	13905.02
483.65	14147.27
484.021	14505
484.391	14644.88
484.762	14834.48
485.133	14914.48
485.503	15146.34
485.874	15554.01
486.244	15709.71
486.615	15940.22
486.985	16175.01
487.356	16433.31
487.726	16670.82
488.097	16969.12
488.467	16990.13
488.837	17404.58
489.207	17572.26
489.578	17868.98
489.948	17934.74
490.318	18290.66
490.688	18333.15
491.058	18613.82
491.428	18940.59
491.798	19004.77
492.168	19562.49
492.538	19548.71
492.908	19839.1
493.278	20078.41
493.648	20116.15
494.017	20381.23
494.387	20641.79
494.757	20770.6
495.126	21030.7
495.496	21175.33
495.866	21234.31
496.235	21457.81
496.605	21770.12
496.974	21826.84
497.344	22074.52
497.713	22150.45
498.082	22335.08
498.452	22637.67
498.821	22778
499.19	22809.41
499.559	23110.65
499.928	23332.11
500.298	23457.31
500.667	23713.35
501.036	23559.45
501.405	23876.5
501.774	23983.62
502.143	24282.37
502.512	24231.75
502.88	24683.94
503.249	24626.99
503.618	24831.06
503.987	24934.33
504.356	25177.49
504.724	25270.59
505.093	25543.13
505.462	25447.54
505.83	25821.76
506.199	26049.56
506.567	26389.21
506.936	26304.92
507.304	26597.79
507.672	26778.58
508.041	26757.56
508.409	27157.77
508.777	27475.05
509.145	27606.8
509.514	27692.9
509.882	27855.38
510.25	27968.15
510.618	28327.69
510.986	28290.4
511.354	28705.76
511.722	28675.7
512.09	28996.6
512.458	29035.47
512.826	29366.08
513.193	29538.95
513.561	29751.15
513.929	29956.8
514.297	30124.48
514.664	30407.86
515.032	30465.03
515.4	30792.71
515.767	30972.36
516.135	31042.87
516.502	30997
516.869	31569.64
517.237	31795.62
517.604	31760.82
517.972	32173.24
518.339	32449.39
518.706	32520.8
519.073	32720.57
519.44	32900.67
519.808	33245.07
520.175	33336.6
520.542	33709.92
520.909	33897.03
521.276	34004.83
521.643	34358.04
522.009	34568.43
522.376	34698.82
522.743	35096.32
523.11	35322.98
523.477	35686.82
523.843	35842.97
524.21	36329.51
524.577	36528.6
524.943	36704.64
525.31	36880
525.676	37304.63
526.043	37487.9
526.409	37527.67
526.776	37989.58
527.142	38061.67
527.508	38282.45
527.874	38560.86
528.241	38848.09
528.607	39049.44
528.973	39366.27
529.339	39356.32
529.705	39797.67
530.071	40089.86
530.437	40189.75
530.803	40455.05
531.169	40751.54
531.535	40668.61
531.901	40717.42
532.267	41000.35
532.632	41228.82
532.998	41466.1
533.364	41731.18
533.73	41827.9
534.095	41905.18
534.461	42159.19
534.826	42383.14
535.192	42612.28
535.557	42911.71
535.923	43000.75
536.288	42995.78
536.653	43284.13
537.019	43276.9
537.384	43646.83
537.749	43681.63
538.114	43750.56
538.479	43948.97
538.845	44076.65
539.21	43922.76
539.575	44277.32
539.94	44315.74
540.305	44714.38
540.67	44627.6
541.034	44834.15
541.399	45073.91
541.764	45090.41
542.129	45176.28
542.494	45393.45
542.858	45473.23
543.223	45640.45
543.587	45807
543.952	45898.52
544.316	45903.04
544.681	46051.06
545.045	46249.93
545.41	46366.76
545.774	46459.87
546.138	46494.44
546.503	46715.23
546.867	46796.35
547.231	47126.74
547.595	47079.96
547.959	47302.56
548.324	47278.38
548.688	47437.24
549.052	47534.41
549.416	47651.25
549.779	47832.71
550.143	47811.02
550.507	48154.96
550.871	48158.13
551.235	48142.31
551.599	48367.84
551.962	48480.38
552.326	48580.71
552.689	48828.84
553.053	48619.36
553.417	48823.87
553.78	49269.74
554.143	49163.75
554.507	49351.77
554.87	49632.21
555.234	50004.41
555.597	49860.68
555.96	49810.06
556.323	49966.67
556.686	50027.23
557.05	50326.2
557.413	50499.31
557.776	50569.81
558.139	50747.89
558.502	50906.75
558.865	50915.57
559.228	51263.13
559.59	51258.16
559.953	51359.85
560.316	51684.81
560.679	51539.28
561.041	51820.63
561.404	51992.6
561.767	52237.34
562.129	52166.83
562.492	52506.94
562.854	52453.61
563.217	52653.38
563.579	52713.94
563.941	52863.77
564.304	52980.37
564.666	53160.71
565.028	53153.7
565.39	53265.11
565.753	53398.44
566.115	53549.17
566.477	53632.11
566.839	53718.66
567.201	53916.62
567.563	54004.98
567.925	54162.04
568.287	54243.84
568.648	54268.25
569.01	54450.62
569.372	54548.47
569.734	54578.07
570.095	54694.45
570.457	54876.14
570.819	54926.54
571.18	54860.1
571.542	55010.38
571.903	55060.32
572.265	55187.77
572.626	55210.37
572.987	55306.64
573.349	55418.95
573.71	55477.71
574.071	55537.37
574.432	55628.66
574.794	55817.36
575.155	55812.16
575.516	55781.43
575.877	55968.09
576.238	56008.32
576.599	55994.08
576.96	55949.33
577.32	56024.13
577.681	56189.33
578.042	56163.57
578.403	56155.66
578.763	56235.2
579.124	56264.81
579.485	56369.89
579.845	56413.73
580.206	56283.11
580.566	56361.53
580.927	56435.87
581.287	56478.59
581.648	56439.72
582.008	56563.1
582.368	56470.22
582.728	56554.06
583.089	56493.73
583.449	56450.79
583.809	56499.38
584.169	56516.78
584.529	56503.44
584.889	56674.29
585.249	56472.94
585.609	56446.72
585.969	56666.83
586.329	56536.21
586.688	56626.38
587.048	56556.55
587.408	56432.71
587.768	56540.73
588.127	56527.85
588.487	56538.25
588.846	56741.4
589.206	56546.83
589.565	56598.13
589.925	56702.76
590.284	56554.97
590.643	56714.29
591.003	56678.35
591.362	56683.55
591.721	56660.95
592.08	56648.3
592.44	56708.18
592.799	56728.3
593.158	56599.03
593.517	56654.85
593.876	56700.5
594.235	56540.73
594.593	56671.12
594.952	56688.07
595.311	56557.91
595.67	56641.75
596.029	56810.78
596.387	56884
596.746	56782.53
597.104	56725.13
597.463	56732.59
597.822	56880.38
598.18	56726.49
598.538	56740.05
598.897	56861.63
599.255	56655.3
599.613	56963.77
599.972	56795.87
600.33	56929.65
600.688	56715.64
601.046	56868.41
601.404	56996.31
601.762	56913.38
602.12	57064.11
602.478	56999.02
602.836	57040.83
603.194	56876.99
603.552	57051
603.91	56925.13
604.268	57100.49
604.625	57006.93
604.983	57115.86
605.341	57023.43
605.698	57103.2
606.056	57096.65
606.413	57138.46
606.771	57212.58
607.128	57217.1
607.485	57057.78
607.843	57083.77
608.2	57220.04
608.557	57230.43
608.914	57163.31
609.272	57328.73
609.629	57340.03
609.986	57431.1
610.343	57266.14
610.7	57516.98
611.057	57436.07
611.414	57488.05
611.771	57396.75
612.127	57528.05
612.484	57450.31
612.841	57643.53
613.198	57574.15
613.554	57607.82
613.911	57657.76
614.267	57595.84
614.624	57615.96
614.98	57662.28
615.337	57819.12
615.693	57690.98
616.05	57647.37
616.406	57800.81
616.762	57766.01
617.118	57671.77
617.475	57704.77
617.831	57763.07
618.187	57749.96
618.543	57776.63
618.899	57908.38
619.255	57844.65
619.611	57835.61
619.967	57839.91
620.323	57850.3
620.678	57815.73
621.034	57758.78
621.39	57785.22
621.746	57768.95
622.101	58048.94
622.457	57860.92
622.812	57756.97
623.168	57894.37
623.523	57852.33
623.879	57881.26
624.234	57713.81
624.589	57780.92
624.945	57799.45
625.3	57729.17
625.655	57785.22
626.01	57779.57
626.365	57802.62
626.72	57746.35
627.075	57740.93
627.43	57701.15
627.785	57625.22
628.14	57688.05
628.495	57719.91
628.85	57710.19
629.205	57610.99
629.559	57745.44
629.914	57561.27
630.269	57495.96
630.623	57437.2
630.978	57358.79
631.332	57463.64
631.687	57553.59
632.041	57389.75
632.396	57426.13
632.75	57250.32
633.104	57333.48
633.459	57165.57
633.813	57229.07
634.167	57170.54
634.521	57089.87
634.875	57224.33
635.229	57225.68
635.583	56991.34
635.937	56970.1
636.291	56993.37
636.645	56990.89
636.999	56832.47
637.352	56940.04
637.706	56771.46
638.06	56784.57
638.413	56720.61
638.767	56669.09
639.121	56770.1
639.474	56567.17
639.828	56628.19
640.181	56583.67
640.534	56462.09
640.888	56446.95
641.241	56295.54
641.594	56331.02
641.947	56409.89
642.301	56337.12
642.654	56240.85
643.007	56213.51
643.36	56237.01
643.713	56160.4
644.066	56259.61
644.419	56007.86
644.771	55899.17
645.124	55631.38
645.477	55555.22
645.83	55446.07
646.182	55294.89
646.535	55254.21
646.888	55266.64
647.24	55048.57
647.593	55124.95
647.945	55095.12
648.298	54879.08
648.65	54859.42
649.002	54741.68
649.355	54908.23
649.707	54820.55
650.059	54934.45
650.411	55172.41
650.763	55301.22
651.115	55494.66
651.467	55338.5
651.819	55338.05
652.171	55254.89
652.523	55230.48
652.875	55278.84
653.227	55108.23
653.578	55264.15
653.93	55147.1
654.282	54959.3
654.633	54917.72
654.985	54909.59
655.337	54874.33
655.688	54866.88
656.039	55004.5
656.391	54815.35
656.742	54796.6
657.094	54862.81
657.445	54999.08
657.796	54822.13
658.147	54675.7
658.498	54746.65
658.849	54738.07
659.2	54640.89
659.551	54549.14
659.902	54669.37
660.253	54549.82
660.604	54621.69
660.955	54489.94
661.306	54501.69
661.656	54361.58
662.007	54367.91
662.358	54511.63
662.708	54383.27
663.059	54364.97
663.409	54141.47
663.76	54416.94
664.11	54306.44
664.461	54274.8
664.811	54335.82
665.161	54215.14
665.511	54205.65
665.862	54221.7
666.212	54231.41
666.562	54230.28
666.912	54217.63
667.262	54129.49
667.612	54144.86
667.962	54082.26
668.312	54009.05
668.662	54271.41
669.011	54013.57
669.361	53977.86
669.711	54007.01
670.06	53872.78
670.41	53868.71
670.76	53827.81
671.109	53864.64
671.459	53808.83
671.808	53756.85
672.157	53839.78
672.507	53546.69
672.856	53574.03
673.205	53582.62
673.554	53564.76
673.904	53443.41
674.253	53699.9
674.602	53608.83
674.951	53157.09
675.3	53042.52
675.649	53392.11
675.998	53426.46
676.346	53329.52
676.695	53407.71
677.044	53187.6
677.393	53268.95
677.741	53247.03
678.09	53196.86
678.438	53125.45
678.787	53156.87
679.135	53143.08
679.484	52926.36
679.832	53028.51
680.181	52795.29
680.529	52862.86
680.877	52791.68
681.225	52699.48
681.573	52862.64
681.922	52612.92
682.27	52501.74
682.618	52626.48
682.966	52473.27
683.314	52579.48
683.661	52439.6
684.009	52199.6
684.357	52199.38
684.705	52172.26
685.053	52156.67
685.4	52039.83
685.748	51776.34
686.095	51938.59
686.443	51672.84
686.79	51622.44
687.138	51671.48
687.485	51577.7
687.832	51460.86
688.18	51650.69
688.527	51395.56
688.874	51337.25
689.221	51195.11
689.568	51077.15
689.915	51046.41
690.262	51099.74
690.609	50966.19
690.956	50715.8
691.303	50777.94
691.65	50535.69
691.997	50558.97
692.344	50251.4
692.69	50327.11
693.037	50286.88
693.383	49948.81
693.73	50105.42
694.077	49784.3
694.423	49754.24
694.769	49666.34
695.116	49556.28
695.462	49389.05
695.808	49238.78
696.155	49433.57
696.501	48975.05
696.847	48973.02
697.193	48923.53
697.539	48900.03
697.885	48591.11
698.231	48428.63
698.577	48479.25
698.923	48340.72
699.269	48174.17
699.614	48019.82
699.96	48002.2
700.306	47987.96
700.651	47781.19
700.997	47682.88
701.342	47496.22
701.688	47606.28
702.033	47458.26
702.379	47437.02
702.724	47241.31
703.069	47348.2
703.415	46998.83
703.76	46955.22
704.105	46869.12
704.45	46551.84
704.795	46541.22
705.14	46350.72
705.485	46317.27
705.83	46258.52
706.175	46166.31
706.52	46003.61
706.865	45895.14
707.209	45811.3
707.554	45681.81
707.899	45795.25
708.243	45708.93
708.588	45474.13
708.932	45204.08
709.277	45152.56
709.621	45321.14
709.966	45007.93
710.31	44967.02
710.654	44797.08
710.998	44770.87
711.342	44757.09
711.687	44555.51
712.031	44442.52
712.375	44147.38
712.719	44160.04
713.063	43975.64
713.407	44273.26
713.75	44014.51
714.094	43849.54
714.438	43571.58
714.782	43680.73
715.125	43589.21
715.469	43437.8
715.812	43319.61
716.156	43077.81
716.499	43017.47
716.843	43229.89
717.186	42816.12
717.53	42979.51
717.873	43059.73
718.216	42811.15
718.559	42617.71
718.902	42443.25
719.246	42545.39
719.589	42202.8
719.932	42117.16
720.275	42074.67
720.617	42105.4
720.96	42045.52
721.303	42048
721.646	42016.37
721.989	41702.93
722.331	41697.51
722.674	41472.65
723.016	41733.89
723.359	41613.67
723.701	41669.94
724.044	41306.33
724.386	41100.91
724.729	41268.82
725.071	40985.43
725.413	41069.73
725.755	40989.5
726.097	40766.91
726.439	40641.04
726.782	40400.59
727.124	40712.45
727.465	40444.2
727.807	40349.74
728.149	40312.68
728.491	40166.7
728.833	40281.27
729.175	40198.56
729.516	40104.1
729.858	40023.88
730.199	40101.39
730.541	39923.09
730.882	39757.22
731.224	39702.53
731.565	39571.69
731.906	39372.14
732.248	39507.28
732.589	39308.19
732.93	39400.39
733.271	39110.68
733.612	39213.95
733.953	39174.18
734.294	38929.44
734.635	38794.98
734.976	38894.87
735.317	38727.64
735.658	38703.23
735.999	38664.59
736.339	38680.64
736.68	38630.02
737.021	38476.35
737.361	38332.62
737.702	38434.54
738.042	38220.99
738.383	38208.11
738.723	38222.34
739.063	38068.67
739.404	38126.75
739.744	37888.57
740.084	37742.13
740.424	37809.25
740.764	37764.95
741.104	37683.15
741.444	37531.29
741.784	37409.48
742.124	37541
742.464	37304.17
742.804	37233.44
743.143	37272.99
743.483	37170.62
743.823	36966.1
744.162	36843.62
744.502	36909.38
744.841	36795.26
745.181	36854.24
745.52	36648.37
745.86	36696.96
746.199	36423.52
746.538	36291.77
746.877	36508.26
747.216	36462.39
747.556	36295.61
747.895	36391.88
748.234	36221.94
748.573	36347.14
748.911	36143.98
749.25	36113.92
749.589	35911.89
749.928	35898.34
750.267	35788.96
750.605	35680.26
750.944	35750.09
751.283	35395.75
751.621	35444.79
751.96	35308.29
752.298	35406.37
752.636	35271.01
752.975	35145.36
753.313	35080.28
753.651	35096.32
753.989	34866.72
754.327	34771.13
754.666	34551.25
755.004	34640.97
755.342	34565.04
755.679	34407.98
756.017	34358.72
756.355	34276.23
756.693	34234.42
757.031	34105.16
757.368	34001.89
757.706	34079.4
758.044	33848.22
758.381	33786.98
758.719	33608.9
759.056	33562.8
759.394	33493.88
759.731	33232.19
760.068	33233.1
760.405	33176.15
760.743	33026.09
761.08	32953.78
761.417	32868.36
761.754	32808.93
762.091	32675.14
762.428	32512.21
762.765	32453.23
763.102	32554.47
763.438	32336.4
763.775	32091.66
764.112	32166.68
764.449	32123.29
764.785	31900.93
765.122	31697.54
765.458	31490.77
765.795	31463.2
766.131	31457.55
766.467	31446.48
766.804	31091.68
767.14	30917.68
767.476	30919.48
767.812	30835.19
768.148	30914.74
768.485	30678.81
768.821	30397.69
769.157	30482.88
769.492	30422.77
769.828	30324.92
770.164	29994.54
770.5	30079.05
770.836	30054.65
771.171	29805.16
771.507	29720.19
771.842	29422.57
772.178	29464.38
772.513	29298.96
772.849	29129.25
773.184	29128.34
773.519	29033.21
773.855	28891.29
774.19	28684.29
774.525	28502.82
774.86	28574.46
775.195	28379.44
775.53	28341.47
775.865	28110.97
776.2	28004.08
776.535	27875.5
776.87	27790.07
777.205	27729.74
777.539	27612.45
777.874	27541.49
778.209	27322.52
778.543	27337.88
778.878	27130.43
779.212	27202.52
779.547	26898.12
779.881	27039.13
780.215	26667.62
780.55	26816.09
780.884	26454.74
781.218	26442.77
781.552	26486.15
781.886	26181.98
782.22	26091.81
782.554	26077.58
782.888	25806.62
783.222	25752.61
783.556	25796.45
783.889	25694.08
784.223	25458.61
784.557	25395.79
784.89	25484.82
785.224	25342.91
785.557	25247.99
785.891	24962.13
786.224	24955.35
786.558	24950.38
786.891	24755.35
787.224	24636.94
787.557	24564.85
787.891	24512.42
788.224	24532.08
788.557	24459.54
788.89	24289.38
789.223	24248.47
789.556	24044.64
789.888	23974.81
790.221	23896.39
790.554	23681.71
790.887	23777.75
791.219	23697.75
791.552	23566.46
791.884	23495.5
792.217	23347.48
792.549	23261.15
792.882	22950.65
793.214	23056.64
793.546	23041.72
793.879	22862.75
794.211	22826.14
794.543	22880.82
794.875	22700.72
795.207	22700.04
795.539	22548.86
795.871	22572.81
796.203	22386.83
796.535	22197
796.867	22172.37
797.198	22101.86
797.53	22062.99
797.862	21901.64
798.193	21893.96
798.525	21758.14
798.856	21695.55
799.188	21634.3
799.519	21395.89
799.85	21402.45
800.182	21414.2
800.513	21377.14
800.844	21154.77
801.175	21279.96
801.506	21180.3
801.837	21070.93
802.168	20918.84
802.499	20885.62
802.83	20882.69
803.161	20729.24
803.491	20788.9
803.822	20712.29
804.153	20553.43
804.483	20433.43
804.814	20388.69
805.145	20293.1
805.475	20324.28
805.805	20289.25
806.136	20250.61
806.466	20141.46
806.796	20080.45
807.126	19889.27
807.457	19897.17
807.787	19874.8
808.117	19803.62
808.447	19677.07
808.777	19598.2
809.107	19650.63
809.436	19589.39
809.766	19581.7
810.096	19505.09
810.426	19407.92
810.755	19252.22
811.085	19365.66
811.414	19352.56
811.744	19151.66
812.073	19057.42
812.403	19036.63
812.732	18883.19
813.061	18996.86
813.39	18791.21
813.719	18818.11
814.049	18870.31
814.378	18863.3
814.707	18748.5
815.036	18665.57
815.365	18593.93
815.693	18492.47
816.022	18521.84
816.351	18291.57
816.68	18191
817.008	18327.72
817.337	18101.97
817.665	18194.85
817.994	18101.06
818.322	18005.02
818.651	17946.72
818.979	17861.3
819.307	18005.7
819.636	17921.63
819.964	17777
820.292	17879.15
820.62	17832.6
820.948	17831.69
821.276	17784.24
821.604	17706.72
821.932	17841.64
822.259	17790.56
822.587	17800.51
822.915	17654.3
823.243	17649.55
823.57	17596.67
823.898	17685.71
824.225	17662.88
824.553	17623.56
824.88	17592.83
825.207	17639.38
825.535	17623.56
825.862	17636.9
826.189	17562.09
826.516	17609.55
826.843	17644.35
827.17	17703.11
827.497	17650
827.824	17581.3
828.151	17661.75
828.478	17560.51
828.805	17651.13
829.131	17595.77
829.458	17556.45
829.785	17490.23
830.111	17590.57
830.438	17605.71
830.764	17550.57
831.09	17500.18
831.417	17427.86
831.743	17577.46
832.069	17417.47
832.395	17411.82
832.722	17418.14
833.048	17378.6
833.374	17442.1
833.7	17374.76
834.026	17424.25
834.351	17413.62
834.677	17327.07
835.003	17341.08
835.329	17295.89
835.654	17276.23
835.98	17201.88
836.306	17252.27
836.631	17224.7
836.956	17253.18
837.282	17174.76
837.607	17221.09
837.932	17088.89
838.258	17115.78
838.583	16999.85
838.908	16960.53
839.233	17009.57
839.558	16919.85
839.883	16844.37
840.208	16837.82
840.533	16855.45
840.858	16917.37
841.182	16802.11
841.507	16876.24
841.832	16727.31
842.156	16654.77
842.481	16679.41
842.805	16681.21
843.13	16609.13
843.454	16537.04
843.778	16494.33
844.103	16473.76
844.427	16351.28
844.751	16455.46
845.075	16348.12
845.399	16395.57
845.723	16197.16
846.047	16248
846.371	16085.3
846.695	16085.3
847.019	16026.09
847.343	15943.38
847.666	15812.99
847.99	15682.37
848.313	15637.85
848.637	15577.74
848.96	15613.67
849.284	15478.31
849.607	15347.01
849.931	15412.77
850.254	15283.96
850.577	15235.15
850.9	15064.53
851.223	15098.43
851.546	14979.34
851.869	15080.13
852.192	15113.57
852.515	14944.54
852.838	14839.45
853.161	14864.31
853.483	14716.07
853.806	14691.66
854.129	14716.29
854.451	14594.26
854.774	14598.1
855.096	14545.22
855.419	14502.51
855.741	14468.84
856.063	14334.38
856.385	14354.27
856.708	14402.4
857.03	14166.93
857.352	14272.01
857.674	14176.87
857.996	14174.61
858.318	14076.54
858.64	14049.64
858.961	13899.82
859.283	13965.35
859.605	13869.31
859.926	13961.74
860.248	13933.72
860.57	13882.64
860.891	13855.75
861.212	13788.63
861.534	13783.66
861.855	13655.08
862.176	13781.86
862.498	13736.88
862.819	13717.45
863.14	13534.63
863.461	13490.11
863.782	13484.69
864.103	13545.03
864.424	13451.69
864.745	13471.58
865.065	13443.11
865.386	13399.94
865.707	13341.19
866.027	13426.38
866.348	13444.91
866.668	13371.7
866.989	13420.51
867.309	13199.95
867.63	13204.7
867.95	13259.83
868.27	13180.97
868.59	13201.76
868.91	13204.47
869.23	13267.29
869.55	13022.55
869.87	13194.53
870.19	13156.11
870.51	13119.95
870.83	13128.99
871.15	12942.78
871.469	13031.37
871.789	13006.06
872.109	13004.47
872.428	12887.42
872.748	13005.83
873.067	12982.55
873.386	12942.1
873.706	12972.84
874.025	12877.25
874.344	12842.44
874.663	12900.52
874.982	12768.1
875.301	12799.96
875.62	12806.06
875.939	12768.55
876.258	12837.47
876.577	12775.33
876.896	12724.48
877.214	12707.31
877.533	12762.67
877.852	12723.13
878.17	12695.1
878.489	12687.42
878.807	12672.05
879.125	12651.94
879.444	12594.09
879.762	12510.93
880.08	12544.83
880.398	12400.87
880.716	12505.73
881.034	12453.3
881.352	12436.81
881.67	12317.71
881.988	12419.63
882.306	12448.33
882.624	12300.09
882.941	12317.71
883.259	12251.73
883.577	12230.03
883.894	12244.72
884.212	12163.14
884.529	12163.59
884.846	12163.14
885.164	12121.11
885.481	12079.75
885.798	12066.87
886.115	11930.6
886.432	12017.83
886.75	11970.83
887.067	11995.46
887.383	11926.54
887.7	12011.96
888.017	11890.38
888.334	11895.35
888.651	11872.98
888.967	11903.49
889.284	11801.34
889.6	11812.42
889.917	11729.03
890.233	11806.09
890.55	11727.9
890.866	11809.48
891.182	11616.26
891.498	11609.03
891.815	11552.31
892.131	11497.85
892.447	11498.53
892.763	11431.86
893.079	11325.42
893.395	11421.92
893.71	11387.79
894.026	11272.54
894.342	11237.97
894.657	11226.67
894.973	11234.58
895.289	11134.47
895.604	11181.7
895.92	11150.29
896.235	11052.21
896.55	11103.28
896.865	11003.85
897.181	10954.36
897.496	10904.42
897.811	10928.37
898.126	10819
898.441	10790.07
898.756	10789.17
899.071	10792.33
899.386	10726.57
899.7	10670.07
900.015	10647.02
900.33	10590.98
900.644	10595.95
900.959	10582.62
901.273	10510.75
901.588	10474.82
901.902	10442.51
902.216	10460.59
902.531	10381.27
902.845	10378.1
903.159	10272.12
903.473	10290.87
903.787	10266.24
904.101	10186.02
904.415	10090.88
904.729	10101.73
905.042	10063.08
905.356	9996.87
905.67	9980.15
905.984	9943.54
906.297	9900.38
906.611	9885.46
906.924	9893.14
907.237	9866.25
907.551	9824.67
907.864	9724.56
908.177	9648.18
908.491	9666.94
908.804	9657.44
909.117	9596.88
909.43	9503.78
909.743	9562.31
910.056	9538.12
910.368	9529.99
910.681	9405.02
910.994	9481.4
911.307	9405.92
911.619	9348.3
911.932	9376.32
912.244	9246.16
912.557	9282.31
912.869	9175.87
913.181	9145.14
913.494	9184.01
913.806	9077.35
914.118	9161.86
914.43	9056.1
914.742	8988.08
915.054	8923.68
915.366	8927.52
915.678	8847.3
915.99	8826.51
916.302	8718.71
916.613	8786.28
916.925	8715.1
917.236	8679.84
917.548	8626.06
917.859	8651.59
918.171	8590.58
918.482	8439.62
918.794	8525.5
919.105	8479.85
919.416	8330.93
919.727	8397.14
920.038	8341.09
920.349	8289.57
920.66	8218.84
920.971	8199.86
921.282	8153.3
921.593	8165.73
921.903	8120.76
922.214	8077.15
922.525	8089.35
922.835	8071.5
923.146	8048.45
923.456	8038.5
923.767	7994.89
924.077	8015
924.387	7906.3
924.697	7846.19
925.008	7889.58
925.318	7779.75
925.628	7702.24
925.938	7763.26
926.248	7652.75
926.558	7726.65
926.867	7647.1
927.177	7618.85
927.487	7619.76
927.796	7498.63
928.106	7479.65
928.416	7515.35
928.725	7464.96
929.034	7369.37
929.344	7384.51
929.653	7331.63
929.962	7294.79
930.271	7282.14
930.581	7218.41
930.89	7176.61
931.199	7168.7
931.508	7153.1
931.817	7132.99
932.125	7126.89
932.434	7070.17
932.743	7004.18
933.051	6976.84
933.36	6975.93
933.669	6925.76
933.977	6931.19
934.286	6894.35
934.594	6855.94
934.902	6762.6
935.21	6801.93
935.519	6724.87
935.827	6752.21
936.135	6705.88
936.443	6661.82
936.751	6620.24
937.059	6585.66
937.367	6595.6
937.674	6582.5
937.982	6616.62
938.29	6545.44
938.597	6497.53
938.905	6432.44
939.213	6415.27
939.52	6371.65
939.827	6344.08
940.135	6399
940.442	6304.09
940.749	6260.47
941.056	6272
941.363	6204.2
941.67	6280.36
941.977	6216.86
942.284	6162.39
942.591	6173.24
942.898	6095.73
943.205	6121.04
943.511	6045.34
943.818	6031.32
944.125	6018.9
944.431	5967.82
944.738	5919.91
945.044	5943.64
945.35	5923.76
945.657	5895.96
945.963	5883.53
946.269	5793.36
946.575	5827.26
946.881	5816.64
947.187	5759.02
947.493	5684.67
947.799	5679.7
948.105	5691.45
948.41	5626.36
948.716	5634.5
949.022	5594.05
949.327	5606.02
949.633	5476.76
949.938	5528.06
950.244	5542.75
950.549	5467.5
950.854	5445.58
951.16	5444.9
951.465	5419.14
951.77	5367.61
952.075	5364.45
952.38	5311.34
952.685	5322.64
952.99	5275.86
953.294	5291.46
953.599	5205.13
953.904	5189.76
954.209	5169.2
954.513	5145.47
954.818	5147.96
955.122	5085.81
955.426	5086.72
955.731	5063.89
956.035	5022.09
956.339	5045.14
956.643	4996.78
956.948	5017.11
957.252	4945.48
957.556	4964.01
957.86	4951.35
958.163	4905.03
958.467	4879.94
958.771	4858.47
959.075	4840.17
959.378	4798.59
959.682	4764.92
959.985	4765.82
960.289	4740.06
960.592	4785.03
960.896	4732.15
961.199	4701.64
961.502	4672.49
961.805	4686.95
962.108	4631.59
962.411	4651.47
962.714	4588.65
963.017	4595.88
963.32	4583
963.623	4510.46
963.926	4559.95
964.228	4523.34
964.531	4511.59
964.833	4443.8
965.136	4420.52
965.438	4392.72
965.741	4386.85
966.043	4376.23
966.345	4366.74
966.648	4324.02
966.95	4307.75
967.252	4290.58
967.554	4304.14
967.856	4286.29
968.158	4264.14
968.46	4229.79
968.761	4243.8
969.063	4188.44
969.365	4180.3
969.666	4163.8
969.968	4140.07
970.269	4126.74
970.571	4143.69
970.872	4071.15
971.174	4079.51
971.475	4063.01
971.776	4063.24
972.077	4017.37
972.378	4010.59
972.679	4003.81
972.98	3975.56
973.281	3938.72
973.582	3922.23
973.883	3872.51
974.183	3858.27
974.484	3873.87
974.785	3826.41
975.085	3821.89
975.386	3818.95
975.686	3791.61
975.986	3789.35
976.287	3755.23
976.587	3738.96
976.887	3724.72
977.187	3716.58
977.487	3690.82
977.787	3695.34
978.087	3692.18
978.387	3604.04
978.687	3672.74
978.987	3621.9
979.286	3566.53
979.586	3561.56
979.885	3574.89
980.185	3569.24
980.484	3540.54
980.784	3538.28
981.083	3502.13
981.382	3493.54
981.682	3445.86
981.981	3452.18
982.28	3415.8
982.579	3396.82
982.878	3382.81
983.177	3388.46
983.475	3343.94
983.774	3359.53
984.073	3310.27
984.372	3295.58
984.67	3305.07
984.969	3310.94
985.267	3295.58
985.566	3274.56
985.864	3305.97
986.162	3269.82
986.461	3244.05
986.759	3246.76
987.057	3210.83
987.355	3185.3
987.653	3176.94
987.951	3177.16
988.249	3152.98
988.547	3152.08
988.844	3125.19
989.142	3147.11
989.44	3086.54
989.737	3045.41
990.035	3061.01
990.332	3022.82
990.63	3040.22
990.927	3008.58
991.224	3018.3
991.521	2986.66
991.819	3004.06
992.116	2982.59
992.413	2949.37
992.71	2912.31
993.006	2883.61
993.303	2893.78
993.6	2832.54
993.897	2883.84
994.193	2838.41
994.49	2823.95
994.787	2830.28
995.083	2797.06
995.379	2802.93
995.676	2775.82
995.972	2758.64
996.268	2743.05
996.565	2754.35
996.861	2694.01
997.157	2717.74
997.453	2736.5
997.749	2708.93
998.044	2651.75
998.34	2637.52
998.636	2614.92
998.932	2618.31
999.227	2614.92
999.523	2601.81
999.818	2614.47
1000.114	2588.93
1000.409	2550.51
1000.704	2548.7
1001	2545.77
1001.295	2494.92
1001.59	2496.28
1001.885	2487.69
1002.18	2472.32
1002.475	2481.59
1002.77	2469.16
1003.065	2447.92
1003.359	2448.14
1003.654	2406.11
1003.949	2403.17
1004.243	2397.07
1004.538	2365.43
1004.832	2377.64
1005.127	2388.03
1005.421	2367.24
1005.715	2338.31
1006.009	2354.58
1006.304	2337.18
1006.598	2283.85
1006.892	2268.94
1007.186	2269.39
1007.48	2267.58
1007.773	2236.17
1008.067	2258.32
1008.361	2212.44
1008.655	2193.23
1008.948	2152.33
1009.242	2139
1009.535	2126.34
1009.829	2136.74
1010.122	2103.52
1010.415	2129.05
1010.708	2102.39
1011.001	2084.31
1011.295	2107.59
1011.588	2106
1011.881	2063.07
1012.173	2056.74
1012.466	2013.8
1012.759	2025.33
1013.052	2033.01
1013.344	2043.41
1013.637	1997.53
1013.93	1983.97
1014.222	1973.35
1014.514	1935.39
1014.807	1920.7
1015.099	1921.15
1015.391	1921.83
1015.683	1905.11
1015.976	1882.28
1016.268	1865.78
1016.56	1859.46
1016.851	1837.99
1017.143	1846.12
1017.435	1830.53
1017.727	1819.68
1018.018	1813.58
1018.31	1798.22
1018.602	1774.94
1018.893	1746.69
1019.185	1778.55
1019.476	1755.05
1019.767	1727.03
1020.058	1720.7
1020.35	1732
1020.641	1715.05
1020.932	1701.27
1021.223	1663.98
1021.514	1692.23
1021.804	1664.43
1022.095	1666.02
1022.386	1627.37
1022.677	1650.42
1022.967	1626.02
1023.258	1605.68
1023.548	1560.26
1023.839	1564.1
1024.129	1567.94
1024.419	1570.88
1024.709	1541.27
1025	1555.06
1025.29	1518
1025.58	1500.6
1025.87	1490.43
1026.16	1501.95
1026.449	1496.75
1026.739	1473.7
1027.029	1485.23
1027.319	1438
1027.608	1441.39
1027.898	1430.09
1028.187	1442.29
1028.477	1421.95
1028.766	1388.06
1029.055	1401.84
1029.344	1391.22
1029.634	1390.09
1029.923	1370.43
1030.212	1369.3
1030.501	1366.36
1030.79	1360.94
1031.078	1332.92
1031.367	1330.66
1031.656	1325.01
1031.945	1317.32
1032.233	1313.71
1032.522	1268.74
1032.81	1275.07
1033.099	1259.47
1033.387	1287.95
1033.675	1268.06
1033.963	1245.24
1034.251	1249.53
1034.54	1190.55
1034.828	1219.25
1035.116	1186.71
1035.403	1227.61
1035.691	1212.02
1035.979	1218.12
1036.267	1179.25
1036.554	1176.54
1036.842	1167.5
1037.129	1166.37
1037.417	1129.53
1037.704	1157.78
1037.992	1130.44
1038.279	1147.61
1038.566	1134.5
1038.853	1134.5
1039.14	1134.5
