Data from foil_FLMS001491_034.txt Node
Date: Tue Feb 07 11:26:15 GMT 2017
User: dcchb
Spectrometer: FLMS00149
Trigger mode: 0
Integration Time (sec): 2.000000E-2
Scans to average: 10
Electric dark correction enabled: true
Nonlinearity correction enabled: false
Boxcar width: 0
XAxis mode: Wavelengths
Number of Pixels in Spectrum: 2048
>>>>>Begin Spectral Data<<<<<
341.393	-7.16
341.776	-7.16
342.16	-7.16
342.543	-56.65
342.927	-62.07
343.31	-76.54
343.693	-92.81
344.077	-74.73
344.46	-47.61
344.843	-69.31
345.226	-40.83
345.61	-32.7
345.993	-21.17
346.376	10.24
346.759	9.34
347.142	32.84
347.525	49.79
347.908	57.02
348.291	78.71
348.674	101.08
349.057	116.68
349.44	136.34
349.823	171.37
350.206	191.25
350.588	252.72
350.971	312.83
351.354	292.49
351.737	337.46
352.119	344.24
352.502	341.53
352.884	365.94
353.267	377.69
353.65	382.66
354.032	390.34
354.414	423.11
354.797	419.72
355.179	420.62
355.562	405.48
355.944	445.71
356.326	421.75
356.709	440.74
357.091	448.42
357.473	469.44
357.855	448.87
358.238	453.84
358.62	445.93
359.002	443.9
359.384	464.92
359.766	463.56
360.148	439.38
360.53	460.17
360.912	431.7
361.294	444.13
361.676	456.78
362.057	439.16
362.439	473.5
362.821	451.58
363.203	485.71
363.584	456.78
363.966	466.73
364.348	475.54
364.729	462.88
365.111	447.74
365.493	458.59
365.874	480.96
366.256	473.96
366.637	469.89
367.019	485.71
367.4	520.06
367.781	442.54
368.163	498.81
368.544	471.24
368.925	477.35
369.306	494.52
369.688	502.2
370.069	488.19
370.45	503.56
370.831	503.33
371.212	483.22
371.593	518.25
371.974	519.15
372.355	499.94
372.736	542.88
373.117	518.02
373.498	524.12
373.879	525.25
374.26	516.89
374.641	478.48
375.021	514.63
375.402	525.71
375.783	553.95
376.163	601.18
376.544	580.62
376.925	577
377.305	565.25
377.686	588.98
378.066	598.92
378.447	610
378.827	600.51
379.208	617.91
379.588	598.25
379.968	594.41
380.349	613.16
380.729	624.01
381.109	623.78
381.489	625.14
381.87	634.18
382.25	654.74
382.63	643.67
383.01	661.07
383.39	673.05
383.77	686.61
384.15	670.56
384.53	693.84
384.91	683.44
385.29	691.35
385.67	724.57
386.049	718.7
386.429	748.53
386.809	724.35
387.189	739.49
387.568	751.92
387.948	763.21
388.328	761.63
388.707	776.1
389.087	798.02
389.466	774.51
389.846	801.41
390.225	824.46
390.605	841.63
390.984	834.62
391.363	835.75
391.743	866.49
392.122	884.79
392.501	889.31
392.881	901.52
393.26	900.61
393.639	929.54
394.018	929.09
394.397	937.67
394.776	975.86
395.155	953.27
395.534	974.73
395.913	947.84
396.292	970.21
396.671	994.62
397.05	993.49
397.429	1013.15
397.808	1028.29
398.186	1038.46
398.565	1052.7
398.944	1052.7
399.323	1061.29
399.701	1073.26
400.08	1074.17
400.458	1103.54
400.837	1131.34
401.215	1106.03
401.594	1104.45
401.972	1139.25
402.351	1161.85
402.729	1168.63
403.107	1180.6
403.486	1195.52
403.864	1205.24
404.242	1203.88
404.62	1239.36
404.999	1252.24
405.377	1235.97
405.755	1275.74
406.133	1291.79
406.511	1314.39
406.889	1343.31
407.267	1347.61
407.645	1366.81
408.023	1407.94
408.401	1399.36
408.779	1405.23
409.156	1420.6
409.534	1447.72
409.912	1489.52
410.29	1510.09
410.667	1521.84
411.045	1538.79
411.422	1595.51
411.8	1584.21
412.178	1619.69
412.555	1626.24
412.933	1674.83
413.31	1705.11
413.687	1699.69
414.065	1716.18
414.442	1734.26
414.819	1781.27
415.197	1762.28
415.574	1806.58
415.951	1832.56
416.328	1858.78
416.705	1847.25
417.082	1904.88
417.46	1912.56
417.837	1919.79
418.214	1932.22
418.591	1965.44
418.967	1970.87
419.344	1971.32
419.721	1993.46
420.098	2032.33
420.475	2034.59
420.852	2044.54
421.228	2089.96
421.605	2104.65
421.982	2153.23
422.358	2158.66
422.735	2199.33
423.111	2201.59
423.488	2217.64
423.864	2234.36
424.241	2306.9
424.617	2314.13
424.994	2308.94
425.37	2364.08
425.746	2356.84
426.123	2401.36
426.499	2370.18
426.875	2448.14
427.251	2530.85
427.627	2553.68
428.003	2559.78
428.379	2606.33
428.756	2635.71
429.132	2675.03
429.507	2679.77
429.883	2719.32
430.259	2805.42
430.635	2776.72
431.011	2800.9
431.387	2874.8
431.763	2946.43
432.138	2966.77
432.514	3017.17
432.89	3008.81
433.265	3095.36
433.641	3082.48
434.016	3176.03
434.392	3212.64
434.767	3273.2
435.143	3270.72
435.518	3288.12
435.894	3334.45
436.269	3395.46
436.644	3429.36
437.02	3474.78
437.395	3524.27
437.77	3533.09
438.145	3615.57
438.52	3627.09
438.895	3671.84
439.271	3686.3
439.646	3759.07
440.021	3781.21
440.395	3784.15
440.77	3771.04
441.145	3790.48
441.52	3909.57
441.895	3908.22
442.27	3940.08
442.645	3956.12
443.019	4004.71
443.394	3991.83
443.769	4090.13
444.143	4034.77
444.518	4129.91
444.892	4118.38
445.267	4120.19
445.641	4196.34
446.016	4218.72
446.39	4234.99
446.764	4261.2
447.139	4245.16
447.513	4338.94
447.887	4327.87
448.262	4342.78
448.636	4376.9
449.01	4489.9
449.384	4476.34
449.758	4511.59
450.132	4605.6
450.506	4595.88
450.88	4640.63
451.254	4639.5
451.628	4754.3
452.002	4809.44
452.376	4870.45
452.75	4853.28
453.123	4886.27
453.497	5003.1
453.871	5053.72
454.244	5137.79
454.618	5132.37
454.992	5215.3
455.365	5246.03
455.739	5416.2
456.112	5433.6
456.486	5459.59
456.859	5531.9
457.232	5588.62
457.606	5644.22
457.979	5736.64
458.352	5848.73
458.725	5890.09
459.099	5913.14
459.472	6078.78
459.845	6115.16
460.218	6232.68
460.591	6276.29
460.964	6243.3
461.337	6383.41
461.71	6512.44
462.083	6634.92
462.456	6620.91
462.829	6662.27
463.201	6807.12
463.574	6751.98
463.947	6948.81
464.32	7036.5
464.692	7084.18
465.065	7128.24
465.438	7253.44
465.81	7428.12
466.183	7454.56
466.555	7612.07
466.928	7623.6
467.3	7690.26
467.672	7846.42
468.045	7954.44
468.417	8036.24
468.789	8102.68
469.161	8157.14
469.534	8321.21
469.906	8577.02
470.278	8575.21
470.65	8615.44
471.022	8839.61
471.394	9032.38
471.766	9102.43
472.138	9130.45
472.51	9409.99
472.882	9580.61
473.253	9585.58
473.625	9726.14
473.997	10028.06
474.369	10054.27
474.74	10204.55
475.112	10311.66
475.484	10594.59
475.855	10718.88
476.227	10870.52
476.598	11123.85
476.97	11214.47
477.341	11450.62
477.713	11630.5
478.084	11664.4
478.455	12095.8
478.827	12096.7
479.198	12464.15
479.569	12531.72
479.94	12797.47
480.311	12960.18
480.682	13246.28
481.053	13550.67
481.424	13780.27
481.795	13918.8
482.166	14083.09
482.537	14270.66
482.908	14464.32
483.279	14703.41
483.65	14980.47
484.021	15293.45
484.391	15412.09
484.762	15466.56
485.133	15723.05
485.503	16043.49
485.874	16347.89
486.244	16532.07
486.615	16820.42
486.985	16962.34
487.356	17292.27
487.726	17518.25
488.097	17836.89
488.467	17773.61
488.837	18205.92
489.207	18404.56
489.578	18723.19
489.948	18881.16
490.318	19196.18
490.688	19215.16
491.058	19514.81
491.428	19778.08
491.798	19844.52
492.168	20396.37
492.538	20347.78
492.908	20675.23
493.278	20940.54
493.648	21001.33
494.017	21323.58
494.387	21450.58
494.757	21708.65
495.126	21883.34
495.496	21921.53
495.866	22179.6
496.235	22291.69
496.605	22621.62
496.974	22712.69
497.344	22945.23
497.713	23065
498.082	23129.18
498.452	23479.23
498.821	23737.75
499.19	23647.58
499.559	23953.34
499.928	24069.49
500.298	24266.55
500.667	24465.42
501.036	24442.14
501.405	24745.41
501.774	24851.17
502.143	24993.31
502.512	25138.84
502.88	25306.75
503.249	25497.71
503.618	25719.85
503.987	25963
504.356	25950.57
504.724	26250
505.093	26334.29
505.462	26484.12
505.83	26560.05
506.199	26863.09
506.567	27135.63
506.936	27091.34
507.304	27569.29
507.672	27599.57
508.041	27740.13
508.409	27925.66
508.777	28115.72
509.145	28389.38
509.514	28397.52
509.882	28740.11
510.25	28735.13
510.618	29153.2
510.986	29196.82
511.354	29476.58
511.722	29707.31
512.09	30017.59
512.458	29998.6
512.826	30261.2
513.193	30472.94
513.561	30578.7
513.929	30801.75
514.297	31112.25
514.664	31318.12
515.032	31517.89
515.4	31743.87
515.767	31925.11
516.135	32132.56
516.502	32067.48
516.869	32747.01
517.237	32666.33
517.604	32748.81
517.972	33041.46
518.339	33338.18
518.706	33473.31
519.073	33848.22
519.44	33903.81
519.808	34417.92
520.175	34344.25
520.542	34802.09
520.909	34997.12
521.276	35120.5
521.643	35466.71
522.009	35698.34
522.376	35868.51
522.743	36258.78
523.11	36609.28
523.477	36904.86
523.843	37077.74
524.21	37467.79
524.577	37725.41
524.943	37863.48
525.31	38044.49
525.676	38585.72
526.043	38770.58
526.409	38843.8
526.776	39228.64
527.142	39370.11
527.508	39682.64
527.874	40125.34
528.241	40173.48
528.607	40293.25
528.973	40921.03
529.339	40826.12
529.705	41271.3
530.071	41522.59
530.437	41716.71
530.803	42025.18
531.169	42060.43
531.535	42179.53
531.901	42292.07
532.267	42658.84
532.632	42922.33
532.998	43094.98
533.364	43280.06
533.73	43443.9
534.095	43794.85
534.461	43866.94
534.826	44266.93
535.192	44315.29
535.557	44552.35
535.923	44443.87
536.288	44871.21
536.653	45025.1
537.019	44942.17
537.384	45169.28
537.749	45406.56
538.114	45564.75
538.479	45644.97
538.845	45872.08
539.21	45864.4
539.575	46180.78
539.94	46262.81
540.305	46640.43
540.67	46537.15
541.034	46729.24
541.399	47060.08
541.764	47089.23
542.129	47364.25
542.494	47281.54
542.858	47457.58
543.223	47439.28
543.587	47795.42
543.952	47835.65
544.316	47957
544.681	47856.21
545.045	48259.59
545.41	48444.9
545.774	48574.39
546.138	48547.04
546.503	48784.32
546.867	48818.9
547.231	49346.34
547.595	49272.45
547.959	49321.26
548.324	49401.03
548.688	49605.55
549.052	49735.94
549.416	49874.01
549.779	49824.3
550.143	50081.24
550.507	50234.46
550.871	50464.05
551.235	50483.49
551.599	50757.38
551.962	50784.27
552.326	50806.42
552.689	51196.46
553.053	51051.61
553.417	51193.3
553.78	51614.31
554.143	51606.62
554.507	51723.68
554.87	51790.12
555.234	52043
555.597	51878.25
555.96	52126.16
556.323	52252.48
556.686	52403.44
557.05	52684.79
557.413	52739.02
557.776	52850.43
558.139	53100.37
558.502	53184.66
558.865	53190.08
559.228	53512.56
559.59	53582.62
559.953	53690.41
560.316	53979.67
560.679	53929.05
561.041	54121.59
561.404	54310.28
561.767	54469.6
562.129	54453.55
562.492	54781.91
562.854	54802.92
563.217	54771.06
563.579	54933.99
563.941	54997.95
564.304	55275.91
564.666	55448.33
565.028	55602.9
565.39	55699.4
565.753	55845.16
566.115	55923.12
566.477	55973.51
566.839	56079.95
567.201	56302.55
567.563	56280.17
567.925	56485.59
568.287	56575.76
568.648	56593.84
569.01	56762.19
569.372	56900.27
569.734	56864.79
570.095	56993.37
570.457	57143.43
570.819	57140.72
571.18	57198.11
571.542	57393.36
571.903	57407.37
572.265	57555.85
572.626	57597.88
572.987	57737.31
573.349	57754.26
573.71	57896.63
574.071	57896.4
574.432	58036.96
574.794	58120.58
575.155	58059.11
575.516	58066.79
575.877	58172.1
576.238	58243.51
576.599	58380.68
576.96	58402.38
577.32	58455.71
577.681	58544.97
578.042	58607.8
578.403	58510.4
578.763	58549.04
579.124	58582.71
579.485	58697.51
579.845	58815.02
580.206	58822.93
580.566	58849.14
580.927	58857.51
581.287	58945.19
581.648	58901.35
582.008	58939.76
582.368	58862.25
582.728	59019.99
583.089	59001.68
583.449	59029.25
583.809	59022.02
584.169	59101.12
584.529	59034
584.889	59208.91
585.249	59090.04
585.609	58960.33
585.969	59085.52
586.329	59023.83
586.688	59059.99
587.048	59088.23
587.408	59004.85
587.768	59053.89
588.127	59010.95
588.487	59037.61
588.846	59238.06
589.206	59037.61
589.565	59137.95
589.925	59250.26
590.284	59176.82
590.643	59161
591.003	59245.74
591.362	59278.06
591.721	59222.47
592.08	59205.52
592.44	59290.72
592.799	59262.69
593.158	59224.28
593.517	59236.25
593.876	59228.57
594.235	59096.82
594.593	59180.89
594.952	59262.02
595.311	59201.45
595.67	59227.89
596.029	59381.33
596.387	59423.59
596.746	59417.72
597.104	59308.57
597.463	59309.02
597.822	59459.52
598.18	59414.33
598.538	59362.8
598.897	59518.28
599.255	59356.02
599.613	59767.76
599.972	59586.98
600.33	59612.74
600.688	59458.62
601.046	59584.49
601.404	59602.12
601.762	59582.68
602.12	59677.82
602.478	59708.33
602.836	59764.15
603.194	59538.84
603.552	59690.48
603.91	59575.23
604.268	59718.27
604.625	59585.17
604.983	59679.63
605.341	59615.23
605.698	59782.45
606.056	59785.84
606.413	59783.13
606.771	59880.3
607.128	59883.02
607.485	59830.59
607.843	59854.54
608.2	59975.22
608.557	60086.85
608.914	59972.73
609.272	60130.01
609.629	60141.77
609.986	60240.29
610.343	60074.65
610.7	60290.46
611.057	60257.02
611.414	60225.83
611.771	60226.96
612.127	60330.91
612.484	60307.86
612.841	60355.77
613.198	60327.75
613.554	60269.22
613.911	60412.72
614.267	60469.89
614.624	60432.83
614.98	60509.89
615.337	60536.56
615.693	60528.42
616.05	60501.3
616.406	60647.74
616.762	60524.58
617.118	60515.99
617.475	60577.46
617.831	60622.43
618.187	60630.34
618.543	60634.63
618.899	60762.09
619.255	60675.09
619.611	60713.5
619.967	60776.78
620.323	60815.65
620.678	60790.11
621.034	60705.59
621.39	60697.23
621.746	60645.48
622.101	60875.31
622.457	60683.45
622.812	60706.95
623.168	60833.73
623.523	60847.28
623.879	60894.06
624.234	60728.19
624.589	60831.01
624.945	60847.74
625.3	60846.83
625.655	60845.02
626.01	60901.75
626.365	60828.3
626.72	60714.18
627.075	60723.22
627.43	60732.49
627.785	60681.86
628.14	60785.14
628.495	60792.14
628.85	60742.88
629.205	60619.72
629.559	60746.27
629.914	60614.97
630.269	60727.97
630.623	60633.73
630.978	60581.3
631.332	60706.27
631.687	60715.54
632.041	60635.76
632.396	60610.23
632.75	60500.17
633.104	60606.84
633.459	60428.54
633.813	60448.65
634.167	60389.22
634.521	60386.28
634.875	60401.42
635.229	60352.16
635.583	60229
635.937	60306.96
636.291	60265.38
636.645	60195.32
636.999	60087.76
637.352	60153.52
637.706	59967.53
638.06	60096.12
638.413	60054.31
638.767	60023.8
639.121	60116.23
639.474	59925.95
639.828	59929.79
640.181	60025.61
640.534	59985.39
640.888	59878.95
641.241	59826.52
641.594	59859.51
641.947	59916.69
642.301	59813.64
642.654	59838.5
643.007	59831.94
643.36	59756.92
643.713	59716.24
644.066	59783.58
644.419	59569.58
644.771	59332.97
645.124	58967.56
645.477	58908.13
645.83	58780.9
646.182	58790.39
646.535	58798.52
646.888	58849.14
647.24	58847.11
647.593	59030.16
647.945	58954.9
648.298	58797.17
648.65	58618.64
649.002	58611.41
649.355	58677.85
649.707	58478.08
650.059	58513.79
650.411	58842.37
650.763	58885.3
651.115	59182.24
651.467	59107.67
651.819	59086.65
652.171	59033.09
652.523	58941.12
652.875	58993.32
653.227	58829.26
653.578	59063.83
653.93	58899.09
654.282	58822.93
654.633	58746.32
654.985	58780.45
655.337	58801.69
655.688	58878.75
656.039	58876.71
656.391	58607.8
656.742	58728.7
657.094	58653.67
657.445	58683.05
657.796	58644.63
658.147	58668.13
658.498	58624.29
658.849	58643.27
659.2	58607.12
659.551	58618.64
659.902	58592.2
660.253	58540.9
660.604	58601.92
660.955	58480.11
661.306	58560.34
661.656	58502.04
662.007	58461.58
662.358	58436.05
662.708	58396.28
663.059	58354.47
663.409	58333.68
663.76	58439.89
664.11	58413.22
664.461	58434.47
664.811	58381.36
665.161	58385.88
665.511	58208.03
665.862	58306.11
666.212	58372.55
666.562	58324.64
666.912	58211.2
667.262	58248.03
667.612	58324.19
667.962	58198.77
668.312	58238.31
668.662	58254.58
669.011	58264.08
669.361	58194.02
669.711	58170.97
670.06	58161.48
670.41	58125.32
670.76	58084.65
671.109	58168.03
671.459	58089.39
671.808	58079.22
672.157	58106.34
672.507	57893.24
672.856	57945.21
673.205	57985.21
673.554	58045.55
673.904	57998.55
674.253	58135.27
674.602	57972.56
674.951	57662.28
675.3	57508.84
675.649	57900.02
675.998	57824.99
676.346	57864.09
676.695	57896.4
677.044	57694.6
677.393	57735.73
677.741	57807.14
678.09	57680.14
678.438	57602.4
678.787	57705.67
679.135	57708.84
679.484	57511.1
679.832	57556.07
680.181	57422.06
680.529	57513.59
680.877	57397.66
681.225	57271.56
681.573	57490.76
681.922	57226.36
682.27	57201.28
682.618	57199.24
682.966	57189.75
683.314	57228.85
683.661	57074.5
684.009	56952.47
684.357	56985.46
684.705	56926.03
685.053	56928.97
685.4	56815.75
685.748	56735.53
686.095	56717.9
686.443	56648.52
686.79	56600.62
687.138	56756.77
687.485	56584.12
687.832	56467.74
688.18	56563.1
688.527	56405.37
688.874	56340.51
689.221	56380.96
689.568	56244.24
689.915	56142.78
690.262	56142.55
690.609	56058.03
690.956	56084.25
691.303	56009.22
691.65	55879.96
691.997	55807.42
692.344	55642
692.69	55712.28
693.037	55634.77
693.383	55357.26
693.73	55376.02
694.077	55222.8
694.423	55211.27
694.769	55171.28
695.116	55119.07
695.462	55061.45
695.808	54900.32
696.155	54996.14
696.501	54759.31
696.847	54758.63
697.193	54523.38
697.539	54682.93
697.885	54367
698.231	54436.38
698.577	54420.79
698.923	54328.36
699.269	54198.65
699.614	53910.52
699.96	54038.42
700.306	54020.12
700.651	53820.35
700.997	53769.28
701.342	53733.57
701.688	53760.46
702.033	53606.57
702.379	53527.93
702.724	53509.62
703.069	53549.85
703.415	53229.41
703.76	53189.86
704.105	53164.77
704.45	53116.41
704.795	52915.52
705.14	52794.84
705.485	52763.88
705.83	52639.59
706.175	52720.72
706.52	52538.35
706.865	52317.57
707.209	52323.44
707.554	52256.32
707.899	52413.38
708.243	52206.61
708.588	52024.01
708.932	51979.04
709.277	51784.92
709.621	51922.55
709.966	51649.56
710.31	51716.45
710.654	51374.09
710.998	51523.69
711.342	51553.97
711.687	51352.62
712.031	51272.62
712.375	51056.58
712.719	51080.31
713.063	51068.78
713.407	50986.75
713.75	50820.2
714.094	50949.92
714.438	50793.31
714.782	50814.78
715.125	50521.45
715.469	50563.94
715.812	50491.4
716.156	50318.52
716.499	50272.42
716.843	50248.47
717.186	50086.89
717.53	50240.78
717.873	50227.9
718.216	50163.27
718.559	49915.59
718.902	49648.03
719.246	49782.72
719.589	49685.54
719.932	49536.85
720.275	49517.86
720.617	49524.87
720.96	49404.87
721.303	49372.33
721.646	49460.69
721.989	49156.97
722.331	49255.95
722.674	49049.85
723.016	49064.54
723.359	48890.54
723.701	49057.09
724.044	48733.93
724.386	48630.66
724.729	48800.14
725.071	48571.22
725.413	48594.95
725.755	48512.47
726.097	48368.06
726.439	48138.24
726.782	48247.62
727.124	48177.11
727.465	47955.65
727.807	47806.95
728.149	47917
728.491	47732.83
728.833	47739.15
729.175	47531.7
729.516	47529.67
729.858	47417.58
730.199	47458.03
730.541	47316.34
730.882	47240.86
731.224	47463.46
731.565	47187.53
731.906	47204.48
732.248	47314.98
732.589	46891.27
732.93	46886.75
733.271	47047.87
733.612	46996.35
733.953	46911.38
734.294	46826.18
734.635	46604.49
734.976	46685.62
735.317	46569.92
735.658	46559.3
735.999	46456.48
736.339	46267.55
736.68	46470.26
737.021	46218.97
737.361	46045.41
737.702	46193.88
738.042	46056.94
738.383	45822.37
738.723	45952.08
739.063	45729.72
739.404	45958.18
739.744	45642.71
740.084	45628.25
740.424	45692.65
740.764	45512.32
741.104	45732.65
741.444	45259.45
741.784	45283.4
742.124	45310.29
742.464	45136.51
742.804	44999.34
743.143	44992.11
743.483	45066.68
743.823	45021.94
744.162	44788.72
744.502	44812
744.841	44638.9
745.181	44713.92
745.52	44558.45
745.86	44659.69
746.199	44476.87
746.538	44300.15
746.877	44424.21
747.216	44324.78
747.556	44092.47
747.895	44117.78
748.234	43862.42
748.573	43884.34
748.911	43822.2
749.25	43819.03
749.589	43759.82
749.928	43764.12
750.267	43757.11
750.605	43570.68
750.944	43271.7
751.283	43303.11
751.621	43301.76
751.96	43240.52
752.298	43046.62
752.636	42926.4
752.975	42916.23
753.313	42631.49
753.651	42805.27
753.989	42596.92
754.327	42460.65
754.666	42196.02
755.004	42332.52
755.342	42245.97
755.679	42104.95
756.017	41882.36
756.355	42050.26
756.693	41906.09
757.031	41899.99
757.368	41607.56
757.706	41490.73
758.044	41344.97
758.381	41345.42
758.719	41058.88
759.056	41131.42
759.394	41017.07
759.731	40953.57
760.068	40896.62
760.405	40781.37
760.743	40646.69
761.08	40681.26
761.417	40478.55
761.754	40244.21
762.091	40327.37
762.428	40097.77
762.765	39898
763.102	39849.87
763.438	39511.57
763.775	39430.22
764.112	39505.7
764.449	39427.51
764.785	39270.45
765.122	39038.82
765.458	38775.32
765.795	38601.77
766.131	38683.8
766.467	38491.71
766.804	38377.37
767.14	38314.77
767.476	38152.29
767.812	38035.23
768.148	37905.74
768.485	37824.61
768.821	37622.36
769.157	37533.55
769.492	37398.18
769.828	37457.16
770.164	37024.41
770.5	36894.02
770.836	37011.3
771.171	36653.34
771.507	36633.23
771.842	36410.64
772.178	36558.66
772.513	36434.59
772.849	36392.11
773.184	36068.73
773.519	36058.78
773.855	35840.03
774.19	35557.1
774.525	35599.59
774.86	35501.74
775.195	35347.16
775.53	35134.74
775.865	35090
776.2	34826.73
776.535	34601.65
776.87	34524.36
777.205	34322.33
777.539	34201.66
777.874	34231.03
778.209	33864.49
778.543	33862.91
778.878	33716.47
779.212	33624.72
779.547	33449.59
779.881	33552.18
780.215	33268.57
780.55	33344.5
780.884	33026.09
781.218	32888.7
781.552	32993.78
781.886	32825.65
782.22	32503.62
782.554	32589.5
782.888	32096.85
783.222	32173.91
783.556	32099.11
783.889	31994.71
784.223	31653.48
784.557	31709.29
784.89	31549.75
785.224	31458
785.557	31352.69
785.891	31315.86
786.224	31111.57
786.558	31129.2
786.891	30909.99
787.224	30604.46
787.557	30592.03
787.891	30610.34
788.224	30529.66
788.557	30420.51
788.89	30394.07
789.223	30272.27
789.556	30130.58
789.888	30088.77
790.221	29860.98
790.554	29694.21
790.887	29643.81
791.219	29540.31
791.552	29476.36
791.884	29280.2
792.217	29250.83
792.549	29132.41
792.882	28903.49
793.214	28705.3
793.546	28813.78
793.879	28560.22
794.211	28402.26
794.543	28533.33
794.875	28382.6
795.207	28433.9
795.539	28203.17
795.871	28270.06
796.203	27833.92
796.535	27702.85
796.867	27781.94
797.198	27720.92
797.53	27785.78
797.862	27606.58
798.193	27675.28
798.525	27436.64
798.856	27390.31
799.188	27086.36
799.519	27082.3
799.85	26839.36
800.182	26814.73
800.513	26807.28
800.844	26579.48
801.175	26638.92
801.506	26605.92
801.837	26449.09
802.168	26424.01
802.499	26335.88
802.83	26120.51
803.161	26123.45
803.491	26102.44
803.822	26143.79
804.153	25878.94
804.483	25617.7
804.814	25553.75
805.145	25572.96
805.475	25589.23
805.805	25466.52
806.136	25480.98
806.466	25260.2
806.796	25399.4
807.126	25108.79
807.457	25116.92
807.787	25110.37
808.117	24977.27
808.447	24993.09
808.777	24882.13
809.107	24817.95
809.436	24681.91
809.766	24695.47
810.096	24545.64
810.426	24424.97
810.755	24407.56
811.085	24417.51
811.414	24294.8
811.744	24122.37
812.073	24134.58
812.403	24005.09
812.732	23809.39
813.061	24028.59
813.39	23787.92
813.719	23693.23
814.049	23914.92
814.378	23631.09
814.707	23464.54
815.036	23500.47
815.365	23372.79
815.693	23250.76
816.022	23326.69
816.351	23185.45
816.68	23089.63
817.008	23166.69
817.337	22947.26
817.665	22877.21
817.994	22863.88
818.322	22812.13
818.651	22846.7
818.979	22796.99
819.307	22914.04
819.636	22651
819.964	22498.46
820.292	22570.32
820.62	22564.9
820.948	22427.73
821.276	22453.27
821.604	22458.92
821.932	22487.39
822.259	22636.54
822.587	22377.79
822.915	22364.45
823.243	22521.06
823.57	22304.12
823.898	22376.43
824.225	22273.61
824.553	22357.22
824.88	22388.86
825.207	22283.1
825.535	22231.58
825.862	22426.15
826.189	22370.78
826.516	22334.85
826.843	22556.54
827.17	22494.39
827.497	22444.68
827.824	22424.79
828.151	22294.17
828.478	22228.86
828.805	22363.78
829.131	22222.54
829.458	22187.51
829.785	22080.39
830.111	22093.28
830.438	22293.27
830.764	22183.22
831.09	22160.39
831.417	22103.44
831.743	22215.08
832.069	22143.67
832.395	22081.52
832.722	22086.5
833.048	22169.43
833.374	22229.32
833.7	21931.7
834.026	21899.16
834.351	21950.23
834.677	21962.66
835.003	21984.13
835.329	21913.39
835.654	21963.33
835.98	21865.48
836.306	21998.14
836.631	21893.73
836.956	21823
837.282	21847.41
837.607	21708.65
837.932	21683.12
838.258	21789.78
838.583	21800.4
838.908	21612.16
839.233	21561.31
839.558	21676.79
839.883	21518.6
840.208	21561.31
840.533	21460.52
840.858	21424.14
841.182	21455.1
841.507	21525.83
841.832	21308.44
842.156	21313.18
842.481	21298.04
842.805	21166.52
843.13	21104.15
843.454	21039.97
843.778	21049.69
844.103	21005.85
844.427	20960.42
844.751	21014.21
845.075	20927.88
845.399	20839.75
845.723	20746.42
846.047	20830.94
846.371	20577.61
846.695	20541.9
847.019	20422.36
847.343	20288.12
847.666	20283.83
847.99	20055.36
848.313	20063.05
848.637	19909.15
848.96	19848.81
849.284	19856.05
849.607	19644.07
849.931	19722.26
850.254	19520.91
850.577	19420.8
850.9	19424.19
851.223	19468.94
851.546	19324.08
851.869	19287.25
852.192	19275.95
852.515	19039.34
852.838	18956.41
853.161	19076.63
853.483	18967.03
853.806	18776.07
854.129	18876.18
854.451	18682.97
854.774	18751.44
855.096	18628.06
855.419	18490.66
855.741	18480.71
856.063	18461.73
856.385	18406.59
856.708	18445.69
857.03	18440.49
857.352	18475.97
857.674	18270.1
857.996	18145.13
858.318	18060.39
858.64	18209.99
858.961	18091.57
859.283	17993.04
859.605	17924.8
859.926	17965.93
860.248	17869.66
860.57	17733.62
860.891	17814.07
861.212	17685.93
861.534	17709.89
861.855	17603.22
862.176	17557.35
862.498	17619.04
862.819	17660.85
863.14	17549.21
863.461	17476.45
863.782	17374.53
864.103	17406.39
864.424	17332.95
864.745	17423.34
865.065	17257.92
865.386	17288.66
865.707	17157.81
866.027	17261.09
866.348	17198.49
866.668	17289.33
866.989	17243.69
867.309	17066.51
867.63	17087.76
867.95	16987.87
868.27	16968.21
868.59	17007.98
868.91	17027.42
869.23	16954.65
869.55	17025.39
869.87	17044.59
870.19	16930.02
870.51	16890.47
870.83	16861.1
871.15	16791.27
871.469	16795.56
871.789	16954.43
872.109	16819.52
872.428	16740.65
872.748	16749.01
873.067	16642.57
873.386	16612.06
873.706	16724.38
874.025	16573.65
874.344	16587.43
874.663	16630.82
874.982	16564.38
875.301	16622.01
875.62	16576.36
875.939	16472.41
876.258	16532.29
876.577	16546.08
876.896	16404.84
877.214	16322.81
877.533	16296.14
877.852	16353.31
878.17	16258.4
878.489	16250.72
878.807	16158.29
879.125	16131.17
879.444	16145.18
879.762	16191.28
880.08	16109.48
880.398	16051.17
880.716	16141.12
881.034	16128.46
881.352	16252.3
881.67	16070.83
881.988	16067.44
882.306	16058.41
882.624	15965.3
882.941	15905.19
883.259	15827.45
883.577	15903.61
883.894	15746.1
884.212	15817.06
884.529	15782.93
884.846	15805.98
885.164	15736.15
885.481	15631.3
885.798	15589.72
886.115	15694.12
886.432	15648.02
886.75	15610.28
887.067	15568.25
887.383	15521.7
887.7	15459.78
888.017	15549.72
888.334	15417.29
888.651	15411.64
888.967	15343.62
889.284	15283.06
889.6	15235.38
889.917	15101.82
890.233	15022.27
890.55	15028.83
890.866	15071.54
891.182	14996.51
891.498	14901.6
891.815	14954.71
892.131	14880.81
892.447	14931.2
892.763	14772.11
893.079	14784.54
893.395	14784.09
893.71	14786.57
894.026	14678.1
894.342	14705.67
894.657	14541.84
894.973	14579.8
895.289	14602.85
895.604	14475.17
895.92	14384.1
896.235	14295.06
896.55	14326.7
896.865	14223.65
897.181	14313.59
897.496	14293.71
897.811	14190.21
898.126	14160.83
898.441	14147.04
898.756	13992.47
899.071	13981.4
899.386	14011.91
899.7	13848.52
900.015	13884.23
900.33	13812.59
900.644	13719.26
900.959	13702.31
901.273	13628.64
901.588	13591.13
901.902	13551.35
902.216	13440.17
902.531	13438.36
902.845	13409.21
903.159	13404.69
903.473	13269.33
903.787	13204.92
904.101	13183.68
904.415	13160.63
904.729	13057.58
905.042	13025.04
905.356	13008.54
905.67	13088.99
905.984	13097.81
906.297	12907.08
906.611	12802.45
906.924	12890.35
907.237	12800.41
907.551	12729.45
907.864	12720.19
908.177	12724.48
908.491	12612.17
908.804	12468.67
909.117	12402.23
909.43	12369.69
909.743	12323.81
910.056	12357.26
910.368	12290.59
910.681	12172.63
910.994	12219.64
911.307	12106.87
911.619	12061.9
911.932	12132.86
912.244	11968.57
912.557	11978.51
912.869	11915.46
913.181	11834.34
913.494	11778.07
913.806	11742.36
914.118	11741.46
914.43	11686.99
914.742	11722.25
915.054	11627.56
915.366	11585.75
915.678	11442.93
915.99	11432.31
916.302	11395.03
916.613	11372.88
916.925	11316.38
917.236	11278.64
917.548	11175.82
917.859	11216.05
918.171	11131.53
918.482	11047.24
918.794	10965.43
919.105	11049.5
919.416	10877.52
919.727	10781.48
920.038	10860.12
920.349	10740.13
920.66	10745.32
920.971	10775.38
921.282	10657.87
921.593	10617.64
921.903	10640.02
922.214	10629.62
922.525	10569.51
922.835	10483.64
923.146	10413.13
923.456	10396.86
923.767	10408.84
924.077	10317.54
924.387	10224.66
924.697	10193.93
925.008	10127.26
925.318	10129.07
925.628	10045.46
925.938	10031.9
926.248	9999.36
926.558	9903.31
926.867	9921.84
927.177	9920.94
927.487	9915.52
927.796	9673.04
928.106	9765.01
928.416	9708.74
928.725	9682.98
929.034	9623.77
929.344	9634.62
929.653	9530.44
929.962	9419.71
930.271	9407.96
930.581	9276.66
930.89	9332.25
931.199	9313.5
931.508	9300.62
931.817	9282.31
932.125	9236.89
932.434	9185.37
932.743	9131.36
933.051	9088.87
933.36	9085.48
933.669	9010.91
933.977	8945.82
934.286	8948.31
934.594	8968.42
934.902	8795.09
935.21	8741.54
935.519	8746.73
935.827	8727.07
936.135	8667.64
936.443	8594.19
936.751	8638.49
937.059	8602.78
937.367	8558.04
937.674	8504.71
937.982	8495.44
938.29	8452.05
938.597	8436.91
938.905	8356.46
939.213	8299.29
939.52	8324.15
939.827	8318.04
940.135	8250.02
940.442	8116.47
940.749	8133.19
941.056	8140.42
941.363	8052.06
941.67	8056.36
941.977	7980.88
942.284	7876.93
942.591	7867.89
942.898	7877.38
943.205	7891.84
943.511	7825.18
943.818	7823.14
944.125	7764.61
944.431	7758.74
944.738	7688.46
945.044	7629.7
945.35	7595.13
945.657	7616.14
945.963	7502.47
946.269	7526.65
946.575	7511.96
946.881	7412.98
947.187	7421.8
947.493	7382.25
947.799	7391.51
948.105	7312.87
948.41	7290.05
948.716	7209.6
949.022	7234.23
949.327	7211.86
949.633	7087.12
949.938	7134.12
950.244	7080.56
950.549	7118.75
950.854	7059.32
951.16	6993.56
951.465	6971.86
951.77	6930.96
952.075	6870.17
952.38	6873.79
952.685	6836.5
952.99	6793.11
953.294	6800.34
953.599	6792.89
953.904	6731.42
954.209	6692.55
954.513	6794.92
954.818	6615.72
955.122	6658.2
955.426	6626.79
955.731	6561.03
956.035	6543.85
956.339	6469.73
956.643	6440.58
956.948	6391.77
957.252	6471.54
957.556	6316.74
957.86	6300.47
958.163	6306.57
958.467	6282.17
958.771	6232
959.075	6276.74
959.378	6230.19
959.682	6198.33
959.985	6114.26
960.289	6049.18
960.592	6082.17
960.896	6097.09
961.199	6029.29
961.502	5993.36
961.805	6009.18
962.108	5943.19
962.411	5982.96
962.714	5944.1
963.017	5866.58
963.32	5891.44
963.623	5862.06
963.926	5862.29
964.228	5814.38
964.531	5758.34
964.833	5760.6
965.136	5632.46
965.438	5677.66
965.741	5628.17
966.043	5652.13
966.345	5589.98
966.648	5566.03
966.95	5565.57
967.252	5507.04
967.554	5533.26
967.856	5442.41
968.158	5421.4
968.46	5436.76
968.761	5432.24
969.063	5338.01
969.365	5379.59
969.666	5393.38
969.968	5328.29
970.269	5273.6
970.571	5241.97
970.872	5269.99
971.174	5206.71
971.475	5245.81
971.776	5247.39
972.077	5185.92
972.378	5151.35
972.679	5079.26
972.98	5125.59
973.281	5039.49
973.582	5092.82
973.883	5014.18
974.183	5029.09
974.484	4978.92
974.785	4920.17
975.085	4925.14
975.386	4916.1
975.686	4849.66
975.986	4894.86
976.287	4840.4
976.587	4757.01
976.887	4785.93
977.187	4759.95
977.487	4757.69
977.787	4764.92
978.087	4730.79
978.387	4662.77
978.687	4663.68
978.987	4566.5
979.286	4581.42
979.586	4597.01
979.885	4585.26
980.185	4533.96
980.484	4549.56
980.784	4525.38
981.083	4476.11
981.382	4498.71
981.682	4465.72
981.981	4433.63
982.28	4416.9
982.579	4372.61
982.878	4419.39
983.177	4357.7
983.475	4350.92
983.774	4299.39
984.073	4264.37
984.372	4249
984.67	4234.08
984.969	4199.96
985.267	4205.84
985.566	4186.18
985.864	4193.18
986.162	4130.13
986.461	4084.48
986.759	4114.09
987.057	4042.68
987.355	4052.85
987.653	4072.51
987.951	4004.03
988.249	4055.33
988.547	3995.22
988.844	3990.7
989.142	3973.07
989.44	3896.92
989.737	3914.32
990.035	3896.69
990.332	3890.59
990.63	3832.74
990.927	3796.58
991.224	3825.05
991.521	3875.67
991.819	3819.18
992.116	3782.34
992.413	3765.62
992.71	3753.64
993.006	3709.13
993.303	3685.17
993.6	3651.5
993.897	3622.35
994.193	3645.85
994.49	3597.72
994.787	3587.32
995.083	3573.08
995.379	3584.16
995.676	3528.79
995.972	3535.8
996.268	3486.76
996.565	3490.83
996.861	3477.72
997.157	3427.78
997.453	3422.35
997.749	3434.78
998.044	3417.61
998.34	3413.54
998.636	3373.54
998.932	3362.24
999.227	3312.75
999.523	3313.66
999.818	3268.91
1000.114	3267.56
1000.409	3272.07
1000.704	3194.79
1001	3179.42
1001.295	3227.1
1001.59	3190.27
1001.885	3169.03
1002.18	3185.52
1002.475	3149.37
1002.77	3134.45
1003.065	3110.27
1003.359	3076.15
1003.654	3078.86
1003.949	3002.03
1004.243	3025.3
1004.538	3007.9
1004.832	2979.43
1005.127	2965.42
1005.421	2942.82
1005.715	2906.43
1006.009	2908.47
1006.304	2911.63
1006.598	2879.77
1006.892	2874.35
1007.186	2809.26
1007.48	2835.48
1007.773	2802.26
1008.067	2779.43
1008.361	2779.43
1008.655	2762.71
1008.948	2725.42
1009.242	2700.56
1009.535	2703.73
1009.829	2694.46
1010.122	2705.31
1010.415	2657.18
1010.708	2660.79
1011.001	2635.26
1011.295	2605.43
1011.588	2604.3
1011.881	2571.08
1012.173	2558.65
1012.466	2543.05
1012.759	2529.04
1013.052	2519.1
1013.344	2494.92
1013.637	2487.69
1013.93	2482.49
1014.222	2439.78
1014.514	2429.61
1014.807	2403.4
1015.099	2417.18
1015.391	2386.45
1015.683	2372.44
1015.976	2389.61
1016.268	2367.92
1016.56	2333.12
1016.851	2340.12
1017.143	2281.14
1017.435	2281.37
1017.727	2282.95
1018.018	2270.97
1018.31	2223.97
1018.602	2245.44
1018.893	2188.49
1019.185	2177.41
1019.476	2133.35
1019.767	2164.53
1020.058	2163.18
1020.35	2129.96
1020.641	2097.42
1020.932	2079.56
1021.223	2075.72
1021.514	2045.89
1021.804	2055.61
1022.095	2024.42
1022.386	1988.04
1022.677	1979
1022.967	1964.99
1023.258	1966.12
1023.548	2002.5
1023.839	1933.13
1024.129	1919.12
1024.419	1922.28
1024.709	1882.28
1025	1891.77
1025.29	1886.12
1025.58	1874.15
1025.87	1842.96
1026.16	1803.19
1026.449	1809.29
1026.739	1826.01
1027.029	1795.28
1027.319	1776.97
1027.608	1740.36
1027.898	1752.57
1028.187	1743.53
1028.477	1753.7
1028.766	1701.49
1029.055	1686.81
1029.344	1699.01
1029.634	1663.3
1029.923	1660.37
1030.212	1677.31
1030.501	1636.86
1030.79	1620.37
1031.078	1628.5
1031.367	1587.37
1031.656	1640.93
1031.945	1588.96
1032.233	1580.37
1032.522	1540.37
1032.81	1550.31
1033.099	1543.53
1033.387	1515.51
1033.675	1518.67
1033.963	1481.16
1034.251	1495.62
1034.54	1465.57
1034.828	1457.66
1035.116	1466.02
1035.403	1422.41
1035.691	1448.39
1035.979	1437.77
1036.267	1440.03
1036.554	1438
1036.842	1405.23
1037.129	1386.25
1037.417	1356.65
1037.704	1362.75
1037.992	1371.79
1038.279	1343.31
1038.566	1354.61
1038.853	1354.61
1039.14	1354.61
