Data from foil_FLMS001491_018.txt Node
Date: Tue Feb 07 11:25:28 GMT 2017
User: dcchb
Spectrometer: FLMS00149
Trigger mode: 0
Integration Time (sec): 2.000000E-2
Scans to average: 10
Electric dark correction enabled: true
Nonlinearity correction enabled: false
Boxcar width: 0
XAxis mode: Wavelengths
Number of Pixels in Spectrum: 2048
>>>>>Begin Spectral Data<<<<<
341.393	-15.58
341.776	-15.58
342.16	-15.58
342.543	-66.88
342.927	-57.39
343.31	-55.35
343.693	-70.04
344.077	-66.2
344.46	-60.55
344.843	-70.04
345.226	-34.11
345.61	-37.72
345.993	-25.3
346.376	0.92
346.759	13.12
347.142	54.02
347.525	59.22
347.908	41.59
348.291	78.88
348.674	73.01
349.057	98.54
349.44	132.89
349.823	146.9
350.206	156.85
350.588	252.89
350.971	253.34
351.354	268.48
351.737	289.5
352.119	280.23
352.502	312.55
352.884	342.38
353.267	326.33
353.65	359.33
354.032	356.39
354.414	361.13
354.797	379.89
355.179	353.68
355.562	394.81
355.944	378.76
356.326	398.65
356.709	391.42
357.091	392.55
357.473	391.42
357.855	387.12
358.238	408.82
358.62	414.01
359.002	413.34
359.384	404.75
359.766	399.1
360.148	422.6
360.53	414.24
360.912	391.19
361.294	426.67
361.676	424.41
362.057	411.53
362.439	398.65
362.821	424.41
363.203	392.55
363.584	417.63
363.966	434.58
364.348	390.29
364.729	412.43
365.111	396.16
365.493	418.31
365.874	413.56
366.256	414.69
366.637	416.27
367.019	408.59
367.4	426.22
367.781	414.47
368.163	423.51
368.544	433.68
368.925	418.08
369.306	434.13
369.688	426.67
370.069	437.74
370.45	428.48
370.831	455.6
371.212	431.64
371.593	443.84
371.974	454.69
372.355	474.8
372.736	443.84
373.117	455.37
373.498	432.55
373.879	435.26
374.26	429.16
374.641	475.03
375.021	428.25
375.402	467.35
375.783	478.87
376.163	506.67
376.544	512.09
376.925	500.57
377.305	486.33
377.686	487.46
378.066	513.22
378.447	517.29
378.827	510.51
379.208	520.23
379.588	488.36
379.968	525.2
380.349	535.14
380.729	546.67
381.109	551.86
381.489	538.08
381.87	559.32
382.25	554.12
382.63	555.03
383.01	565.42
383.39	573.33
383.77	599.09
384.15	594.12
384.53	599.55
384.91	602.48
385.29	600.68
385.67	578.53
386.049	614.46
386.429	623.73
386.809	622.6
387.189	633.22
387.568	653.78
387.948	644.52
388.328	661.47
388.707	655.36
389.087	682.93
389.466	708.24
389.846	721.58
390.225	687.91
390.605	706.89
390.984	683.16
391.363	686.32
391.743	719.32
392.122	715.7
392.501	727.9
392.881	772.42
393.26	750.05
393.639	772.65
394.018	751.86
394.397	778.07
394.776	782.37
395.155	770.84
395.534	790.28
395.913	807.45
396.292	801.12
396.671	842.25
397.05	841.8
397.429	844.74
397.808	849.48
398.186	867.56
398.565	865.98
398.944	865.98
399.323	888.13
399.701	924.96
400.08	905.08
400.458	927.9
400.837	913.89
401.215	919.09
401.594	944.17
401.972	970.38
402.351	958.86
402.729	984.4
403.107	990.95
403.486	998.41
403.864	990.27
404.242	1019.42
404.62	1008.35
404.999	1048.57
405.377	1044.96
405.755	1076.37
406.133	1095.58
406.511	1078.4
406.889	1089.7
407.267	1128.8
407.645	1116.59
408.023	1160.44
408.401	1151.4
408.779	1201.79
409.156	1197.5
409.534	1195.91
409.912	1256.48
410.29	1241.56
410.667	1248.34
411.045	1300.77
411.422	1291.05
411.8	1310.94
412.178	1311.62
412.555	1352.29
412.933	1350.49
413.31	1371.28
413.687	1377.83
414.065	1414.89
414.442	1453.08
414.819	1480.65
415.197	1463.25
415.574	1498.51
415.951	1489.01
416.328	1525.62
416.705	1535.34
417.082	1554.55
417.46	1571.05
417.837	1593.87
418.214	1596.81
418.591	1613.76
418.967	1617.15
419.344	1636.58
419.721	1673.42
420.098	1673.87
420.475	1710.25
420.852	1724.94
421.228	1723.58
421.605	1713.87
421.982	1733.08
422.358	1784.15
422.735	1824.15
423.111	1766.97
423.488	1824.6
423.864	1857.37
424.241	1890.36
424.617	1905.05
424.994	1902.56
425.37	1974.2
425.746	1963.13
426.123	1943.69
426.499	2016.91
426.875	2022.79
427.251	2085.16
427.627	2098.49
428.003	2150.92
428.379	2163.8
428.756	2173.06
429.132	2225.49
429.507	2217.81
429.883	2255.32
430.259	2281.99
430.635	2334.42
431.011	2329.44
431.387	2365.6
431.763	2446.28
432.138	2485.15
432.514	2507.07
432.89	2501.64
433.265	2582.09
433.641	2623.45
434.016	2623
434.392	2674.75
434.767	2750.9
435.143	2710
435.518	2712.26
435.894	2782.99
436.269	2795.19
436.644	2857.34
437.02	2874.51
437.395	2878.58
437.77	2912.25
438.145	3040.39
438.52	3008.75
438.895	3087.39
439.271	3047.62
439.646	3129.42
440.021	3161.74
440.395	3216.88
440.77	3180.5
441.145	3211.91
441.52	3270.66
441.895	3263.43
442.27	3308.18
442.645	3336.88
443.019	3344.56
443.394	3408.96
443.769	3429.53
444.143	3452.13
444.518	3499.81
444.892	3486.93
445.267	3517.89
445.641	3592.46
446.016	3575.29
446.39	3631.56
446.764	3681.73
447.139	3636.3
447.513	3704.32
447.887	3746.81
448.262	3742.51
448.636	3789.97
449.01	3867.03
449.384	3865.68
449.758	3927.14
450.132	3939.57
450.506	3986.35
450.88	4012.34
451.254	4041.72
451.628	4069.06
452.002	4107.48
452.376	4186.57
452.75	4189.28
453.123	4229.51
453.497	4326.45
453.871	4353.35
454.244	4443.51
454.618	4426.34
454.992	4553.79
455.365	4498.43
455.739	4629.95
456.112	4651.64
456.486	4627.69
456.859	4763.05
457.232	4851.41
457.606	4764.86
457.979	4873.78
458.352	4974.12
458.725	5044.85
459.099	5020.67
459.472	5147.9
459.845	5174.57
460.218	5264.28
460.591	5247.56
460.964	5283.04
461.337	5363.49
461.71	5509.25
462.083	5530.26
462.456	5546.31
462.829	5582.69
463.201	5718.06
463.574	5725.74
463.947	5840.09
464.32	5958.05
464.692	5998.05
465.065	5976.58
465.438	6078.95
465.81	6174.54
466.183	6229.91
466.555	6382.45
466.928	6372.95
467.3	6390.35
467.672	6481.43
468.045	6709.89
468.417	6656.56
468.789	6697.01
469.161	6843.68
469.534	6915.31
469.906	7073.27
470.278	7097.23
470.65	7241.63
471.022	7305.81
471.394	7492.47
471.766	7518.91
472.138	7672.35
472.51	7743.99
472.882	7899.24
473.253	7982.18
473.625	8072.34
473.997	8258.1
474.369	8332.68
474.74	8438.44
475.112	8580.58
475.484	8690.41
475.855	8854.92
476.227	8942.38
476.598	9185.31
476.97	9300.56
477.341	9452.42
477.713	9548.01
478.084	9632.53
478.455	9922.01
478.827	9937.83
479.198	10282.91
479.569	10294.66
479.94	10603.8
480.311	10720.18
480.682	10941.87
481.053	11201.3
481.424	11276.78
481.795	11385.7
482.166	11599.71
482.537	11739.14
482.908	12103.2
483.279	12171.22
483.65	12389.97
484.021	12690.08
484.391	12791.32
484.762	12863.4
485.133	13035.6
485.503	13147.92
485.874	13521.69
486.244	13580
486.615	13893.43
486.985	14048.23
487.356	14264.05
487.726	14354.21
488.097	14763.24
488.467	14736.12
488.837	15064.48
489.207	15253.4
489.578	15402.32
489.948	15608.64
490.318	15839.82
490.688	16046.6
491.058	16167.95
491.428	16397.55
491.798	16560.48
492.168	16866.69
492.538	16936.52
492.908	17116.17
493.278	17305.55
493.648	17436.84
494.017	17640.45
494.387	17733.11
494.757	17938.3
495.126	18170.38
495.496	18228.91
495.866	18350.94
496.235	18676.59
496.605	18737.83
496.974	18823.25
497.344	19109.79
497.713	19230.24
498.082	19355.44
498.452	19559.95
498.821	19672.94
499.19	19662.55
499.559	19914.07
499.928	20091.24
500.298	20234.06
500.667	20437.67
501.036	20421.85
501.405	20677.44
501.774	20726.25
502.143	20928.73
502.512	21004.66
502.88	21163.07
503.249	21255.27
503.618	21427.25
503.987	21553.8
504.356	21679.9
504.724	21924.86
505.093	21840.8
505.462	22038.53
505.83	22198.98
506.199	22410.05
506.567	22685.07
506.936	22739.53
507.304	23043.25
507.672	23070.82
508.041	23235.79
508.409	23389.46
508.777	23515.55
509.145	23725.27
509.514	23746.73
509.882	23866.73
510.25	24022.66
510.618	24265.59
510.986	24321.86
511.354	24608.41
511.722	24894.27
512.09	25164.32
512.458	25090.2
512.826	25335.85
513.193	25422.17
513.561	25601.83
513.929	25740.58
514.297	25945.77
514.664	26153.68
515.032	26302.15
515.4	26620.33
515.767	26598.86
516.135	26941.68
516.502	26706.66
516.869	27261.22
517.237	27372.4
517.604	27521.78
517.972	27830.24
518.339	27999.73
518.706	27927.42
519.073	28191.36
519.44	28307.52
519.808	28673.16
520.175	28668.64
520.542	28981.85
520.909	29338
521.276	29367.15
521.643	29643.53
522.009	29865.22
522.376	30052.78
522.743	30253.68
523.11	30478.53
523.477	30819.32
523.843	31027.45
524.21	31345.18
524.577	31510.6
524.943	31770.25
525.31	31878.95
525.676	32251.6
526.043	32400.97
526.409	32599.38
526.776	32939.94
527.142	32969.99
527.508	33197.33
527.874	33614.5
528.241	33739.24
528.607	33780.82
528.973	34146.46
529.339	34132.68
529.705	34525.66
530.071	34752.32
530.437	34812.66
530.803	35143.5
531.169	35370.84
531.535	35315.7
531.901	35473.88
532.267	35640.88
532.632	35893.99
532.998	36058.05
533.364	36364.71
533.73	36237.03
534.095	36684.47
534.461	36741.19
534.826	36977.12
535.192	37168.75
535.557	37401.97
535.923	37377.34
536.288	37489.65
536.653	37686.71
537.019	37565.13
537.384	37888.06
537.749	38094.83
538.114	38171.89
538.479	38230.65
538.845	38442.39
539.21	38307.03
539.575	38468.61
539.94	38796.28
540.305	38980.01
540.67	38924.87
541.034	39154.01
541.399	39360.11
541.764	39358.08
542.129	39648.69
542.494	39701.57
542.858	39852.3
543.223	39890.72
543.587	40072.63
543.952	40110.82
544.316	40224.49
544.681	40232.63
545.045	40587.65
545.41	40759.39
545.774	40842.78
546.138	40906.74
546.503	40989.22
546.867	41016.34
547.231	41486.83
547.595	41351.47
547.959	41554.63
548.324	41653.16
548.688	41724.79
549.052	41962.98
549.416	42103.77
549.779	42140.6
550.143	42336.75
550.507	42574.04
550.871	42612.45
551.235	42633.7
551.599	43034.81
551.962	43121.59
552.326	43063.97
552.689	43271.19
553.053	43218.31
553.417	43414.69
553.78	43962.25
554.143	43794.12
554.507	43966.54
554.87	44056.71
555.234	44489.47
555.597	44422.57
555.96	44541.67
556.323	44724.26
556.686	44795.67
557.05	45122.67
557.413	45216.9
557.776	45274.76
558.139	45582.09
558.502	45600.4
558.865	45816.21
559.228	46081.97
559.59	46211
559.953	46354.73
560.316	46556.53
560.679	46689.86
561.041	47053.69
561.404	47043.3
561.767	47352.44
562.129	47163.97
562.492	47647.57
562.854	47554.02
563.217	47722.83
563.579	47988.81
563.941	48245.07
564.304	48293.21
564.666	48513.31
565.028	48614.56
565.39	48772.52
565.753	48947.43
566.115	49112.62
566.477	49262.67
566.839	49307.64
567.201	49566.17
567.563	49600.07
567.925	49767.52
568.287	49805.26
568.648	49956.44
569.01	50158.02
569.372	50446.6
569.734	50138.81
570.095	50481.4
570.457	50639.59
570.819	50597.55
571.18	50766.36
571.542	50890.88
571.903	50919.35
572.265	51020.59
572.626	51104.89
572.987	51250.87
573.349	51338.1
573.71	51436.63
574.071	51559.79
574.432	51711.42
574.794	51878.88
575.155	51800.01
575.516	51812.21
575.877	51945.09
576.238	51937.18
576.599	52128.59
576.96	51977.86
577.32	52047.01
577.681	52140.79
578.042	52213.56
578.403	52281.13
578.763	52324.06
579.124	52369.94
579.485	52438.41
579.845	52630.04
580.206	52470.72
580.566	52617.61
580.927	52525.86
581.287	52615.81
581.648	52510.72
582.008	52744.62
582.368	52612.42
582.728	52736.03
583.089	52516.83
583.449	52593.89
583.809	52642.02
584.169	52696.71
584.529	52570.84
584.889	52903.71
585.249	52647.22
585.609	52489.03
585.969	52741.45
586.329	52666.65
586.688	52833.65
587.048	52771.06
587.408	52668.01
587.768	52716.37
588.127	52634.11
588.487	52611.74
588.846	52898.74
589.206	52649.48
589.565	52777.16
589.925	52852.86
590.284	52710.27
590.643	52702.58
591.003	52772.41
591.362	52832.07
591.721	52719.08
592.08	52766.08
592.44	52841.11
592.799	52809.02
593.158	52755.01
593.517	52734.9
593.876	52750.27
594.235	52709.14
594.593	52613.09
594.952	52765.86
595.311	52692.41
595.67	52736.48
596.029	52868.68
596.387	52952.07
596.746	53040.65
597.104	52853.77
597.463	52905.74
597.822	53010.37
598.18	52844.95
598.538	52766.99
598.897	52912.52
599.255	52779.87
599.613	53163.14
599.972	52781.9
600.33	52968.56
600.688	52765.18
601.046	52930.83
601.404	53072.97
601.762	52960.43
602.12	53099.86
602.478	53093.99
602.836	53163.14
603.194	53039.98
603.552	53094.66
603.91	53001.78
604.268	53163.59
604.625	53098.73
604.983	53166.98
605.341	53057.38
605.698	53206.75
606.056	53291.04
606.413	53173.76
606.771	53256.24
607.128	53342.79
607.485	53174.89
607.843	53291.72
608.2	53371.04
608.557	53484.03
608.914	53244.04
609.272	53416.91
609.629	53414.65
609.986	53586.4
610.343	53451.04
610.7	53668.43
611.057	53546.85
611.414	53538.72
611.771	53612.62
612.127	53585.27
612.484	53676.34
612.841	53664.82
613.198	53597.7
613.554	53579.62
613.911	53899.84
614.267	53778.71
614.624	53793.63
614.98	53752.95
615.337	53937.35
615.693	53885.83
616.05	53795.89
616.406	53994.53
616.762	53803.12
617.118	53953.17
617.475	53827.98
617.831	53972.15
618.187	53942.32
618.543	53929.67
618.899	54037.69
619.255	54045.15
619.611	53917.92
619.967	54000.4
620.323	54076.11
620.678	53980.74
621.034	53884.02
621.39	53857.58
621.746	53857.13
622.101	54179.61
622.457	53806.73
622.812	54004.47
623.168	54000.85
623.523	53972.38
623.879	54076.78
624.234	53817.13
624.589	53961.53
624.945	53921.76
625.3	53888.09
625.655	53901.87
626.01	54024.81
626.365	53952.95
626.72	53899.16
627.075	53788.2
627.43	53853.97
627.785	53696.91
628.14	53834.3
628.495	53846.28
628.85	53808.99
629.205	53714.99
629.559	53851.48
629.914	53717.47
630.269	53714.99
630.623	53566.06
630.978	53548.66
631.332	53612.39
631.687	53726.51
632.041	53569
632.396	53591.83
632.75	53379.85
633.104	53510.47
633.459	53330.14
633.813	53326.97
634.167	53183.02
634.521	53211.72
634.875	53334.43
635.229	53185.96
635.583	52993.2
635.937	53034.1
636.291	53035
636.645	53100.54
636.999	52814.44
637.352	52849.92
637.706	52715.69
638.06	52766.54
638.413	52670.04
638.767	52680.89
639.121	52676.14
639.474	52459.2
639.828	52552.76
640.181	52478.86
640.534	52462.36
640.888	52378.07
641.241	52208.36
641.594	52200.68
641.947	52296.27
642.301	52178.08
642.654	52063.5
643.007	52165.2
643.36	52088.81
643.713	51950.51
644.066	52134.24
644.419	51827.58
644.771	51604.53
645.124	51359.79
645.477	51245.9
645.83	51044.1
646.182	50850.2
646.535	50785.57
646.888	50809.53
647.24	50662.41
647.593	50929.97
647.945	50830.99
648.298	50671.68
648.65	50585.58
649.002	50349.2
649.355	50493.15
649.707	50376.54
650.059	50457.44
650.411	50802.52
650.763	50903.08
651.115	51154.6
651.467	51031.44
651.819	51026.7
652.171	50949.18
652.523	50829.64
652.875	50849.52
653.227	50642.3
653.578	50877.32
653.93	50795.29
654.282	50583.77
654.633	50591.68
654.985	50587.84
655.337	50571.57
655.688	50541.74
656.039	50597.33
656.391	50300.16
656.742	50391.91
657.094	50278.01
657.445	50407.5
657.796	50431.46
658.147	50181.52
658.498	50127.06
658.849	50258.35
659.2	50150.79
659.551	50124.12
659.902	50117.34
660.253	50075.76
660.604	50135.65
660.955	49883
661.306	50045.48
661.656	49844.13
662.007	49998.93
662.358	49776.78
662.708	49884.8
663.059	49801.64
663.409	49581.76
663.76	49829.66
664.11	49807.29
664.461	49759.38
664.811	49786.05
665.161	49696.56
665.511	49506.28
665.862	49537.47
666.212	49762.1
666.562	49675.54
666.912	49522.33
667.262	49556.9
667.612	49511.48
667.962	49583.34
668.312	49434.42
668.662	49636
669.011	49435.55
669.361	49234.43
669.711	49239.17
670.06	49292.5
670.41	49114.65
670.76	49084.15
671.109	49224.26
671.459	49132.73
671.808	48989.69
672.157	49047.76
672.507	48742.91
672.856	48772.52
673.205	48901.78
673.554	48983.58
673.904	48821.78
674.253	48961.21
674.602	48841.44
674.951	48342.7
675.3	48187.67
675.649	48695.68
675.998	48645.51
676.346	48578.4
676.695	48788.34
677.044	48320.33
677.393	48554.22
677.741	48504.28
678.09	48435.35
678.438	48192.65
678.787	48453.88
679.135	48416.82
679.484	47986.55
679.832	48247.11
680.181	47935.25
680.529	48005.31
680.877	47873.11
681.225	47867
681.573	47971.18
681.922	47697.52
682.27	47741.36
682.618	47695.94
682.966	47457.52
683.314	47558.31
683.661	47469.5
684.009	47365.77
684.357	47160.36
684.705	47114.48
685.053	47061.6
685.4	46958.1
685.748	46803.08
686.095	46897.76
686.443	46678.79
686.79	46628.84
687.138	46721.95
687.485	46686.47
687.832	46486.7
688.18	46358.8
688.527	46249.87
688.874	46205.8
689.221	46152.7
689.568	45984.57
689.915	45827.06
690.262	45790.45
690.609	45780.96
690.956	45643.56
691.303	45613.28
691.65	45448.76
691.997	45483.34
692.344	45029.11
692.69	45070.02
693.037	44962.22
693.383	44763.13
693.73	44733.98
694.077	44499.64
694.423	44472.29
694.769	44361.33
695.116	44368.57
695.462	44163.15
695.808	44030.27
696.155	44148.91
696.501	43839.99
696.847	43733.1
697.193	43450.17
697.539	43629.15
697.885	43402.94
698.231	43225.77
698.577	43225.09
698.923	43058.77
699.269	42906.91
699.614	42607.03
699.96	42409.52
700.306	42476.64
700.651	42554.38
700.997	42156.87
701.342	42122.97
701.688	42119.81
702.033	41979.7
702.379	41916.88
702.724	41870.55
703.069	41927.95
703.415	41250.68
703.76	41329.1
704.105	41266.27
704.45	41285.93
704.795	41116.22
705.14	41014.3
705.485	40925.27
705.83	40710.58
706.175	40762.78
706.52	40534.77
706.865	40477.37
707.209	40499.97
707.554	40162.8
707.899	40274.66
708.243	40117.15
708.588	40030.6
708.932	39649.37
709.277	39746.09
709.621	39669.48
709.966	39384.29
710.31	39521.01
710.654	38961.48
710.998	39238.3
711.342	39262.71
711.687	39130.28
712.031	39024.07
712.375	38749.28
712.719	38928.93
713.063	38861.37
713.407	38724.65
713.75	38702.5
714.094	38712.22
714.438	38425.67
714.782	38383.86
715.125	38225.9
715.469	38193.13
715.812	37963.31
716.156	37856.42
716.499	37818
716.843	37768.96
717.186	37519.48
717.53	37716.31
717.873	37485.13
718.216	37583.43
718.559	37395.19
718.902	37236.32
719.246	37297.34
719.589	37144.35
719.932	37062.54
720.275	36944.81
720.617	36954.52
720.96	36759.5
721.303	36854.64
721.646	36904.35
721.989	36675.89
722.331	36695.55
722.674	36388.66
723.016	36506.4
723.359	36454.42
723.701	36396.12
724.044	36223.69
724.386	35976.02
724.729	36110.93
725.071	35920.88
725.413	35895.57
725.755	35874.55
726.097	35658.96
726.439	35435.69
726.782	35547.1
727.124	35719.3
727.465	35506.65
727.807	35379.42
728.149	35333.77
728.491	35242.7
728.833	35305.07
729.175	35123.16
729.516	35068.02
729.858	34930.17
730.199	35012.43
730.541	34997.06
730.882	34885.65
731.224	34934.91
731.565	34722.94
731.906	34757.74
732.248	34682.94
732.589	34545.55
732.93	34317.3
733.271	34284.31
733.612	34289.06
733.953	34271.43
734.294	34123.64
734.635	34137.2
734.976	34150.98
735.317	34015.84
735.658	33986.47
735.999	33948.5
736.339	33734.04
736.68	33973.81
737.021	33703.76
737.361	33592.13
737.702	33774.04
738.042	33510.09
738.383	33442.98
738.723	33568.62
739.063	33368.4
739.404	33476.2
739.744	33286.14
740.084	33212.47
740.424	33201.18
740.764	33128.18
741.104	33292.47
741.444	33178.12
741.784	32993.27
742.124	33065.36
742.464	32977
742.804	32755.99
743.143	32666.95
743.483	32640.06
743.823	32505.15
744.162	32534.75
744.502	32577.46
744.841	32358.49
745.181	32529.78
745.52	32195.1
745.86	32246.4
746.199	32063.58
746.538	32027.42
746.877	32089.34
747.216	32149.23
747.556	31890.25
747.895	31883.7
748.234	31713.3
748.573	31631.27
748.911	31566.19
749.25	31575.46
749.589	31392.86
749.928	31406.19
750.267	31591.05
750.605	31352.18
750.944	31359.87
751.283	31157.61
751.621	31427.21
751.96	31034.45
752.298	30966.21
752.636	31012.08
752.975	30847.56
753.313	30743.61
753.651	30923.72
753.989	30657.29
754.327	30670.62
754.666	30491.19
755.004	30399.44
755.342	30298.43
755.679	30338.43
756.017	30172.78
756.355	30187.02
756.693	29998.77
757.031	30059.11
757.368	29809.4
757.706	29882.39
758.044	29645.79
758.381	29800.59
758.719	29516.98
759.056	29538.22
759.394	29411.22
759.731	29285.35
760.068	29289.41
760.405	29041.28
760.743	28981.62
761.08	29088.29
761.417	28900.5
761.754	28893.04
762.091	28728.75
762.428	28679.26
762.765	28491.24
763.102	28514.07
763.438	28393.17
763.775	28066.85
764.112	28158.14
764.449	28121.08
764.785	27995.44
765.122	27853.52
765.458	27753.63
765.795	27699.4
766.131	27587.31
766.467	27517.03
766.804	27350.03
767.14	27130.37
767.476	27101
767.812	27009.25
768.148	27108.45
768.485	26952.53
768.821	26816.71
769.157	26713.44
769.492	26634.57
769.828	26624.17
770.164	26336.95
770.5	26363.61
770.836	26216.27
771.171	26132.66
771.507	26043.85
771.842	25825.78
772.178	25884.53
772.513	25767.92
772.849	25643.63
773.184	25609.28
773.519	25514.37
773.855	25424.66
774.19	25422.17
774.525	25275.28
774.86	25223.53
775.195	25104.44
775.53	25030.09
775.865	24921.17
776.2	24698.57
776.535	24534.96
776.87	24575.87
777.205	24333.39
777.539	24336.55
777.874	24320.5
778.209	24114.41
778.543	24008.42
778.878	23938.14
779.212	23858.37
779.547	23784.7
779.881	23766.39
780.215	23519.4
780.55	23589.45
780.884	23438.04
781.218	23356.91
781.552	23331.83
781.886	23223.36
782.22	23110.37
782.554	23048.45
782.888	22754.44
783.222	22734.33
783.556	22476.26
783.889	22508.57
784.223	22300.44
784.557	22304.06
784.89	22424.28
785.224	22256.15
785.557	22063.84
785.891	22059.1
786.224	21895.48
786.558	21993.33
786.891	21750.4
787.224	21608.49
787.557	21563.29
787.891	21644.19
788.224	21507.47
788.557	21524.65
788.89	21270.42
789.223	21232
789.556	21140.93
789.888	21217.54
790.221	21044.66
790.554	20921.5
790.887	20838.34
791.219	20813.03
791.552	20763.31
791.884	20626.36
792.217	20542.52
792.549	20475.86
792.882	20335.98
793.214	20226.37
793.546	20253.49
793.879	20193.38
794.211	20020.73
794.543	20018.92
794.875	20020.96
795.207	20058.24
795.539	19835.2
795.871	19861.86
796.203	19717.01
796.535	19641.76
796.867	19557.47
797.198	19374.42
797.53	19444.25
797.862	19343.01
798.193	19364.02
798.525	19162.22
798.856	19233.86
799.188	19049
799.519	18889.23
799.85	18867.31
800.182	18903.25
800.513	18824.6
800.844	18776.47
801.175	18768.11
801.506	18748.9
801.837	18601.11
802.168	18553.88
802.499	18566.31
802.83	18475.69
803.161	18443.37
803.491	18363.83
803.822	18247.22
804.153	18123.15
804.483	18017.17
804.814	17981.46
805.145	17978.52
805.475	17900.56
805.805	17793.44
806.136	17814.46
806.466	17700.34
806.796	17713.45
807.126	17568.82
807.457	17510.74
807.787	17533.56
808.117	17382.16
808.447	17403.4
808.777	17269.39
809.107	17331.54
809.436	17242.95
809.766	17245.66
810.096	17198.43
810.426	17027.59
810.755	17043.63
811.085	16950.3
811.414	16936.74
811.744	16705.11
812.073	16694.26
812.403	16728.16
812.732	16706.47
813.061	16709.18
813.39	16618.33
813.719	16656.3
814.049	16602.06
814.378	16523.2
814.707	16411.56
815.036	16541.05
815.365	16298.79
815.693	16266.48
816.022	16254.73
816.351	16196.65
816.68	16140.61
817.008	16175.63
817.337	15991.68
817.665	15911.23
817.994	15958.46
818.322	15964.34
818.651	15953.04
818.979	15806.6
819.307	15845.7
819.636	15809.54
819.964	15657.46
820.292	15793.05
820.62	15678.7
820.948	15594.18
821.276	15754.63
821.604	15640.96
821.932	15642.31
822.259	15651.58
822.587	15589.89
822.915	15542.66
823.243	15653.16
823.57	15555.76
823.898	15659.49
824.225	15524.13
824.553	15463.34
824.88	15483.67
825.207	15613.84
825.535	15465.14
825.862	15603.9
826.189	15511.02
826.516	15578.59
826.843	15588.08
827.17	15464.47
827.497	15486.39
827.824	15466.05
828.151	15478.03
828.478	15433.28
828.805	15570
829.131	15408.65
829.458	15553.5
829.785	15272.83
830.111	15456.56
830.438	15369.78
830.764	15367.52
831.09	15413.62
831.417	15281.65
831.743	15479.16
832.069	15274.64
832.395	15350.8
832.722	15382.21
833.048	15357.8
833.374	15293.85
833.7	15235.77
834.026	15253.4
834.351	15307.18
834.677	15301.31
835.003	15281.42
835.329	15261.53
835.654	15277.58
835.98	15129.11
836.306	15201.65
836.631	15109.67
836.956	15111.71
837.282	15222.21
837.607	15032.16
837.932	15055.21
838.258	15057.7
838.583	15007.08
838.908	14901.77
839.233	15059.73
839.558	15003.46
839.883	14871.26
840.208	14818.61
840.533	14828.1
840.858	14875.56
841.182	14827.65
841.507	14844.14
841.832	14702.9
842.156	14621.1
842.481	14570.48
842.805	14624.49
843.13	14612.51
843.454	14541.78
843.778	14501.1
844.103	14488.9
844.427	14511.5
844.751	14430.6
845.075	14361.67
845.399	14250.94
845.723	14251.62
846.047	14263.82
846.371	14171.17
846.695	14112.64
847.019	14007.56
847.343	13920.33
847.666	13945.86
847.99	13903.6
848.313	13854.11
848.637	13742.25
848.96	13916.94
849.284	13707.68
849.607	13601.69
849.931	13680.78
850.254	13563.05
850.577	13453.45
850.9	13310.4
851.223	13383.84
851.546	13256.61
851.869	13207.35
852.192	13301.59
852.515	13157.86
852.838	13092.55
853.161	13167.35
853.483	12965.32
853.806	12989.28
854.129	12985.44
854.451	12848.94
854.774	12808.72
855.096	12739.57
855.419	12808.94
855.741	12728.49
856.063	12639.91
856.385	12653.24
856.708	12580.93
857.03	12474.04
857.352	12547.03
857.674	12531.21
857.996	12497.99
858.318	12300.93
858.64	12337.99
858.961	12222.97
859.283	12252.35
859.605	12240.82
859.926	12217.09
860.248	12297.09
860.57	12078.79
860.891	12197.89
861.212	12179.35
861.534	12110.66
861.855	12102.97
862.176	12092.8
862.498	12112.46
862.819	12095.74
863.14	12026.14
863.461	11980.49
863.782	11971
864.103	12041.28
864.424	11945.46
864.745	11932.36
865.065	11944.11
865.386	11915.86
865.707	11866.14
866.027	11864.33
866.348	11836.77
866.668	11858.23
866.989	11770.1
867.309	11706.37
867.63	11643.32
867.95	11599.03
868.27	11565.13
868.59	11630.22
868.91	11677.9
869.23	11646.04
869.55	11556.77
869.87	11652.14
870.19	11606.71
870.51	11637.67
870.83	11539.15
871.15	11425.93
871.469	11495.53
871.789	11492.37
872.109	11413.05
872.428	11386.61
872.748	11495.08
873.067	11343.22
873.386	11382.31
873.706	11315.2
874.025	11389.77
874.344	11283.56
874.663	11335.54
874.982	11340.51
875.301	11322.88
875.62	11268.87
875.939	11311.58
876.258	11253.96
876.577	11228.42
876.896	11196.1
877.214	11197.01
877.533	11173.51
877.852	11226.84
878.17	11169.89
878.489	11160.17
878.807	11082.89
879.125	11092.38
879.444	11140.96
879.762	10961.08
880.08	11107.74
880.398	11027.29
880.716	11023.45
881.034	10953.85
881.352	10977.58
881.67	10909.11
881.988	10939.39
882.306	10908.65
882.624	10884.93
882.941	10798.37
883.259	10835.21
883.577	10824.36
883.894	10876.34
884.212	10807.87
884.529	10783.69
884.846	10754.99
885.164	10711.6
885.481	10707.76
885.798	10682.9
886.115	10661.65
886.432	10603.8
886.75	10569
887.067	10619.85
887.383	10530.13
887.7	10548.89
888.017	10486.29
888.334	10572.84
888.651	10504.14
888.967	10462.56
889.284	10342.57
889.6	10343.47
889.917	10302.12
890.233	10312.74
890.55	10251.95
890.866	10329.91
891.182	10228.22
891.498	10199.97
891.815	10124.27
892.131	10141.67
892.447	10071.61
892.763	10117.04
893.079	10021.67
893.395	10039.98
893.71	10014.67
894.026	10004.95
894.342	9973.54
894.657	9815.12
894.973	9815.12
895.289	9805.18
895.604	9795.01
895.92	9636.14
896.235	9705.75
896.55	9731.06
896.865	9678.4
897.181	9658.52
897.496	9645.18
897.811	9581.01
898.126	9604.73
898.441	9634.11
898.756	9549.59
899.071	9528.58
899.386	9466.88
899.7	9416.72
900.015	9408.35
900.33	9295.59
900.644	9303.05
900.959	9318.19
901.273	9229.6
901.588	9226.21
901.902	9189.83
902.216	9145.76
902.531	9126.33
902.845	9081.36
903.159	9050.17
903.473	9018.76
903.787	8982.6
904.101	8968.59
904.415	8929.95
904.729	8882.72
905.042	8869.39
905.356	8804.98
905.67	8828.48
905.984	8832.55
906.297	8802.95
906.611	8770.86
906.924	8780.35
907.237	8679.56
907.551	8581.26
907.864	8602.5
908.177	8560.24
908.491	8632.1
908.804	8511.43
909.117	8452.9
909.43	8364.09
909.743	8349.17
910.056	8428.95
910.368	8315.28
910.681	8270.76
910.994	8304.2
911.307	8253.13
911.619	8173.81
911.932	8216.07
912.244	8113.47
912.557	8113.25
912.869	8127.03
913.181	8089.97
913.494	7990.09
913.806	7979.24
914.118	7974.04
914.43	7878
914.742	7881.61
915.054	7859.69
915.366	7800.71
915.678	7773.6
915.99	7763.65
916.302	7718.23
916.613	7714.16
916.925	7635.52
917.236	7641.4
917.548	7605.46
917.859	7625.58
918.171	7530.89
918.482	7464
918.794	7491.79
919.105	7466.03
919.416	7396.43
919.727	7394.62
920.038	7398.69
920.349	7355.07
920.66	7307.84
920.971	7240.28
921.282	7254.96
921.593	7219.71
921.903	7130.22
922.214	7132.03
922.525	7121.63
922.835	7131.35
923.146	7057.68
923.456	6998.02
923.767	6970.9
924.077	7038.93
924.387	6966.84
924.697	6852.26
925.008	6921.64
925.318	6831.92
925.628	6797.58
925.938	6800.51
926.248	6787.41
926.558	6738.37
926.867	6717.13
927.177	6639.16
927.487	6659.27
927.796	6570.91
928.106	6631.03
928.416	6531.37
928.725	6506.74
929.034	6474.87
929.344	6502.89
929.653	6488.21
929.962	6448.88
930.271	6369.79
930.581	6370.02
930.89	6339.96
931.199	6248.44
931.508	6276.23
931.817	6278.04
932.125	6222.45
932.434	6210.02
932.743	6163.47
933.051	6175.9
933.36	6102.45
933.669	6088.67
933.977	6056.8
934.286	6102.45
934.594	6014.09
934.902	5996.24
935.21	5978.61
935.519	5932.06
935.827	5931.84
936.135	5868.79
936.443	5843.48
936.751	5823.36
937.059	5774.1
937.367	5760.99
937.674	5697.04
937.982	5758.28
938.29	5723.48
938.597	5712.41
938.905	5602.35
939.213	5643.93
939.52	5575.23
939.827	5557.83
940.135	5587.66
940.442	5529.13
940.749	5543.15
941.056	5532.07
941.363	5488.23
941.67	5451.17
941.977	5423.15
942.284	5396.71
942.591	5413.43
942.898	5359.42
943.205	5328.69
943.511	5304.73
943.818	5292.3
944.125	5248.92
944.431	5257.95
944.738	5227
945.044	5251.85
945.35	5208.01
945.657	5142.48
945.963	5153.32
946.269	5066.32
946.575	5121.01
946.881	5098.86
947.187	5118.52
947.493	5092.54
947.799	4985.65
948.105	5044.18
948.41	4966.89
948.716	4931.41
949.022	4952.43
949.327	4917.62
949.633	4831.53
949.938	4853.45
950.244	4863.84
950.549	4848.47
950.854	4773
951.16	4737.29
951.465	4754.47
951.77	4733.22
952.075	4706.56
952.38	4699.1
952.685	4717.18
952.99	4654.13
953.294	4620.68
953.599	4627.01
953.904	4587.69
954.209	4530.52
954.513	4557.86
954.818	4557.86
955.122	4560.35
955.426	4493.46
955.731	4465.43
956.035	4453.68
956.339	4416.62
956.643	4432.89
956.948	4377.75
957.252	4352.67
957.556	4380.46
957.86	4309.96
958.163	4276.06
958.467	4302.27
958.771	4267.02
959.075	4258.66
959.378	4248.26
959.682	4221.37
959.985	4197.64
960.289	4214.37
960.592	4181.6
960.896	4178.21
961.199	4139.11
961.502	4134.14
961.805	4092.56
962.108	4076.97
962.411	4063.41
962.714	4022.51
963.017	4030.64
963.32	4036.97
963.623	3970.08
963.926	3979.8
964.228	4003.07
964.531	3937.09
964.833	3925.56
965.136	3894.6
965.438	3925.79
965.741	3854.6
966.043	3828.84
966.345	3820.48
966.648	3854.38
966.95	3799.69
967.252	3776.64
967.554	3773.02
967.856	3756.98
968.158	3757.2
968.46	3729.41
968.761	3688.28
969.063	3698.22
969.365	3649.64
969.666	3675.17
969.968	3575.74
970.269	3605.34
970.571	3588.39
970.872	3623.42
971.174	3547.94
971.475	3532.12
971.776	3591.78
972.077	3545.23
972.378	3528.51
972.679	3488.96
972.98	3466.14
973.281	3468.17
973.582	3475.4
973.883	3454.39
974.183	3419.13
974.484	3434.27
974.785	3353.6
975.085	3381.39
975.386	3388.85
975.686	3348.4
975.986	3305.01
976.287	3306.59
976.587	3251.91
976.887	3278.57
977.187	3296.2
977.487	3266.14
977.787	3236.99
978.087	3267.95
978.387	3226.14
978.687	3229.76
978.987	3187.27
979.286	3140.95
979.586	3147.05
979.885	3142.3
980.185	3128.52
980.484	3067.5
980.784	3089.88
981.083	3063.89
981.382	3062.53
981.682	3069.54
981.981	3031.12
982.28	3074.06
982.579	3019.14
982.878	3027.28
983.177	2977.79
983.475	2994.96
983.774	2947.73
984.073	2935.3
984.372	2907.96
984.67	2930.33
984.969	2895.08
985.267	2939.6
985.566	2890.56
985.864	2880.62
986.162	2852.37
986.461	2866.15
986.759	2831.35
987.057	2809.88
987.355	2816.21
987.653	2808.98
987.951	2767.85
988.249	2744.8
988.547	2731.47
988.844	2730.56
989.142	2743.22
989.44	2672.26
989.737	2714.52
990.035	2679.04
990.332	2705.93
990.63	2669.77
990.927	2650.11
991.224	2657.8
991.521	2647.18
991.819	2591.58
992.116	2628.65
992.413	2629.55
992.71	2555.43
993.006	2596.56
993.303	2556.78
993.6	2529.67
993.897	2539.83
994.193	2523.11
994.49	2559.49
994.787	2474.53
995.083	2466.62
995.379	2454.86
995.676	2427.75
995.972	2448.76
996.268	2405.6
996.565	2413.06
996.861	2400.18
997.157	2379.16
997.453	2386.84
997.749	2374.87
998.044	2328.09
998.34	2331.03
998.636	2336
998.932	2314.98
999.227	2296.45
999.523	2269.33
999.818	2283.8
1000.114	2248.99
1000.409	2256
1000.704	2232.5
1001	2254.87
1001.295	2224.36
1001.59	2187.08
1001.885	2205.83
1002.18	2188.66
1002.475	2193.18
1002.77	2164.48
1003.065	2130.35
1003.359	2146.62
1003.654	2118.15
1003.949	2166.74
1004.243	2083.58
1004.538	2092.61
1004.832	2090.13
1005.127	2097.13
1005.421	2058.72
1005.715	2035.89
1006.009	2052.16
1006.304	2009.45
1006.598	2027.98
1006.892	1991.15
1007.186	1964.48
1007.48	1966.97
1007.773	1956.12
1008.067	1950.02
1008.361	1943.24
1008.655	1942.11
1008.948	1922.45
1009.242	1942.79
1009.535	1930.36
1009.829	1921.32
1010.122	1882.68
1010.415	1861.43
1010.708	1851.94
1011.001	1845.16
1011.295	1835.67
1011.588	1830.02
1011.881	1821.44
1012.173	1781.21
1012.466	1792.28
1012.759	1790.25
1013.052	1755.22
1013.344	1776.69
1013.637	1772.85
1013.93	1736.01
1014.222	1757.48
1014.514	1731.95
1014.807	1726.3
1015.099	1730.14
1015.391	1703.47
1015.683	1685.85
1015.976	1677.26
1016.268	1672.51
1016.56	1637.03
1016.851	1603.81
1017.143	1647.2
1017.435	1618.95
1017.727	1604.04
1018.018	1630.48
1018.31	1600.65
1018.602	1568.56
1018.893	1542.35
1019.185	1571.95
1019.476	1562.23
1019.767	1540.54
1020.058	1508.45
1020.35	1523.82
1020.641	1502.12
1020.932	1498.96
1021.223	1485.4
1021.514	1487.66
1021.804	1453.99
1022.095	1453.31
1022.386	1412.86
1022.677	1449.24
1022.967	1428.23
1023.258	1404.95
1023.548	1421.9
1023.839	1400.66
1024.129	1381.45
1024.419	1399.75
1024.709	1357.04
1025	1367.89
1025.29	1363.59
1025.58	1351.17
1025.87	1319.3
1026.16	1333.76
1026.449	1292.41
1026.739	1280.88
1027.029	1283.6
1027.319	1296.25
1027.608	1263.71
1027.898	1251.51
1028.187	1283.37
1028.477	1277.72
1028.766	1237.27
1029.055	1239.08
1029.344	1216.48
1029.634	1206.08
1029.923	1209.25
1030.212	1232.07
1030.501	1195.91
1030.79	1182.36
1031.078	1210.15
1031.367	1169.7
1031.656	1190.94
1031.945	1165.18
1032.233	1162.7
1032.522	1152.53
1032.81	1124.5
1033.099	1131.28
1033.387	1134.9
1033.675	1131.96
1033.963	1084.28
1034.251	1096.48
1034.54	1089.03
1034.828	1074.79
1035.116	1096.26
1035.403	1081.57
1035.691	1063.71
1035.979	1056.26
1036.267	1046.31
1036.554	1052.87
1036.842	1048.8
1037.129	1028.46
1037.417	1030.27
1037.704	1060.78
1037.992	995.24
1038.279	1023.04
1038.566	1005.86
1038.853	1005.86
1039.14	1005.86
