Data from foil_FLMS001491_041.txt Node
Date: Tue Feb 07 11:26:56 GMT 2017
User: dcchb
Spectrometer: FLMS00149
Trigger mode: 0
Integration Time (sec): 2.000000E-2
Scans to average: 10
Electric dark correction enabled: true
Nonlinearity correction enabled: false
Boxcar width: 0
XAxis mode: Wavelengths
Number of Pixels in Spectrum: 2048
>>>>>Begin Spectral Data<<<<<
341.393	-10.49
341.776	-10.49
342.16	-10.49
342.543	-55.46
342.927	-47.1
343.31	-78.51
343.693	-61.57
344.077	-65.63
344.46	-70.83
344.843	-45.97
345.226	-46.88
345.61	-39.42
345.993	-17.5
346.376	2.84
346.759	15.27
347.142	23.4
347.525	42.16
347.908	45.55
348.291	78.77
348.674	101.59
349.057	116.73
349.44	122.38
349.823	152.21
350.206	170.74
350.588	228.6
350.971	254.13
351.354	257.75
351.737	292.77
352.119	317.41
352.502	321.25
352.884	328.93
353.267	330.97
353.65	337.75
354.032	359.44
354.414	373.68
354.797	389.5
355.179	387.69
355.562	370.29
355.944	380
356.326	397.18
356.709	401.02
357.091	416.39
357.473	412.32
357.855	410.06
358.238	435.6
358.62	420.46
359.002	416.61
359.384	418.65
359.766	432.66
360.148	408.03
360.53	418.87
360.912	418.65
361.294	465.88
361.676	402.6
362.057	409.61
362.439	434.47
362.821	423.62
363.203	448.48
363.584	412.32
363.966	430.4
364.348	436.05
364.729	429.72
365.111	425.65
365.493	413.22
365.874	431.75
366.256	434.24
366.637	424.97
367.019	414.81
367.4	436.73
367.781	426.78
368.163	418.42
368.544	427.91
368.925	434.92
369.306	447.35
369.688	450.51
370.069	464.52
370.45	463.17
370.831	459.32
371.212	451.19
371.593	450.51
371.974	457.74
372.355	453.22
372.736	447.12
373.117	455.71
373.498	473.34
373.879	465.65
374.26	442.15
374.641	435.14
375.021	467.69
375.402	483.73
375.783	514.92
376.163	516.95
376.544	511.53
376.925	500.9
377.305	516.95
377.686	511.53
378.066	531.86
378.447	522.15
378.827	535.93
379.208	535.25
379.588	531.19
379.968	530.06
380.349	542.03
380.729	543.84
381.109	546.55
381.489	542.94
381.87	557.85
382.25	559.43
382.63	574.8
383.01	560.11
383.39	581.35
383.77	609.6
384.15	602.6
384.53	604.63
384.91	612.09
385.29	615.48
385.67	617.29
386.049	628.59
386.429	635.14
386.809	622.48
387.189	626.33
387.568	649.15
387.948	651.64
388.328	662.48
388.707	666.1
389.087	673.78
389.466	681.69
389.846	703.61
390.225	699.54
390.605	722.37
390.984	711.97
391.363	712.65
391.743	721.92
392.122	748.36
392.501	713.1
392.881	747.23
393.26	755.36
393.639	744.51
394.018	765.98
394.397	771.63
394.776	785.64
395.155	791.07
395.534	809.37
395.913	805.3
396.292	807.34
396.671	819.77
397.05	850.27
397.429	845.08
397.808	815.47
398.186	849.14
398.565	858.18
398.944	872.65
399.323	883.72
399.701	881.23
400.08	901.12
400.458	919.88
400.837	908.8
401.215	935.02
401.594	923.49
401.972	948.8
402.351	969.59
402.729	969.37
403.107	965.3
403.486	976.82
403.864	987.22
404.242	997.16
404.62	1016.37
404.999	1045.75
405.377	1035.58
405.755	1010.27
406.133	1059.99
406.511	1097.95
406.889	1079.19
407.267	1105.63
407.645	1097.95
408.023	1128.01
408.401	1151.51
408.779	1166.42
409.156	1179.98
409.534	1171.4
409.912	1185.41
410.29	1219.98
410.667	1232.64
411.045	1248
411.422	1248.46
411.8	1282.58
412.178	1295.46
412.555	1308.12
412.933	1333.88
413.31	1344.72
413.687	1377.04
414.065	1376.81
414.442	1421.56
414.819	1429.47
415.197	1431.5
415.574	1452.52
415.951	1475.57
416.328	1481.9
416.705	1507.43
417.082	1511.05
417.46	1508.56
417.837	1514.89
418.214	1555.57
418.591	1532.29
418.967	1565.74
419.344	1575.23
419.721	1614.32
420.098	1606.86
420.475	1617.94
420.852	1654.55
421.228	1663.36
421.605	1684.83
421.982	1686.86
422.358	1730.93
422.735	1734.09
423.111	1758.5
423.488	1775.67
423.864	1770.48
424.241	1833.98
424.617	1831.04
424.994	1830.14
425.37	1860.87
425.746	1874.2
426.123	1891.6
426.499	1899.74
426.875	1928.21
427.251	1950.36
427.627	2028.55
428.003	2054.31
428.379	2056.8
428.756	2091.82
429.132	2064.03
429.507	2128.21
429.883	2177.47
430.259	2185.83
430.635	2221.09
431.011	2241.2
431.387	2286.62
431.763	2323
432.138	2323.68
432.514	2363.68
432.89	2394.19
433.265	2422.89
433.641	2447.97
434.016	2474.64
434.392	2522.32
434.767	2551.25
435.143	2553.73
435.518	2605.48
435.894	2643
436.269	2650.68
436.644	2740.85
437.02	2699.94
437.395	2733.16
437.77	2799.83
438.145	2785.59
438.52	2846.61
438.895	2879.6
439.271	2884.8
439.646	2923.21
440.021	3020.61
440.395	2959.6
440.77	2984
441.145	3016.09
441.52	3052.25
441.895	3058.58
442.27	3113.49
442.645	3095.86
443.019	3147.61
443.394	3151
443.769	3213.38
444.143	3176.31
444.518	3251.57
444.892	3235.75
445.267	3303.32
445.641	3281.4
446.016	3347.84
446.39	3351.45
446.764	3417.66
447.139	3339.25
447.513	3402.07
447.887	3423.31
448.262	3470.54
448.636	3506.48
449.01	3529.98
449.384	3551.45
449.758	3576.3
450.132	3616.98
450.506	3640.26
450.88	3649.75
451.254	3688.39
451.628	3772.01
452.002	3809.52
452.376	3853.13
452.75	3860.36
453.123	3872.57
453.497	3950.98
453.871	3953.7
454.244	4027.82
454.618	4098.55
454.992	4132.9
455.365	4171.54
455.739	4269.17
456.112	4255.38
456.486	4288.83
456.859	4341.48
457.232	4385.32
457.606	4424.19
457.979	4470.07
458.352	4538.76
458.725	4586.22
459.099	4611.98
459.472	4741.92
459.845	4729.49
460.218	4815.37
460.591	4832.54
460.964	4838.87
461.337	4968.13
461.71	5056.27
462.083	5090.16
462.456	5077.96
462.829	5162.93
463.201	5268.69
463.574	5291.51
463.947	5345.07
464.32	5413.54
464.692	5436.82
465.065	5531.51
465.438	5596.36
465.81	5676.36
466.183	5749.58
466.555	5854.44
466.928	5891.95
467.3	5865.51
467.672	6001.33
468.045	6070.25
468.417	6105.5
468.789	6194.77
469.161	6259.17
469.534	6435.89
469.906	6453.52
470.278	6519.96
470.65	6655.09
471.022	6704.36
471.394	6811.93
471.766	6900.74
472.138	7000.4
472.51	7152.03
472.882	7198.13
473.253	7307.96
473.625	7380.72
473.997	7573.94
474.369	7575.52
474.74	7653.94
475.112	7840.6
475.484	7977.77
475.855	8081.95
476.227	8205.11
476.598	8420.47
476.97	8494.14
477.341	8702.05
477.713	8702.95
478.084	8845.09
478.455	9091.64
478.827	9117.4
479.198	9422.93
479.569	9450.95
479.94	9645.07
480.311	9725.3
480.682	9974.55
481.053	10199.41
481.424	10353.3
481.795	10473.3
482.166	10605.5
482.537	10800.97
482.908	11036.67
483.279	11098.37
483.65	11240.74
484.021	11512.37
484.391	11628.3
484.762	11772.47
485.133	11889.31
485.503	11989.87
485.874	12332.68
486.244	12390.76
486.615	12617.87
486.985	12779.23
487.356	13042.95
487.726	13124.08
488.097	13377.85
488.467	13475.25
488.837	13654.01
489.207	13865.53
489.578	14025.07
489.948	14205.86
490.318	14439.07
490.688	14471.61
491.058	14676.8
491.428	14894.65
491.798	14969.9
492.168	15293.28
492.538	15388.65
492.908	15598.81
493.278	15775.31
493.648	15773.5
494.017	16010.55
494.387	16139.82
494.757	16307.95
495.126	16437.89
495.496	16579.8
495.866	16726.69
496.235	16792.91
496.605	17036.06
496.974	17140.02
497.344	17223.86
497.713	17353.34
498.082	17513.56
498.452	17749.04
498.821	17817.29
499.19	17839.43
499.559	18044.17
499.928	18203.04
500.298	18244.39
500.667	18474.44
501.036	18432.64
501.405	18651.39
501.774	18741.33
502.143	18960.76
502.512	18910.82
502.88	19141.32
503.249	19197.36
503.618	19402.55
503.987	19438.26
504.356	19628.54
504.724	19837.8
505.093	19928.19
505.462	19894.75
505.83	20178.35
506.199	20309.2
506.567	20528.17
506.936	20501.28
507.304	20773.59
507.672	20870.76
508.041	21042.29
508.409	21132
508.777	21304.2
509.145	21473.23
509.514	21601.82
509.882	21677.3
510.25	21703.96
510.618	21993.45
510.986	22052.65
511.354	22337.17
511.722	22515.02
512.09	22640.66
512.458	22557.95
512.826	22868
513.193	22995
513.561	23113.87
513.929	23307.08
514.297	23642.67
514.664	23773.51
515.032	23714.31
515.4	24003.11
515.767	24135.31
516.135	24279.94
516.502	24169.66
516.869	24701.17
517.237	24885.8
517.604	24830.21
517.972	25185.91
518.339	25367.14
518.706	25412.79
519.073	25527.14
519.44	25778.21
519.808	26038.54
520.175	26110.4
520.542	26418.87
520.909	26605.76
521.276	26572.31
521.643	26938.4
522.009	27106.76
522.376	27170.71
522.743	27508.1
523.11	27691.38
523.477	28008.43
523.843	28219.05
524.21	28503.78
524.577	28673.27
524.943	28820.39
525.31	28976.09
525.676	29178.57
526.043	29438
526.409	29596.41
526.776	29959.79
527.142	30000.92
527.508	30149.39
527.874	30346
528.241	30684.52
528.607	30792.99
528.973	31067.56
529.339	31002.02
529.705	31435.68
530.071	31592.06
530.437	31763.13
530.803	32087.87
531.169	32179.62
531.535	32141.65
531.901	32312.72
532.267	32541.19
532.632	32824.35
532.998	32796.1
533.364	32926.04
533.73	33279.93
534.095	33532.35
534.461	33593.37
534.826	33700.03
535.192	33967.6
535.557	34155.61
535.923	34041.27
536.288	34408.71
536.653	34553.57
537.019	34435.83
537.384	34649.16
537.749	34813.45
538.114	34937.51
538.479	35129.37
538.845	35224.29
539.21	35015.48
539.575	35464.51
539.94	35499.76
540.305	35901.33
540.67	35881.22
541.034	35950.82
541.399	36217.93
541.764	36181.55
542.129	36421.09
542.494	36551.93
542.858	36595.78
543.223	36619.05
543.587	36909.21
543.952	36827.41
544.316	37047.51
544.681	37113.28
545.045	37475.07
545.41	37484.57
545.774	37703.77
546.138	37796.87
546.503	37779.92
546.867	37921.62
547.231	38161.38
547.595	38170.42
547.959	38506.23
548.324	38427.82
548.688	38615.38
549.052	39014.02
549.416	38967.69
549.779	38894.92
550.143	39267.34
550.507	39492.2
550.871	39549.82
551.235	39524.29
551.599	39828.23
551.962	39984.16
552.326	40079.3
552.689	40292.4
553.053	40248.79
553.417	40456.24
553.78	40896.68
554.143	40833.18
554.507	40911.59
554.87	41200.17
555.234	41456.21
555.597	41228.2
555.96	41522.2
556.323	41834.06
556.686	42009.87
557.05	42175.29
557.413	42351.1
557.776	42475.85
558.139	42648.5
558.502	42795.39
558.865	42807.36
559.228	43173.23
559.59	43220.23
559.953	43556.72
560.316	43808.92
560.679	43957.16
561.041	44188.34
561.404	44438.96
561.767	44622.91
562.129	44481.44
562.492	44960.3
562.854	45016.34
563.217	44976.12
563.579	45185.38
563.941	45571.36
564.304	45763.67
564.666	45941.52
565.028	46044.79
565.39	46248.63
565.753	46426.7
566.115	46536.08
566.477	46710.09
566.839	46855.84
567.201	47260.13
567.563	47230.3
567.925	47397.52
568.287	47664.86
568.648	47587.12
569.01	47877.74
569.372	48097.17
569.734	48089.48
570.095	48354.11
570.457	48458.06
570.819	48531.73
571.18	48554.78
571.542	48788.22
571.903	48787.32
572.265	48926.75
572.626	48997.48
572.987	49216.01
573.349	49300.3
573.71	49460.07
574.071	49654.64
574.432	49712.04
574.794	49872.71
575.155	49906.39
575.516	49770.34
575.877	50164.68
576.238	50155.64
576.599	50325.13
576.96	50368.07
577.32	50268.64
577.681	50439.48
578.042	50485.81
578.403	50486.03
578.763	50542.08
579.124	50622.3
579.485	50756.31
579.845	50846.25
580.206	50776.87
580.566	50865
580.927	50856.19
581.287	51099.35
581.648	50768.51
582.008	51016.64
582.368	50879.47
582.728	51140.25
583.089	51015.51
583.449	51080.14
583.809	51039.01
584.169	51189.29
584.529	51169.86
584.889	51412.33
585.249	51183.19
585.609	51120.36
585.969	51230.42
586.329	51195.39
586.688	51233.36
587.048	51248.27
587.408	51158.33
587.768	51147.03
588.127	51152.45
588.487	51115.62
588.846	51398.78
589.206	51146.8
589.565	51169.86
589.925	51373.47
590.284	51274.26
590.643	51337.99
591.003	51346.12
591.362	51394.26
591.721	51395.16
592.08	51447.36
592.44	51545.89
592.799	51416.85
593.158	51346.12
593.517	51378.21
593.876	51406.69
594.235	51355.84
594.593	51426.8
594.952	51497.98
595.311	51325.11
595.67	51508.15
596.029	51678.54
596.387	51681.48
596.746	51642.39
597.104	51577.53
597.463	51603.52
597.822	51611.2
598.18	51562.84
598.538	51526.23
598.897	51752.89
599.255	51479.45
599.613	51942.72
599.972	51750.86
600.33	51728.48
600.688	51614.36
601.046	51823.17
601.404	51928.48
601.762	51891.64
602.12	51924.19
602.478	51933.22
602.836	51919.89
603.194	51792.44
603.552	51870.63
603.91	51877.63
604.268	52096.84
604.625	51933.9
604.983	52088.7
605.341	51853.68
605.698	52141.35
606.056	52231.97
606.413	52156.72
606.771	52274.01
607.128	52278.07
607.485	52227.91
607.843	52221.58
608.2	52365.53
608.557	52472.87
608.914	52287.34
609.272	52401.91
609.629	52571.4
609.986	52542.47
610.343	52481.91
610.7	52705.18
611.057	52631.51
611.414	52651.85
611.771	52649.59
612.127	52721.45
612.484	52777.27
612.841	52854.1
613.198	52624.05
613.554	52748.34
613.911	52897.49
614.267	52899.53
614.624	52865.63
614.98	53002.35
615.337	53115.11
615.693	52991.95
616.05	52937.04
616.406	53195.34
616.762	53039.64
617.118	52984.04
617.475	53015.46
617.831	53207.32
618.187	53194.89
618.543	53253.64
618.899	53395.56
619.255	53252.29
619.611	53237.82
619.967	53266.3
620.323	53270.59
620.678	53338.84
621.034	53252.06
621.39	53183.59
621.746	53185.4
622.101	53534.09
622.457	53293.19
622.812	53277.6
623.168	53325.96
623.523	53395.79
623.879	53439.17
624.234	53262
624.589	53301.32
624.945	53342.68
625.3	53347.65
625.655	53352.62
626.01	53365.05
626.365	53371.15
626.72	53266.52
627.075	53214.32
627.43	53231.04
627.785	53211.61
628.14	53204.6
628.495	53318.5
628.85	53256.13
629.205	53117.37
629.559	53339.29
629.914	53048.45
630.269	53129.58
630.623	53029.92
630.978	52997.6
631.332	53032.18
631.687	53096.58
632.041	52986.76
632.396	53008.22
632.75	52822.24
633.104	52933.42
633.459	52778.85
633.813	52743.15
634.167	52762.36
634.521	52713.32
634.875	52829.47
635.229	52700.44
635.583	52525.3
635.937	52515.36
636.291	52644.62
636.645	52588.12
636.999	52398.07
637.352	52538.63
637.706	52217.51
638.06	52437.39
638.413	52239.21
638.767	52188.59
639.121	52237.85
639.474	52058.87
639.828	52228.58
640.181	52143.61
640.534	52125.99
640.888	52038.31
641.241	51767.35
641.594	51851.19
641.947	52047.12
642.301	51943.39
642.654	51853.9
643.007	51847.58
643.36	51841.7
643.713	51841.7
644.066	51845.09
644.419	51413.24
644.771	51107.94
645.124	50605.35
645.477	50597.89
645.83	50545.46
646.182	50545.24
646.535	50504.34
646.888	50693.03
647.24	50532.36
647.593	50846.7
647.945	50768.06
648.298	50614.39
648.65	50441.51
649.002	50279.94
649.355	50397.22
649.707	50133.05
650.059	50123.1
650.411	50602.41
650.763	50684.9
651.115	51041.72
651.467	50927.83
651.819	50859.35
652.171	50730.77
652.523	50773.93
652.875	50734.39
653.227	50529.19
653.578	50742.3
653.93	50749.75
654.282	50533.26
654.633	50474.73
654.985	50491.45
655.337	50559.25
655.688	50476.31
656.039	50522.64
656.391	50161.97
656.742	50308.18
657.094	50364.9
657.445	50300.73
657.796	50270.22
658.147	50173.05
658.498	50118.36
658.849	50200.84
659.2	50283.32
659.551	50065.48
659.902	50197.9
660.253	50072.93
660.604	50138.47
660.955	49984.58
661.306	50092.6
661.656	50018.47
662.007	49901.41
662.358	49964.24
662.708	49957.23
663.059	49965.82
663.409	49780.06
663.76	50001.3
664.11	49943.9
664.461	49857.12
664.811	49939.38
665.161	49776.67
665.511	49830.46
665.862	49690.57
666.212	49736.67
666.562	49767.86
666.912	49673.62
667.262	49621.2
667.612	49574.87
667.962	49595.21
668.312	49592.95
668.662	49699.84
669.011	49523.34
669.361	49497.13
669.711	49428.21
670.06	49401.09
670.41	49216.91
670.76	49270.7
671.109	49498.94
671.459	49287.87
671.808	49192.51
672.157	49222.34
672.507	48966.75
672.856	49115.9
673.205	49195.44
673.554	49205.16
673.904	49096.24
674.253	49378.26
674.602	49043.36
674.951	48536.25
675.3	48376.03
675.649	49003.13
675.998	48843.59
676.346	48786.64
676.695	48986.18
677.044	48598.85
677.393	48762.46
677.741	48890.59
678.09	48644.95
678.438	48646.53
678.787	48667.32
679.135	48726.3
679.484	48456.03
679.832	48624.61
680.181	48326.54
680.529	48440.89
680.877	48210.38
681.225	48275.47
681.573	48451.28
681.922	48196.83
682.27	48060.56
682.618	48060.56
682.966	47871.86
683.314	48039.32
683.661	47825.54
684.009	47726.33
684.357	47747.12
684.705	47565.88
685.053	47705.09
685.4	47620.57
685.748	47295.38
686.095	47412.67
686.443	47120.92
686.79	47175.61
687.138	47140.13
687.485	47090.87
687.832	46933.13
688.18	47049.29
688.527	46750.99
688.874	46621.05
689.221	46492.24
689.568	46554.16
689.915	46257.44
690.262	46278.68
690.609	46103.1
690.956	46128.41
691.303	46099.48
691.65	45954.4
691.997	45868.3
692.344	45632.37
692.69	45529.1
693.037	45559.83
693.383	45331.36
693.73	45403.91
694.077	45068.32
694.423	45053.63
694.769	44977.25
695.116	44914.65
695.462	44762.34
695.808	44628.78
696.155	44853.41
696.501	44446.42
696.847	44522.35
697.193	44149.93
697.539	44327.55
697.885	43954.68
698.231	43885.75
698.577	43979.08
698.923	43710.62
699.269	43591.98
699.614	43305.66
699.96	43319.21
700.306	43405.77
700.651	43218.88
700.997	42957.87
701.342	42862.05
701.688	42988.83
702.033	42805.33
702.379	42706.12
702.724	42582.74
703.069	42674.71
703.415	42157.89
703.76	42121.51
704.105	42210.77
704.45	42069.98
704.795	41867.05
705.14	41638.13
705.485	41700.05
705.83	41572.82
706.175	41587.96
706.52	41473.61
706.865	41233.17
707.209	41213.28
707.554	40995.89
707.899	41092.61
708.243	40864.36
708.588	40898.49
708.932	40622.11
709.277	40630.7
709.621	40475
709.966	40288.11
710.31	40476.35
710.654	40074.78
710.998	40119.98
711.342	40178.05
711.687	40006.76
712.031	39842.24
712.375	39720.89
712.719	39733.09
713.063	39681.34
713.407	39778.29
713.75	39290.17
714.094	39536.94
714.438	39234.8
714.782	39319.09
715.125	39151.87
715.469	39299.66
715.812	38941.7
716.156	38757.07
716.499	38712.1
716.843	38719.34
717.186	38600.47
717.53	38766.34
717.873	38528.38
718.216	38696.51
718.559	38264.21
718.902	38113.25
719.246	38188.5
719.589	38127.94
719.932	38032.12
720.275	37923.65
720.617	37838
720.96	37857.44
721.303	37743.09
721.646	37815.63
721.989	37460.39
722.331	37682.53
722.674	37645.92
723.016	37462.64
723.359	37470.55
723.701	37511.01
724.044	37093.62
724.386	36912.83
724.729	37060.4
725.071	37038.48
725.413	37042.32
725.755	36962.32
726.097	36861.3
726.439	36514.87
726.782	36592.84
727.124	36793.28
727.465	36526.62
727.807	36542.67
728.149	36401.43
728.491	36449.79
728.833	36331.38
729.175	36311.94
729.516	36197.14
729.858	36104.71
730.199	36140.65
730.541	35948.79
730.882	35947.43
731.224	36013.64
731.565	35784.04
731.906	35749.47
732.248	35920.31
732.589	35593.54
732.93	35589.25
733.271	35581.79
733.612	35557.84
733.953	35574.56
734.294	35256.15
734.635	35147.23
734.976	35444.39
735.317	35104.97
735.658	35030.39
735.999	35095.02
736.339	35024.74
736.68	35118.07
737.021	34887.12
737.361	34696.62
737.702	34989.26
738.042	34678.09
738.383	34630.4
738.723	34663.85
739.063	34669.05
739.404	34565.77
739.744	34634.7
740.084	34344.08
740.424	34347.7
740.764	34276.06
741.104	34471.76
741.444	34161.04
741.784	34100.93
742.124	34067.03
742.464	34050.08
742.804	34001.04
743.143	33849.63
743.483	33878.33
743.823	33727.6
744.162	33720.6
744.502	33728.28
744.841	33567.38
745.181	33627.04
745.52	33413.49
745.86	33550.88
746.199	33361.74
746.538	33363.09
746.877	33354.96
747.216	33164.45
747.556	33179.59
747.895	33155.41
748.234	32942.54
748.573	32954.29
748.911	32840.62
749.25	32792.49
749.589	32573.73
749.928	32630.23
750.267	32621.42
750.605	32683.34
750.944	32408.54
751.283	32313.63
751.621	32452.61
751.96	32244.93
752.298	32163.8
752.636	32239.96
752.975	32076.12
753.313	32031.83
753.651	32145.5
753.989	31762.46
754.327	31840.65
754.666	31577.15
755.004	31704.38
755.342	31664.83
755.679	31444.95
756.017	31342.13
756.355	31497.15
756.693	31269.14
757.031	31382.13
757.368	31090.84
757.706	30953.44
758.044	31067.33
758.381	30956.15
758.719	30771.07
759.056	30708.02
759.394	30568.14
759.731	30523.62
760.068	30423.28
760.405	30289.5
760.743	30219.22
761.08	30328.6
761.417	30270.29
761.754	30029.85
762.091	29916.63
762.428	29863.75
762.765	29630.31
763.102	29646.81
763.438	29482.74
763.775	29345.12
764.112	29477.54
764.449	29415.4
764.785	29222.64
765.122	29150.55
765.458	29000.49
765.795	28988.52
766.131	28876.66
766.467	28749.43
766.804	28505.59
767.14	28467.63
767.476	28539.26
767.812	28222.21
768.148	28310.8
768.485	28202.78
768.821	27934.76
769.157	27833.29
769.492	27852.05
769.828	27703.35
770.164	27624.03
770.5	27505.17
770.836	27517.82
771.171	27409.35
771.507	27313.76
771.842	26988.12
772.178	27066.76
772.513	26916.03
772.849	26853.88
773.184	26858.86
773.519	26763.49
773.855	26573.44
774.19	26575.25
774.525	26410.96
774.86	26305.2
775.195	26323.73
775.53	26066.56
775.865	26015.71
776.2	25794.03
776.535	25677.19
776.87	25624.54
777.205	25540.92
777.539	25428.84
777.874	25399.23
778.209	25162.86
778.543	25171.67
778.878	25146.13
779.212	25036.08
779.547	24938.91
779.881	24907.27
780.215	24661.4
780.55	24699.82
780.884	24515.64
781.218	24498.92
781.552	24442.87
781.886	24334.63
782.22	24244.01
782.554	24169.44
782.888	23942.32
783.222	23759.05
783.556	23640.41
783.889	23632.05
784.223	23503.69
784.557	23419.85
784.89	23515.89
785.224	23288.1
785.557	23307.54
785.891	23098.95
786.224	23019.41
786.558	23057.6
786.891	22884.27
787.224	22714.11
787.557	22758.62
787.891	22698.51
788.224	22572.64
788.557	22479.54
788.89	22431.63
789.223	22517.5
789.556	22336.94
789.888	22208.13
790.221	22125.42
790.554	21950.96
790.887	21992.32
791.219	21854.02
791.552	21754.81
791.884	21636.85
792.217	21663.06
792.549	21509.39
792.882	21405.21
793.214	21313.01
793.546	21198.67
793.879	21207.93
794.211	21112.57
794.543	21105.11
794.875	21040.93
795.207	21058.33
795.539	20918.67
795.871	20850.65
796.203	20839.35
796.535	20708.06
796.867	20557.78
797.198	20497.67
797.53	20500.83
797.862	20330.67
798.193	20414.05
798.525	20290.22
798.856	20335.64
799.188	20045.25
799.519	20000.05
799.85	20018.81
800.182	19897.91
800.513	19907.85
800.844	19686.84
801.175	19819.72
801.506	19773.17
801.837	19523
802.168	19529.56
802.499	19544.7
802.83	19352.39
803.161	19318.72
803.491	19349.22
803.822	19295.21
804.153	19130.25
804.483	19079.63
804.814	18931.61
805.145	18883.25
805.475	18864.94
805.805	18863.13
806.136	18816.13
806.466	18825.62
806.796	18600.99
807.126	18547.66
807.457	18582.46
807.787	18471.28
808.117	18526.65
808.447	18335.69
808.777	18403.03
809.107	18285.75
809.436	18186.09
809.766	18142.02
810.096	18184.96
810.426	18116.71
810.755	18080.1
811.085	17988.35
811.414	17870.17
811.744	17815.25
812.073	17885.31
812.403	17747.91
812.732	17664.97
813.061	17613.68
813.39	17602.38
813.719	17504.98
814.049	17613.45
814.378	17519.89
814.707	17435.83
815.036	17502.27
815.365	17350.18
815.693	17217.53
816.022	17191.77
816.351	17125.78
816.68	17101.82
817.008	17130.52
817.337	17039
817.665	16985.9
817.994	17027.25
818.322	16869.51
818.651	16798.78
818.979	16682.4
819.307	16820.25
819.636	16775.73
819.964	16681.27
820.292	16646.24
820.62	16680.14
820.948	16709.07
821.276	16604.44
821.604	16570.54
821.932	16604.66
822.259	16583.42
822.587	16630.2
822.915	16563.53
823.243	16567.6
823.57	16490.54
823.898	16537.32
824.225	16516.75
824.553	16429.75
824.88	16445.34
825.207	16504.55
825.535	16506.59
825.862	16562.63
826.189	16369.64
826.516	16553.14
826.843	16521.5
827.17	16498.22
827.497	16507.94
827.824	16504.55
828.151	16480.6
828.478	16429.53
828.805	16523.99
829.131	16429.75
829.458	16306.14
829.785	16262.52
830.111	16362.86
830.438	16436.08
830.764	16416.64
831.09	16483.99
831.417	16322.41
831.743	16434.5
832.069	16388.85
832.395	16298.23
832.722	16350.66
833.048	16346.82
833.374	16312.92
833.7	16258
834.026	16347.49
834.351	16390.66
834.677	16226.82
835.003	16281.73
835.329	16258
835.654	16224.33
835.98	16144.11
836.306	16259.13
836.631	16204.22
836.956	16114.51
837.282	16182.53
837.607	16047.61
837.932	16004.45
838.258	16026.6
838.583	16087.84
838.908	15799.94
839.233	15982.53
839.558	15877.22
839.883	15843.78
840.208	15796.55
840.533	15804.01
840.858	15851.24
841.182	15868.64
841.507	15763.1
841.832	15663.22
842.156	15714.97
842.481	15653.5
842.805	15570.34
843.13	15595.65
843.454	15560.4
843.778	15486.73
844.103	15450.12
844.427	15375.99
844.751	15430.68
845.075	15318.14
845.399	15326.96
845.723	15336.9
846.047	15312.27
846.371	15202.89
846.695	15183.23
847.019	15071.6
847.343	15102.55
847.666	14943.24
847.99	14848.1
848.313	14924.48
848.637	14789.79
848.96	14733.53
849.284	14692.85
849.607	14688.55
849.931	14580.99
850.254	14450.59
850.577	14466.87
850.9	14343.93
851.223	14318.17
851.546	14340.32
851.869	14155.01
852.192	14189.81
852.515	14006.99
852.838	14077.05
853.161	14083.15
853.483	14006.99
853.806	13913.66
854.129	13864.17
854.451	13731.07
854.774	13827.79
855.096	13729.48
855.419	13678.19
855.741	13569.04
856.063	13588.47
856.385	13555.93
856.708	13477.06
857.03	13426.21
857.352	13562.93
857.674	13351.19
857.996	13415.37
858.318	13275.03
858.64	13313.45
858.961	13280.46
859.283	13251.98
859.605	13199.78
859.926	13243.17
860.248	13193.23
860.57	13084.75
860.891	13178.09
861.212	13099.44
861.534	13009.05
861.855	12983.06
862.176	13023.74
862.498	13064.42
862.819	12952.55
863.14	13008.82
863.461	12967.92
863.782	12923.18
864.103	12936.06
864.424	12801.15
864.745	12820.58
865.065	12779.23
865.386	12751.66
865.707	12703.07
866.027	12779.9
866.348	12752.11
866.668	12688.61
866.989	12671.88
867.309	12580.36
867.63	12670.08
867.95	12651.32
868.27	12496.97
868.59	12567.03
868.91	12565.67
869.23	12506.01
869.55	12461.72
869.87	12498.33
870.19	12452
870.51	12516.86
870.83	12477.31
871.15	12411.33
871.469	12370.65
871.789	12362.06
872.109	12443.42
872.428	12355.51
872.748	12315.51
873.067	12410.2
873.386	12267.6
873.706	12271.22
874.025	12271.22
874.344	12207.49
874.663	12168.17
874.982	12206.81
875.301	12255.17
875.62	12209.3
875.939	12168.39
876.258	12168.17
876.577	12178.56
876.896	12174.5
877.214	12154.84
877.533	12112.13
877.852	12080.71
878.17	12044.33
878.489	12038.23
878.807	12016.31
879.125	11947.61
879.444	11977.67
879.762	11934.5
880.08	11920.72
880.398	11899.93
880.716	11941.28
881.034	11873.26
881.352	11918.23
881.67	11779.03
881.988	11849.76
882.306	11889.08
882.624	11871.23
882.941	11786.26
883.259	11738.58
883.577	11681.4
883.894	11642.31
884.212	11699.71
884.529	11578.81
884.846	11588.07
885.164	11639.6
885.481	11570.9
885.798	11546.49
886.115	11492.93
886.432	11504.68
886.75	11461.29
887.067	11452.93
887.383	11404.35
887.7	11419.26
888.017	11412.93
888.334	11383.33
888.651	11305.37
888.967	11289.1
889.284	11237.8
889.6	11194.18
889.917	11132.04
890.233	11193.73
890.55	11122.32
890.866	11127.07
891.182	11079.84
891.498	11100.63
891.815	10909.9
892.131	10985.37
892.447	10912.83
892.763	10902.21
893.079	10859.5
893.395	10842.33
893.71	10940.86
894.026	10811.14
894.342	10764.36
894.657	10589.45
894.973	10708.09
895.289	10663.8
895.604	10650.47
895.92	10621.09
896.235	10532.05
896.55	10606.18
896.865	10525.05
897.181	10494.77
897.496	10486.41
897.811	10424.94
898.126	10439.4
898.441	10349.46
898.756	10295.45
899.071	10306.07
899.386	10323.02
899.7	10222.46
900.015	10167.54
900.33	10116.25
900.644	10108.79
900.959	10078.73
901.273	10066.76
901.588	10110.6
901.902	10076.92
902.216	9973.65
902.531	9895.23
902.845	9929.36
903.159	9872.41
903.473	9826.99
903.787	9794.67
904.101	9688.91
904.415	9690.04
904.729	9594.45
905.042	9652.3
905.356	9555.81
905.67	9643.26
905.984	9613.66
906.297	9495.92
906.611	9479.65
906.924	9420.44
907.237	9368.02
907.551	9306.55
907.864	9310.62
908.177	9341.35
908.491	9297.74
908.804	9260.67
909.117	9227.23
909.43	9215.25
909.743	9084.63
910.056	9019.32
910.368	9037.4
910.681	8957.41
910.994	8977.74
911.307	8930.74
911.619	8806.45
911.932	8888.25
912.244	8907.24
912.557	8878.76
912.869	8807.58
913.181	8758.31
913.494	8795.15
913.806	8702.72
914.118	8668.15
914.43	8655.04
914.742	8639.22
915.054	8545.21
915.366	8475.38
915.678	8435.61
915.99	8467.25
916.302	8393.13
916.613	8402.62
916.925	8362.17
917.236	8339.79
917.548	8311.77
917.859	8331.43
918.171	8201.72
918.482	8161.95
918.794	8158.78
919.105	8153.36
919.416	8103.19
919.727	8015.28
920.038	8030.2
920.349	8016.87
920.66	7910.65
920.971	7999.92
921.282	7880.37
921.593	7848.51
921.903	7821.16
922.214	7768.06
922.525	7766.25
922.835	7707.04
923.146	7662.07
923.456	7627.27
923.767	7545.24
924.077	7586.59
924.387	7624.11
924.697	7490.33
925.008	7505.01
925.318	7415.98
925.628	7416.2
925.938	7352.48
926.248	7312.7
926.558	7241.52
926.867	7259.15
927.177	7231.8
927.487	7203.55
927.796	7128.3
928.106	7136.44
928.416	7100.51
928.725	7128.98
929.034	7045.37
929.344	7046.04
929.653	7043.11
929.962	6927.85
930.271	6958.59
930.581	6885.14
930.89	6857.57
931.199	6867.07
931.508	6835.2
931.817	6861.42
932.125	6762.89
932.434	6791.13
932.743	6666.62
933.051	6650.8
933.36	6689.67
933.669	6597.92
933.977	6595.43
934.286	6612.16
934.594	6540.07
934.902	6522.67
935.21	6471.14
935.519	6476.79
935.827	6485.38
936.135	6436.12
936.443	6368.1
936.751	6320.19
937.059	6319.96
937.367	6265.73
937.674	6242.22
937.982	6236.8
938.29	6249
938.597	6230.47
938.905	6177.59
939.213	6160.87
939.52	6087.42
939.827	6096.92
940.135	6037.03
940.442	6012.4
940.749	6011.27
941.056	6031.15
941.363	5944.15
941.67	5964.49
941.977	5917.03
942.284	5893.98
942.591	5852.18
942.898	5823.25
943.205	5831.39
943.511	5769.01
943.818	5719.07
944.125	5693.08
944.431	5671.84
944.738	5657.15
945.044	5643.14
945.35	5653.99
945.657	5566.76
945.963	5611.5
946.269	5551.17
946.575	5548.46
946.881	5472.75
947.187	5535.12
947.493	5451.74
947.799	5399.99
948.105	5402.24
948.41	5356.82
948.716	5371.29
949.022	5383.26
949.327	5308.46
949.633	5308.01
949.938	5273.21
950.244	5264.85
950.549	5237.05
950.854	5201.57
951.16	5185.3
951.465	5159.09
951.77	5138.07
952.075	5153.89
952.38	5114.79
952.685	5088.58
952.99	5081.12
953.294	4992.54
953.599	5009.49
953.904	4970.84
954.209	4925.42
954.513	4943.05
954.818	4926.78
955.122	4895.14
955.426	4899.43
955.731	4850.85
956.035	4816.95
956.339	4778.98
956.643	4837.51
956.948	4785.54
957.252	4717.97
957.556	4726.78
957.86	4702.15
958.163	4738.08
958.467	4706.44
958.771	4663.51
959.075	4679.55
959.378	4593
959.682	4585.54
959.985	4559.1
960.289	4516.39
960.592	4540.35
960.896	4535.6
961.199	4506.9
961.502	4474.13
961.805	4490.63
962.108	4418.99
962.411	4433.68
962.714	4436.39
963.017	4381.03
963.32	4377.87
963.623	4349.39
963.926	4338.32
964.228	4294.03
964.531	4284.76
964.833	4228.72
965.136	4212.67
965.438	4200.69
965.741	4188.04
966.043	4176.97
966.345	4205.21
966.648	4110.75
966.95	4184.88
967.252	4107.82
967.554	4086.57
967.856	4101.94
968.158	4063.3
968.46	4089.51
968.761	4057.87
969.063	4011.77
969.365	4004.32
969.666	3985.33
969.968	3951.21
970.269	3940.36
970.571	3899.69
970.872	3912.34
971.174	3918.44
971.475	3881.16
971.776	3849.29
972.077	3813.13
972.378	3806.81
972.679	3800.93
972.98	3814.49
973.281	3806.35
973.582	3760.48
973.883	3742.85
974.183	3718.9
974.484	3741.05
974.785	3700.82
975.085	3680.93
975.386	3643.87
975.686	3619.24
975.986	3598.68
976.287	3605.91
976.587	3602.52
976.887	3583.76
977.187	3575.17
977.487	3530.66
977.787	3529.07
978.087	3530.66
978.387	3486.59
978.687	3477.32
978.987	3464.89
979.286	3417.21
979.586	3457.44
979.885	3412.69
980.185	3375.41
980.484	3389.87
980.784	3366.37
981.083	3335.86
981.382	3339.93
981.682	3339.02
981.981	3330.44
982.28	3303.54
982.579	3246.82
982.878	3254.05
983.177	3248.18
983.475	3221.51
983.774	3209.76
984.073	3193.04
984.372	3168.18
984.67	3195.98
984.969	3168.41
985.267	3129.54
985.566	3162.08
985.864	3108.75
986.162	3098.58
986.461	3095.64
986.759	3079.37
987.057	3049.54
987.355	3047.28
987.653	2988.98
987.951	3014.74
988.249	2976.32
988.547	2968.41
988.844	2979.03
989.142	2958.92
989.44	2942.2
989.737	2923.44
990.035	2963.44
990.332	2911.46
990.63	2872.14
990.927	2867.17
991.224	2868.3
991.521	2895.87
991.819	2838.02
992.116	2843.22
992.413	2804.8
992.71	2805.48
993.006	2787.17
993.303	2816.1
993.6	2765.25
993.897	2772.26
994.193	2764.12
994.49	2698.59
994.787	2711.69
995.083	2687.51
995.379	2686.84
995.676	2650.45
995.972	2660.17
996.268	2625.82
996.565	2632.15
996.861	2604.13
997.157	2603
997.453	2579.72
997.749	2569.55
998.044	2542.43
998.34	2563.68
998.636	2517.58
998.932	2521.64
999.227	2500.17
999.523	2487.07
999.818	2460.4
1000.114	2478.93
1000.409	2467.63
1000.704	2426.5
1001	2445.26
1001.295	2387.18
1001.59	2399.61
1001.885	2412.49
1002.18	2366.17
1002.475	2345.83
1002.77	2346.51
1003.065	2330.46
1003.359	2318.94
1003.654	2325.04
1003.949	2327.98
1004.243	2297.47
1004.538	2228.54
1004.832	2256.34
1005.127	2247.98
1005.421	2212.72
1005.715	2207.53
1006.009	2202.56
1006.304	2201.65
1006.598	2189.67
1006.892	2179.28
1007.186	2169.79
1007.48	2155.1
1007.773	2127.75
1008.067	2119.85
1008.361	2113.97
1008.655	2121.65
1008.948	2068.1
1009.242	2082.11
1009.535	2060.86
1009.829	2059.28
1010.122	2047.53
1010.415	2042.11
1010.708	1990.13
1011.001	1968.44
1011.295	1980.64
1011.588	2002.79
1011.881	1953.3
1012.173	1965.5
1012.466	1939.51
1012.759	1915.11
1013.052	1946.74
1013.344	1901.55
1013.637	1923.24
1013.93	1898.38
1014.222	1862
1014.514	1825.62
1014.807	1837.14
1015.099	1844.15
1015.391	1831.04
1015.683	1824.26
1015.976	1801.66
1016.268	1804.83
1016.56	1781.78
1016.851	1765.5
1017.143	1786.97
1017.435	1712.4
1017.727	1737.26
1018.018	1731.83
1018.31	1740.19
1018.602	1719.86
1018.893	1706.07
1019.185	1689.57
1019.476	1671.04
1019.767	1648.22
1020.058	1602.57
1020.35	1633.3
1020.641	1640.76
1020.932	1629.69
1021.223	1579.75
1021.514	1595.57
1021.804	1569.13
1022.095	1545.4
1022.386	1574.1
1022.677	1576.36
1022.967	1552.4
1023.258	1494.1
1023.548	1542.23
1023.839	1504.27
1024.129	1490.71
1024.419	1467.43
1024.709	1469.47
1025	1476.25
1025.29	1457.94
1025.58	1452.07
1025.87	1425.4
1026.16	1452.97
1026.449	1427.43
1026.739	1396.7
1027.029	1410.26
1027.319	1368.9
1027.608	1396.7
1027.898	1367.1
1028.187	1347.21
1028.477	1344.5
1028.766	1354.22
1029.055	1337.72
1029.344	1318.96
1029.634	1290.71
1029.923	1296.36
1030.212	1292.75
1030.501	1274.22
1030.79	1269.7
1031.078	1259.08
1031.367	1245.07
1031.656	1264.95
1031.945	1232.19
1032.233	1223.6
1032.522	1211.17
1032.81	1201.9
1033.099	1201.9
1033.387	1197.84
1033.675	1211.85
1033.963	1172.3
1034.251	1165.29
1034.54	1192.19
1034.828	1162.58
1035.116	1145.41
1035.403	1128.46
1035.691	1112.87
1035.979	1118.29
1036.267	1122.81
1036.554	1092.75
1036.842	1093.43
1037.129	1078.74
1037.417	1083.49
1037.704	1087.1
1037.992	1075.81
1038.279	1063.6
1038.566	1085.75
1038.853	1085.75
1039.14	1085.75
