Data from foil_FLMS001491_083.txt Node
Date: Tue Feb 07 11:36:55 GMT 2017
User: dcchb
Spectrometer: FLMS00149
Trigger mode: 0
Integration Time (sec): 2.000000E-2
Scans to average: 10
Electric dark correction enabled: true
Nonlinearity correction enabled: false
Boxcar width: 0
XAxis mode: Wavelengths
Number of Pixels in Spectrum: 2048
>>>>>Begin Spectral Data<<<<<
341.393	-15.9
341.776	-15.9
342.16	-15.9
342.543	-77.82
342.927	-75.79
343.31	-81.66
343.693	-64.72
344.077	-73.3
344.46	-61.55
344.843	-67.2
345.226	-52.74
345.61	-31.95
345.993	-12.51
346.376	6.69
346.759	29.07
347.142	29.52
347.525	49.41
347.908	54.83
348.291	79.46
348.674	105.45
349.057	91.21
349.44	125.79
349.823	145.45
350.206	181.15
350.588	272.22
350.971	306.12
351.354	322.62
351.737	347.02
352.119	342.73
352.502	375.95
352.884	378.21
353.267	382.73
353.65	406.23
354.032	391.32
354.414	435.84
354.797	422.05
355.179	425.44
355.562	412.33
355.944	466.34
356.326	461.15
356.709	438.32
357.091	466.57
357.473	451.88
357.855	469.51
358.238	475.38
358.62	461.6
359.002	465.21
359.384	485.78
359.766	485.55
360.148	479.45
360.53	494.14
360.912	495.04
361.294	483.29
361.676	471.77
362.057	490.98
362.439	489.17
362.821	481.71
363.203	471.09
363.584	506.57
363.966	502.73
364.348	488.26
364.729	514.03
365.111	494.37
365.493	492.56
365.874	502.05
366.256	482.39
366.637	484.42
367.019	509.73
367.4	519.22
367.781	509.05
368.163	511.77
368.544	530.97
368.925	532.33
369.306	538.43
369.688	502.05
370.069	525.1
370.45	542.5
370.831	552.44
371.212	552.44
371.593	563.74
371.974	561.71
372.355	571.65
372.736	563.29
373.117	555.83
373.498	583.4
373.879	553.12
374.26	564.42
374.641	531.43
375.021	550.64
375.402	601.26
375.783	611.42
376.163	666.56
376.544	645.77
376.925	635.6
377.305	648.03
377.686	661.82
378.066	655.94
378.447	641.93
378.827	669.95
379.208	659.78
379.588	667.92
379.968	674.02
380.349	673.8
380.729	692.78
381.109	672.21
381.489	695.72
381.87	682.16
382.25	725.77
382.63	720.12
383.01	728.26
383.39	710.86
383.77	726.68
384.15	763.51
384.53	744.75
384.91	765.09
385.29	779.1
385.67	802.38
386.049	808.48
386.429	806.45
386.809	814.81
387.189	832.21
387.568	856.84
387.948	836.05
388.328	851.64
388.707	860.68
389.087	879.21
389.466	885.99
389.846	880.8
390.225	900.23
390.605	878.99
390.984	909.5
391.363	949.27
391.743	933.45
392.122	979.78
392.501	962.38
392.881	1000.79
393.26	1025.2
393.639	1013.22
394.018	1018.19
394.397	1051.41
394.776	1046.22
395.155	1046.22
395.534	1052.99
395.913	1070.17
396.292	1117.85
396.671	1148.59
397.05	1109.94
397.429	1150.62
397.808	1127.8
398.186	1138.42
398.565	1148.81
398.944	1144.74
399.323	1192.65
399.701	1210.73
400.08	1188.58
400.458	1197.17
400.837	1229.04
401.215	1253.44
401.594	1249.6
401.972	1305.64
402.351	1269.49
402.729	1304.51
403.107	1331.18
403.486	1330.73
403.864	1353.55
404.242	1300.45
404.62	1364.85
404.999	1374.34
405.377	1406.21
405.755	1415.92
406.133	1453.21
406.511	1444.62
406.889	1469.03
407.267	1502.25
407.645	1490.72
408.023	1535.02
408.401	1539.54
408.779	1584.28
409.156	1641
409.534	1630.15
409.912	1647.1
410.29	1648.23
410.667	1684.84
411.045	1720.1
411.422	1705.63
411.8	1750.83
412.178	1789.25
412.555	1794.44
412.933	1826.31
413.31	1865.85
413.687	1875.8
414.065	1885.29
414.442	1913.54
414.819	1923.25
415.197	1920.32
415.574	1962.8
415.951	2023.59
416.328	2011.84
416.705	2019.75
417.082	2026.75
417.46	2081.22
417.837	2135.9
418.214	2100.42
418.591	2123.48
418.967	2145.62
419.344	2223.13
419.721	2221.1
420.098	2207.99
420.475	2275.34
420.852	2280.99
421.228	2266.75
421.605	2333.87
421.982	2332.28
422.358	2394.43
422.735	2412.96
423.111	2394.65
423.488	2430.13
423.864	2467.87
424.241	2471.49
424.617	2527.31
424.994	2542.45
425.37	2518.95
425.746	2580.19
426.123	2631.03
426.499	2621.99
426.875	2636.68
427.251	2730.69
427.627	2812.5
428.003	2786.06
428.379	2838.48
428.756	2859.5
429.132	2912.83
429.507	2918.03
429.883	2991.48
430.259	3027.63
430.635	3046.61
431.011	3073.51
431.387	3164.35
431.763	3166.16
432.138	3228.3
432.514	3226.72
432.89	3254.29
433.265	3323.44
433.641	3382.65
434.016	3420.62
434.392	3446.38
434.767	3501.07
435.143	3507.85
435.518	3543.32
435.894	3587.62
436.269	3663.55
436.644	3701.06
437.02	3721.17
437.395	3742.19
437.77	3799.36
438.145	3851.34
438.52	3868.51
438.895	3946.93
439.271	3935.18
439.646	4006.14
440.021	4066.7
440.395	4079.36
440.77	3996.87
441.145	4094.5
441.52	4148.96
441.895	4159.13
442.27	4205.23
442.645	4188.96
443.019	4273.48
443.394	4217.88
443.769	4333.36
444.143	4262.4
444.518	4382.62
444.892	4415.39
445.267	4454.49
445.641	4432.12
446.016	4475.73
446.39	4506.24
446.764	4540.36
447.139	4534.03
447.513	4591.88
447.887	4592.34
448.262	4598.44
448.636	4655.84
449.01	4732.45
449.384	4758.21
449.758	4802.73
450.132	4807.7
450.506	4828.49
450.88	4908.26
451.254	4894.93
451.628	4960.46
452.002	5047.01
452.376	5028.03
452.75	5153.23
453.123	5130.18
453.497	5241.13
453.871	5311.41
454.244	5409.49
454.618	5429.83
454.992	5464.63
455.365	5462.14
455.739	5650.39
456.112	5683.16
456.486	5722.7
456.859	5772.42
457.232	5931.28
457.606	5915.69
457.979	5988.23
458.352	6102.35
458.725	6179.19
459.099	6230.26
459.472	6371.5
459.845	6422.12
460.218	6407.66
460.591	6487.88
460.964	6533.98
461.337	6677.48
461.71	6767.19
462.083	6875.89
462.456	6816.23
462.829	6922.67
463.201	7009.67
463.574	7075.89
463.947	7128.54
464.32	7311.36
464.692	7340.29
465.065	7377.57
465.438	7489.21
465.81	7622.99
466.183	7745.25
466.555	7838.81
466.928	7903.66
467.3	7855.08
467.672	8058.01
468.045	8266.82
468.417	8265.01
468.789	8336.87
469.161	8472.46
469.534	8643.08
469.906	8776.41
470.278	8825.45
470.65	8935.05
471.022	9059.34
471.394	9187.7
471.766	9352.89
472.138	9378.65
472.51	9642.6
472.882	9740
473.253	9876.49
473.625	9987
473.997	10209.36
474.369	10298.85
474.74	10393.31
475.112	10549.02
475.484	10736.13
475.855	10943.58
476.227	11073.07
476.598	11356.68
476.97	11381.08
477.341	11749.89
477.713	11831.47
478.084	11903.78
478.455	12255.19
478.827	12402.08
479.198	12709.41
479.569	12734.95
479.94	13108.27
480.311	13184.2
480.682	13514.59
481.053	13691.31
481.424	13964.75
481.795	14139.88
482.166	14330.39
482.537	14550.95
482.908	14849.47
483.279	14951.39
483.65	15243.81
484.021	15610.35
484.391	15669.56
484.762	15873.17
485.133	15948.65
485.503	16262.54
485.874	16635.41
486.244	16690.55
486.615	17096.64
486.985	17241.95
487.356	17474.71
487.726	17634.71
488.097	18059.1
488.467	18026.11
488.837	18417.28
489.207	18592.19
489.578	18918.97
489.948	19132.07
490.318	19397.15
490.688	19429.23
491.058	19704.48
491.428	19982.44
491.798	20170.91
492.168	20619.94
492.538	20560.5
492.908	20842.76
493.278	21088.17
493.648	21154.39
494.017	21464.21
494.387	21548.73
494.757	21724.54
495.126	22017.19
495.496	22056.06
495.866	22316.62
496.235	22490.85
496.605	22648.13
496.974	22845.87
497.344	23079.53
497.713	23231.39
498.082	23310.94
498.452	23548
498.821	23682.23
499.19	23837.93
499.559	24051.03
499.928	24262.55
500.298	24319.73
500.667	24633.17
501.036	24579.16
501.405	24817.12
501.774	24735.31
502.143	24949.09
502.512	25226.14
502.88	25441.05
503.249	25527.83
503.618	25782.74
503.987	25843.08
504.356	26097.99
504.724	26242.16
505.093	26290.52
505.462	26436.73
505.83	26683.06
506.199	26963.5
506.567	27192.42
506.936	27191.06
507.304	27514.9
507.672	27623.37
508.041	27750.82
508.409	27848
508.777	28248.89
509.145	28433.52
509.514	28394.2
509.882	28675.09
510.25	28875.99
510.618	29137.45
510.986	29201.86
511.354	29443.21
511.722	29735.18
512.09	29879.81
512.458	29919.13
512.826	30156.41
513.193	30388.04
513.561	30461.49
513.929	30908.48
514.297	31047.01
514.664	31488.13
515.032	31399.09
515.4	31678.4
515.767	31854.9
516.135	32159.97
516.502	31945.52
516.869	32651.49
517.237	32773.29
517.604	32710.02
517.972	33196.56
518.339	33448.3
518.706	33414.63
519.073	33613.04
519.44	33868.63
519.808	34344.32
520.175	34316.53
520.542	34767.59
520.909	34879.68
521.276	35081.48
521.643	35422.49
522.009	35667.9
522.376	35953.55
522.743	36210.04
523.11	36601.89
523.477	36890.02
523.843	37047.08
524.21	37346.73
524.577	37638.47
524.943	37970.89
525.31	38135.64
525.676	38597.77
526.043	38778.78
526.409	38881.6
526.776	39303.51
527.142	39319.56
527.508	39801.13
527.874	40010.39
528.241	40192.3
528.607	40364.73
528.973	40773.08
529.339	40952.96
529.705	41384.36
530.071	41592.27
530.437	41781.87
530.803	41978.02
531.169	42247.39
531.535	42174.4
531.901	42340.72
532.267	42609.19
532.632	42877.21
532.998	42974.38
533.364	43388.6
533.73	43477.64
534.095	43842.83
534.461	43918.31
534.826	44172.77
535.192	44421.35
535.557	44661.79
535.923	44650.72
536.288	44826.08
536.653	45071.5
537.019	45007.09
537.384	45260.87
537.749	45584.93
538.114	45559.4
538.479	45669
538.845	46140.62
539.21	46016.33
539.575	46359.83
539.94	46340.84
540.305	46727.27
540.67	46549.43
541.034	46900.15
541.399	47036.42
541.764	47064.89
542.129	47370.87
542.494	47390.53
542.858	47669.4
543.223	47611.09
543.587	47919.79
543.952	47934.93
544.316	48056.96
544.681	48238.19
545.045	48340.34
545.41	48534.01
545.774	48790.27
546.138	48700.33
546.503	49048.34
546.867	49078.85
547.231	49284.27
547.595	49458.05
547.959	49495.79
548.324	49561.32
548.688	49683.58
549.052	49881.99
549.416	49956.79
549.779	50125.15
550.143	50279.27
550.507	50418.48
550.871	50680.62
551.235	50742.54
551.599	50986.37
551.962	51003.32
552.326	51134.39
552.689	51266.82
553.053	51207.83
553.417	51326.48
553.78	51852.56
554.143	51689.86
554.507	51927.36
554.87	52038.32
555.234	52362.15
555.597	52213.68
555.96	52435.6
556.323	52615.25
556.686	52697.51
557.05	52935.47
557.413	53053.21
557.776	53172.08
558.139	53362.35
558.502	53434.89
558.865	53520.99
559.228	53731.16
559.59	53927.08
559.953	54038.95
560.316	54295.21
560.679	54307.64
561.041	54358.71
561.404	54624.24
561.767	54802.32
562.129	54717.12
562.492	55084.57
562.854	55146.26
563.217	55144.23
563.579	55252.25
563.941	55442.75
564.304	55625.8
564.666	55718.68
565.028	55813.36
565.39	55978.33
565.753	56102.62
566.115	56264.2
566.477	56293.58
566.839	56396.4
567.201	56621.03
567.563	56663.96
567.925	56856.05
568.287	56870.96
568.648	56922.94
569.01	57075.93
569.372	57257.84
569.734	57234.57
570.095	57405.64
570.457	57598.4
570.819	57581.45
571.18	57606.76
571.542	57770.83
571.903	57830.03
572.265	57933.31
572.626	58009.01
572.987	58086.75
573.349	58136.01
573.71	58290.81
574.071	58338.72
574.432	58383.92
574.794	58630.92
575.155	58560.18
575.516	58480.19
575.877	58680.63
576.238	58731.7
576.599	58777.8
576.96	58763.12
577.32	58856.9
577.681	58938.03
578.042	59016.67
578.403	59027.52
578.763	59033.39
579.124	59102.77
579.485	59211.47
579.845	59235.19
580.206	59245.82
580.566	59275.87
580.927	59314.74
581.287	59404.45
581.648	59285.14
582.008	59461.85
582.368	59367.39
582.728	59413.95
583.089	59359.94
583.449	59390.67
583.809	59461.63
584.169	59533.72
584.529	59468.18
584.889	59585.24
585.249	59436.32
585.609	59347.96
585.969	59538.01
586.329	59390.9
586.688	59613.94
587.048	59502.98
587.408	59533.94
587.768	59520.16
588.127	59537.33
588.487	59475.87
588.846	59642.41
589.206	59556.99
589.565	59518.35
589.925	59628.63
590.284	59553.83
590.643	59552.47
591.003	59626.82
591.362	59695.52
591.721	59707.72
592.08	59641.28
592.44	59714.96
592.799	59704.11
593.158	59658.46
593.517	59682.64
593.876	59784.56
594.235	59662.98
594.593	59718.12
594.952	59738.91
595.311	59697.33
595.67	59784.56
596.029	59868.4
596.387	59906.14
596.746	59916.08
597.104	59768.29
597.463	59909.53
597.822	59962.18
598.18	59861.17
598.538	59842.41
598.897	59988.17
599.255	59783.65
599.613	60153.81
599.972	59966.02
600.33	60049.64
600.688	59969.64
601.046	60050.54
601.404	60049.41
601.762	60057.77
602.12	60206.92
602.478	60203.98
602.836	60160.37
603.194	60075.85
603.552	60077.66
603.91	60096.87
604.268	60253.02
604.625	60202.85
604.983	60279.01
605.341	60144.77
605.698	60297.76
606.056	60320.59
606.413	60287.6
606.771	60383.86
607.128	60430.42
607.485	60250.31
607.843	60252.57
608.2	60411.89
608.557	60472.9
608.914	60396.75
609.272	60499.12
609.629	60567.59
609.986	60624.08
610.343	60551.32
610.7	60685.55
611.057	60682.39
611.414	60641.03
611.771	60688.49
612.127	60804.42
612.484	60766.45
612.841	60855.49
613.198	60777.07
613.554	60741.14
613.911	60911.53
614.267	60943.62
614.624	60849.84
614.98	60937.75
615.337	60982.27
615.693	60952.89
616.05	60970.29
616.406	61112.43
616.762	61073.79
617.118	61064.75
617.475	61082.15
617.831	61093.68
618.187	61172.09
618.543	61154.24
618.899	61245.08
619.255	61214.12
619.611	61146.33
619.967	61214.35
620.323	61248.02
620.678	61221.36
621.034	61169.83
621.39	61191.3
621.746	61138.87
622.101	61390.84
622.457	61144.97
622.812	61242.37
623.168	61235.82
623.523	61216.16
623.879	61334.12
624.234	61200.34
624.589	61278.76
624.945	61256.38
625.3	61262.71
625.655	61297.96
626.01	61328.92
626.365	61309.49
626.72	61260
627.075	61231.98
627.43	61264.75
627.785	61165.54
628.14	61274.01
628.495	61241.92
628.85	61215.93
629.205	61135.93
629.559	61262.03
629.914	61141.58
630.269	61170.74
630.623	61060.23
630.978	61012.32
631.332	61113.79
631.687	61141.13
632.041	61039.21
632.396	61041.47
632.75	60968.93
633.104	61069.72
633.459	60946.11
633.813	60917.64
634.167	60883.29
634.521	60893
634.875	60927.58
635.229	60897.98
635.583	60764.19
635.937	60736.62
636.291	60759.9
636.645	60769.39
636.999	60626.57
637.352	60678.55
637.706	60519.45
638.06	60639.9
638.413	60570.07
638.767	60554.48
639.121	60602.39
639.474	60441.94
639.828	60463.41
640.181	60488.04
640.534	60421.15
640.888	60359.01
641.241	60303.64
641.594	60362.17
641.947	60375.28
642.301	60195.39
642.654	60269.29
643.007	60262.74
643.36	60228.61
643.713	60186.36
644.066	60260.03
644.419	59963.08
644.771	59732.58
645.124	59313.84
645.477	59188.19
645.83	59197.91
646.182	59298.92
646.535	59350.22
646.888	59575.07
647.24	59384.12
647.593	59524.68
647.945	59535.75
648.298	59405.58
648.65	59335.08
649.002	59220.28
649.355	59186.61
649.707	59001.53
650.059	59010.34
650.411	59309.09
650.763	59408.3
651.115	59652.58
651.467	59651.23
651.819	59702.53
652.171	59490.78
652.523	59471.12
652.875	59510.67
653.227	59304.12
653.578	59573.72
653.93	59425.47
654.282	59363.33
654.633	59288.3
654.985	59380.5
655.337	59319.26
655.688	59343.67
656.039	59328.07
656.391	59126.04
656.742	59194.52
657.094	59263.89
657.445	59308.41
657.796	59225.02
658.147	59153.84
658.498	59118.59
658.849	59213.5
659.2	59110.45
659.551	59047.63
659.902	59202.65
660.253	59075.42
660.604	59098.47
660.955	58981.19
661.306	59025.03
661.656	58985.03
662.007	58979.38
662.358	58910
662.708	58895.99
663.059	58919.04
663.409	58683.12
663.76	58881.3
664.11	58909.55
664.461	58969.89
664.811	58982.55
665.161	58736
665.511	58741.42
665.862	58750.46
666.212	58832.04
666.562	58797.01
666.912	58804.47
667.262	58728.54
667.612	58752.95
667.962	58750.46
668.312	58655.1
668.662	58818.93
669.011	58739.61
669.361	58745.72
669.711	58666.62
670.06	58656
670.41	58569.45
670.76	58534.87
671.109	58655.77
671.459	58629.33
671.808	58518.38
672.157	58532.61
672.507	58442.9
672.856	58413.07
673.205	58446.29
673.554	58583.69
673.904	58454.88
674.253	58529.22
674.602	58459.4
674.951	58061.44
675.3	57914.32
675.649	58307.99
675.998	58327.87
676.346	58346.63
676.695	58442.45
677.044	58216.69
677.393	58275.67
677.741	58327.2
678.09	58244.49
678.438	58173.75
678.787	58198.16
679.135	58217.59
679.484	58031.38
679.832	58142.12
680.181	57873.65
680.529	57983.7
680.877	57948.45
681.225	57833.42
681.573	58023.7
681.922	57841.56
682.27	57789.36
682.618	57677.04
682.966	57668
683.314	57667.33
683.661	57556.37
684.009	57439.76
684.357	57304.62
684.705	57426.88
685.053	57422.36
685.4	57388.91
685.748	57252.65
686.095	57207.9
686.443	57207.45
686.79	57096.72
687.138	57210.39
687.485	57131.29
687.832	57054.46
688.18	57013.56
688.527	56862.6
688.874	56929.72
689.221	56892.43
689.568	56717.52
689.915	56627.13
690.262	56544.64
690.609	56547.81
690.956	56460.13
691.303	56479.11
691.65	56367.02
691.997	56348.72
692.344	56176.52
692.69	56075.28
693.037	56115.5
693.383	55934.26
693.73	55974.04
694.077	55782.86
694.423	55774.49
694.769	55687.04
695.116	55547.38
695.462	55593.93
695.808	55546.03
696.155	55520.26
696.501	55336.99
696.847	55398.91
697.193	55170.67
697.539	55197.56
697.885	54967.96
698.231	54843.67
698.577	54952.59
698.923	54917.12
699.269	54727.29
699.614	54593.73
699.96	54450.46
700.306	54476.22
700.651	54398.71
700.997	54306.51
701.342	54178.15
701.688	54197.13
702.033	54166.63
702.379	54109.9
702.724	53900.19
703.069	54031.49
703.415	53595.57
703.76	53715.34
704.105	53519.86
704.45	53574.55
704.795	53370.72
705.14	53365.74
705.485	53318.29
705.83	53317.84
706.175	53309.47
706.52	53239.65
706.865	52982.93
707.209	52983.15
707.554	52835.59
707.899	52824.29
708.243	52647.12
708.588	52766.89
708.932	52387.69
709.277	52382.04
709.621	52363.28
709.966	52264.98
710.31	52310.63
710.654	52034.03
710.998	52112.67
711.342	52020.02
711.687	51893.47
712.031	51755.39
712.375	51556.53
712.719	51699.57
713.063	51596.07
713.407	51634.94
713.75	51578.67
714.094	51488.5
714.438	51328.96
714.782	51306.81
715.125	51137.78
715.469	51247.61
715.812	51041.74
716.156	50967.39
716.499	50898.24
716.843	50920.61
717.186	50664.12
717.53	50853.72
717.873	50900.95
718.216	50662.99
718.559	50485.14
718.902	50312.94
719.246	50370.79
719.589	50173.96
719.932	50039.28
720.275	50113.17
720.617	49944.82
720.96	49971.48
721.303	49968.77
721.646	49889
721.989	49602.45
722.331	49709.34
722.674	49618.27
723.016	49522
723.359	49495.56
723.701	49640.42
724.044	49308.68
724.386	49167.66
724.729	49305.51
725.071	49190.49
725.413	49035.46
725.755	49074.33
726.097	48859.65
726.439	48825.52
726.782	48814
727.124	48884.51
727.465	48631.86
727.807	48475.25
728.149	48513.22
728.491	48506.89
728.833	48455.14
729.175	48281.58
729.516	48127.92
729.858	48156.62
730.199	48083.85
730.541	48055.83
730.882	47923.85
731.224	48112.77
731.565	47795.95
731.906	47725.21
732.248	47768.38
732.589	47628.95
732.93	47477.08
733.271	47331.55
733.612	47346.69
733.953	47383.08
734.294	47181.27
734.635	47115.74
734.976	47307.15
735.317	46951.9
735.658	47041.39
735.999	46900.83
736.339	46674.39
736.68	47014.72
737.021	46609.76
737.361	46405.47
737.702	46758.46
738.042	46546.04
738.383	46537.67
738.723	46548.52
739.063	46281.86
739.404	46368.41
739.744	46191.92
740.084	45989.67
740.424	45928.43
740.764	46021.76
741.104	46039.38
741.444	45891.36
741.784	45828.31
742.124	45806.39
742.464	45815.89
742.804	45694.08
743.143	45510.13
743.483	45618.38
743.823	45430.81
744.162	45479.62
744.502	45499.06
744.841	45121.21
745.181	45307.42
745.52	45128.45
745.86	45078.5
746.199	44887.32
746.538	44724.61
746.877	44820.88
747.216	44771.39
747.556	44610.72
747.895	44519.42
748.234	44322.37
748.573	44258.86
748.911	44457.73
749.25	44214.57
749.589	43994.69
749.928	44049.15
750.267	44008.48
750.605	43861.36
750.944	43697.52
751.283	43707.24
751.621	43775.49
751.96	43476.51
752.298	43563.74
752.636	43490.98
752.975	43231.55
753.313	43237.2
753.651	43284.2
753.989	42986.81
754.327	42943.64
754.666	42725.57
755.004	42893.93
755.342	42808.06
755.679	42491.45
756.017	42514.5
756.355	42400.16
756.693	42135.76
757.031	42184.57
757.368	42024.35
757.706	42011.69
758.044	41767.18
758.381	41804.24
758.719	41629.1
759.056	41655.54
759.394	41440.41
759.731	41332.61
760.068	41093.07
760.405	41001.55
760.743	40933.53
761.08	40879.29
761.417	40562.46
761.754	40463.03
762.091	40456.03
762.428	40279.99
762.765	40016.72
763.102	40082.25
763.438	39900.34
763.775	39690.62
764.112	39790.28
764.449	39760
764.785	39611.08
765.122	39370.63
765.458	39108.94
765.795	39024.2
766.131	38990.53
766.467	38839.35
766.804	38628.28
767.14	38436.19
767.476	38448.17
767.812	38343.54
768.148	38254.05
768.485	37948.97
768.821	37708.75
769.157	37944
769.492	37621.98
769.828	37670.56
770.164	37352.15
770.5	37128.2
770.836	37113.74
771.171	36962.56
771.507	36799.17
771.842	36636.24
772.178	36644.6
772.513	36459.97
772.849	36469.46
773.184	36149.02
773.519	36178.62
773.855	35888.24
774.19	35844.17
774.525	35585.42
774.86	35550.17
775.195	35496.16
775.53	35300.91
775.865	35219.33
776.2	34910.64
776.535	34682.62
776.87	34752.9
777.205	34552.23
777.539	34330.76
777.874	34302.29
778.209	34145.68
778.543	34143.88
778.878	33837.9
779.212	34032.01
779.547	33612.14
779.881	33849.87
780.215	33390.9
780.55	33493.72
780.884	33117.69
781.218	33087.63
781.552	32928.77
781.886	32823.01
782.22	32750.92
782.554	32601.32
782.888	32295.56
783.222	32247.88
783.556	32106.64
783.889	31922.01
784.223	31840.21
784.557	31818.06
784.89	31707.1
785.224	31605.64
785.557	31577.84
785.891	31376.27
786.224	31252.88
786.558	31228.02
786.891	30987.58
787.224	30721.82
787.557	30802.72
787.891	30524.08
788.224	30630.75
788.557	30507.36
788.89	30510.53
789.223	30402.05
789.556	30192.79
789.888	30041.16
790.221	29921.16
790.554	29574.05
790.887	29736.53
791.219	29595.52
791.552	29395.53
791.884	29329.31
792.217	29287.28
792.549	29136.1
792.882	28903.11
793.214	28839.61
793.546	28830.34
793.879	28546.74
794.211	28591.48
794.543	28676
794.875	28370.02
795.207	28569.11
795.539	28226.52
795.871	28243.24
796.203	27987.2
796.535	27798.28
796.867	27805.06
797.198	27643.93
797.53	27544.73
797.862	27431.74
798.193	27490.04
798.525	27387.67
798.856	27323.72
799.188	27066.1
799.519	26917.4
799.85	26798.98
800.182	26783.17
800.513	26824.97
800.844	26489.61
801.175	26664.07
801.506	26651.64
801.837	26307.02
802.168	26299.56
802.499	26256.4
802.83	26120.81
803.161	26010.98
803.491	26029.51
803.822	25893.92
804.153	25885.79
804.483	25594.72
804.814	25506.36
805.145	25582.29
805.475	25470.88
805.805	25404.9
806.136	25381.17
806.466	25333.71
806.796	25234.51
807.126	25027.28
807.457	25017.79
807.787	25045.13
808.117	24829.54
808.447	24788.42
808.777	24843.1
809.107	24570.34
809.436	24657.8
809.766	24542.09
810.096	24429.78
810.426	24475.66
810.755	24433.85
811.085	24339.39
811.414	24358.82
811.744	24065.05
812.073	23978.95
812.403	24151.6
812.732	23859.4
813.061	23914.31
813.39	23700.31
813.719	23605.17
814.049	23757.71
814.378	23727.88
814.707	23477.04
815.036	23559.75
815.365	23315.91
815.693	23163.15
816.022	23152.07
816.351	23034.79
816.68	22996.15
817.008	23016.49
817.337	22776.04
817.665	22653.56
817.994	22732.88
818.322	22767
818.651	22668.7
818.979	22513.9
819.307	22498.31
819.636	22529.04
819.964	22281.14
820.292	22441.59
820.62	22411.98
820.948	22287.24
821.276	22407.01
821.604	22327.69
821.932	22443.17
822.259	22477.29
822.587	22407.01
822.915	22207.24
823.243	22330.4
823.57	22174.02
823.898	22288.14
824.225	22178.09
824.553	22153.91
824.88	22189.84
825.207	22233
825.535	21995.95
825.862	22125.44
826.189	22125.89
826.516	22139.9
826.843	22191.65
827.17	22117.07
827.497	22123.18
827.824	22028.94
828.151	22149.84
828.478	22019.22
828.805	22132.67
829.131	22094.02
829.458	22147.13
829.785	21890.41
830.111	22033.01
830.438	22121.14
830.764	22049.96
831.09	22100.8
831.417	21944.42
831.743	22064.42
832.069	21979.9
832.395	21905.78
832.722	21995.27
833.048	21858.32
833.374	21978.77
833.7	21866.01
834.026	21816.29
834.351	21917.08
834.677	21864.43
835.003	21863.97
835.329	21579.91
835.654	21713.47
835.98	21719.57
836.306	21691.1
836.631	21586.92
836.956	21625.79
837.282	21617.2
837.607	21532
837.932	21521.38
838.258	21586.47
838.583	21546.24
838.908	21346.47
839.233	21348.51
839.558	21387.83
839.883	21288.17
840.208	21163.88
840.533	21271.67
840.858	21255.63
841.182	21255.18
841.507	21293.82
841.832	21163.65
842.156	21116.2
842.481	21037.33
842.805	21026.93
843.13	20942.64
843.454	20943.77
843.778	20941.96
844.103	20777.22
844.427	20753.27
844.751	20840.5
845.075	20598.47
845.399	20531.58
845.723	20348.31
846.047	20595.76
846.371	20392.6
846.695	20425.14
847.019	20173.62
847.343	20015.66
847.666	19954.87
847.99	19825.16
848.313	19837.81
848.637	19773.63
848.96	19666.29
849.284	19668.1
849.607	19566.41
849.931	19540.64
850.254	19332.97
850.577	19331.16
850.9	19142.69
851.223	19150.82
851.546	19014.56
851.869	18937.72
852.192	19088.23
852.515	18865.41
852.838	18782.47
853.161	18768.46
853.483	18668.35
853.806	18600.78
854.129	18651.85
854.451	18606.66
854.774	18453.22
855.096	18357.17
855.419	18350.17
855.741	18331.86
856.063	18219.55
856.385	18103.85
856.708	18184.75
857.03	18075.6
857.352	18122.83
857.674	18051.87
857.996	17936.17
858.318	17804.42
858.64	17836.28
858.961	17798.77
859.283	17608.04
859.605	17574.82
859.926	17681.71
860.248	17649.62
860.57	17452.34
860.891	17578.89
861.212	17429.74
861.534	17376.18
861.855	17357.65
862.176	17440.13
862.498	17319.69
862.819	17364.43
863.14	17095.96
863.461	17201.5
863.782	17147.04
864.103	17189.97
864.424	17126.92
864.745	17124.21
865.065	17097.32
865.386	17039.92
865.707	16934.84
866.027	17026.13
866.348	17067.94
866.668	17035.4
866.989	16887.38
867.309	16807.83
867.63	16816.87
867.95	16906.59
868.27	16667.05
868.59	16727.16
868.91	16687.84
869.23	16665.92
869.55	16666.82
869.87	16779.36
870.19	16677.89
870.51	16751.11
870.83	16713.83
871.15	16514.96
871.469	16549.76
871.789	16609.65
872.109	16531.68
872.428	16528.75
872.748	16584.56
873.067	16476.77
873.386	16463.44
873.706	16365.59
874.025	16362.2
874.344	16246.27
874.663	16266.15
874.982	16243.1
875.301	16308.64
875.62	16225.48
875.939	16248.3
876.258	16296.44
876.577	16137.8
876.896	16172.15
877.214	16177.57
877.533	16081.3
877.852	16122.66
878.17	16056.89
878.489	16087.63
878.807	16019.38
879.125	15942.32
879.444	16053.73
879.762	15967.86
880.08	15913.62
880.398	15818.71
880.716	15917.24
881.034	15863
881.352	15837.69
881.67	15838.37
881.988	15844.92
882.306	15618.26
882.624	15589.34
882.941	15574.2
883.259	15514.31
883.577	15605.15
883.894	15552.05
884.212	15465.05
884.529	15463.69
884.846	15429.11
885.164	15383.24
885.481	15362.45
885.798	15451.26
886.115	15199.97
886.432	15277.48
886.75	15225.96
887.067	15230.25
887.383	15207.88
887.7	15194.32
888.017	15067.32
888.334	15135.56
888.651	15127.65
888.967	15058.28
889.284	14964.04
889.6	14988.22
889.917	14873.42
890.233	14907.32
890.55	14818.73
890.866	14769.47
891.182	14805.63
891.498	14725.63
891.815	14671.39
892.131	14618.97
892.447	14534
892.763	14484.28
893.079	14538.29
893.395	14442.7
893.71	14456.03
894.026	14386.2
894.342	14397.95
894.657	14299.43
894.973	14357.5
895.289	14225.3
895.604	14270.73
895.92	14045.42
896.235	14077.74
896.55	14097.17
896.865	13987.12
897.181	13954.8
897.496	13968.59
897.811	13844.75
898.126	13846.56
898.441	13789.61
898.756	13822.6
899.071	13727.24
899.386	13674.81
899.7	13527.47
900.015	13592.33
900.33	13471.43
900.644	13413.35
900.959	13442.73
901.273	13362.05
901.588	13334.25
901.902	13297.19
902.216	13197.08
902.531	13281.83
902.845	13189.62
903.159	13073.47
903.473	13089.06
903.787	13092.23
904.101	12968.39
904.415	12942.85
904.729	12888.84
905.042	12862.4
905.356	12792.12
905.67	12723.87
905.984	12732.46
906.297	12673.71
906.611	12547.61
906.924	12509.42
907.237	12570.21
907.551	12472.81
907.864	12452.7
908.177	12411.11
908.491	12304
908.804	12223.55
909.117	12272.81
909.43	12162.08
909.743	12037.79
910.056	12044.8
910.368	12080.05
910.681	11995.98
910.994	11972.48
911.307	11871.24
911.619	11774.29
911.932	11878.47
912.244	11743.34
912.557	11742.66
912.869	11594.64
913.181	11583.57
913.494	11604.36
913.806	11493.4
914.118	11386.06
914.43	11360.97
914.742	11359.62
915.054	11313.74
915.366	11300.86
915.678	11250.01
915.99	11250.01
916.302	11179.96
916.613	11134.31
916.925	11122.79
917.236	11086.63
917.548	10967.31
917.859	11019.96
918.171	10900.19
918.482	10888.67
918.794	10693.65
919.105	10730.71
919.416	10674.66
919.727	10670.14
920.038	10612.52
920.349	10553.99
920.66	10467.21
920.971	10472.63
921.282	10348.12
921.593	10304.5
921.903	10333.43
922.214	10313.99
922.525	10222.92
922.835	10240.32
923.146	10100.89
923.456	10150.83
923.767	9988.81
924.077	10082.81
924.387	10009.6
924.697	9993.32
925.008	9992.87
925.318	9866.55
925.628	9829.49
925.938	9722.37
926.248	9705.42
926.558	9683.05
926.867	9654.35
927.177	9540.68
927.487	9519.44
927.796	9483.51
928.106	9473.56
928.416	9461.14
928.725	9450.29
929.034	9326.22
929.344	9371.87
929.653	9315.15
929.962	9304.98
930.271	9240.35
930.581	9193.35
930.89	9122.16
931.199	9163.52
931.508	9053.91
931.817	9016.4
932.125	8966.91
932.434	8924.88
932.743	8897.31
933.051	8829.06
933.36	8795.84
933.669	8752.23
933.977	8700.25
934.286	8747.03
934.594	8690.99
934.902	8659.12
935.21	8636.3
935.519	8573.25
935.827	8582.97
936.135	8447.15
936.443	8427.49
936.751	8361.05
937.059	8387.72
937.367	8294.84
937.674	8335.97
937.982	8230.43
938.29	8179.59
938.597	8227.72
938.905	8076.31
939.213	8120.38
939.52	8039.48
939.827	8065.47
940.135	7937.33
940.442	7983.21
940.749	7969.2
941.056	7951.12
941.363	7880.39
941.67	7826.38
941.977	7825.02
942.284	7718.58
942.591	7732.14
942.898	7658.47
943.205	7647.17
943.511	7643.78
943.818	7620.96
944.125	7564.91
944.431	7505.71
944.738	7466.16
945.044	7457.12
945.35	7442.43
945.657	7398.82
945.963	7400.17
946.269	7342.55
946.575	7283.11
946.881	7245.6
947.187	7244.02
947.493	7171.48
947.799	7153.63
948.105	7082.67
948.41	7059.84
948.716	7017.36
949.022	7021.88
949.327	7081.76
949.633	6973.29
949.938	6933.29
950.244	6939.39
950.549	6894.88
950.854	6845.61
951.16	6793.41
951.465	6794.31
951.77	6750.02
952.075	6712.73
952.38	6702.34
952.685	6749.79
952.99	6681.55
953.294	6585.28
953.599	6589.35
953.904	6509.8
954.209	6471.84
954.513	6445.85
954.818	6481.78
955.122	6440.65
955.426	6453.98
955.731	6340.09
956.035	6302.12
956.339	6333.31
956.643	6285.17
956.948	6285.63
957.252	6229.81
957.556	6213.76
957.86	6191.16
958.163	6152.52
958.467	6111.39
958.771	6153.88
959.075	6110.94
959.378	6079.76
959.682	6020.77
959.985	5996.82
960.289	5965.18
960.592	5928.12
960.896	5982.36
961.199	5847.9
961.502	5843.6
961.805	5793.44
962.108	5814.68
962.411	5789.14
962.714	5730.84
963.017	5733.78
963.32	5710.5
963.623	5727.67
963.926	5682.7
964.228	5660.11
964.531	5590.05
964.833	5607.23
965.136	5593.89
965.438	5514.35
965.741	5505.08
966.043	5485.19
966.345	5484.97
966.648	5442.03
966.95	5485.87
967.252	5374.46
967.554	5360
967.856	5355.25
968.158	5297.63
968.46	5279.1
968.761	5216.5
969.063	5265.31
969.365	5172.66
969.666	5162.49
969.968	5189.61
970.269	5138.09
970.571	5083.4
970.872	5095.37
971.174	5052.89
971.475	5039.56
971.776	5041.14
972.077	5038.88
972.378	4999.33
972.679	4995.94
972.98	4941.93
973.281	4941.25
973.582	4864.42
973.883	4875.72
974.183	4827.81
974.484	4835.27
974.785	4839.79
975.085	4802.27
975.386	4835.27
975.686	4791.2
975.986	4734.25
976.287	4677.76
976.587	4642.05
976.887	4664.65
977.187	4684.31
977.487	4644.76
977.787	4585.56
978.087	4546.46
978.387	4564.09
978.687	4547.37
978.987	4527.93
979.286	4490.87
979.586	4521.38
979.885	4417.43
980.185	4431.66
980.484	4388.05
980.784	4390.53
981.083	4335.62
981.382	4380.82
981.682	4388.05
981.981	4309.63
982.28	4310.76
982.579	4248.84
982.878	4289.52
983.177	4191.67
983.475	4208.84
983.774	4128.62
984.073	4122.52
984.372	4145.12
984.67	4085.46
984.969	4138.56
985.267	4116.87
985.566	4068.73
985.864	4019.02
986.162	4042.75
986.461	3968.62
986.759	4003.2
987.057	3962.52
987.355	3954.16
987.653	3951
987.951	3934.5
988.249	3879.14
988.547	3877.33
988.844	3832.36
989.142	3843.2
989.44	3811.34
989.737	3793.26
990.035	3821.28
990.332	3791.68
990.63	3785.35
990.927	3726.6
991.224	3729.99
991.521	3705.13
991.819	3705.58
992.116	3656.54
992.413	3642.76
992.71	3635.3
993.006	3580.39
993.303	3607.28
993.6	3577.22
993.897	3548.52
994.193	3516.21
994.49	3534.51
994.787	3514.17
995.083	3459.94
995.379	3448.19
995.676	3433.95
995.972	3445.02
996.268	3415.87
996.565	3405.93
996.861	3364.35
997.157	3343.1
997.453	3338.13
997.749	3321.41
998.044	3328.19
998.34	3326.83
998.636	3282.09
998.932	3256.55
999.227	3192.15
999.523	3210.23
999.818	3196.67
1000.114	3212.49
1000.409	3141.08
1000.704	3141.08
1001	3166.39
1001.295	3152.6
1001.59	3114.41
1001.885	3068.08
1002.18	3032.15
1002.475	3017.46
1002.77	3039.84
1003.065	3050
1003.359	2983.34
1003.654	2955.54
1003.949	2953.74
1004.243	2921.19
1004.538	2901.76
1004.832	2900.4
1005.127	2870.12
1005.421	2857.24
1005.715	2828.99
1006.009	2880.52
1006.304	2859.95
1006.598	2815.89
1006.892	2824.47
1007.186	2763.91
1007.48	2748.09
1007.773	2740.18
1008.067	2715.55
1008.361	2696.79
1008.655	2684.59
1008.948	2680.52
1009.242	2662.9
1009.535	2657.02
1009.829	2631.71
1010.122	2603.24
1010.415	2592.62
1010.708	2564.82
1011.001	2567.76
1011.295	2559.17
1011.588	2495.44
1011.881	2496.12
1012.173	2502.22
1012.466	2486.4
1012.759	2485.95
1013.052	2438.95
1013.344	2431.72
1013.637	2438.72
1013.93	2417.25
1014.222	2365.5
1014.514	2379.74
1014.807	2382.23
1015.099	2357.59
1015.391	2309.01
1015.683	2309.23
1015.976	2321.89
1016.268	2297.03
1016.56	2297.03
1016.851	2239.86
1017.143	2253.19
1017.435	2187.43
1017.727	2210.25
1018.018	2193.76
1018.31	2140.88
1018.602	2160.54
1018.893	2109.01
1019.185	2090.71
1019.476	2108.56
1019.767	2097.71
1020.058	2077.15
1020.35	2061.56
1020.641	2020.2
1020.932	2032.4
1021.223	2018.85
1021.514	2000.77
1021.804	1987.21
1022.095	1925.29
1022.386	1972.07
1022.677	1944.72
1022.967	1934.1
1023.258	1904.5
1023.548	1871.73
1023.839	1893.65
1024.129	1852.97
1024.419	1838.96
1024.709	1841.9
1025	1828.79
1025.29	1836.7
1025.58	1806.2
1025.87	1776.37
1026.16	1774.56
1026.449	1757.84
1026.739	1746.54
1027.029	1757.61
1027.319	1727.55
1027.608	1742.24
1027.898	1696.82
1028.187	1702.24
1028.477	1705.86
1028.766	1694.79
1029.055	1643.49
1029.344	1673.09
1029.634	1631.51
1029.923	1632.41
1030.212	1621.12
1030.501	1607.78
1030.79	1590.38
1031.078	1575.47
1031.367	1544.28
1031.656	1524.62
1031.945	1541.34
1032.233	1512.42
1032.522	1504.51
1032.81	1522.36
1033.099	1477.16
1033.387	1495.92
1033.675	1476.26
1033.963	1446.66
1034.251	1432.19
1034.54	1445.53
1034.828	1414.12
1035.116	1405.53
1035.403	1385.87
1035.691	1399.65
1035.979	1403.95
1036.267	1372.53
1036.554	1387.68
1036.842	1327.34
1037.129	1340.67
1037.417	1300.45
1037.704	1320.11
1037.992	1344.51
1038.279	1317.39
1038.566	1301.12
1038.853	1301.12
1039.14	1301.12
