Data from foil_FLMS001491_043.txt Node
Date: Tue Feb 07 11:26:56 GMT 2017
User: dcchb
Spectrometer: FLMS00149
Trigger mode: 0
Integration Time (sec): 2.000000E-2
Scans to average: 10
Electric dark correction enabled: true
Nonlinearity correction enabled: false
Boxcar width: 0
XAxis mode: Wavelengths
Number of Pixels in Spectrum: 2048
>>>>>Begin Spectral Data<<<<<
341.393	-13.6
341.776	-13.6
342.16	-13.6
342.543	-50.44
342.927	-73.03
343.31	-77.1
343.693	-81.85
344.077	-68.06
344.46	-48.85
344.843	-41.4
345.226	-47.27
345.61	-36.65
345.993	-29.42
346.376	-2.53
346.759	9.45
347.142	30.24
347.525	43.8
347.908	77.24
348.291	88.32
348.674	84.02
349.057	100.07
349.44	121.99
349.823	137.58
350.206	175.77
350.588	233.17
350.971	258.03
351.354	292.83
351.737	315.2
352.119	295.54
352.502	310.23
352.884	322.66
353.267	359.27
353.65	352.72
354.032	361.76
354.414	383.22
354.797	404.69
355.179	380.29
355.562	373.96
355.944	386.84
356.326	392.94
356.709	398.59
357.091	406.5
357.473	423.45
357.855	436.1
358.238	431.13
358.62	404.47
359.002	440.85
359.384	432.94
359.766	408.76
360.148	417.57
360.53	428.65
360.912	410.34
361.294	441.98
361.676	428.65
362.057	440.85
362.439	417.57
362.821	447.63
363.203	419.61
363.584	411.47
363.966	404.01
364.348	407.63
364.729	430
365.111	417.12
365.493	415.77
365.874	418.03
366.256	427.74
366.637	411.25
367.019	447.63
367.4	438.36
367.781	450.34
368.163	447.86
368.544	428.87
368.925	432.04
369.306	458.7
369.688	453.51
370.069	434.52
370.45	446.05
370.831	445.82
371.212	439.95
371.593	474.75
371.974	461.41
372.355	461.87
372.736	476.78
373.117	474.75
373.498	477.46
373.879	461.19
374.26	463.22
374.641	441.53
375.021	477.01
375.402	498.02
375.783	493.5
376.163	524.69
376.544	506.61
376.925	514.52
377.305	496.22
377.686	491.92
378.066	493.5
378.447	519.27
378.827	513.16
379.208	533.5
379.588	540.28
379.968	522.43
380.349	532.82
380.729	545.03
381.109	526.05
381.489	550
381.87	543.67
382.25	581.19
382.63	578.93
383.01	579.38
383.39	593.61
383.77	575.99
384.15	585.03
384.53	599.72
384.91	613.5
385.29	618.7
385.67	615.76
386.049	625.48
386.429	622.77
386.809	618.92
387.189	647.4
387.568	630
387.948	647.62
388.328	675.19
388.707	705.93
389.087	676.1
389.466	685.82
389.846	687.62
390.225	693.95
390.605	688.08
390.984	688.08
391.363	724.68
391.743	721.29
392.122	727.62
392.501	738.92
392.881	761.07
393.26	774.85
393.639	783.21
394.018	772.82
394.397	759.71
394.776	786.15
395.155	822.31
395.534	815.3
395.913	806.04
396.292	836.55
396.671	821.18
397.05	839.03
397.429	834.06
397.808	822.53
398.186	870.44
398.565	878.58
398.944	863.89
399.323	889.2
399.701	892.36
400.08	911.12
400.458	900.27
400.837	919.26
401.215	928.07
401.594	945.92
401.972	943.89
402.351	940.72
402.729	964.9
403.107	965.36
403.486	981.63
403.864	963.77
404.242	1003.1
404.62	1023.66
404.999	998.58
405.377	1034.28
405.755	1067.95
406.133	1060.49
406.511	1069.31
406.889	1102.3
407.267	1110.89
407.645	1090.55
408.023	1128.97
408.401	1162.86
408.779	1154.28
409.156	1192.69
409.534	1166.03
409.912	1195.63
410.29	1233.37
410.667	1244.44
411.045	1241.28
411.422	1273.14
411.8	1265.46
412.178	1320.15
412.555	1305.23
412.933	1335.29
413.31	1350.66
413.687	1366.93
414.065	1389.98
414.442	1389.98
414.819	1411.9
415.197	1395.85
415.574	1472.91
415.951	1459.58
416.328	1496.64
416.705	1472.69
417.082	1496.64
417.46	1529.63
417.837	1537.32
418.214	1556.98
418.591	1565.34
418.967	1562.85
419.344	1587.03
419.721	1599.24
420.098	1620.71
420.475	1623.42
420.852	1628.16
421.228	1674.04
421.605	1692.57
421.982	1724.21
422.358	1693.7
422.735	1728.05
423.111	1759.46
423.488	1776.86
423.864	1788.84
424.241	1822.73
424.617	1815.73
424.994	1809.18
425.37	1861.38
425.746	1859.12
426.123	1918.33
426.499	1901.38
426.875	1942.73
427.251	1968.27
427.627	1984.99
428.003	2038.55
428.379	2049.85
428.756	2053.69
429.132	2133.01
429.507	2155.16
429.883	2134.36
430.259	2201.03
430.635	2218.66
431.011	2247.58
431.387	2264.08
431.763	2318.77
432.138	2286.45
432.514	2358.09
432.89	2370.74
433.265	2461.59
433.641	2451.42
434.016	2475.6
434.392	2527.35
434.767	2594.69
435.143	2541.13
435.518	2592.43
435.894	2619.78
436.269	2672.2
436.644	2669.72
437.02	2708.81
437.395	2729.6
437.77	2771.18
438.145	2799.88
438.52	2845.08
438.895	2880.33
439.271	2869.94
439.646	2930.5
440.021	2982.03
440.395	2975.47
440.77	2942.93
441.145	3006.66
441.52	3078.29
441.895	3047.11
442.27	3103.83
442.645	3072.87
443.019	3138.18
443.394	3172.53
443.769	3201
444.143	3147.45
444.518	3260.66
444.892	3215.01
445.267	3299.53
445.641	3296.82
446.016	3325.52
446.39	3347.21
446.764	3332.3
447.139	3402.81
447.513	3409.36
447.887	3445.97
448.262	3470.83
448.636	3528
449.01	3528.9
449.384	3589.92
449.758	3566.42
450.132	3623.82
450.506	3610.03
450.88	3666.53
451.254	3689.35
451.628	3784.04
452.002	3804.6
452.376	3800.99
452.75	3859.97
453.123	3841.89
453.497	3913.98
453.871	3921.89
454.244	4045.05
454.618	4071.26
454.992	4087.53
455.365	4120.3
455.739	4235.33
456.112	4259.28
456.486	4272.39
456.859	4304.48
457.232	4355.55
457.606	4423.8
457.979	4437.58
458.352	4554.19
458.725	4601.42
459.099	4589.67
459.472	4711.47
459.845	4761.64
460.218	4737.46
460.591	4852.49
460.964	4875.08
461.337	4977.91
461.71	5038.7
462.083	5122.31
462.456	5127.96
462.829	5121.4
463.201	5202.53
463.574	5243.21
463.947	5327.05
464.32	5434.17
464.692	5449.31
465.065	5545.35
465.438	5595.97
465.81	5704.44
466.183	5740.37
466.555	5833.93
466.928	5889.75
467.3	5833.48
467.672	5951.21
468.045	6110.98
468.417	6137.42
468.789	6131.1
469.161	6213.35
469.534	6378.77
469.906	6518.43
470.278	6482.73
470.65	6694.7
471.022	6784.64
471.394	6833.68
471.766	6929.72
472.138	6988.47
472.51	7114.35
472.882	7219.43
473.253	7336.49
473.625	7375.36
473.997	7598.85
474.369	7587.55
474.74	7697.38
475.112	7806.98
475.484	7915.91
475.855	8135.34
476.227	8144.83
476.598	8465.72
476.97	8520.19
477.341	8668.2
477.713	8723.12
478.084	8800.4
478.455	9068.42
478.827	9098.7
479.198	9429.09
479.569	9406.26
479.94	9632.02
480.311	9759.93
480.682	9991.79
481.053	10167.6
481.424	10352.91
481.795	10490.08
482.166	10591.77
482.537	10749.05
482.908	10980.01
483.279	11121.47
483.65	11344.29
484.021	11495.93
484.391	11623.15
484.762	11731.63
485.133	11869.02
485.503	12088
485.874	12224.27
486.244	12412.96
486.615	12637.82
486.985	12791.71
487.356	12958.49
487.726	13084.81
488.097	13397.8
488.467	13342.66
488.837	13697.68
489.207	13803.21
489.578	14049.08
489.948	14131.11
490.318	14452.91
490.688	14455.17
491.058	14702.17
491.428	14895.61
491.798	14958.89
492.168	15378.54
492.538	15349.84
492.908	15564.07
493.278	15780.33
493.648	15799.32
494.017	16016.94
494.387	16122.92
494.757	16262.58
495.126	16406.31
495.496	16492.41
495.866	16635.68
496.235	16872.51
496.605	16914.99
496.974	17048.77
497.344	17295.1
497.713	17399.05
498.082	17562.21
498.452	17745.48
498.821	17756.78
499.19	17776.67
499.559	17978.69
499.928	18206.94
500.298	18232.7
500.667	18427.72
501.036	18422.75
501.405	18722.86
501.774	18709.97
502.143	18860.7
502.512	18895.96
502.88	19169.85
503.249	19154.71
503.618	19283.07
503.987	19452.1
504.356	19647.8
504.724	19703.62
505.093	19777.29
505.462	19970.73
505.83	20000.11
506.199	20123.5
506.567	20503.37
506.936	20391.29
507.304	20781.78
507.672	20802.35
508.041	20810.94
508.409	21119.63
508.777	21194.88
509.145	21424.03
509.514	21490.47
509.882	21645.04
510.25	21747.41
510.618	21868.54
510.986	22073.05
511.354	22233.95
511.722	22426.03
512.09	22639.36
512.458	22734.95
512.826	22856.76
513.193	22968.39
513.561	23068.73
513.929	23286.8
514.297	23544.88
514.664	23718.2
515.032	23762.5
515.4	23975.37
515.767	24098.31
516.135	24235.7
516.502	24135.82
516.869	24687.67
517.237	24707.56
517.604	24762.24
517.972	25071.16
518.339	25265.28
518.706	25341.66
519.073	25482.9
519.44	25704.14
519.808	25977.13
520.175	26002.66
520.542	26405.14
520.909	26517
521.276	26538.69
521.643	26847.16
522.009	27136.87
522.376	27117.44
522.743	27432.68
523.11	27641.72
523.477	28006.45
523.843	28072.67
524.21	28326.22
524.577	28541.35
524.943	28718.98
525.31	28919.65
525.676	29156.93
526.043	29408.9
526.409	29543.81
526.776	29904.48
527.142	29974.08
527.508	30027.87
527.874	30332.04
528.241	30544.47
528.607	30591.47
528.973	30886.83
529.339	31059.25
529.705	31282.98
530.071	31632.57
530.437	31707.6
530.803	31930.87
531.169	32076.63
531.535	32050.87
531.901	32263.74
532.267	32467.8
532.632	32691.98
532.998	32809.26
533.364	32976.49
533.73	33068.69
534.095	33403.83
534.461	33439.3
534.826	33733.99
535.192	33740.99
535.557	34198.15
535.923	34089.68
536.288	34398.38
536.653	34449.45
537.019	34389.56
537.384	34577.81
537.749	34759.04
538.114	34832.71
538.479	34935.54
538.845	35200.84
539.21	35036.32
539.575	35315.19
539.94	35398.35
540.305	35768.51
540.67	35648.74
541.034	35918.79
541.399	35926.7
541.764	36221.38
542.129	36333.47
542.494	36407.36
542.858	36483.29
543.223	36713.79
543.587	36851.19
543.952	36916.28
544.316	37051.64
544.681	37096.16
545.045	37214.35
545.41	37583.83
545.774	37555.35
546.138	37647.78
546.503	37881
546.867	37781.11
547.231	38247.54
547.595	38160.08
547.959	38272.17
548.324	38393.75
548.688	38547.42
549.052	38805.72
549.416	38973.17
549.779	38926.62
550.143	39198.47
550.507	39302.88
550.871	39481.41
551.235	39573.15
551.599	39759.14
551.962	39874.84
552.326	39992.58
552.689	40239.13
553.053	39996.19
553.417	40292.68
553.78	40810.86
554.143	40696.97
554.507	40881.14
554.87	41022.16
555.234	41330.17
555.597	41148.25
555.96	41516.15
556.323	41846.09
556.686	41802.02
557.05	42064.84
557.413	42108.91
557.776	42246.76
558.139	42596.13
558.502	42642
558.865	42874.76
559.228	43114.53
559.59	43201.53
559.953	43404.47
560.316	43804.23
560.679	43807.85
561.041	44118.12
561.404	44342.97
561.767	44602.4
562.129	44398.34
562.492	44853.69
562.854	44810.98
563.217	44842.85
563.579	45256.85
563.941	45480.57
564.304	45661.13
564.666	45937.28
565.028	45947.45
565.39	46091.4
565.753	46392.64
566.115	46507.66
566.477	46576.81
566.839	46834.88
567.201	47165.5
567.563	47026.29
567.925	47446.62
568.287	47434.87
568.648	47529.1
569.01	47810.9
569.372	48016.55
569.734	47964.12
570.095	48217.67
570.457	48407.05
570.819	48479.13
571.18	48552.35
571.542	48790.77
571.903	48676.64
572.265	48866.92
572.626	48893.59
572.987	49198.89
573.349	49212.9
573.71	49446.79
574.071	49469.39
574.432	49664.87
574.794	49919.55
575.155	49929.04
575.516	49792.55
575.877	50061.92
576.238	50116.83
576.599	50222.82
576.96	50303.95
577.32	50323.38
577.681	50429.37
578.042	50407.45
578.403	50465.75
578.763	50503.04
579.124	50541.45
579.485	50673.65
579.845	50778.96
580.206	50687.66
580.566	50748.91
580.927	50799.53
581.287	50960.88
581.648	50804.72
582.008	50987.09
582.368	50880.65
582.728	50990.93
583.089	50940.31
583.449	50955.45
583.809	50963.82
584.169	51138.5
584.529	51048.33
584.889	51295.33
585.249	51056.02
585.609	51052.4
585.969	51206.97
586.329	51174.43
586.688	51205.62
587.048	51115.9
587.408	51001.78
587.768	51164.71
588.127	51114.09
588.487	51070.25
588.846	51369
589.206	51174.21
589.565	51151.61
589.925	51366.97
590.284	51298.95
590.643	51208.33
591.003	51378.04
591.362	51389.79
591.721	51250.36
592.08	51289.91
592.44	51400.19
592.799	51445.84
593.158	51281.77
593.517	51305.95
593.876	51427.31
594.235	51347.53
594.593	51329
594.952	51398.38
595.311	51283.81
595.67	51368.55
596.029	51629.11
596.387	51640.18
596.746	51626.4
597.104	51513.86
597.463	51587.98
597.822	51623.91
598.18	51396.8
598.538	51450.36
598.897	51764.02
599.255	51429.34
599.613	51894.86
599.972	51720.86
600.33	51685.6
600.688	51663.68
601.046	51785.49
601.404	51919.04
601.762	51769.67
602.12	51932.15
602.478	51842.44
602.836	51865.94
603.194	51697.36
603.552	51870.23
603.91	51751.37
604.268	51990.91
604.625	51883.79
604.983	51935.99
605.341	51851.25
605.698	52027.52
606.056	52106.84
606.413	52075.88
606.771	52146.61
607.128	52199.94
607.485	52184.35
607.843	52192.48
608.2	52258.24
608.557	52316.77
608.914	52297.57
609.272	52408.07
609.629	52380.05
609.986	52564.45
610.343	52475.41
610.7	52646.03
611.057	52565.81
611.414	52560.84
611.771	52653.94
612.127	52730.77
612.484	52729.19
612.841	52795.41
613.198	52729.64
613.554	52645.13
613.911	52854.84
614.267	52792.92
614.624	52805.35
614.98	52914.95
615.337	53054.16
615.693	52991.56
616.05	52942.97
616.406	53101.16
616.762	52945.46
617.118	52955.85
617.475	53019.35
617.831	53109.07
618.187	53128.73
618.543	53101.39
618.899	53248.5
619.255	53237.65
619.611	53106.36
619.967	53300.93
620.323	53315.62
620.678	53221.38
621.034	53097.77
621.39	53153.14
621.746	53220.71
622.101	53473.58
622.457	53183.19
622.812	53281.04
623.168	53237.65
623.523	53227.71
623.879	53311.78
624.234	53155.85
624.589	53239.91
624.945	53290.31
625.3	53289.63
625.655	53270.65
626.01	53286.69
626.365	53307.48
626.72	53235.62
627.075	53192.01
627.43	53252.12
627.785	53086.25
628.14	53185.9
628.495	53243.3
628.85	53090.54
629.205	53012.8
629.559	53262.29
629.914	52992.46
630.269	53016.42
630.623	53076.53
630.978	52883.31
631.332	53049.41
631.687	52978.68
632.041	52937.1
632.396	53035.17
632.75	52808.06
633.104	52876.08
633.459	52773.49
633.813	52633.83
634.167	52721.28
634.521	52625.47
634.875	52714.05
635.229	52733.94
635.583	52507.96
635.937	52472.7
636.291	52395.42
636.645	52458.24
636.999	52334.63
637.352	52399.71
637.706	52250.56
638.06	52362.65
638.413	52284.01
638.767	52160.85
639.121	52266.38
639.474	52017.57
639.828	52052.6
640.181	52137.8
640.534	52129.21
640.888	51939.61
641.241	51792.72
641.594	51830.01
641.947	51933.96
642.301	51903.23
642.654	51859.84
643.007	51646.28
643.36	51821.65
643.713	51666.62
644.066	51825.71
644.419	51381.88
644.771	51005.17
645.124	50602.02
645.477	50599.76
645.83	50478.86
646.182	50437.73
646.535	50448.8
646.888	50645.18
647.24	50465.98
647.593	50809.47
647.945	50675.69
648.298	50356.37
648.65	50441.8
649.002	50296.49
649.355	50310.27
649.707	50212.87
650.059	50067.79
650.411	50556.14
650.763	50716.82
651.115	50960.88
651.467	50969.46
651.819	50900.54
652.171	50673.2
652.523	50663.94
652.875	50621
653.227	50417.16
653.578	50860.99
653.93	50632.3
654.282	50456.71
654.633	50581
654.985	50476.82
655.337	50515.01
655.688	50379.65
656.039	50572.19
656.391	50190.28
656.742	50215.36
657.094	50242.48
657.445	50332.65
657.796	50172.88
658.147	50184.17
658.498	50117.74
658.849	50209.48
659.2	50151.41
659.551	50068.25
659.902	50058.3
660.253	50074.35
660.604	50007.68
660.955	49893.34
661.306	50024.18
661.656	49983.05
662.007	49966.1
662.358	49886.1
662.708	49756.62
663.059	49907.12
663.409	49649.27
663.76	49896.72
664.11	49913.22
664.461	49886.56
664.811	49761.36
665.161	49873.67
665.511	49736.28
665.862	49738.54
666.212	49627.58
666.562	49704.19
666.912	49599.56
667.262	49628.48
667.612	49606.79
667.962	49606.34
668.312	49563.63
668.662	49673.91
669.011	49539.67
669.361	49445.44
669.711	49381.94
670.06	49299.45
670.41	49221.04
670.76	49186.46
671.109	49461.48
671.459	49252.22
671.808	49255.16
672.157	49217.87
672.507	48979.91
672.856	48994.83
673.205	49100.14
673.554	49101.94
673.904	48965.45
674.253	49168.61
674.602	49162.96
674.951	48497.44
675.3	48339.03
675.649	48763.65
675.998	48886.81
676.346	48895.85
676.695	48962.74
677.044	48653.14
677.393	48851.78
677.741	48901.27
678.09	48684.78
678.438	48633.71
678.787	48758.9
679.135	48652.92
679.484	48373.15
679.832	48558.91
680.181	48226.94
680.529	48429.19
680.877	48307.39
681.225	48258.8
681.573	48335.64
681.922	48133.83
682.27	48040.5
682.618	48047.51
682.966	47987.4
683.314	47931.35
683.661	47746.95
684.009	47722.32
684.357	47563.45
684.705	47633.73
685.053	47543.57
685.4	47475.55
685.748	47276.23
686.095	47294.08
686.443	47138.38
686.79	47020.19
687.138	47043.24
687.485	47054.99
687.832	46833.98
688.18	46963.47
688.527	46716.47
688.874	46715.11
689.221	46480.32
689.568	46328.91
689.915	46251.62
690.262	46235.13
690.609	46100.21
690.956	46147.9
691.303	45974.57
691.65	45828.36
691.997	45859.77
692.344	45523.73
692.69	45521.92
693.037	45478.08
693.383	45211.2
693.73	45382.49
694.077	45101.37
694.423	44950.64
694.769	44962.17
695.116	44879.23
695.462	44702.74
695.808	44617.99
696.155	44653.47
696.501	44438.34
696.847	44404.44
697.193	44076.54
697.539	44234.73
697.885	43985.24
698.231	43889.2
698.577	43844.23
698.923	43727.17
699.269	43569.89
699.614	43456.44
699.96	43290.12
700.306	43272.27
700.651	43201.08
700.997	43116.11
701.342	42903.69
701.688	42792.96
702.033	42561.55
702.379	42724.94
702.724	42462.57
703.069	42456.69
703.415	42140.77
703.76	42019.64
704.105	42046.99
704.45	42033.65
704.795	41667.56
705.14	41662.14
705.485	41738.07
705.83	41551.86
706.175	41489.26
706.52	41394.8
706.865	41286.1
707.209	41228.93
707.554	40907.58
707.899	41000.46
708.243	40753.91
708.588	40958.65
708.932	40508.72
709.277	40471.44
709.621	40603.41
709.966	40132.69
710.31	40412.68
710.654	39984.22
710.998	40126.36
711.342	40100.82
711.687	39948.29
712.031	39703.55
712.375	39678.69
712.719	39722.3
713.063	39535.87
713.407	39731.12
713.75	39328.64
714.094	39377.91
714.438	39290
714.782	39205.93
715.125	38999.84
715.469	39107.86
715.812	38756.23
716.156	38690.24
716.499	38636.46
716.843	38694.76
717.186	38378.38
717.53	38718.71
717.873	38667.19
718.216	38452.51
718.559	38233.75
718.902	38055.23
719.246	38120.54
719.589	38064.95
719.932	37830.15
720.275	37834.22
720.617	37798.96
720.96	37758.29
721.303	37778.17
721.646	37642.36
721.989	37453.66
722.331	37577.27
722.674	37485.53
723.016	37515.58
723.359	37308.58
723.701	37331.18
724.044	37021.58
724.386	36905.43
724.729	37130.05
725.071	37012.54
725.413	36948.36
725.755	36904.52
726.097	36707.02
726.439	36627.02
726.782	36681.03
727.124	36689.16
727.465	36387.48
727.807	36408.04
728.149	36360.13
728.491	36417.31
728.833	36216.63
729.175	36145.45
729.516	36109.52
729.858	36076.3
730.199	36142.06
730.541	35901.16
730.882	35836.3
731.224	36097.09
731.565	35740.71
731.906	35695.06
732.248	35689.64
732.589	35568.51
732.93	35408.07
733.271	35314.51
733.612	35416.65
733.953	35408.07
734.294	35354.06
734.635	35196.32
734.976	35278.8
735.317	35052.82
735.658	35075.87
735.999	34933.95
736.339	34856.89
736.68	34930.34
737.021	34771.25
737.361	34644.47
737.702	34875.88
738.042	34651.02
738.383	34614.41
738.723	34694.19
739.063	34599.95
739.404	34427.53
739.744	34552.72
740.084	34293.97
740.424	34331.03
740.764	34213.52
741.104	34326.06
741.444	33980.31
741.784	34005.84
742.124	34138.27
742.464	33895.34
742.804	33856.69
743.143	33780.31
743.483	33692.41
743.823	33745.96
744.162	33559.53
744.502	33707.32
744.841	33437.04
745.181	33564.27
745.52	33470.94
745.86	33548.91
746.199	33367.44
746.538	33178.07
746.877	33289.03
747.216	33178.97
747.556	33083.61
747.895	33100.56
748.234	32882.26
748.573	32980.11
748.911	32755.48
749.25	32699.21
749.589	32607.91
749.928	32541.25
750.267	32608.14
750.605	32546.22
750.944	32473.45
751.283	32302.16
751.621	32391.87
751.96	32077.08
752.298	32202.95
752.636	32258.54
752.975	32044.09
753.313	31843.64
753.651	31983.75
753.989	31745.79
754.327	31697.43
754.666	31437.1
755.004	31630.54
755.342	31579.47
755.679	31570.2
756.017	31345.35
756.355	31425.57
756.693	31199.36
757.031	31253.37
757.368	31170.44
757.706	30989.43
758.044	30975.87
758.381	30874.4
758.719	30708.98
759.056	30762.99
759.394	30525.03
759.731	30530.23
760.068	30385.83
760.405	30247.98
760.743	30227.64
761.08	30349.22
761.417	30040.98
761.754	29997.81
762.091	29967.98
762.428	29698.84
762.765	29578.16
763.102	29728.44
763.438	29457.04
763.775	29362.8
764.112	29405.74
764.449	29402.12
764.785	29154.45
765.122	29121.45
765.458	28940.44
765.795	28994.22
766.131	28843.94
766.467	28742.48
766.804	28637.62
767.14	28467.91
767.476	28418.65
767.812	28279.21
768.148	28230.63
768.485	28321.25
768.821	27928.04
769.157	27907.47
769.492	27919.22
769.828	27780.24
770.164	27597.88
770.5	27427.26
770.836	27434.49
771.171	27371.89
771.507	27132.58
771.842	27040.6
772.178	27013.71
772.513	26910.66
772.849	26895.52
773.184	26712.93
773.519	26742.08
773.855	26566.72
774.19	26411.24
774.525	26427.51
774.86	26388.87
775.195	26277.01
775.53	26107.97
775.865	25925.6
776.2	25771.26
776.535	25736.91
776.87	25656.23
777.205	25538.95
777.539	25466.18
777.874	25422.57
778.209	25131.73
778.543	25125.4
778.878	24964.95
779.212	25096.25
779.547	24891.96
779.881	24890.38
780.215	24558.18
780.55	24692.19
780.884	24512.99
781.218	24458.52
781.552	24445.87
781.886	24379.2
782.22	24156.61
782.554	24061.47
782.888	23888.82
783.222	23749.16
783.556	23642.5
783.889	23647.47
784.223	23474.82
784.557	23456.74
784.89	23425.1
785.224	23370.87
785.557	23201.83
785.891	23107.82
786.224	23116.19
786.558	23073.25
786.891	22853.14
787.224	22743.09
787.557	22619.48
787.891	22576.77
788.224	22510.78
788.557	22440.05
788.89	22398.69
789.223	22352.59
789.556	22267.62
789.888	22200.96
790.221	22025.82
790.554	21842.1
790.887	21907.86
791.219	21656.56
791.552	21747.41
791.884	21591.03
792.217	21567.07
792.549	21512.39
792.882	21366.4
793.214	21337.93
793.546	21365.27
793.879	21276.23
794.211	21091.38
794.543	21099.06
794.875	21017.48
795.207	21005.96
795.539	20876.92
795.871	20916.7
796.203	20629.7
796.535	20668.57
796.867	20595.12
797.198	20477.61
797.53	20549.25
797.862	20243.04
798.193	20448.69
798.525	20269.48
798.856	20275.58
799.188	20047.57
799.519	20019.54
799.85	19892.54
800.182	19930.96
800.513	19862.26
800.844	19588.14
801.175	19802.37
801.506	19679.44
801.837	19497.07
802.168	19579.1
802.499	19400.8
802.83	19241.94
803.161	19375.95
803.491	19230.64
803.822	19297.3
804.153	19089.17
804.483	18932.79
804.814	18913.58
805.145	18871.1
805.475	18855.28
805.805	18808.28
806.136	18842.63
806.466	18681.5
806.796	18766.24
807.126	18551.33
807.457	18488.74
807.787	18509.08
808.117	18407.16
808.447	18335.29
808.777	18500.26
809.107	18227.73
809.436	18249.2
809.766	18166.26
810.096	18159.03
810.426	18067.73
810.755	18164.45
811.085	17983.67
811.414	17966.94
811.744	17763.78
812.073	17754.29
812.403	17685.37
812.732	17651.02
813.061	17700.51
813.39	17517.46
813.719	17553.85
814.049	17602.88
814.378	17453.51
814.707	17382.55
815.036	17357.47
815.365	17294.19
815.693	17194.53
816.022	17236.11
816.351	17127.42
816.68	17007.87
817.008	17066.4
817.337	16970.13
817.665	16885.39
817.994	17060.07
818.322	17006.29
818.651	16776.69
818.979	16693.3
819.307	16772.85
819.636	16703.93
819.964	16548.68
820.292	16726.52
820.62	16747.54
820.948	16644.27
821.276	16661.89
821.604	16559.52
821.932	16616.7
822.259	16538.96
822.587	16532.86
822.915	16567.88
823.243	16594.32
823.57	16495.12
823.898	16534.89
824.225	16351.17
824.553	16416.02
824.88	16414.22
825.207	16469.36
825.535	16384.84
825.862	16517.94
826.189	16405.4
826.516	16520.65
826.843	16515
827.17	16490.6
827.497	16435.68
827.824	16483.14
828.151	16466.42
828.478	16367.21
828.805	16422.8
829.131	16383.03
829.458	16314.33
829.785	16298.96
830.111	16368.11
830.438	16413.99
830.764	16429.81
831.09	16389.81
831.417	16303.03
831.743	16373.54
832.069	16310.72
832.395	16257.61
832.722	16324.27
833.048	16266.2
833.374	16347.1
833.7	16234.56
834.026	16201.11
834.351	16318.62
834.677	16242.47
835.003	16264.84
835.329	16227.33
835.654	16179.42
835.98	16241.79
836.306	16255.35
836.631	16148.01
836.956	16199.53
837.282	16146.65
837.607	16045.64
837.932	16057.39
838.258	15983.04
838.583	15963.83
838.908	15870.73
839.233	15970.39
839.558	15896.49
839.883	15837.06
840.208	15833.21
840.533	15791.41
840.858	15883.83
841.182	15771.97
841.507	15787.79
841.832	15677.29
842.156	15601.13
842.481	15688.81
842.805	15618.53
843.13	15530.62
843.454	15497.63
843.778	15520
844.103	15499.21
844.427	15416.05
844.751	15441.81
845.075	15480.68
845.399	15320.91
845.723	15213.34
846.047	15312.78
846.371	15236.85
846.695	15121.59
847.019	15024.2
847.343	14967.25
847.666	14916.18
847.99	14795.5
848.313	14877.31
848.637	14777.2
848.96	14778.55
849.284	14706.69
849.607	14524.55
849.931	14640.7
850.254	14447.26
850.577	14455.4
850.9	14360.03
851.223	14297.43
851.546	14288.85
851.869	14139.92
852.192	14153.03
852.515	14041.62
852.838	14013.15
853.161	13956.65
853.483	13930.66
853.806	13920.27
854.129	13893.38
854.451	13823.32
854.774	13772.7
855.096	13668.07
855.419	13593.95
855.741	13552.6
856.063	13548.08
856.385	13591.46
856.708	13612.03
857.03	13541.97
857.352	13447.97
857.674	13417.68
857.996	13373.39
858.318	13280.51
858.64	13212.72
858.961	13236.9
859.283	13274.64
859.605	13172.72
859.926	13212.72
860.248	13170.23
860.57	13121.87
860.891	13089.78
861.212	13035.32
861.534	12998.49
861.855	12945.61
862.176	13017.47
862.498	13011.14
862.819	12998.71
863.14	12921.65
863.461	12859.28
863.782	12859.28
864.103	12938.83
864.424	12753.52
864.745	12892.5
865.065	12756.46
865.386	12685.27
865.707	12645.95
866.027	12831.48
866.348	12736.57
866.668	12692.96
866.989	12639.63
867.309	12563.47
867.63	12542
867.95	12504.71
868.27	12529.8
868.59	12567.99
868.91	12467.2
869.23	12440.31
869.55	12477.14
869.87	12507.65
870.19	12454.55
870.51	12551.27
870.83	12463.81
871.15	12420.65
871.469	12375.9
871.789	12460.19
872.109	12364.83
872.428	12313.53
872.748	12415.45
873.067	12330.71
873.386	12347.2
873.706	12298.17
874.025	12204.38
874.344	12090.71
874.663	12238.96
874.982	12150.15
875.301	12231.05
875.62	12183.59
875.939	12125.51
876.258	12209.13
876.577	12153.99
876.896	12077.83
877.214	12052.52
877.533	12143.59
877.852	12081.22
878.17	12082.58
878.489	12054.56
878.807	12014.78
879.125	11973.88
879.444	11944.28
879.762	11966.42
880.08	11909.7
880.398	11876.26
880.716	11900.66
881.034	11872.64
881.352	11886.2
881.67	11778.86
881.988	11810.04
882.306	11771.85
882.624	11803.49
882.941	11761.91
883.259	11757.39
883.577	11722.59
883.894	11688.24
884.212	11642.59
884.529	11656.83
884.846	11666.54
885.164	11654.34
885.481	11581.8
885.798	11595.36
886.115	11485.76
886.432	11485.98
886.75	11444.85
887.067	11458.41
887.383	11370.05
887.7	11322.15
888.017	11320.56
888.334	11403.73
888.651	11302.71
888.967	11243.5
889.284	11159.21
889.6	11211.41
889.917	11135.94
890.233	11208.02
890.55	11117.18
890.866	11136.16
891.182	11147.01
891.498	11005.32
891.815	10954.47
892.131	10938.65
892.447	10959.44
892.763	10947.92
893.079	10813.46
893.395	10822.05
893.71	10780.01
894.026	10777.98
894.342	10788.83
894.657	10679.45
894.973	10606.01
895.289	10685.78
895.604	10698.21
895.92	10583.18
896.235	10567.59
896.55	10549.06
896.865	10483.98
897.181	10521.04
897.496	10491.43
897.811	10413.7
898.126	10332.12
898.441	10280.37
898.756	10262.51
899.071	10228.16
899.386	10298.9
899.7	10170.09
900.015	10177.09
900.33	10106.58
900.644	10100.03
900.959	10165.11
901.273	10115.4
901.588	10072.46
901.902	9956.76
902.216	10013.03
902.531	9966.25
902.845	9841.51
903.159	9821.17
903.473	9844.9
903.787	9822.98
904.101	9669.99
904.415	9723.54
904.729	9675.64
905.042	9613.49
905.356	9653.26
905.67	9544.11
905.984	9569.65
906.297	9552.47
906.611	9484.91
906.924	9369.43
907.237	9446.49
907.551	9401.52
907.864	9257.57
908.177	9367.39
908.491	9293.5
908.804	9213.95
909.117	9180.73
909.43	9124.92
909.743	9142.54
910.056	9051.47
910.368	9034.75
910.681	9012.83
910.994	8938.03
911.307	8911.36
911.619	8854.19
911.932	8874.07
912.244	8836.79
912.557	8844.7
912.869	8749.78
913.181	8788.65
913.494	8720.86
913.806	8719.5
914.118	8701.2
914.43	8540.75
914.742	8597.25
915.054	8530.58
915.366	8499.4
915.678	8470.7
915.99	8395.9
916.302	8381.43
916.613	8359.74
916.925	8350.7
917.236	8298.95
917.548	8306.86
917.859	8339.85
918.171	8226.86
918.482	8164.94
918.794	8112.29
919.105	8087.2
919.416	8034.77
919.727	8020.76
920.038	8025.96
920.349	7953.42
920.66	7883.82
920.971	7902.57
921.282	7870.94
921.593	7844.27
921.903	7818.96
922.214	7782.8
922.525	7739.19
922.835	7690.38
923.146	7645.18
923.456	7617.84
923.767	7606.31
924.077	7617.38
924.387	7527.22
924.697	7505.52
925.008	7443.83
925.318	7383.49
925.628	7429.82
925.938	7353.66
926.248	7257.85
926.558	7269.82
926.867	7263.04
927.177	7261.46
927.487	7256.94
927.796	7107.34
928.106	7082.26
928.416	7111.18
928.725	7136.72
929.034	7068.47
929.344	7006.33
929.653	6930.4
929.962	6929.49
930.271	6921.81
930.581	6847.91
930.89	6903.28
931.199	6787.12
931.508	6776.05
931.817	6794.58
932.125	6765.2
932.434	6747.35
932.743	6706.22
933.051	6649.5
933.36	6715.49
933.669	6606.79
933.977	6631.87
934.286	6593.23
934.594	6606.34
934.902	6469.84
935.21	6487.02
935.519	6416.74
935.827	6508.26
936.135	6400.47
936.443	6378.1
936.751	6318.44
937.059	6296.97
937.367	6280.02
937.674	6272.11
937.982	6252.67
938.29	6201.15
938.597	6252
938.905	6198.21
939.213	6169.74
939.52	6110.08
939.827	6059.23
940.135	6048.61
940.442	5989.18
940.749	6000.48
941.056	5983.53
941.363	5904.21
941.67	5897.66
941.977	5867.15
942.284	5849.75
942.591	5813.36
942.898	5874.61
943.205	5820.82
943.511	5791.22
943.818	5771.78
944.125	5697.66
944.431	5706.47
944.738	5656.53
945.044	5636.42
945.35	5618.34
945.657	5572.24
945.963	5575.86
946.269	5530.43
946.575	5498.57
946.881	5505.58
947.187	5472.81
947.493	5437.78
947.799	5405.69
948.105	5391.68
948.41	5369.76
948.716	5373.83
949.022	5357.1
949.327	5338.57
949.633	5264
949.938	5242.53
950.244	5246.15
950.549	5197.11
950.854	5199.37
951.16	5151.91
951.465	5151.69
951.77	5134.74
952.075	5088.41
952.38	5087.73
952.685	5061.75
952.99	4998.24
953.294	4996.66
953.599	4951.69
953.904	4933.61
954.209	4931.81
954.513	4956.44
954.818	4911.92
955.122	4908.3
955.426	4923.22
955.731	4848.19
956.035	4796.89
956.339	4796.44
956.643	4799.83
956.948	4759.15
957.252	4749.44
957.556	4760.51
957.86	4718.93
958.163	4701.75
958.467	4673.51
958.771	4649.78
959.075	4640.74
959.378	4621.76
959.682	4603.23
959.985	4572.94
960.289	4564.81
960.592	4486.39
960.896	4486.17
961.199	4485.26
961.502	4509.44
961.805	4421.31
962.108	4405.72
962.411	4425.83
962.714	4363.23
963.017	4370.01
963.32	4375.21
963.623	4328.43
963.926	4334.53
964.228	4329.11
964.531	4272.16
964.833	4276.91
965.136	4230.35
965.438	4221.54
965.741	4174.09
966.043	4207.3
966.345	4136.12
966.648	4129.34
966.95	4150.13
967.252	4106.52
967.554	4109.91
967.856	4072.84
968.158	4022.22
968.46	4061.32
968.761	4043.92
969.063	4000.53
969.365	4005.28
969.666	3968.89
969.968	3935.45
970.269	3969.34
970.571	3900.42
970.872	3902.45
971.174	3873.75
971.475	3908.1
971.776	3889.12
972.077	3822.91
972.378	3827.65
972.679	3814.77
972.98	3834.66
973.281	3792.17
973.582	3797.82
973.883	3745.4
974.183	3735.68
974.484	3706.75
974.785	3711.95
975.085	3697.04
975.386	3655.23
975.686	3626.3
975.986	3581.56
976.287	3632.18
976.587	3565.74
976.887	3545.18
977.187	3519.41
977.487	3561.67
977.787	3501.79
978.087	3515.57
978.387	3518.51
978.687	3507.21
978.987	3469.47
979.286	3440.32
979.586	3421.11
979.885	3387.44
980.185	3364.39
980.484	3371.62
980.784	3358.29
981.083	3331.85
981.382	3304.05
981.682	3332.75
981.981	3324.39
982.28	3317.84
982.579	3300.66
982.878	3273.32
983.177	3228.12
983.475	3226.09
983.774	3224.28
984.073	3229.03
984.372	3163.49
984.67	3198.07
984.969	3170.04
985.267	3160.33
985.566	3123.72
985.864	3145.41
986.162	3113.55
986.461	3067.9
986.759	3080.33
987.057	3064.74
987.355	3034.91
987.653	3047.79
987.951	3008.69
988.249	3008.69
988.547	2981.12
988.844	2949.03
989.142	2959.65
989.44	2961.91
989.737	2947.68
990.035	2919.88
990.332	2934.57
990.63	2899.54
990.927	2887.57
991.224	2850.73
991.521	2859.54
991.819	2857.51
992.116	2856.38
992.413	2814.35
992.71	2788.13
993.006	2806.66
993.303	2823.61
993.6	2787.45
993.897	2780.22
994.193	2734.12
994.49	2695.71
994.787	2718.3
995.083	2723.95
995.379	2682.6
995.676	2693.22
995.972	2625.88
996.268	2631.53
996.565	2679.44
996.861	2592.43
997.157	2618.19
997.453	2583.39
997.749	2599.21
998.044	2546.33
998.34	2529.61
998.636	2540.46
998.932	2551.53
999.227	2490.29
999.523	2491.87
999.818	2476.73
1000.114	2462.27
1000.409	2451.42
1000.704	2484.64
1001	2400.12
1001.295	2393.79
1001.59	2425.2
1001.885	2383.85
1002.18	2356.96
1002.475	2343.62
1002.77	2349.05
1003.065	2344.75
1003.359	2339.11
1003.654	2299.56
1003.949	2275.6
1004.243	2255.94
1004.538	2259.56
1004.832	2243.29
1005.127	2267.69
1005.421	2244.42
1005.715	2212.1
1006.009	2207.81
1006.304	2186.57
1006.598	2224.31
1006.892	2144.99
1007.186	2153.57
1007.48	2147.25
1007.773	2142.73
1008.067	2136.85
1008.361	2061.15
1008.655	2094.37
1008.948	2060.47
1009.242	2065.67
1009.535	2020.47
1009.829	2057.98
1010.122	2030.64
1010.415	2010.98
1010.708	1999.23
1011.001	1999
1011.295	2002.16
1011.588	1984.76
1011.881	1944.31
1012.173	1941.38
1012.466	1944.31
1012.759	1906.57
1013.052	1930.98
1013.344	1886.24
1013.637	1927.36
1013.93	1904.54
1014.222	1890.76
1014.514	1859.57
1014.807	1841.27
1015.099	1832.45
1015.391	1823.41
1015.683	1829.74
1015.976	1788.84
1016.268	1806.92
1016.56	1762.62
1016.851	1757.43
1017.143	1748.84
1017.435	1723.53
1017.727	1755.84
1018.018	1712.23
1018.31	1675.62
1018.602	1723.3
1018.893	1692.12
1019.185	1710.2
1019.476	1677.88
1019.767	1660.93
1020.058	1635.85
1020.35	1637.43
1020.641	1607.82
1020.932	1604.66
1021.223	1591.1
1021.514	1599.24
1021.804	1598.79
1022.095	1588.16
1022.386	1540.26
1022.677	1549.75
1022.967	1531.22
1023.258	1521.27
1023.548	1503.19
1023.839	1511.78
1024.129	1505.91
1024.419	1486.7
1024.709	1487.15
1025	1466.81
1025.29	1453.48
1025.58	1429.98
1025.87	1420.94
1026.16	1439.24
1026.449	1421.84
1026.739	1402.41
1027.029	1396.98
1027.319	1382.29
1027.608	1378.9
1027.898	1381.39
1028.187	1362.86
1028.477	1374.38
1028.766	1334.61
1029.055	1336.87
1029.344	1326.25
1029.634	1304.1
1029.923	1294.61
1030.212	1275.18
1030.501	1258
1030.79	1274.95
1031.078	1253.26
1031.367	1222.52
1031.656	1246.93
1031.945	1218
1032.233	1225.69
1032.522	1243.77
1032.81	1224.56
1033.099	1226.37
1033.387	1216.65
1033.675	1195.86
1033.963	1197.89
1034.251	1196.31
1034.54	1178.91
1034.828	1129.19
1035.116	1151.57
1035.403	1151.11
1035.691	1120.83
1035.979	1132.13
1036.267	1107.73
1036.554	1102.08
1036.842	1102.53
1037.129	1096.43
1037.417	1065.69
1037.704	1088.29
1037.992	1056.43
1038.279	1089.87
1038.566	1056.43
1038.853	1056.43
1039.14	1056.43
