Data from foil_FLMS001491_061.txt Node
Date: Tue Feb 07 11:36:26 GMT 2017
User: dcchb
Spectrometer: FLMS00149
Trigger mode: 0
Integration Time (sec): 2.000000E-2
Scans to average: 10
Electric dark correction enabled: true
Nonlinearity correction enabled: false
Boxcar width: 0
XAxis mode: Wavelengths
Number of Pixels in Spectrum: 2048
>>>>>Begin Spectral Data<<<<<
341.393	-1.51
341.776	-1.51
342.16	-1.51
342.543	-79.93
342.927	-72.24
343.31	-56.88
343.693	-67.72
344.077	-58.01
344.46	-58.23
344.843	-48.52
345.226	-39.48
345.61	-38.35
345.993	-35.86
346.376	-6.48
346.759	22.44
347.142	30.58
347.525	36.68
347.908	52.5
348.291	69.9
348.674	90.92
349.057	106.51
349.44	118.94
349.823	154.19
350.206	171.37
350.588	276.9
350.971	265.15
351.354	317.58
351.737	299.27
352.119	313.28
352.502	328.88
352.884	359.84
353.267	350.57
353.65	368.42
354.032	372.49
354.414	390.12
354.797	389.66
355.179	397.12
355.562	405.03
355.944	399.83
356.326	399.38
356.709	413.62
357.091	430.34
357.473	443.67
357.855	439.16
358.238	451.58
358.62	432.83
359.002	445.48
359.384	435.54
359.766	477.57
360.148	442.77
360.53	450.91
360.912	424.92
361.294	454.3
361.676	447.74
362.057	463.11
362.439	454.3
362.821	446.39
363.203	457.91
363.584	436.9
363.966	447.06
364.348	443.22
364.729	443.45
365.111	431.7
365.493	467.18
365.874	451.58
366.256	456.78
366.637	455.2
367.019	433.05
367.4	438.48
367.781	426.95
368.163	470.57
368.544	488.65
368.925	478.7
369.306	497.01
369.688	466.73
370.069	471.02
370.45	475.31
370.831	481.87
371.212	475.09
371.593	486.16
371.974	496.1
372.355	499.27
372.736	495.65
373.117	519.15
373.498	500.4
373.879	501.75
374.26	514.86
374.641	508.31
375.021	497.01
375.402	534.75
375.783	532.71
376.163	560.73
376.544	542.43
376.925	553.73
377.305	564.35
377.686	545.82
378.066	537.68
378.447	560.96
378.827	560.51
379.208	579.26
379.588	579.94
379.968	594.41
380.349	588.76
380.729	593.28
381.109	588.98
381.489	612.48
381.87	622.65
382.25	617.68
382.63	607.29
383.01	618.13
383.39	640.73
383.77	633.27
384.15	626.95
384.53	655.87
384.91	674.86
385.29	667.85
385.67	683.44
386.049	685.48
386.429	706.27
386.809	686.83
387.189	698.58
387.568	713.27
387.948	729.54
388.328	729.54
388.707	707.4
389.087	731.12
389.466	742.65
389.846	762.76
390.225	775.19
390.605	778.58
390.984	795.76
391.363	793.72
391.743	800.05
392.122	816.55
392.501	824.68
392.881	845.47
393.26	863.32
393.639	852.25
394.018	856.09
394.397	882.53
394.776	860.16
395.155	895.19
395.534	902.65
395.913	902.87
396.292	904.68
396.671	902.42
397.05	920.72
397.429	964.34
397.808	960.5
398.186	954.85
398.565	969.76
398.944	973.83
399.323	976.32
399.701	967.28
400.08	1020.38
400.458	996.65
400.837	1029.87
401.215	1043.43
401.594	1034.85
401.972	1049.08
402.351	1065.58
402.729	1074.17
403.107	1080.04
403.486	1082.75
403.864	1127.5
404.242	1114.84
404.62	1118.23
404.999	1138.35
405.377	1193.49
405.755	1182.41
406.133	1193.49
406.511	1211.11
406.889	1195.07
407.267	1246.37
407.645	1261.73
408.023	1276.65
408.401	1287.72
408.779	1303.09
409.156	1326.82
409.534	1335.18
409.912	1328.17
410.29	1376.98
410.667	1422.86
411.045	1416.53
411.422	1478.22
411.8	1447.26
412.178	1484.78
412.555	1491.1
412.933	1541.05
413.31	1528.62
413.687	1558.45
414.065	1585.57
414.442	1594.15
414.819	1600.93
415.197	1624.89
415.574	1635.73
415.951	1689.07
416.328	1676.64
416.705	1681.61
417.082	1705.56
417.46	1756.41
417.837	1746.92
418.214	1790.53
418.591	1796.63
418.967	1794.37
419.344	1802.28
419.721	1836.41
420.098	1846.8
420.475	1842.28
420.852	1887.7
421.228	1911.66
421.605	1930.42
421.982	1955.27
422.358	1965.89
422.735	2003.18
423.111	2013.58
423.488	2006.8
423.864	2073.24
424.241	2069.62
424.617	2106
424.994	2081.6
425.37	2123.18
425.746	2150.75
426.123	2222.16
426.499	2216.51
426.875	2235.94
427.251	2274.36
427.627	2309.61
428.003	2362.95
428.379	2359.78
428.756	2367.24
429.132	2442.72
429.507	2452.21
429.883	2477.75
430.259	2518.65
430.635	2545.54
431.011	2555.03
431.387	2645.42
431.763	2700.79
432.138	2686.55
432.514	2689.27
432.89	2724.74
433.265	2774.46
433.641	2834.12
434.016	2875.02
434.392	2903.95
434.767	2981.91
435.143	2984.17
435.518	3021.23
435.894	3045.41
436.269	3064.85
436.644	3122.7
437.02	3158.18
437.395	3161.34
437.77	3231.4
438.145	3229.14
438.52	3252.87
438.895	3291.96
439.271	3344.16
439.646	3399.98
440.021	3388.23
440.395	3452.64
440.77	3392.52
441.145	3428.23
441.52	3514.33
441.895	3485.85
442.27	3562.69
442.645	3551.84
443.019	3606.3
443.394	3634.55
443.769	3636.81
444.143	3674.78
444.518	3695.57
444.892	3733.08
445.267	3799.07
445.641	3836.58
446.016	3835.22
446.39	3867.99
446.764	3880.42
447.139	3881.1
447.513	3898.5
447.887	3928.78
448.262	3966.97
448.636	3979.63
449.01	4072.05
449.384	4079.29
449.758	4120.41
450.132	4141.2
450.506	4225.27
450.88	4242.22
451.254	4253.29
451.628	4268.43
452.002	4377.81
452.376	4413.74
452.75	4431.14
453.123	4445.6
453.497	4536
453.871	4583.9
454.244	4624.13
454.618	4706.16
454.992	4753.84
455.365	4790.23
455.739	4908.19
456.112	4917
456.486	5001.52
456.859	5007.17
457.232	5090.56
457.606	5134.17
457.979	5167.62
458.352	5249.2
458.725	5317.9
459.099	5378.23
459.472	5531.22
459.845	5565.8
460.218	5571
460.591	5641.05
460.964	5614.39
461.337	5773.03
461.71	5876.3
462.083	5969.18
462.456	5979.12
462.829	6033.13
463.201	6067.26
463.574	6125.33
463.947	6225.44
464.32	6359.68
464.692	6397.87
465.065	6469.51
465.438	6513.35
465.81	6665.43
466.183	6761.47
466.555	6870.85
466.928	6896.39
467.3	6929.15
467.672	7014.58
468.045	7186.55
468.417	7193.78
468.789	7259.99
469.161	7400.33
469.534	7482.81
469.906	7687.78
470.278	7665.86
470.65	7838.96
471.022	7975.91
471.394	8112.85
471.766	8206.18
472.138	8289.34
472.51	8499.28
472.882	8575.21
473.253	8667.41
473.625	8807.52
473.997	9064.24
474.369	9041.64
474.74	9137.46
475.112	9279.83
475.484	9466.04
475.855	9621.96
476.227	9748.51
476.598	9991.9
476.97	10080.71
477.341	10339.69
477.713	10499
478.084	10488.61
478.455	10809.5
478.827	10939.9
479.198	11209.04
479.569	11255.82
479.94	11554.34
480.311	11599.09
480.682	11945.07
481.053	12208.34
481.424	12376.02
481.795	12501.89
482.166	12725.61
482.537	12931.26
482.908	13079.5
483.279	13274.3
483.65	13449.66
484.021	13785.92
484.391	13901.17
484.762	14055.52
485.133	14163.31
485.503	14396.53
485.874	14715.62
486.244	14817.99
486.615	15159.67
486.985	15301.14
487.356	15517.4
487.726	15730.96
488.097	16030.61
488.467	16076.48
488.837	16381.56
489.207	16603.93
489.578	16874.66
489.948	17051.37
490.318	17271.25
490.688	17333.17
491.058	17612.26
491.428	17795.31
491.798	17917.79
492.168	18287.95
492.538	18494.5
492.908	18662.86
493.278	18899.91
493.648	18900.36
494.017	19150.53
494.387	19319.11
494.757	19447.47
495.126	19752.09
495.496	19755.26
495.866	19961.58
496.235	20202.48
496.605	20262.14
496.974	20446.31
497.344	20690.37
497.713	20772.41
498.082	20923.36
498.452	21127.42
498.821	21269.79
499.19	21204.48
499.559	21520.18
499.928	21634.08
500.298	21787.07
500.667	22082.2
501.036	22047.63
501.405	22215.98
501.774	22317.68
502.143	22593.37
502.512	22620.72
502.88	22850.77
503.249	22952.69
503.618	23098.67
503.987	23232.68
504.356	23545.89
504.724	23495.72
505.093	23679.22
505.462	23687.36
505.83	24023.85
506.199	24165.54
506.567	24434.23
506.936	24363.95
507.304	24722.13
507.672	24822.92
508.041	24925.97
508.409	25192.18
508.777	25380.87
509.145	25518.5
509.514	25537.93
509.882	25808.66
510.25	25866.74
510.618	26042.55
510.986	26188.53
511.354	26377.23
511.722	26698.35
512.09	26956.65
512.458	26898.57
512.826	27149.87
513.193	27358.9
513.561	27459.24
513.929	27761.83
514.297	27849.28
514.664	28191.65
515.032	28201.59
515.4	28395.48
515.767	28614.46
516.135	28839.76
516.502	28773.1
516.869	29339.64
517.237	29393.65
517.604	29326.76
517.972	29778.5
518.339	29926.29
518.706	29980.07
519.073	30143.68
519.44	30445.6
519.808	30851.69
520.175	30784.57
520.542	31221.17
520.909	31339.81
521.276	31386.82
521.643	31768.5
522.009	31923.3
522.376	32099.57
522.743	32376.85
523.11	32622.04
523.477	33072.87
523.843	33230.16
524.21	33488.46
524.577	33678.51
524.943	33735.91
525.31	33999.4
525.676	34394.19
526.043	34537.02
526.409	34744.69
526.776	35122.08
527.142	35279.59
527.508	35536.31
527.874	35728.17
528.241	35924.1
528.607	36104.88
528.973	36501.71
529.339	36464.42
529.705	36780.57
530.071	37044.52
530.437	37226.21
530.803	37411.97
531.169	37648.8
531.535	37677.05
531.901	38057.83
532.267	38051.05
532.632	38372.85
532.998	38338.95
533.364	38702.1
533.73	38743.23
534.095	39136.89
534.461	39205.37
534.826	39386.38
535.192	39521.74
535.557	39799.48
535.923	39820.04
536.288	40220.48
536.653	40102.52
537.019	40188.62
537.384	40417.76
537.749	40712.67
538.114	40797.64
538.479	40784.31
538.845	40913.8
539.21	41019.56
539.575	41236.73
539.94	41274.47
540.305	41608.92
540.67	41496.61
541.034	41842.13
541.399	41896.14
541.764	41970.27
542.129	42207.1
542.494	42319.18
542.858	42485.73
543.223	42551.95
543.587	42832.62
543.952	42790.58
544.316	42900.64
544.681	43023.8
545.045	43310.8
545.41	43375.88
545.774	43665.82
546.138	43634.4
546.503	43745.36
546.867	43804.12
547.231	44076.2
547.595	44188.29
547.959	44316.19
548.324	44372.69
548.688	44548.96
549.052	44605.45
549.416	44749.85
549.779	44967.02
550.143	45078.43
550.507	45447.01
550.871	45591.41
551.235	45492.21
551.599	45853.78
551.962	45955.25
552.326	46097.62
552.689	46275.46
553.053	46182.36
553.417	46277.5
553.78	46902.11
554.143	46683.14
554.507	46890.82
554.87	46842.68
555.234	47378.49
555.597	47196.12
555.96	47501.65
556.323	47639.5
556.686	47709.1
557.05	47888.53
557.413	48051.91
557.776	48269.08
558.139	48493.48
558.502	48615.06
558.865	48635.85
559.228	48948.16
559.59	49039.23
559.953	49169.4
560.316	49582.72
560.679	49534.14
561.041	49751.3
561.404	49979.32
561.767	50267
562.129	50174.57
562.492	50459.31
562.854	50452.3
563.217	50515.58
563.579	50645.29
563.941	50951.05
564.304	51112.62
564.666	51246.18
565.028	51289.57
565.39	51495.89
565.753	51801.19
566.115	51792.83
566.477	51969.33
566.839	52023.34
567.201	52307.85
567.563	52296.32
567.925	52534.06
568.287	52482.31
568.648	52538.35
569.01	52730.66
569.372	53033.03
569.734	52991.9
570.095	53280.7
570.457	53237.54
570.819	53345.56
571.18	53364.77
571.542	53595.72
571.903	53527.02
572.265	53712.56
572.626	53763.4
572.987	53929.95
573.349	53951.19
573.71	54190.28
574.071	54139.44
574.432	54289.94
574.794	54408.36
575.155	54392.54
575.516	54376.72
575.877	54578.97
576.238	54532.87
576.599	54748.24
576.96	54623.27
577.32	54733.77
577.681	54894.22
578.042	54916.59
578.403	54984.61
578.763	54952.98
579.124	55051.73
579.485	55141.45
579.845	55197.94
580.206	55071.84
580.566	55163.37
580.927	55167.21
581.287	55287.66
581.648	55175.79
582.008	55325.85
582.368	55218.73
582.728	55318.62
583.089	55250.6
583.449	55246.98
583.809	55325.85
584.169	55475.45
584.529	55358.62
584.889	55504.15
585.249	55335.34
585.609	55317.03
585.969	55528.55
586.329	55431.38
586.688	55500.98
587.048	55448.1
587.408	55364.49
587.768	55449.46
588.127	55461.89
588.487	55346.19
588.846	55609.46
589.206	55348.9
589.565	55371.04
589.925	55585.5
590.284	55505.73
590.643	55500.98
591.003	55537.37
591.362	55649.91
591.721	55602.22
592.08	55612.85
592.44	55638.38
592.799	55657.14
593.158	55655.56
593.517	55486.52
593.876	55647.42
594.235	55581.21
594.593	55660.53
594.952	55672.28
595.311	55574.2
595.67	55709.79
596.029	55731.71
596.387	55804.93
596.746	55793.86
597.104	55626.18
597.463	55632.51
597.822	55803.35
598.18	55715.67
598.538	55705.05
598.897	55867.3
599.255	55620.76
599.613	56007.64
599.972	55870.24
600.33	55979.84
600.688	55815.78
601.046	56001.08
601.404	56034.76
601.762	55992.04
602.12	55949.56
602.478	56034.76
602.836	56015.77
603.194	55923.35
603.552	55987.3
603.91	56016
604.268	55999.73
604.625	55994.98
604.983	56079.27
605.341	55985.72
605.698	56117.92
606.056	56270.23
606.413	56242.89
606.771	56284.92
607.128	56255.31
607.485	56129.44
607.843	56287.63
608.2	56467.96
608.557	56406.5
608.914	56427.29
609.272	56544.35
609.629	56508.87
609.986	56633.16
610.343	56438.81
610.7	56649.2
611.057	56625.93
611.414	56589.32
611.771	56602.65
612.127	56716.32
612.484	56699.14
612.841	56750.67
613.198	56672.93
613.554	56762.87
613.911	56846.26
614.267	56853.26
614.624	56792.02
614.98	56858.24
615.337	56999.7
615.693	56925.58
616.05	56949.76
616.406	57068.4
616.762	56980.27
617.118	56973.49
617.475	57055.07
617.831	57004.45
618.187	57072.24
618.543	57018.91
618.899	57172.8
619.255	57103.65
619.611	57164.22
619.967	57288.51
620.323	57241.96
620.678	57118.79
621.034	57011.45
621.39	57058.91
621.746	57123.31
622.101	57340.48
622.457	57178.45
622.812	57145.01
623.168	57231.56
623.523	57286.02
623.879	57286.02
624.234	57112.69
624.589	57263.2
624.945	57180.26
625.3	57247.6
625.655	57228.17
626.01	57193.37
626.365	57319.69
626.72	57176.65
627.075	57192.92
627.43	57134.16
627.785	57173.26
628.14	57151.11
628.495	57170.32
628.85	57142.97
629.205	57037.21
629.559	57196.31
629.914	57063.88
630.269	57046.03
630.623	56940.04
630.978	56940.49
631.332	57026.82
631.687	57000.61
632.041	56817.56
632.396	56860.72
632.75	56739.37
633.104	56865.24
633.459	56816.43
633.813	56728.97
634.167	56734.62
634.521	56636.32
634.875	56799.03
635.229	56604.91
635.583	56553.39
635.937	56536.66
636.291	56581.18
636.645	56515.65
636.999	56407.63
637.352	56559.71
637.706	56356.55
638.06	56473.39
638.413	56399.94
638.767	56258.93
639.121	56379.83
639.474	56245.37
639.828	56221.42
640.181	56246.05
640.534	56208.31
640.888	56105.49
641.241	56027.98
641.594	56144.13
641.947	56133.74
642.301	55989.78
642.654	56096.22
643.007	56062.78
643.36	55953.63
643.713	56008.77
644.066	56010.12
644.419	55698.72
644.771	55392.29
645.124	55009.92
645.477	55041.79
645.83	54980.09
646.182	55021.67
646.535	54917.5
646.888	55099.19
647.24	54916.59
647.593	55148.45
647.945	54855.13
648.298	54761.12
648.65	54743.26
649.002	54634.34
649.355	54850.61
649.707	54707.11
650.059	54741.91
650.411	55001.11
650.763	55033.65
651.115	55303.48
651.467	55267.09
651.819	55204.72
652.171	55135.8
652.523	55109.13
652.875	55104.16
653.227	55004.05
653.578	55174.21
653.93	55109.13
654.282	54963.6
654.633	54874.33
654.985	54916.82
655.337	54889.47
655.688	54903.94
656.039	54955.01
656.391	54730.16
656.742	54724.73
657.094	54747.11
657.445	54820.32
657.796	54751.63
658.147	54658.07
658.498	54632.53
658.849	54688.12
659.2	54649.71
659.551	54532.2
659.902	54655.36
660.253	54549.82
660.604	54579.65
660.955	54501.01
661.306	54578.07
661.656	54443.38
662.007	54546.21
662.358	54441.35
662.708	54474.34
663.059	54490.39
663.409	54217.18
663.76	54489.71
664.11	54382.14
664.461	54464.4
664.811	54377.85
665.161	54294.46
665.511	54270.51
665.862	54305.54
666.212	54273.67
666.562	54385.76
666.912	54241.13
667.262	54228.25
667.612	54242.49
667.962	54224.63
668.312	54120.68
668.662	54238.87
669.011	54132.66
669.361	54055.82
669.711	54055.6
670.06	54088.37
670.41	54016.05
670.76	53977.18
671.109	53990.97
671.459	54009.5
671.808	53918.43
672.157	54005.88
672.507	53820.35
672.856	53786.68
673.205	53790.75
673.554	53898.31
673.904	53864.87
674.253	53865.77
674.602	53756.62
674.951	53289.74
675.3	53191.44
675.649	53704.2
675.998	53650.64
676.346	53611.77
676.695	53737.64
677.044	53515.73
677.393	53600.7
677.741	53680.47
678.09	53504.2
678.438	53427.59
678.787	53654.48
679.135	53546.91
679.484	53279.57
679.832	53374.49
680.181	53195.73
680.529	53310.53
680.877	53187.37
681.225	53183.98
681.573	53376.29
681.922	53100.6
682.27	53085
682.618	53117.09
682.966	52933.82
683.314	53011.11
683.661	52874.84
684.009	52733.6
684.357	52656.31
684.705	52645.24
685.053	52646.14
685.4	52585.13
685.748	52428.75
686.095	52485.02
686.443	52354.17
686.79	52267.85
687.138	52343.78
687.485	52277.34
687.832	51972.04
688.18	52190.11
688.527	51967.52
688.874	51939.95
689.221	51795.54
689.568	51737.92
689.915	51581.99
690.262	51626.51
690.609	51654.76
690.956	51470.58
691.303	51432.39
691.65	51205.5
691.997	51293.19
692.344	51058.62
692.69	51000.54
693.037	51021.78
693.383	50598.06
693.73	50799.41
694.077	50626.08
694.423	50573.2
694.769	50356.49
695.116	50345.41
695.462	50345.64
695.808	50108.58
696.155	50336.15
696.501	49998.76
696.847	49963.95
697.193	49740.23
697.539	49886.22
697.885	49623.62
698.231	49517.41
698.577	49580.91
698.923	49382.5
699.269	49245.33
699.614	49052.11
699.96	48913.13
700.306	49015.05
700.651	48816.64
700.997	48730.99
701.342	48624.78
701.688	48447.38
702.033	48471.56
702.379	48345.47
702.724	48247.39
703.069	48228.18
703.415	47788.87
703.76	47879.72
704.105	47850.79
704.45	47703.22
704.795	47537.58
705.14	47394.08
705.485	47276.12
705.83	47253.97
706.175	47276.34
706.52	47148.44
706.865	47077.7
707.209	46942.57
707.554	46779.63
707.899	46842.45
708.243	46529.47
708.588	46646.08
708.932	46240.44
709.277	46267.78
709.621	46181
709.966	46101.01
710.31	46141.91
710.654	45774.91
710.998	45953.89
711.342	45811.07
711.687	45689.26
712.031	45535.37
712.375	45373.79
712.719	45324.75
713.063	45269.39
713.407	45398.88
713.75	45073.46
714.094	45054.93
714.438	44907.36
714.782	44872.34
715.125	44768.61
715.469	44965.89
715.812	44518.22
716.156	44301.5
716.499	44484.78
716.843	44501.95
717.186	44241.62
717.53	44333.14
717.873	44266.25
718.216	44141.51
718.559	44001.85
718.902	43700.62
719.246	43756.43
719.589	43578.13
719.932	43313.06
720.275	43543.56
720.617	43542.2
720.96	43258.37
721.303	43268.09
721.646	43263.34
721.989	43031.03
722.331	43004.59
722.674	42999.39
723.016	43015.66
723.359	42852.5
723.701	42819.06
724.044	42620.64
724.386	42331.61
724.729	42564.15
725.071	42490.93
725.413	42357.15
725.755	42383.81
726.097	42163.48
726.439	42056.59
726.782	41933.43
727.124	42083.71
727.465	41974.79
727.807	41881.91
728.149	41737.96
728.491	41685.75
728.833	41837.84
729.175	41575.93
729.516	41443.95
729.858	41441.24
730.199	41466.55
730.541	41224.75
730.882	41334.35
731.224	41370.28
731.565	41087.8
731.906	41126.45
732.248	41203.06
732.589	40882.61
732.93	40694.37
733.271	40747.93
733.612	40875.61
733.953	40845.1
734.294	40544.32
734.635	40597.65
734.976	40587.48
735.317	40322.63
735.658	40415.73
735.999	40269.52
736.339	40175.06
736.68	40159.24
737.021	39934.84
737.361	39972.58
737.702	40134.61
738.042	39918.57
738.383	39957.66
738.723	39949.3
739.063	39721.06
739.404	39848.06
739.744	39640.61
740.084	39514.51
740.424	39582.76
740.764	39445.81
741.104	39497.11
741.444	39235.42
741.784	39053.28
742.124	39193.16
742.464	39088.76
742.804	39024.36
743.143	38874.3
743.483	38843.12
743.823	38630.24
744.162	38553.41
744.502	38612.61
744.841	38445.16
745.181	38716.57
745.52	38335.79
745.86	38475.9
746.199	38248.1
746.538	38208.78
746.877	38288.56
747.216	38143.25
747.556	37952.07
747.895	38104.38
748.234	37871.62
748.573	37726.76
748.911	37770.6
749.25	37733.99
749.589	37633.21
749.928	37515.69
750.267	37614.45
750.605	37359.31
750.944	37287.9
751.283	37129.94
751.621	37326.55
751.96	37097.85
752.298	36877.52
752.636	36931.98
752.975	36748.26
753.313	36753.91
753.651	36922.26
753.989	36687.92
754.327	36585.55
754.666	36273.47
755.004	36474.59
755.342	36406.12
755.679	36286.12
756.017	36054.94
756.355	36220.81
756.693	36023.76
757.031	35958
757.368	35694.05
757.706	35894.95
758.044	35633.48
758.381	35626.7
758.719	35515.52
759.056	35282.53
759.394	35205.25
759.731	35026.72
760.068	35002.54
760.405	34905.59
760.743	34762.77
761.08	34733.39
761.417	34520.07
761.754	34485.27
762.091	34540.41
762.428	34163.69
762.765	34268.55
763.102	34193.97
763.438	34040.08
763.775	33770.93
764.112	33708.79
764.449	33730.03
764.785	33607.1
765.122	33540.88
765.458	33254.34
765.795	33220.89
766.131	33128.47
766.467	33026.32
766.804	33033.1
767.14	32715.82
767.476	32723.5
767.812	32499.1
768.148	32610.29
768.485	32419.78
768.821	32352.21
769.157	32189.51
769.492	32116.29
769.828	32087.14
770.164	31734.15
770.5	31652.8
770.836	31851.66
771.171	31482.18
771.507	31307.5
771.842	31207.84
772.178	31279.93
772.513	31095.52
772.849	31039.03
773.184	30792.71
773.519	30799.03
773.855	30620.96
774.19	30499.83
774.525	30391.59
774.86	30356.33
775.195	30300.06
775.53	30116.57
775.865	29941.88
776.2	29738.5
776.535	29657.14
776.87	29509.13
777.205	29471.16
777.539	29309.81
777.874	29384.83
778.209	29137.38
778.543	29041.34
778.878	28842.7
779.212	28879.54
779.547	28609.26
779.881	28630.28
780.215	28373.79
780.55	28540.34
780.884	28254.24
781.218	28188.26
781.552	28224.87
781.886	27965.21
782.22	27797.53
782.554	27723.18
782.888	27491.1
783.222	27485.45
783.556	27313.48
783.889	27341.95
784.223	27065.35
784.557	27013.37
784.89	27083.43
785.224	26793.94
785.557	26645.47
785.891	26668.3
786.224	26619.26
786.558	26488.19
786.891	26228.53
787.224	26200.06
787.557	26175.65
787.891	26014.98
788.224	26094.75
788.557	25919.16
788.89	25787.87
789.223	25868.09
789.556	25623.58
789.888	25583.13
790.221	25519.85
790.554	25213.64
790.887	25318.5
791.219	25156.02
791.552	25143.14
791.884	25041.22
792.217	24973.43
792.549	24913.09
792.882	24656.15
793.214	24534.79
793.546	24655.47
793.879	24347.9
794.211	24219.09
794.543	24363.05
794.875	24171.86
795.207	24163.28
795.539	24067.69
795.871	24036.73
796.203	23763.74
796.535	23764.19
796.867	23773.46
797.198	23617.08
797.53	23539.56
797.862	23392.9
798.193	23481.26
798.525	23420.92
798.856	23303.86
799.188	22962.86
799.519	22992.01
799.85	22835.18
800.182	22854.61
800.513	22894.61
800.844	22587.95
801.175	22701.85
801.506	22586.37
801.837	22517.9
802.168	22490.1
802.499	22377.11
802.83	22255.53
803.161	22199.71
803.491	22131.47
803.822	22119.04
804.153	21965.82
804.483	21916.1
804.814	21761.76
805.145	21728.31
805.475	21716.79
805.805	21724.47
806.136	21605.38
806.466	21551.14
806.796	21584.14
807.126	21392.95
807.457	21224.15
807.787	21425.72
808.117	21197.71
808.447	21155.22
808.777	21073.41
809.107	21068.44
809.436	21032.06
809.766	20975.79
810.096	20943.47
810.426	20859.86
810.755	20794.78
811.085	20791.39
811.414	20605.4
811.744	20533.09
812.073	20471.62
812.403	20465.3
812.732	20261.68
813.061	20340.1
813.39	20248.13
813.719	20165.64
814.049	20171.97
814.378	20094.91
814.707	19955.48
815.036	19899.43
815.365	19878.42
815.693	19644.98
816.022	19846.55
816.351	19767.23
816.68	19638.2
817.008	19729.27
817.337	19557.3
817.665	19381.26
817.994	19534.7
818.322	19519.78
818.651	19412.89
818.979	19355.04
819.307	19368.37
819.636	19223.52
819.964	19078.67
820.292	19147.59
820.62	19200.7
820.948	19007.25
821.276	19133.58
821.604	18931.55
821.932	19083.41
822.259	19089.74
822.587	19079.79
822.915	18939.69
823.243	19087.93
823.57	18974.03
823.898	19021.04
824.225	18854.94
824.553	18867.6
824.88	18914.15
825.207	18920.03
825.535	18843.87
825.862	19021.94
826.189	18881.61
826.516	18907.14
826.843	18974.94
827.17	18973.81
827.497	18992.79
827.824	18875.73
828.151	18891.78
828.478	18840.71
828.805	18971.1
829.131	18813.36
829.458	18815.85
829.785	18757.54
830.111	18870.53
830.438	18927.03
830.764	18855.62
831.09	18921.61
831.417	18766.81
831.743	18823.76
832.069	18801.61
832.395	18717.77
832.722	18822.4
833.048	18695.4
833.374	18792.8
833.7	18653.59
834.026	18772.46
834.351	18800.93
834.677	18702.18
835.003	18745.57
835.329	18688.17
835.654	18643.42
835.98	18596.64
836.306	18598.23
836.631	18417.21
836.956	18511.9
837.282	18610.43
837.607	18485.91
837.932	18460.15
838.258	18334.96
838.583	18371.79
838.908	18250.21
839.233	18374.05
839.558	18313.49
839.883	18243.66
840.208	18140.16
840.533	18254.05
840.858	18254.73
841.182	18247.95
841.507	18188.97
841.832	18048.64
842.156	18054.06
842.481	18003.44
842.805	17908.75
843.13	17886.83
843.454	17892.03
843.778	17772.48
844.103	17730.45
844.427	17753.28
844.751	17816.1
845.075	17685.26
845.399	17551.47
845.723	17455.2
846.047	17549.21
846.371	17467.86
846.695	17398.94
847.019	17294.76
847.343	17251.82
847.666	17052.96
847.99	17036.68
848.313	16964.82
848.637	16882.79
848.96	16938.83
849.284	16913.98
849.607	16699.97
849.931	16668.33
850.254	16525.29
850.577	16558.05
850.9	16397.61
851.223	16410.49
851.546	16296.59
851.869	16135.01
852.192	16428.57
852.515	16175.24
852.838	16057.73
853.161	16068.35
853.483	16009.14
853.806	15898.18
854.129	15919.65
854.451	15803.95
854.774	15758.98
855.096	15698.64
855.419	15675.14
855.741	15626.1
856.063	15571.41
856.385	15522.6
856.708	15380.68
857.03	15371.64
857.352	15415.26
857.674	15404.86
857.996	15283.74
858.318	15211.42
858.64	15261.82
858.961	15145.44
859.283	15026.12
859.605	14993.8
859.926	15004.42
860.248	14999.9
860.57	14946.8
860.891	14985.89
861.212	14906.8
861.534	14876.06
861.855	14839.45
862.176	14907.7
862.498	14844.88
862.819	14950.19
863.14	14740.7
863.461	14789.06
863.782	14716.52
864.103	14779.34
864.424	14662.51
864.745	14608.73
865.065	14635.84
865.386	14552
865.707	14469.52
866.027	14569.63
866.348	14479.69
866.668	14446.7
866.989	14453.93
867.309	14303.88
867.63	14351.33
867.95	14415.51
868.27	14342.74
868.59	14333.03
868.91	14280.83
869.23	14250.54
869.55	14262.75
869.87	14222.52
870.19	14223.65
870.51	14262.52
870.83	14242.41
871.15	14064.11
871.469	14100.94
871.789	14153.14
872.109	14163.99
872.428	14095.29
872.748	14153.82
873.067	14079.02
873.386	14048.06
873.706	13933.49
874.025	13898.91
874.344	13894.39
874.663	13925.58
874.982	13940.5
875.301	13896.65
875.62	13880.61
875.939	13826.6
876.258	13823.89
876.577	13789.31
876.896	13789.54
877.214	13700.73
877.533	13762.65
877.852	13698.24
878.17	13677.45
878.489	13759.48
878.807	13685.36
879.125	13620.5
879.444	13553.84
879.762	13547.51
880.08	13589.77
880.398	13505.93
880.716	13563.33
881.034	13537.12
881.352	13490.79
881.67	13421.41
881.988	13428.42
882.306	13392.71
882.624	13415.09
882.941	13352.04
883.259	13227.29
883.577	13328.08
883.894	13315.43
884.212	13257.35
884.529	13174.87
884.846	13239.95
885.164	13205.83
885.481	13168.54
885.798	13144.36
886.115	13111.59
886.432	13146.39
886.75	13032.5
887.067	13011.71
887.383	12901.88
887.7	12943.01
888.017	12841.54
888.334	12932.84
888.651	12777.59
888.967	12788.21
889.284	12757.7
889.6	12760.41
889.917	12585.05
890.233	12623.92
890.55	12592.06
890.866	12671.38
891.182	12617.37
891.498	12483.36
891.815	12465.28
892.131	12417.37
892.447	12420.08
892.763	12296.47
893.079	12323.59
893.395	12305.74
893.71	12286.53
894.026	12235.23
894.342	12238.39
894.657	12076.59
894.973	12041.11
895.289	12047.89
895.604	12052.64
895.92	11934.22
896.235	11948.91
896.55	11966.76
896.865	11908.23
897.181	11898.97
897.496	11841.79
897.811	11751.63
898.126	11740.55
898.441	11698.97
898.756	11710.5
899.071	11621.23
899.386	11604.29
899.7	11505.98
900.015	11510.05
900.33	11460.11
900.644	11436.61
900.959	11384.4
901.273	11309.15
901.588	11290.85
901.902	11236.61
902.216	11261.92
902.531	11186.67
902.845	11238.42
903.159	11193
903.473	11090.85
903.787	11049.05
904.101	10952.78
904.415	11047.69
904.729	10950.97
905.042	10860.12
905.356	10914.59
905.67	10830.97
905.984	10833.23
906.297	10734.93
906.611	10696.51
906.924	10670.52
907.237	10638.43
907.551	10556.4
907.864	10560.24
908.177	10555.73
908.491	10458.33
908.804	10422.85
909.117	10309.18
909.43	10300.14
909.743	10301.72
910.056	10286.13
910.368	10165.68
910.681	10177.43
910.994	10157.32
911.307	10087.71
911.619	10026.47
911.932	10067.15
912.244	9967.04
912.557	9992.8
912.869	9918.68
913.181	9870.32
913.494	9861.73
913.806	9808.17
914.118	9729.76
914.43	9659.48
914.742	9699.7
915.054	9567.28
915.366	9544.68
915.678	9531.12
915.99	9484.34
916.302	9424.46
916.613	9467.84
916.925	9484.12
917.236	9359.6
917.548	9296.55
917.859	9344.46
918.171	9215.42
918.482	9195.76
918.794	9107.85
919.105	9137.01
919.416	8965.94
919.727	9045.93
920.038	8962.09
920.349	8929.55
920.66	8917.58
920.971	8878.03
921.282	8826.28
921.593	8795.77
921.903	8748.09
922.214	8807.52
922.525	8739.28
922.835	8634.19
923.146	8616.79
923.456	8594.65
923.767	8495.89
924.077	8478.72
924.387	8515.55
924.697	8456.8
925.008	8398.04
925.318	8383.58
925.628	8320.08
925.938	8304.26
926.248	8219.74
926.558	8222.23
926.867	8203.7
927.177	8156.01
927.487	8092.97
927.796	8019.75
928.106	8045.73
928.416	8009.58
928.725	7950.37
929.034	7959.41
929.344	7952.86
929.653	7898.62
929.962	7839.41
930.271	7796.93
930.581	7717.83
930.89	7658.85
931.199	7634.22
931.508	7605.07
931.817	7626.76
932.125	7570.49
932.434	7588.35
932.743	7571.17
933.051	7471.74
933.36	7431.97
933.669	7446.43
933.977	7435.81
934.286	7409.59
934.594	7346.77
934.902	7340.89
935.21	7189.71
935.519	7247.56
935.827	7223.84
936.135	7245.76
936.443	7100.67
936.751	7128.24
937.059	7034.01
937.367	7011.41
937.674	7024.74
937.982	6910.62
938.29	6951.07
938.597	6937.29
938.905	6865.88
939.213	6887.12
939.52	6792.66
939.827	6805.54
940.135	6762.38
940.442	6748.82
940.749	6702.04
941.056	6723.74
941.363	6624.3
941.67	6593.34
941.977	6578.65
942.284	6507.7
942.591	6466.79
942.898	6491.2
943.205	6460.01
943.511	6392.9
943.818	6390.64
944.125	6307.48
944.431	6306.8
944.738	6352.9
945.044	6291.2
945.35	6320.13
945.657	6214.14
945.963	6255.05
946.269	6201.04
946.575	6124.88
946.881	6082.62
947.187	6074.94
947.493	6028.39
947.799	6031.78
948.105	6054.83
948.41	5993.36
948.716	5966.02
949.022	5946.13
949.327	5911.33
949.633	5862.29
949.938	5834.72
950.244	5881.72
950.549	5794.04
950.854	5777.77
951.16	5814.83
951.465	5665.23
951.77	5703.42
952.075	5682.41
952.38	5665.46
952.685	5646.93
952.99	5628.17
953.294	5588.85
953.599	5579.81
953.904	5553.82
954.209	5499.36
954.513	5459.14
954.818	5463.2
955.122	5449.19
955.426	5442.87
955.731	5387.73
956.035	5406.71
956.339	5346.14
956.643	5361.96
956.948	5323.55
957.252	5272.25
957.556	5295.75
957.86	5255.07
958.163	5197.67
958.467	5127.39
958.771	5157.45
959.075	5109.77
959.378	5127.17
959.682	5107.28
959.985	5055.98
960.289	5053.27
960.592	5048.75
960.896	5008.75
961.199	4959.94
961.502	4923.11
961.805	4962.2
962.108	4861.86
962.411	4886.27
962.714	4825.71
963.017	4837.01
963.32	4854.18
963.623	4801.3
963.926	4805.14
964.228	4748.19
964.531	4754.97
964.833	4729.44
965.136	4650.12
965.438	4661.19
965.741	4603.57
966.043	4606.73
966.345	4581.65
966.648	4592.49
966.95	4595.43
967.252	4521.76
967.554	4547.07
967.856	4484.25
968.158	4464.13
968.46	4462.78
968.761	4441.08
969.063	4446.73
969.365	4417.13
969.666	4376
969.968	4318.15
970.269	4314.08
970.571	4366.28
970.872	4336
971.174	4285.83
971.475	4284.93
971.776	4280.18
972.077	4227.53
972.378	4176.46
972.679	4203.35
972.98	4226.4
973.281	4193.18
973.582	4147.31
973.883	4123.58
974.183	4070.25
974.484	4085.39
974.785	4024.15
975.085	4077.93
975.386	4061.21
975.686	3964.94
975.986	3974.66
976.287	3944.37
976.587	3933.3
976.887	3930.36
977.187	3931.49
977.487	3930.14
977.787	3864.15
978.087	3857.14
978.387	3817.6
978.687	3838.16
978.987	3835
979.286	3750.48
979.586	3780.99
979.885	3792.06
980.185	3790.25
980.484	3740.31
980.784	3690.37
981.083	3704.83
981.382	3661.44
981.682	3690.37
981.981	3631.84
982.28	3634.33
982.579	3571.73
982.878	3559.98
983.177	3541.22
983.475	3539.86
983.774	3554.1
984.073	3516.81
984.372	3471.39
984.67	3500.77
984.969	3465.74
985.267	3479.08
985.566	3471.62
985.864	3409.92
986.162	3406.31
986.461	3383.94
986.759	3369.93
987.057	3366.76
987.355	3310.72
987.653	3322.02
987.951	3274.33
988.249	3301.23
988.547	3268.91
988.844	3264.62
989.142	3252.64
989.44	3249.7
989.737	3203.6
990.035	3200.66
990.332	3204.51
990.63	3154.79
990.927	3155.47
991.224	3135.36
991.521	3148.46
991.819	3113.66
992.116	3093.55
992.413	3076.83
992.71	3040.89
993.006	3060.78
993.303	3068.69
993.6	3064.62
993.897	3017.39
994.193	2968.58
994.49	2991.4
994.787	2978.07
995.083	2960.22
995.379	2920.9
995.676	2885.19
995.972	2899.66
996.268	2871.86
996.565	2862.37
996.861	2860.11
997.157	2832.99
997.453	2822.14
997.749	2812.65
998.044	2789.6
998.34	2766.33
998.636	2757.29
998.932	2750.05
999.227	2700.11
999.523	2735.14
999.818	2687.46
1000.114	2661.92
1000.409	2647.23
1000.704	2680.9
1001	2672.54
1001.295	2629.15
1001.59	2632.54
1001.885	2588.03
1002.18	2570.62
1002.475	2548.7
1002.77	2578.76
1003.065	2538.53
1003.359	2510.51
1003.654	2530.63
1003.949	2497.63
1004.243	2483.17
1004.538	2427.13
1004.832	2487.01
1005.127	2428.26
1005.421	2419.22
1005.715	2420.12
1006.009	2434.81
1006.304	2393.45
1006.598	2350.52
1006.892	2374.92
1007.186	2308.03
1007.48	2342.38
1007.773	2299.22
1008.067	2304.64
1008.361	2291.08
1008.655	2261.03
1008.948	2218.54
1009.242	2231.65
1009.535	2248.15
1009.829	2212.67
1010.122	2228.49
1010.415	2200.46
1010.708	2174.7
1011.001	2126.12
1011.295	2120.47
1011.588	2180.58
1011.881	2115.04
1012.173	2117.53
1012.466	2105.55
1012.759	2100.81
1013.052	2089.96
1013.344	2065.33
1013.637	2020.36
1013.93	2043.86
1014.222	2041.37
1014.514	2025.55
1014.807	2007.02
1015.099	2004.76
1015.391	1952.79
1015.683	1954.6
1015.976	1978.1
1016.268	1962.96
1016.56	1934.03
1016.851	1890.42
1017.143	1901.04
1017.435	1894.03
1017.727	1880.7
1018.018	1895.16
1018.31	1838.89
1018.602	1828.95
1018.893	1791.21
1019.185	1828.95
1019.476	1793.47
1019.767	1804.77
1020.058	1769.97
1020.35	1763.64
1020.641	1734.26
1020.932	1716.86
1021.223	1766.13
1021.514	1725.22
1021.804	1716.18
1022.095	1712.57
1022.386	1671.89
1022.677	1665.79
1022.967	1622.85
1023.258	1657.88
1023.548	1652.91
1023.839	1621.5
1024.129	1607.94
1024.419	1610.42
1024.709	1586.92
1025	1574.49
1025.29	1573.81
1025.58	1553.93
1025.87	1539.69
1026.16	1479.81
1026.449	1554.61
1026.739	1487.49
1027.029	1513.7
1027.319	1500.37
1027.608	1508.96
1027.898	1496.98
1028.187	1465.12
1028.477	1465.12
1028.766	1440.94
1029.055	1412.24
1029.344	1395.51
1029.634	1418.34
1029.923	1383.76
1030.212	1386.25
1030.501	1371.56
1030.79	1382.63
1031.078	1369.3
1031.367	1333.82
1031.656	1361.39
1031.945	1346.02
1032.233	1295.4
1032.522	1294.95
1032.81	1303.31
1033.099	1306.02
1033.387	1312.13
1033.675	1311.67
1033.963	1249.98
1034.251	1249.3
1034.54	1242.52
1034.828	1247.95
1035.116	1232.58
1035.403	1225.35
1035.691	1211.79
1035.979	1202.75
1036.267	1190.1
1036.554	1196.2
1036.842	1193.94
1037.129	1188.06
1037.417	1151.9
1037.704	1169.98
1037.992	1149.87
1038.279	1150.55
1038.566	1106.93
1038.853	1106.93
1039.14	1106.93
