Data from foil_FLMS001491_077.txt Node
Date: Tue Feb 07 11:36:43 GMT 2017
User: dcchb
Spectrometer: FLMS00149
Trigger mode: 0
Integration Time (sec): 2.000000E-2
Scans to average: 10
Electric dark correction enabled: true
Nonlinearity correction enabled: false
Boxcar width: 0
XAxis mode: Wavelengths
Number of Pixels in Spectrum: 2048
>>>>>Begin Spectral Data<<<<<
341.393	-25.88
341.776	-25.88
342.16	-25.88
342.543	-63.84
342.927	-62.48
343.31	-73.11
343.693	-60.9
344.077	-67.23
344.46	-33.11
344.843	-57.51
345.226	-53.67
345.61	-39.43
345.993	-21.58
346.376	-5.08
346.759	1.02
347.142	22.49
347.525	41.24
347.908	50.73
348.291	82.14
348.674	94.8
349.057	119.21
349.44	129.15
349.823	135.93
350.206	164.18
350.588	258.86
350.971	273.33
351.354	275.81
351.737	294.57
352.119	292.53
352.502	320.1
352.884	331.86
353.267	332.31
353.65	358.3
354.032	342.48
354.414	366.21
354.797	378.86
355.179	379.31
355.562	389.71
355.944	426.77
356.326	402.14
356.709	383.61
357.091	404.62
357.473	402.36
357.855	403.49
358.238	412.53
358.62	418.18
359.002	411.18
359.384	433.32
359.766	413.44
360.148	432.42
360.53	403.27
360.912	422.93
361.294	405.07
361.676	444.62
362.057	445.75
362.439	412.76
362.821	400.33
363.203	424.06
363.584	423.6
363.966	413.89
364.348	424.73
364.729	420.44
365.111	429.03
365.493	411.18
365.874	412.76
366.256	427.45
366.637	436.71
367.019	431.51
367.4	442.36
367.781	432.87
368.163	440.33
368.544	431.97
368.925	457.05
369.306	449.59
369.688	449.37
370.069	435.81
370.45	437.16
370.831	441.91
371.212	453.21
371.593	412.08
371.974	424.73
372.355	446.88
372.736	462.47
373.117	473.55
373.498	455.24
373.879	458.18
374.26	456.37
374.641	428.12
375.021	453.43
375.402	499.53
375.783	474
376.163	501.34
376.544	506.77
376.925	498.4
377.305	499.53
377.686	487.33
378.066	504.05
378.447	512.42
378.827	509.93
379.208	532.53
379.588	529.82
379.968	526.65
380.349	533.66
380.729	542.25
381.109	562.81
381.489	557.61
381.87	534.79
382.25	546.99
382.63	551.74
383.01	566.65
383.39	582.24
383.77	570.49
384.15	574.56
384.53	596.03
384.91	592.87
385.29	593.77
385.67	588.8
386.049	630.38
386.429	623.83
386.809	625.63
387.189	599.65
387.568	631.28
387.948	624.28
388.328	642.58
388.707	632.86
389.087	652.3
389.466	670.15
389.846	670.15
390.225	664.5
390.605	687.33
390.984	693.2
391.363	725.07
391.743	723.03
392.122	695.24
392.501	737.72
392.881	737.72
393.26	751.73
393.639	737.72
394.018	763.26
394.397	766.42
394.776	771.62
395.155	777.95
395.534	783.6
395.913	798.28
396.292	796.7
396.671	813.88
397.05	837.61
397.429	824.27
397.808	831.96
398.186	845.29
398.565	845.97
398.944	850.03
399.323	882.58
399.701	862.24
400.08	884.84
400.458	890.94
400.837	880.32
401.215	909.92
401.594	912.41
401.972	913.31
402.351	933.87
402.729	930.26
403.107	932.74
403.486	954.21
403.864	967.09
404.242	991.5
404.62	969.13
404.999	976.58
405.377	996.92
405.755	987.43
406.133	1050.71
406.511	1058.84
406.889	1068.33
407.267	1086.41
407.645	1073.53
408.023	1072.4
408.401	1121.21
408.779	1114.66
409.156	1126.19
409.534	1156.24
409.912	1179.74
410.29	1212.51
410.667	1207.99
411.045	1226.75
411.422	1221.55
411.8	1214.77
412.178	1232.62
412.555	1267.65
412.933	1294.32
413.31	1276.24
413.687	1337.7
414.065	1339.74
414.442	1345.39
414.819	1370.7
415.197	1376.57
415.574	1405.5
415.951	1432.84
416.328	1428.55
416.705	1414.99
417.082	1444.37
417.46	1426.74
417.837	1480.75
418.214	1490.92
418.591	1490.02
418.967	1516.01
419.344	1518.04
419.721	1532.95
420.098	1543.35
420.475	1571.37
420.852	1598.94
421.228	1595.33
421.605	1616.79
421.982	1644.14
422.358	1643.01
422.735	1677.58
423.111	1685.72
423.488	1713.51
423.864	1717.81
424.241	1718.94
424.617	1746.73
424.994	1758.48
425.37	1788.99
425.746	1805.49
426.123	1808.43
426.499	1842.55
426.875	1843.91
427.251	1925.71
427.627	1943.34
428.003	1927.07
428.379	1943.56
428.756	1972.26
429.132	1999.38
429.507	1998.93
429.883	2036.22
430.259	2081.64
430.635	2094.97
431.011	2119.83
431.387	2186.5
431.763	2183.78
432.138	2216.33
432.514	2236.44
432.89	2273.95
433.265	2281.86
433.641	2308.53
434.016	2334.29
434.392	2396.43
434.767	2437.11
435.143	2414.74
435.518	2459.26
435.894	2457.68
436.269	2518.69
436.644	2514.85
437.02	2554.4
437.395	2575.19
437.77	2631.46
438.145	2648.63
438.52	2655.18
438.895	2687.95
439.271	2743.77
439.646	2770.44
440.021	2815.86
440.395	2788.74
440.77	2772.92
441.145	2819.93
441.52	2826.93
441.895	2894.5
442.27	2889.08
442.645	2866.03
443.019	2925.69
443.394	2906.48
443.769	2982.41
444.143	2960.94
444.518	3052.01
444.892	3014.95
445.267	3030.32
445.641	3038.9
446.016	3094.04
446.39	3118.68
446.764	3160.93
447.139	3173.14
447.513	3203.64
447.887	3164.1
448.262	3183.53
448.636	3207.71
449.01	3272.8
449.384	3242.29
449.758	3317.54
450.132	3330.42
450.506	3375.62
450.88	3365
451.254	3397.76
451.628	3444.99
452.002	3477.54
452.376	3508.95
452.75	3512.11
453.123	3564.99
453.497	3612.67
453.871	3625.1
454.244	3729.05
454.618	3773.12
454.992	3808.15
455.365	3831.65
455.739	3875.04
456.112	3913
456.486	3930.63
456.859	4018.76
457.232	4078.65
457.606	4085.2
457.979	4118.2
458.352	4210.62
458.725	4289.04
459.099	4252.43
459.472	4366.33
459.845	4418.98
460.218	4411.07
460.591	4510.5
460.964	4578.52
461.337	4613.78
461.71	4689.71
462.083	4709.37
462.456	4719.76
462.829	4752.76
463.201	4862.13
463.574	4849.48
463.947	4913.43
464.32	5057.38
464.692	5128.79
465.065	5150.49
465.438	5231.61
465.81	5284.72
466.183	5346.19
466.555	5401.78
466.928	5408.56
467.3	5452.4
467.672	5587.31
468.045	5696.23
468.417	5657.59
468.789	5734.43
469.161	5820.75
469.534	5912.27
469.906	6088.09
470.278	6102.55
470.65	6169.44
471.022	6352.04
471.394	6390.23
471.766	6428.19
472.138	6496.67
472.51	6623.89
472.882	6707.51
473.253	6802.65
473.625	6874.06
473.997	7066.82
474.369	7073.6
474.74	7206.7
475.112	7333.03
475.484	7411.67
475.855	7595.85
476.227	7642.85
476.598	7801.72
476.97	7896.4
477.341	8138.66
477.713	8186.11
478.084	8234.47
478.455	8489.83
478.827	8539.78
479.198	8754.91
479.569	8765.08
479.94	9020.44
480.311	9119.65
480.682	9324.39
481.053	9492.52
481.424	9630.82
481.795	9706.07
482.166	9930.02
482.537	10033.3
482.908	10157.81
483.279	10284.36
483.65	10544.24
484.021	10644.13
484.391	10824.24
484.762	10938.36
485.133	10994.85
485.503	11177.45
485.874	11499.47
486.244	11496.53
486.615	11756.87
486.985	11854.72
487.356	12063.52
487.726	12202.05
488.097	12475.27
488.467	12499.45
488.837	12744.64
489.207	12921.36
489.578	13051.75
489.948	13146.43
490.318	13364.06
490.688	13455.13
491.058	13605.18
491.428	13719.75
491.798	13846.53
492.168	14225.5
492.538	14202.23
492.908	14438.38
493.278	14629.56
493.648	14688.09
494.017	14750.91
494.387	14987.06
494.757	15116.78
495.126	15281.29
495.496	15344.34
495.866	15429.54
496.235	15589.99
496.605	15676.99
496.974	15845.12
497.344	16027.49
497.713	16032.01
498.082	16265.67
498.452	16355.39
498.821	16412.79
499.19	16526.01
499.559	16630.41
499.928	16756.51
500.298	16818.65
500.667	17028.37
501.036	17039.66
501.405	17203.05
501.774	17139.78
502.143	17387.23
502.512	17504.51
502.88	17692.3
503.249	17653.89
503.618	17909.7
503.987	17899.98
504.356	17969.58
504.724	18243.93
505.093	18287.54
505.462	18313.08
505.83	18523.02
506.199	18636.46
506.567	18833.52
506.936	18930.24
507.304	19004.13
507.672	19177.91
508.041	19230.34
508.409	19413.84
508.777	19591.91
509.145	19658.81
509.514	19801.17
509.882	19966.59
510.25	19924.33
510.618	20102.41
510.986	20259.92
511.354	20417.43
511.722	20503.53
512.09	20822.16
512.458	20682.96
512.826	20917.53
513.193	20956.85
513.561	21171.31
513.929	21350.06
514.297	21643.16
514.664	21751.41
515.032	21837.05
515.4	21936.71
515.767	22063.04
516.135	22136.25
516.502	22184.84
516.869	22579.63
517.237	22727.43
517.604	22643.81
517.972	22851.26
518.339	22987.08
518.706	23203.57
519.073	23306.84
519.44	23377.8
519.808	23729.21
520.175	23790.45
520.542	24118.35
520.909	24235.18
521.276	24309.3
521.643	24546.81
522.009	24733.7
522.376	24883.07
522.743	25072.9
523.11	25237.42
523.477	25595.82
523.843	25584.98
524.21	25943.61
524.577	26049.37
524.943	26221.12
525.31	26297.95
525.676	26536.36
526.043	26681.67
526.409	26909.69
526.776	27170.47
527.142	27317.59
527.508	27377.02
527.874	27678.71
528.241	27831.92
528.607	27846.16
528.973	28101.97
529.339	28204.34
529.705	28514.84
530.071	28721.84
530.437	28745.12
530.803	29061.72
531.169	29177.65
531.535	29041.84
531.901	29385.33
532.267	29517.98
532.632	29676.17
532.998	29761.59
533.364	30038.42
533.73	30079.77
534.095	30297.4
534.461	30357.73
534.826	30603.83
535.192	30713.66
535.557	30870.04
535.923	30872.97
536.288	31084.72
536.653	31248.78
537.019	31187.54
537.384	31351.38
537.749	31484.48
538.114	31637.25
538.479	31590.69
538.845	31799.28
539.21	31777.36
539.575	32029.1
539.94	32137.8
540.305	32342.54
540.67	32230.68
541.034	32475.19
541.399	32542.99
541.764	32691.91
542.129	32903.2
542.494	32828.18
542.858	33077.21
543.223	33194.04
543.587	33370.99
543.952	33172.12
544.316	33539.8
544.681	33479.23
545.045	33566.46
545.41	33881.48
545.774	33930.07
546.138	34102.49
546.503	34011.87
546.867	34085.09
547.231	34308.14
547.595	34494.35
547.959	34613.67
548.324	34616.15
548.688	34695.47
549.052	34777.96
549.416	34923.49
549.779	35017.95
550.143	35077.83
550.507	35394.66
550.871	35549.91
551.235	35569.35
551.599	35919.85
551.962	35976.79
552.326	36066.28
552.689	36230.57
553.053	36033.06
553.417	36400.29
553.78	36705.14
554.143	36550.79
554.507	36729.54
554.87	36943.55
555.234	37347.15
555.597	37121.4
555.96	37305.8
556.323	37579.24
556.686	37684.77
557.05	37811.1
557.413	37829.85
557.776	38084.08
558.139	38333.57
558.502	38211.09
558.865	38449.05
559.228	38728.59
559.59	38981.91
559.953	38920.67
560.316	39264.17
560.679	39448.57
561.041	39664.61
561.404	39899.85
561.767	40078.83
562.129	39984.15
562.492	40438.37
562.854	40381.88
563.217	40402.89
563.579	40624.36
563.941	40886.72
564.304	41127.17
564.666	41322.87
565.028	41343.88
565.39	41476.08
565.753	41775.74
566.115	41917.43
566.477	42181.6
566.839	42284.2
567.201	42487.36
567.563	42519.67
567.925	42825.2
568.287	42879.21
568.648	42929.61
569.01	43163.05
569.372	43339.99
569.734	43398.75
570.095	43621.79
570.457	43691.62
570.819	43717.38
571.18	43993.98
571.542	44038.73
571.903	44216.13
572.265	44170.25
572.626	44391.26
572.987	44514.65
573.349	44579.05
573.71	44720.52
574.071	44860.63
574.432	44990.34
574.794	45249.77
575.155	45192.82
575.516	45083.45
575.877	45266.95
576.238	45421.97
576.599	45609.08
576.96	45554.62
577.32	45613.83
577.681	45828.29
578.042	45861.73
578.403	45839.59
578.763	45865.8
579.124	46154.83
579.485	46212.46
579.845	46366.35
580.206	46125.68
580.566	46204.77
580.927	46219.91
581.287	46513.69
581.648	46325.22
582.008	46568.83
582.368	46437.99
582.728	46421.27
583.089	46513.47
583.449	46378.33
583.809	46612.9
584.169	46630.53
584.529	46584.88
584.889	46793.46
585.249	46573.8
585.609	46395.05
585.969	46650.64
586.329	46468.5
586.688	46655.38
587.048	46598.66
587.408	46561.83
587.768	46663.29
588.127	46470.76
588.487	46536.06
588.846	46846.11
589.206	46595.05
589.565	46505.56
589.925	46701.94
590.284	46573.8
590.643	46831.42
591.003	46777.19
591.362	46873.68
591.721	46721.82
592.08	46690.18
592.44	46903.51
592.799	46808.83
593.158	46593.69
593.517	46835.72
593.876	46810.86
594.235	46640.47
594.593	46863.29
594.952	46830.29
595.311	46703.07
595.67	46746
596.029	47154.35
596.387	46970.4
596.746	47090.85
597.104	46909.39
597.463	46889.73
597.822	47094.24
598.18	46940.12
598.538	46952.78
598.897	47296.95
599.255	46783.97
599.613	47410.39
599.972	47002.27
600.33	47290.85
600.688	47103.06
601.046	47113
601.404	47310.28
601.762	47202.04
602.12	47369.71
602.478	47340.56
602.836	47404.74
603.194	47127.91
603.552	47364.74
603.91	47202.71
604.268	47382.82
604.625	47233.45
604.983	47400.22
605.341	47330.85
605.698	47514.8
606.056	47618.52
606.413	47454.68
606.771	47802.25
607.128	47750.72
607.485	47508.92
607.843	47628.92
608.2	47793.21
608.557	47927.21
608.914	47791.17
609.272	48003.6
609.629	48037.95
609.986	48169.92
610.343	47925.86
610.7	48257.38
611.057	48072.3
611.414	48132.18
611.771	48061.9
612.127	48258.51
612.484	48284.49
612.841	48297.37
613.198	48154.55
613.554	48300.31
613.911	48444.71
614.267	48409.46
614.624	48260.31
614.98	48361.33
615.337	48662.11
615.693	48586.41
616.05	48616.01
616.406	48786.63
616.762	48669.34
617.118	48704.37
617.475	48610.13
617.831	48777.36
618.187	48721.77
618.543	48818.26
618.899	48887.64
619.255	48683.58
619.611	48769.9
619.967	48947.3
620.323	49043.57
620.678	48705.95
621.034	48807.19
621.39	48834.31
621.746	48732.62
622.101	49186.39
622.457	48792.05
622.812	48902.33
623.168	48935.55
623.523	48743.24
623.879	48947.53
624.234	48729.68
624.589	48857.59
624.945	48991.37
625.3	48988.66
625.655	48805.84
626.01	48803.8
626.365	48938.49
626.72	48743.01
627.075	48887.87
627.43	48743.01
627.785	48785.5
628.14	48861.65
628.495	48729.68
628.85	48577.14
629.205	48451.49
629.559	48707.31
629.914	48517.48
630.269	48593.64
630.623	48515.45
630.978	48382.8
631.332	48516.13
631.687	48594.32
632.041	48373.53
632.396	48439.29
632.75	48272.52
633.104	48380.54
633.459	48251.95
633.813	48163.59
634.167	48140.99
634.521	48062.35
634.875	48150.03
635.229	48019.64
635.583	47811.51
635.937	47802.47
636.291	47673.89
636.645	47873.88
636.999	47671.18
637.352	47771.06
637.706	47469.83
638.06	47606.09
638.413	47596.15
638.767	47448.13
639.121	47653.55
639.474	47365.65
639.828	47420.34
640.181	47425.98
640.534	47239.32
640.888	47188.02
641.241	46955.71
641.594	47019.67
641.947	47151.64
642.301	47004.07
642.654	46992.1
643.007	46971.99
643.36	46851.08
643.713	46733.12
644.066	47054.47
644.419	46535.61
644.771	46148.05
645.124	45660.61
645.477	45558.01
645.83	45350.56
646.182	45460.84
646.535	45404.34
646.888	45508.75
647.24	45330.67
647.593	45556.88
647.945	45433.49
648.298	45198.47
648.65	45189.21
649.002	44991.47
649.355	45327.06
649.707	45033.51
650.059	45063.11
650.411	45452.25
650.763	45471.91
651.115	45838.46
651.467	45703.54
651.819	45713.26
652.171	45487.96
652.523	45499.93
652.875	45488.41
653.227	45226.27
653.578	45696.54
653.93	45494.74
654.282	45417
654.633	45379.03
654.985	45366.83
655.337	45349.88
655.688	45300.16
656.039	45381.07
656.391	45012.71
656.742	45139.49
657.094	45198.02
657.445	45111.24
657.796	45028.08
658.147	44820.4
658.498	44898.14
658.849	44861.31
659.2	44915.77
659.551	44856.11
659.902	44896.11
660.253	44745.6
660.604	44712.61
660.955	44701.54
661.306	44618.83
661.656	44595.32
662.007	44564.59
662.358	44514.65
662.708	44589
663.059	44410.7
663.409	44178.84
663.76	44675.1
664.11	44410.47
664.461	44652.5
664.811	44425.84
665.161	44433.52
665.511	44267.42
665.862	44461.32
666.212	44443.69
666.562	44358.95
666.912	44288.44
667.262	44160.99
667.612	44144.26
667.962	44291.38
668.312	44078.5
668.662	44180.19
669.011	44209.57
669.361	44220.87
669.711	44036.24
670.06	44130.03
670.41	44000.09
670.76	43844.84
671.109	44015.45
671.459	43817.72
671.808	43786.98
672.157	43877.6
672.507	43551.51
672.856	43605.07
673.205	43586.54
673.554	43879.19
673.904	43625.18
674.253	43778.85
674.602	43561
674.951	43017.74
675.3	43018.42
675.649	43436.71
675.998	43405.53
676.346	43424.96
676.695	43424.28
677.044	43206.89
677.393	43355.81
677.741	43191.97
678.09	43087.34
678.438	42968.47
678.787	43026.33
679.135	43081.92
679.484	42756.73
679.832	42997.17
680.181	42721.48
680.529	42925.09
680.877	42750.4
681.225	42659.56
681.573	42892.54
681.922	42543.63
682.27	42517.19
682.618	42554.25
682.966	42316.74
683.314	42385.21
683.661	42233.35
684.009	42051.44
684.357	41917.2
684.705	42081.27
685.053	41944.09
685.4	41940.93
685.748	41801.5
686.095	41705.01
686.443	41533.48
686.79	41491.68
687.138	41566.48
687.485	41439.93
687.832	41255.07
688.18	41306.6
688.527	41143.66
688.874	41063.67
689.221	40746.84
689.568	40742.54
689.915	40637.46
690.262	40549.1
690.609	40659.61
690.956	40443.12
691.303	40397.92
691.65	40236.12
691.997	40122.45
692.344	39849.46
692.69	39861.66
693.037	39942.11
693.383	39560.43
693.73	39612.86
694.077	39481.56
694.423	39398.4
694.769	39335.58
695.116	39211.06
695.462	39192.75
695.808	38968.81
696.155	39049.48
696.501	38731.3
696.847	38776.95
697.193	38414.47
697.539	38647.91
697.885	38417.18
698.231	38233.68
698.577	38251.08
698.923	38021.26
699.269	37916.63
699.614	37795.28
699.96	37851.32
700.306	37702.62
700.651	37469.64
700.997	37487.04
701.342	37373.59
701.688	37345.35
702.033	37218.12
702.379	37161.17
702.724	37023.77
703.069	37029.42
703.415	36666.27
703.76	36760.28
704.105	36600.51
704.45	36474.63
704.795	36271.93
705.14	36242.78
705.485	36179.73
705.83	36055.44
706.175	36167.98
706.52	35919.39
706.865	35838.72
707.209	35741.55
707.554	35598.5
707.899	35631.72
708.243	35410.71
708.588	35389.24
708.932	35249.58
709.277	35122.58
709.621	35182.24
709.966	34893.43
710.31	34909.03
710.654	34582.71
710.998	34819.31
711.342	34825.64
711.687	34634.46
712.031	34442.37
712.375	34314.24
712.719	34336.39
713.063	34260.91
713.407	34445.99
713.75	34170.51
714.094	34140.46
714.438	33987.92
714.782	34057.97
715.125	33827.25
715.469	33909.96
715.812	33647.82
716.156	33464.77
716.499	33503.86
716.843	33549.06
717.186	33228.84
717.53	33470.65
717.873	33401.72
718.216	33416.18
718.559	33116.3
718.902	32994.5
719.246	32963.31
719.589	32985.69
719.932	32722.87
720.275	32869.76
720.617	32830.89
720.96	32591.8
721.303	32706.37
721.646	32605.36
721.989	32302.54
722.331	32528.3
722.674	32428.86
723.016	32440.39
723.359	32313.84
723.701	32448.3
724.044	32040.85
724.386	32000.18
724.729	31993.17
725.071	31945.49
725.413	31945.26
725.755	31797.69
726.097	31704.82
726.439	31605.84
726.782	31667.3
727.124	31765.83
727.465	31548.89
727.807	31420.53
728.149	31342.57
728.491	31335.56
728.833	31357.03
729.175	31197.26
729.516	31149.8
729.858	31090.14
730.199	31016.25
730.541	30960.88
730.882	30966.53
731.224	31022.8
731.565	30749.81
731.906	30865.97
732.248	30779.19
732.589	30475.02
732.93	30524.51
733.271	30561.12
733.612	30644.28
733.953	30564.51
734.294	30417.84
734.635	30355.25
734.976	30426.21
735.317	30209.71
735.658	30246.1
735.999	30216.04
736.339	30125.87
736.68	30202.26
737.021	30046.55
737.361	30008.36
737.702	29939.21
738.042	29913.22
738.383	29804.53
738.723	29884.07
739.063	29706.68
739.404	29874.58
739.744	29583.29
740.084	29539.45
740.424	29588.49
740.764	29580.8
741.104	29509.39
741.444	29311.43
741.784	29258.78
742.124	29324.09
742.464	29248.38
742.804	29136.97
743.143	29117.99
743.483	29163.41
743.823	28937.66
744.162	28844.33
744.502	29018.33
744.841	28807.27
745.181	28817.21
745.52	28739.47
745.86	28832.12
746.199	28686.14
746.538	28595.75
746.877	28623.32
747.216	28539.93
747.556	28545.13
747.895	28494.96
748.234	28334.28
748.573	28257.45
748.911	28203.89
749.25	28143.1
749.589	28059.71
749.928	27997.57
750.267	27991.69
750.605	27997.34
750.944	27872.6
751.283	27764.58
751.621	27777.46
751.96	27661.53
752.298	27680.29
752.636	27781.76
752.975	27337.47
753.313	27296.8
753.651	27414.76
753.989	27286.4
754.327	27097.03
754.666	26999.63
755.004	27047.31
755.342	27157.59
755.679	27018.84
756.017	26814.32
756.355	26922.57
756.693	26734.1
757.031	26827.88
757.368	26578.4
757.706	26585.85
758.044	26595.8
758.381	26506.53
758.719	26288.24
759.056	26346.09
759.394	26288.91
759.731	26144.06
760.068	26046.43
760.405	25911.07
760.743	25891.41
761.08	25891.18
761.417	25767.35
761.754	25692.32
762.091	25599.44
762.428	25512.44
762.765	25341.59
763.102	25558.31
763.438	25242.39
763.775	25060.92
764.112	25153.58
764.449	24981.38
764.785	24961.26
765.122	24802.85
765.458	24693.7
765.795	24593.14
766.131	24564.44
766.467	24573.93
766.804	24416.65
767.14	24249.19
767.476	24199.02
767.812	24165.58
768.148	24302.52
768.485	23886.04
768.821	23914.74
769.157	23888.75
769.492	23799.26
769.828	23707.74
770.164	23545.48
770.5	23449.67
770.836	23614.41
771.171	23342.55
771.507	23289.9
771.842	23105.04
772.178	23197.7
772.513	23041.54
772.849	22963.58
773.184	22851.94
773.519	22807.65
773.855	22704.83
774.19	22617.82
774.525	22508
774.86	22301.45
775.195	22375.57
775.53	22275.01
775.865	22146.42
776.2	21995.69
776.535	21889.25
776.87	21928.8
777.205	21676.61
777.539	21600.9
777.874	21708.02
778.209	21458.53
778.543	21430.74
778.878	21380.79
779.212	21304.64
779.547	21218.99
779.881	21204.08
780.215	21008.6
780.55	21097.19
780.884	20857.42
781.218	20780.13
781.552	20750.53
781.886	20668.27
782.22	20670.76
782.554	20543.53
782.888	20330.43
783.222	20300.82
783.556	20238.22
783.889	20116.65
784.223	20005.01
784.557	19883.21
784.89	19918.01
785.224	19718.01
785.557	19705.36
785.891	19728.86
786.224	19607.51
786.558	19504.23
786.891	19399.38
787.224	19398.25
787.557	19273.5
787.891	19294.52
788.224	19304.69
788.557	19134.98
788.89	19057.92
789.223	19036.45
789.556	18895.21
789.888	18815.66
790.221	18695.21
790.554	18610.7
790.887	18608.44
791.219	18596.01
791.552	18484.6
791.884	18308.33
792.217	18357.6
792.549	18281.44
792.882	18257.71
793.214	18016.36
793.546	18139.75
793.879	18011.16
794.211	17930.71
794.543	17933.43
794.875	17940.88
795.207	17881.45
795.539	17764.39
795.871	17783.6
796.203	17562.14
796.535	17456.83
796.867	17366.44
797.198	17391.52
797.53	17394.23
797.862	17314.91
798.193	17383.61
798.525	17242.6
798.856	17231.07
799.188	16969.38
799.519	16971.87
799.85	16918.09
800.182	16816.62
800.513	16846.9
800.844	16625.66
801.175	16815.49
801.506	16664.08
801.837	16601.71
802.168	16562.84
802.499	16592.45
802.83	16464.54
803.161	16466.8
803.491	16368.04
803.822	16340.93
804.153	16259.8
804.483	16148.84
804.814	15992.91
805.145	16062.29
805.475	16117.66
805.805	15977.55
806.136	16014.61
806.466	15955.4
806.796	15842.63
807.126	15743.43
807.457	15742.3
807.787	15620.95
808.117	15644.22
808.447	15491.23
808.777	15565.81
809.107	15452.14
809.436	15444.45
809.766	15390.44
810.096	15396.77
810.426	15292.37
810.755	15344.34
811.085	15265.25
811.414	15202.65
811.744	15122.2
812.073	15067.06
812.403	14978.02
812.732	14903.9
813.061	14876.78
813.39	14750.46
813.719	14774.64
814.049	14936.22
814.378	14766.05
814.707	14755.88
815.036	14731.48
815.365	14690.8
815.693	14475.21
816.022	14570.35
816.351	14517.47
816.68	14448.55
817.008	14515.21
817.337	14375.33
817.665	14341.43
817.994	14404.03
818.322	14365.16
818.651	14307.08
818.979	14216.69
819.307	14247.42
819.636	14138.72
819.964	14019.86
820.292	14089.91
820.62	14047.65
820.948	13992.74
821.276	14055.34
821.604	14005.17
821.932	14135.79
822.259	14081.32
822.587	14043.59
822.915	13971.95
823.243	13969.92
823.57	13921.55
823.898	14046.07
824.225	13888.79
824.553	13948.22
824.88	13862.57
825.207	13963.36
825.535	13892.18
825.862	13941.22
826.189	13815.34
826.516	13949.58
826.843	13921.55
827.17	13970.37
827.497	13928.79
827.824	13867.77
828.151	13923.14
828.478	13842.01
828.805	13957.03
829.131	13763.82
829.458	13857.83
829.785	13769.92
830.111	13769.69
830.438	13926.07
830.764	13842.69
831.09	13862.57
831.417	13685.63
831.743	13830.03
832.069	13907.77
832.395	13714.33
832.722	13786.19
833.048	13757.27
833.374	13811.73
833.7	13745.51
834.026	13761.11
834.351	13761.33
834.677	13705.74
835.003	13807.89
835.329	13724.5
835.654	13709.36
835.98	13628.68
836.306	13657.16
836.631	13564.73
836.956	13646.53
837.282	13661.45
837.607	13539.42
837.932	13536.71
838.258	13499.42
838.583	13529.93
838.908	13430.04
839.233	13454
839.558	13406.31
839.883	13387.11
840.208	13226.21
840.533	13321.34
840.858	13333.32
841.182	13399.08
841.507	13299.2
841.832	13203.61
842.156	13249.03
842.481	13208.35
842.805	13188.24
843.13	13185.3
843.454	13096.49
843.778	13124.06
844.103	13052.43
844.427	13068.24
844.751	13020.11
845.075	12963.61
845.399	12896.5
845.723	12792.77
846.047	12786.44
846.371	12757.74
846.695	12684.98
847.019	12668.48
847.343	12638.2
847.666	12471.42
847.99	12433.91
848.313	12417.41
848.637	12429.39
848.96	12307.81
849.284	12409.5
849.607	12277.08
849.931	12202.05
850.254	12133.35
850.577	12099.23
850.9	11997.76
851.223	12048.38
851.546	11969.97
851.869	11873.93
852.192	11914.38
852.515	11811.55
852.838	11767.71
853.161	11814.27
853.483	11715.29
853.806	11632.35
854.129	11641.61
854.451	11502.18
854.774	11506.25
855.096	11455.41
855.419	11442.07
855.741	11421.06
856.063	11393.94
856.385	11386.48
856.708	11255.64
857.03	11263.77
857.352	11306.26
857.674	11238.24
857.996	11202.76
858.318	11131.8
858.64	11186.94
858.961	11076.66
859.283	11146.94
859.605	11054.74
859.926	10970.45
860.248	11008.64
860.57	10890.45
860.891	11011.8
861.212	10897.23
861.534	10908.3
861.855	10902.2
862.176	10916.66
862.498	10944.68
862.819	10857.68
863.14	10795.08
863.461	10822.2
863.782	10771.13
864.103	10774.29
864.424	10691.36
864.745	10781.3
865.065	10676.67
865.386	10654.52
865.707	10668.76
866.027	10715.09
866.348	10633.05
866.668	10589.67
866.989	10681.64
867.309	10496.33
867.63	10507.86
867.95	10545.37
868.27	10453.17
868.59	10456.79
868.91	10432.38
869.23	10519.84
869.55	10440.52
869.87	10445.49
870.19	10447.52
870.51	10460.18
870.83	10448.65
871.15	10375.66
871.469	10290.46
871.789	10417.92
872.109	10307.41
872.428	10269.22
872.748	10344.93
873.067	10324.59
873.386	10299.5
873.706	10284.81
874.025	10214.31
874.344	10188.32
874.663	10217.02
874.982	10168.89
875.301	10177.47
875.62	10121.2
875.939	10076.01
876.258	10129.11
876.577	10058.38
876.896	10015.89
877.214	10056.12
877.533	10052.28
877.852	10064.26
878.17	10062
878.489	10039.62
878.807	10030.81
879.125	9953.07
879.444	9967.99
879.762	9964.6
880.08	9972.05
880.398	9928.21
880.716	9939.51
881.034	9852.28
881.352	9847.31
881.67	9892.96
881.988	9881.89
882.306	9845.5
882.624	9821.1
882.941	9744.04
883.259	9768.22
883.577	9705.39
883.894	9704.49
884.212	9736.81
884.529	9742.68
884.846	9643.02
885.164	9641.67
885.481	9586.53
885.798	9653.87
886.115	9611.39
886.432	9595.79
886.75	9492.74
887.067	9549.47
887.383	9553.08
887.7	9539.75
888.017	9404.39
888.334	9453.2
888.651	9390.83
888.967	9388.34
889.284	9363.71
889.6	9371.84
889.917	9293.2
890.233	9301.79
890.55	9242.13
890.866	9308.79
891.182	9243.26
891.498	9173.66
891.815	9208.68
892.131	9127.56
892.447	9088.69
892.763	9101.57
893.079	9102.02
893.395	9000.1
893.71	9043.49
894.026	8994
894.342	8932.31
894.657	8931.18
894.973	8857.96
895.289	8883.72
895.604	8876.72
895.92	8759.66
896.235	8779.32
896.55	8771.63
896.865	8758.3
897.181	8707.91
897.496	8691.64
897.811	8639.89
898.126	8604.18
898.441	8581.13
898.756	8615.03
899.071	8544.75
899.386	8541.13
899.7	8534.8
900.015	8482.6
900.33	8438.08
900.644	8405.77
900.959	8360.35
901.273	8343.62
901.588	8351.08
901.902	8290.29
902.216	8263.85
902.531	8254.36
902.845	8310.85
903.159	8183.63
903.473	8138.66
903.787	8098.21
904.101	8039.45
904.415	8098.66
904.729	8076.06
905.042	7995.38
905.356	8029.28
905.67	8016.85
905.984	7944.76
906.297	7958.32
906.611	7878.78
906.924	7858.44
907.237	7860.02
907.551	7786.12
907.864	7810.53
908.177	7741.6
908.491	7748.38
908.804	7652.57
909.117	7674.04
909.43	7596.98
909.743	7581.38
910.056	7530.76
910.368	7554.49
910.681	7489.18
910.994	7481.27
911.307	7453.48
911.619	7365.12
911.932	7400.14
912.244	7360.82
912.557	7289.64
912.869	7272.01
913.181	7238.57
913.494	7231.56
913.806	7139.59
914.118	7138
914.43	7070.44
914.742	7103.43
915.054	7043.77
915.366	7038.57
915.678	7016.88
915.99	6995.64
916.302	6911.8
916.613	6946.37
916.925	6897.33
917.236	6910.44
917.548	6890.1
917.859	6818.01
918.171	6793.15
918.482	6720.84
918.794	6736.21
919.105	6688.98
919.416	6715.19
919.727	6645.36
920.038	6652.14
920.349	6616.89
920.66	6539.83
920.971	6582.54
921.282	6541.41
921.593	6514.52
921.903	6493.95
922.214	6491.69
922.525	6419.38
922.835	6376.44
923.146	6342.55
923.456	6308.87
923.767	6268.42
924.077	6279.5
924.387	6269.33
924.697	6210.12
925.008	6174.41
925.318	6167.18
925.628	6153.85
925.938	6127.41
926.248	6118.82
926.558	6095.55
926.867	6060.07
927.177	5997.24
927.487	5959.73
927.796	5928.32
928.106	5947.3
928.416	5921.54
928.725	5942.78
929.034	5840.19
929.344	5891.94
929.653	5875.89
929.962	5840.64
930.271	5804.71
930.581	5796.34
930.89	5752.73
931.199	5712.96
931.508	5653.98
931.817	5683.13
932.125	5631.38
932.434	5622.56
932.743	5595.67
933.051	5536.01
933.36	5487.65
933.669	5510.7
933.977	5470.03
934.286	5495.56
934.594	5506.86
934.902	5437.26
935.21	5416.92
935.519	5364.72
935.827	5370.14
936.135	5346.41
936.443	5327.66
936.751	5291.05
937.059	5268.9
937.367	5254.89
937.674	5285.4
937.982	5237.72
938.29	5186.64
938.597	5135.12
938.905	5109.58
939.213	5100.54
939.52	5083.82
939.827	5090.83
940.135	5033.65
940.442	5017.16
940.749	5029.36
941.056	5008.79
941.363	4967.67
941.67	4932.41
941.977	4889.25
942.284	4848.8
942.591	4846.09
942.898	4839.53
943.205	4825.97
943.511	4805.18
943.818	4740.33
944.125	4689.93
944.431	4744.85
944.738	4769.03
945.044	4733.77
945.35	4713.21
945.657	4690.16
945.963	4665.75
946.269	4656.26
946.575	4677.5
946.881	4573.78
947.187	4574
947.493	4538.98
947.799	4534.91
948.105	4543.27
948.41	4483.61
948.716	4485.42
949.022	4452.65
949.327	4453.1
949.633	4393.9
949.938	4397.74
950.244	4408.13
950.549	4362.94
950.854	4361.81
951.16	4343.05
951.465	4295.14
951.77	4278.19
952.075	4254.24
952.38	4249.49
952.685	4261.24
952.99	4199.55
953.294	4196.84
953.599	4160
953.904	4163.85
954.209	4136.05
954.513	4132.21
954.818	4120.46
955.122	4090.85
955.426	4075.03
955.731	4047.01
956.035	3992.78
956.339	4042.49
956.643	3954.36
956.948	3967.01
957.252	3976.05
957.556	3951.65
957.86	3943.29
958.163	3937.86
958.467	3893.12
958.771	3866.23
959.075	3866
959.378	3818.77
959.682	3849.73
959.985	3819.22
960.289	3800.47
960.592	3769.28
960.896	3777.19
961.199	3777.19
961.502	3730.86
961.805	3739.9
962.108	3699.9
962.411	3692.67
962.714	3597.08
963.017	3671.65
963.32	3655.38
963.623	3644.54
963.926	3635.5
964.228	3580.81
964.531	3586.01
964.833	3548.49
965.136	3524.99
965.438	3547.59
965.741	3532.45
966.043	3524.54
966.345	3497.42
966.648	3481.15
966.95	3419.68
967.252	3419.46
967.554	3437.54
967.856	3404.77
968.158	3366.13
968.46	3401.15
968.761	3363.87
969.063	3322.06
969.365	3340.82
969.666	3296.3
969.968	3291.78
970.269	3249.52
970.571	3276.64
970.872	3293.36
971.174	3215.4
971.475	3198.67
971.776	3246.58
972.077	3194.38
972.378	3171.56
972.679	3185.79
972.98	3172.68
973.281	3163.42
973.582	3122.06
973.883	3135.85
974.183	3166.58
974.484	3102.63
974.785	3057.89
975.085	3053.14
975.386	3098.79
975.686	3074.38
975.986	3051.78
976.287	3027.38
976.587	3012.24
976.887	2985.57
977.187	2999.36
977.487	2977.66
977.787	2962.29
978.087	2930.66
978.387	2896.31
978.687	2914.39
978.987	2901.05
979.286	2885.91
979.586	2838.68
979.885	2859.92
980.185	2856.31
980.484	2854.28
980.784	2823.77
981.083	2813.37
981.382	2833.94
981.682	2815.63
981.981	2794.62
982.28	2793.71
982.579	2777.22
982.878	2751
983.177	2695.64
983.475	2711.91
983.774	2749.65
984.073	2716.43
984.372	2694.73
984.67	2652.92
984.969	2678.23
985.267	2672.36
985.566	2629.2
985.864	2621.74
986.162	2594.4
986.461	2618.12
986.759	2566.83
987.057	2564.57
987.355	2553.94
987.653	2552.14
987.951	2557.11
988.249	2553.04
988.547	2527.5
988.844	2506.49
989.142	2490.67
989.44	2480.05
989.737	2459.94
990.035	2436.21
990.332	2429.65
990.63	2456.32
990.927	2417.45
991.224	2411.12
991.521	2425.81
991.819	2394.63
992.116	2395.53
992.413	2380.39
992.71	2347.62
993.006	2359.82
993.303	2356.21
993.6	2359.6
993.897	2294.52
994.193	2284.35
994.49	2277.12
994.787	2280.51
995.083	2252.26
995.379	2248.42
995.676	2235.76
995.972	2231.24
996.268	2238.92
996.565	2205.25
996.861	2197.12
997.157	2216.78
997.453	2190.79
997.749	2169.32
998.044	2173.16
998.34	2154.63
998.636	2146.95
998.932	2121.19
999.227	2098.81
999.523	2122.32
999.818	2082.32
1000.114	2058.36
1000.409	2100.4
1000.704	2040.06
1001	2030.34
1001.295	2031.92
1001.59	2054.97
1001.885	2058.36
1002.18	2020.62
1002.475	1976.56
1002.77	2002.09
1003.065	1968.42
1003.359	1937.69
1003.654	1950.12
1003.949	1966.39
1004.243	1920.97
1004.538	1927.75
1004.832	1921.19
1005.127	1904.24
1005.421	1866.05
1005.715	1865.83
1006.009	1876.67
1006.304	1838.03
1006.598	1864.47
1006.892	1860.86
1007.186	1798.94
1007.48	1843.91
1007.773	1805.72
1008.067	1780.18
1008.361	1774.76
1008.655	1778.37
1008.948	1722.1
1009.242	1742.44
1009.535	1796.68
1009.829	1717.81
1010.122	1716.9
1010.415	1709.9
1010.708	1705.6
1011.001	1702.67
1011.295	1694.31
1011.588	1686.62
1011.881	1707.64
1012.173	1658.83
1012.466	1656.79
1012.759	1662.22
1013.052	1641.88
1013.344	1619.28
1013.637	1629.45
1013.93	1642.56
1014.222	1600.75
1014.514	1578.83
1014.807	1582.22
1015.099	1579.28
1015.391	1545.84
1015.683	1546.29
1015.976	1569.79
1016.268	1530.92
1016.56	1510.58
1016.851	1501.77
1017.143	1523.01
1017.435	1509.23
1017.727	1470.81
1018.018	1471.49
1018.31	1482.79
1018.602	1450.92
1018.893	1456.12
1019.185	1449.57
1019.476	1439.62
1019.767	1427.65
1020.058	1400.75
1020.35	1407.53
1020.641	1371.15
1020.932	1386.97
1021.223	1382.68
1021.514	1379.96
1021.804	1347.2
1022.095	1347.42
1022.386	1333.19
1022.677	1332.28
1022.967	1309.68
1023.258	1270.14
1023.548	1310.81
1023.839	1300.64
1024.129	1286.41
1024.419	1259.97
1024.709	1260.64
1025	1264.03
1025.29	1254.09
1025.58	1264.71
1025.87	1231.04
1026.16	1215.67
1026.449	1217.48
1026.739	1212.51
1027.029	1184.49
1027.319	1187.43
1027.608	1172.74
1027.898	1186.52
1028.187	1161.89
1028.477	1155.11
1028.766	1169.35
1029.055	1150.59
1029.344	1140.87
1029.634	1145.39
1029.923	1149.01
1030.212	1126.19
1030.501	1128.9
1030.79	1107.43
1031.078	1091.16
1031.367	1088.45
1031.656	1085.06
1031.945	1065.17
1032.233	1051.61
1032.522	1064.72
1032.81	1056.81
1033.099	1068.79
1033.387	1049.35
1033.675	1030.59
1033.963	1019.97
1034.251	1023.81
1034.54	1000.31
1034.828	1006.41
1035.116	973.42
1035.403	992.86
1035.691	1001.22
1035.979	1003.25
1036.267	993.53
1036.554	980.43
1036.842	962.8
1037.129	955.34
1037.417	910.37
1037.704	927.55
1037.992	934.33
1038.279	938.39
1038.566	928
1038.853	928
1039.14	928
