Data from foil_FLMS001491_071.txt Node
Date: Tue Feb 07 11:36:41 GMT 2017
User: dcchb
Spectrometer: FLMS00149
Trigger mode: 0
Integration Time (sec): 2.000000E-2
Scans to average: 10
Electric dark correction enabled: true
Nonlinearity correction enabled: false
Boxcar width: 0
XAxis mode: Wavelengths
Number of Pixels in Spectrum: 2048
>>>>>Begin Spectral Data<<<<<
341.393	-8.86
341.776	-8.86
342.16	-8.86
342.543	-63.09
342.927	-87.95
343.31	-60.83
343.693	-77.33
344.077	-85.24
344.46	-71.23
344.843	-60.15
345.226	-59.48
345.61	-29.42
345.993	-17.67
346.376	5.61
346.759	27.53
347.142	20.3
347.525	58.49
347.908	65.27
348.291	82.22
348.674	87.86
349.057	114.08
349.44	129.22
349.823	139.61
350.206	174.87
350.588	235.43
350.971	282.66
351.354	274.98
351.737	303.23
352.119	309.55
352.502	345.03
352.884	340.97
353.267	344.58
353.65	353.62
354.032	354.75
354.414	381.19
354.797	369.44
355.179	393.85
355.562	397.01
355.944	374.41
356.326	402.21
356.709	382.09
357.091	410.12
357.473	415.54
357.855	416.9
358.238	418.93
358.62	407.63
359.002	427.74
359.384	433.84
359.766	408.99
360.148	406.95
360.53	433.39
360.912	420.06
361.294	434.75
361.676	420.29
362.057	427.29
362.439	408.99
362.821	434.52
363.203	415.09
363.584	430.68
363.966	414.64
364.348	434.07
364.729	415.77
365.111	430.45
365.493	426.84
365.874	439.27
366.256	432.26
366.637	426.61
367.019	417.57
367.4	434.97
367.781	436.33
368.163	423.22
368.544	421.87
368.925	425.03
369.306	422.09
369.688	446.95
370.069	445.82
370.45	455.76
370.831	433.62
371.212	456.44
371.593	441.75
371.974	430.45
372.355	459.38
372.736	467.97
373.117	476.1
373.498	466.16
373.879	472.49
374.26	448.53
374.641	459.38
375.021	441.53
375.402	487.4
375.783	484.24
376.163	518.36
376.544	481.3
376.925	491.02
377.305	493.73
377.686	505.26
378.066	497.12
378.447	501.41
378.827	512.03
379.208	533.28
379.588	538.25
379.968	531.7
380.349	546.16
380.729	544.58
381.109	556.55
381.489	549.77
381.87	561.98
382.25	569.21
382.63	563.78
383.01	591.81
383.39	559.04
383.77	568.76
384.15	583.22
384.53	582.32
384.91	597.91
385.29	609.43
385.67	605.59
386.049	618.02
386.429	616.89
386.809	641.97
387.189	633.39
387.568	647.85
387.948	651.69
388.328	684.69
388.707	660.73
389.087	652.37
389.466	695.76
389.846	677.23
390.225	679.71
390.605	671.8
390.984	688.53
391.363	732.82
391.743	727.17
392.122	738.24
392.501	747.73
392.881	741.18
393.26	730.33
393.639	748.64
394.018	774.63
394.397	755.64
394.776	787.28
395.155	787.73
395.534	769.43
395.913	813.04
396.292	802.65
396.671	813.5
397.05	815.3
397.429	827.51
397.808	834.29
398.186	825.25
398.565	839.26
398.944	860.27
399.323	831.8
399.701	871.35
400.08	871.8
400.458	868.41
400.837	879.71
401.215	891.46
401.594	912.02
401.972	920.84
402.351	934.85
402.729	931.23
403.107	956.32
403.486	972.81
403.864	984.34
404.242	983.21
404.62	983.66
404.999	1021.85
405.377	1002.64
405.755	1045.58
406.133	1036.54
406.511	1037.44
406.889	1041.96
407.267	1080.16
407.645	1079.25
408.023	1084
408.401	1119.93
408.779	1125.58
409.156	1143.43
409.534	1135.75
409.912	1173.26
410.29	1229.53
410.667	1208.29
411.045	1222.52
411.422	1250.55
411.8	1247.61
412.178	1260.94
412.555	1293.03
412.933	1302.75
413.31	1311.79
413.687	1331.67
414.065	1338
414.442	1368.96
414.819	1396.76
415.197	1366.48
415.574	1414.61
415.951	1406.93
416.328	1434.72
416.705	1433.82
417.082	1442.18
417.46	1485.57
417.837	1488.96
418.214	1487.38
418.591	1508.62
418.967	1488.28
419.344	1523.31
419.721	1542.52
420.098	1548.17
420.475	1594.72
420.852	1557.2
421.228	1609.63
421.605	1622.51
421.982	1635.17
422.358	1661.16
422.735	1689.4
423.111	1667.48
423.488	1700.93
423.864	1739.35
424.241	1770.31
424.617	1757.43
424.994	1779.35
425.37	1823.86
425.746	1808.72
426.123	1833.81
426.499	1852.79
426.875	1858.67
427.251	1879.23
427.627	1937.99
428.003	1945.44
428.379	1953.8
428.756	1986.57
429.132	2008.04
429.507	2067.47
429.883	2096.17
430.259	2128.26
430.635	2124.42
431.011	2139.79
431.387	2180.24
431.763	2241.03
432.138	2218.2
432.514	2282.38
432.89	2251.88
433.265	2308.15
433.641	2338.43
434.016	2388.14
434.392	2421.59
434.767	2428.59
435.143	2456.84
435.518	2487.12
435.894	2493.9
436.269	2515.37
436.644	2583.17
437.02	2590.62
437.395	2591.98
437.77	2669.27
438.145	2680.57
438.52	2670.85
438.895	2714.69
439.271	2731.19
439.646	2800.11
440.021	2802.82
440.395	2810.73
440.77	2777.51
441.145	2838.53
441.52	2885.98
441.895	2871.97
442.27	2892.54
442.645	2914.46
443.019	2972.99
443.394	2959.2
443.769	2990.39
444.143	3030.39
444.518	3054.34
444.892	3060.22
445.267	3084.85
445.641	3129.82
446.016	3093.66
446.39	3139.99
446.764	3151.06
447.139	3139.31
447.513	3196.03
447.887	3205.52
448.262	3249.36
448.636	3248.46
449.01	3289.14
449.384	3294.11
449.758	3323.26
450.132	3345.18
450.506	3356.71
450.88	3406.65
451.254	3419.08
451.628	3495.46
452.002	3528.68
452.376	3548.11
452.75	3534.78
453.123	3615.68
453.497	3658.62
453.871	3688.67
454.244	3745.62
454.618	3776.36
454.992	3823.81
455.365	3835.56
455.739	3939.06
456.112	3984.03
456.486	3979.97
456.859	3989.68
457.232	4115.33
457.606	4119.85
457.979	4189.23
458.352	4217.93
458.725	4306.29
459.099	4287.3
459.472	4421.54
459.845	4442.55
460.218	4480.07
460.591	4483
460.964	4553.28
461.337	4683.22
461.71	4696.33
462.083	4810.23
462.456	4796.67
462.829	4810.23
463.201	4859.26
463.574	4942.43
463.947	4982.65
464.32	5108.98
464.692	5165.92
465.065	5180.61
465.438	5220.16
465.81	5341.74
466.183	5293.83
466.555	5491.56
466.928	5457.44
467.3	5543.09
467.672	5627.38
468.045	5733.59
468.417	5756.19
468.789	5755.96
469.161	5859.01
469.534	5984.43
469.906	6101.72
470.278	6125.45
470.65	6195.27
471.022	6334.03
471.394	6444.08
471.766	6543.06
472.138	6550.29
472.51	6668.71
472.882	6760.91
473.253	6882.71
473.625	6969.04
473.997	7096.95
474.369	7152.76
474.74	7219.65
475.112	7415.58
475.484	7468.24
475.855	7652.64
476.227	7705.29
476.598	7896.7
476.97	7989.8
477.341	8123.13
477.713	8265.73
478.084	8301.43
478.455	8500.07
478.827	8588.66
479.198	8841.99
479.569	8839.27
479.94	9171.69
480.311	9213.27
480.682	9369.88
481.053	9590.89
481.424	9758.35
481.795	9805.35
482.166	9981.62
482.537	10115.85
482.908	10329.63
483.279	10454.6
483.65	10573.46
484.021	10836.96
484.391	10933.23
484.762	10975.71
485.133	11161.47
485.503	11334.35
485.874	11520.11
486.244	11636.71
486.615	11921.68
486.985	11907.44
487.356	12246.64
487.726	12286.64
488.097	12470.82
488.467	12561.44
488.837	12755.55
489.207	12982.22
489.578	13207.97
489.948	13298.59
490.318	13451.36
490.688	13544.69
491.058	13662.65
491.428	13932.25
491.798	14056.54
492.168	14327.72
492.538	14318.9
492.908	14553.02
493.278	14816.07
493.648	14794.6
494.017	14960.02
494.387	15115.94
494.757	15149.84
495.126	15433.9
495.496	15487.91
495.866	15523.62
496.235	15675.03
496.605	15809.26
496.974	15884.29
497.344	16062.36
497.713	16197.05
498.082	16323.6
498.452	16534.44
498.821	16493.76
499.19	16651.27
499.559	16765.84
499.928	17025.05
500.298	16956.8
500.667	17190.01
501.036	17114.99
501.405	17303.46
501.774	17337.81
502.143	17563.79
502.512	17663.22
502.88	17858.25
503.249	17888.3
503.618	17986.15
503.987	18072.48
504.356	18282.41
504.724	18304.79
505.093	18450.77
505.462	18489.64
505.83	18606.7
506.199	18748.17
506.567	19045.78
506.936	18900.25
507.304	19266.12
507.672	19394.93
508.041	19362.61
508.409	19534.13
508.777	19629.72
509.145	19947.68
509.514	19827.01
509.882	20009.6
510.25	20194.45
510.618	20318.75
510.986	20470.38
511.354	20637.83
511.722	20812.07
512.09	20866.53
512.458	20881.44
512.826	21067.65
513.193	21214.54
513.561	21293.86
513.929	21671.03
514.297	21745.6
514.664	21893.62
515.032	21949.66
515.4	22174.06
515.767	22264.68
516.135	22494.96
516.502	22378.35
516.869	22724.33
517.237	22918.23
517.604	22785.57
517.972	23128.84
518.339	23310.31
518.706	23369.51
519.073	23549.62
519.44	23597.3
519.808	23788.71
520.175	23980.34
520.542	24325.87
520.909	24371.75
521.276	24373.78
521.643	24685.41
522.009	24777.39
522.376	25055.8
522.743	25243.81
523.11	25481.77
523.477	25721.54
523.843	25788.88
524.21	26016.9
524.577	26253.96
524.943	26357.46
525.31	26482.88
525.676	26798.58
526.043	26951.34
526.409	27072.24
526.776	27450.31
527.142	27495.05
527.508	27730.53
527.874	27877.19
528.241	27967.81
528.607	28170.74
528.973	28368.25
529.339	28463.39
529.705	28726.43
530.071	28942.47
530.437	28986.54
530.803	29153.99
531.169	29443.7
531.535	29293.42
531.901	29539.75
532.267	29708.78
532.632	29910.81
532.998	30070.81
533.364	30192.84
533.73	30272.38
534.095	30585.59
534.461	30631.69
534.826	30789.88
535.192	30960.27
535.557	31104.68
535.923	31132.7
536.288	31206.14
536.653	31426.25
537.019	31351.45
537.384	31591.9
537.749	31779.91
538.114	31733.36
538.479	31875.28
538.845	32112.79
539.21	31902.17
539.575	32143.52
539.94	32439.78
540.305	32548.25
540.67	32553
541.034	32672.77
541.399	32765.42
541.764	32825.08
542.129	33145.07
542.494	33169.03
542.858	33225.07
543.223	33437.04
543.587	33709.81
543.952	33545.74
544.316	33776.47
544.681	33765.85
545.045	33903.92
545.41	34024.83
545.774	34229.57
546.138	34383.91
546.503	34291.71
546.867	34254.88
547.231	34583
547.595	34707.75
547.959	34847.85
548.324	34940.06
548.688	35007.17
549.052	35154.29
549.416	35166.94
549.779	35315.87
550.143	35403.55
550.507	35640.83
550.871	35788.62
551.235	35869.97
551.599	36072.23
551.962	36211.89
552.326	36247.37
552.689	36393.35
553.053	36345.67
553.417	36605.1
553.78	37113.33
554.143	36881.93
554.507	37148.36
554.87	37126.89
555.234	37435.36
555.597	37337.28
555.96	37492.98
556.323	37775.91
556.686	37831.73
557.05	38186.75
557.413	38274.88
557.776	38333.64
558.139	38632.61
558.502	38697.7
558.865	38769.79
559.228	39197.8
559.59	39118.03
559.953	39312.82
560.316	39710.33
560.679	39725.92
561.041	39988.74
561.404	39960.94
561.767	40550.08
562.129	40341.04
562.492	40694.25
562.854	40666.68
563.217	40857.19
563.579	41000.24
563.941	41289.49
564.304	41392.77
564.666	41676.38
565.028	41741.91
565.39	41835.92
565.753	42091.51
566.115	42317.04
566.477	42472.06
566.839	42646.75
567.201	42677.25
567.563	42840.64
567.925	43221.42
568.287	43085.6
568.648	43296.67
569.01	43399.04
569.372	43807.62
569.734	43516.1
570.095	44033.6
570.457	44064.79
570.819	44154.05
571.18	44205.57
571.542	44390.43
571.903	44555.85
572.265	44606.92
572.626	44660.7
572.987	44798.55
573.349	44938.89
573.71	45060.47
574.071	45298.2
574.432	45351.99
574.794	45645.31
575.155	45499.1
575.516	45485.32
575.877	45681.92
576.238	45847.79
576.599	45895.93
576.96	45897.73
577.32	46076.03
577.681	46160.55
578.042	46204.17
578.403	46160.78
578.763	46230.15
579.124	46421.34
579.485	46536.59
579.845	46536.36
580.206	46520.09
580.566	46450.04
580.927	46544.5
581.287	46747.2
581.648	46633.76
582.008	46859.74
582.368	46755.56
582.728	46952.62
583.089	46813.19
583.449	46778.61
583.809	46851.38
584.169	46908.55
584.529	46843.47
584.889	47153.52
585.249	46913.3
585.609	46753.98
585.969	46841.44
586.329	46785.17
586.688	46906.52
587.048	46955.11
587.408	46848.9
587.768	46929.8
588.127	46862.45
588.487	46889.12
588.846	47062.9
589.206	46833.98
589.565	46788.33
589.925	46976.8
590.284	46988.55
590.643	46992.62
591.003	47099.51
591.362	47271.26
591.721	47138.38
592.08	47206.17
592.44	47251.6
592.799	47196
593.158	47068.1
593.517	47099.96
593.876	47166.63
594.235	47029.23
594.593	47000.3
594.952	47115.55
595.311	46972.06
595.67	47174.76
596.029	47326.4
596.387	47267.64
596.746	47377.24
597.104	47239.17
597.463	47225.16
597.822	47321.65
598.18	47239.17
598.538	47236
598.897	47501.53
599.255	47192.84
599.613	47694.07
599.972	47554.64
600.33	47580.18
600.688	47374.53
601.046	47534.98
601.404	47605.03
601.762	47568.65
602.12	47766.16
602.478	47820.62
602.836	47670.79
603.194	47422.89
603.552	47569.55
603.91	47487.07
604.268	47759.83
604.625	47619.27
604.983	47776.1
605.341	47638.25
605.698	47868.76
606.056	47979.49
606.413	47925.25
606.771	48065.36
607.128	48135.19
607.485	47870.34
607.843	47922.31
608.2	48140.84
608.557	48202.76
608.914	48144.68
609.272	48301.29
609.629	48384.22
609.986	48369.76
610.343	48302.64
610.7	48542.18
611.057	48461.06
611.414	48413.6
611.771	48492.69
612.127	48536.08
612.484	48590.54
612.841	48648.17
613.198	48501.06
613.554	48453.15
613.911	48715.29
614.267	48637.55
614.624	48743.31
614.98	48838.9
615.337	48822.63
615.693	48767.49
616.05	48866.02
616.406	49081.15
616.762	48894.72
617.118	48889.75
617.475	48997.54
617.831	49014.94
618.187	49032.57
618.543	48966.35
618.899	49194.37
619.255	49131.77
619.611	49094.71
619.967	49299.68
620.323	49220.36
620.678	49079.57
621.034	49005.67
621.39	49047.03
621.746	49111.43
622.101	49405.89
622.457	49091.77
622.812	49131.32
623.168	49116.86
623.523	49166.12
623.879	49304.65
624.234	49126.12
624.589	49168.38
624.945	49257.42
625.3	49244.99
625.655	49196.18
626.01	49203.86
626.365	49163.18
626.72	49130.64
627.075	49141.26
627.43	49091.77
627.785	49008.61
628.14	49156.86
628.495	49089.29
628.85	48968.61
629.205	48861.5
629.559	49041.83
629.914	48825.79
630.269	48964.32
630.623	48741.5
630.978	48686.14
631.332	48857.88
631.687	48827.6
632.041	48757.55
632.396	48765.46
632.75	48687.94
633.104	48773.14
633.459	48533.37
633.813	48565.01
634.167	48543.54
634.521	48463.99
634.875	48491.79
635.229	48479.81
635.583	48177.9
635.937	48137.45
636.291	48200.72
636.645	48174.96
636.999	47981.97
637.352	48129.54
637.706	47770.23
638.06	47927.74
638.413	47868.98
638.767	47799.6
639.121	47897.46
639.474	47801.64
639.828	47721.87
640.181	47652.04
640.534	47638.71
640.888	47539.5
641.241	47264.25
641.594	47325.04
641.947	47493.17
642.301	47351.48
642.654	47411.82
643.007	47421.31
643.36	47196.23
643.713	47223.35
644.066	47218.6
644.419	47008.44
644.771	46541.33
645.124	45964.85
645.477	45917.85
645.83	45637.4
646.182	45761.92
646.535	45845.76
646.888	45923.95
647.24	45624.29
647.593	45843.05
647.945	45861.12
648.298	45601.92
648.65	45544.07
649.002	45388.82
649.355	45525.31
649.707	45297.75
650.059	45302.95
650.411	45703.39
650.763	45833.55
651.115	46172.75
651.467	46086.2
651.819	46105.86
652.171	45935.02
652.523	45908.58
652.875	45780.67
653.227	45590.85
653.578	46036.49
653.93	45838.07
654.282	45838.3
654.633	45610.28
654.985	45708.13
655.337	45801.47
655.688	45652.32
656.039	45827.45
656.391	45361.48
656.742	45514.47
657.094	45439.21
657.445	45625.2
657.796	45332.78
658.147	45156.96
658.498	45256.17
658.849	45333
659.2	45176.85
659.551	45163.52
659.902	45152.89
660.253	45049.85
660.604	45130.97
660.955	45030.64
661.306	45166.91
661.656	44833.81
662.007	44993.58
662.358	44941.37
662.708	44824.09
663.059	44796.52
663.409	44547.71
663.76	44952.22
664.11	44787.03
664.461	44842.39
664.811	44831.1
665.161	44741.38
665.511	44706.35
665.862	44699.8
666.212	44821.83
666.562	44778.89
666.912	44564.89
667.262	44493.03
667.612	44542.06
667.962	44569.41
668.312	44475.85
668.662	44670.42
669.011	44500.26
669.361	44362.63
669.711	44453.25
670.06	44403.08
670.41	44268.17
670.76	44255.29
671.109	44281.05
671.459	44214.84
671.808	44049.19
672.157	44056.88
672.507	43984.11
672.856	43871.12
673.205	43989.54
673.554	44025.47
673.904	43942.08
674.253	44124
674.602	44025.92
674.951	43257.13
675.3	43230.23
675.649	43880.16
675.998	43675.87
676.346	43740.5
676.695	43773.04
677.044	43483.56
677.393	43722.2
677.741	43680.39
678.09	43368.99
678.438	43326.95
678.787	43422.77
679.135	43345.48
679.484	43171.48
679.832	43207.18
680.181	42977.36
680.529	43230.23
680.877	42906.63
681.225	43111.59
681.573	43264.13
681.922	42913.18
682.27	42794.09
682.618	42769
682.966	42705.73
683.314	42887.42
683.661	42546.18
684.009	42507.09
684.357	42192.07
684.705	42320.2
685.053	42401.55
685.4	42143.71
685.748	42133.99
686.095	41936.48
686.443	41807.45
686.79	41727
687.138	41897.39
687.485	41741.01
687.832	41636.38
688.18	41555.25
688.527	41521.35
688.874	41482.03
689.221	41309.83
689.568	40990.07
689.915	40995.49
690.262	40968.37
690.609	40898.54
690.956	40716.18
691.303	40626.46
691.65	40539.91
691.997	40531.77
692.344	40135.17
692.69	40266.02
693.037	40250.42
693.383	39772.7
693.73	39962.52
694.077	39787.16
694.423	39713.72
694.769	39756.65
695.116	39441.86
695.462	39513.04
695.808	39317.57
696.155	39461.29
696.501	39143.79
696.847	39097.01
697.193	38737.92
697.539	38904.7
697.885	38660.64
698.231	38577.47
698.577	38484.14
698.923	38453.64
699.269	38299.06
699.614	38008.22
699.96	38024.49
700.306	38175.9
700.651	37855.69
700.997	37613.66
701.342	37601.68
701.688	37545.41
702.033	37462.48
702.379	37518.07
702.724	37312.65
703.069	37398.97
703.415	37003.28
703.76	36862.94
704.105	36825.43
704.45	36811.42
704.795	36666.11
705.14	36589.05
705.485	36586.11
705.83	36288.49
706.175	36404.88
706.52	36248.27
706.865	36173.7
707.209	36037.2
707.554	35829.07
707.899	35876.98
708.243	35716.53
708.588	35725.35
708.932	35457.56
709.277	35426.82
709.621	35617.55
709.966	35209.65
710.31	35321.74
710.654	35166.04
710.998	35140.95
711.342	35163.1
711.687	35053.73
712.031	34776.9
712.375	34669.33
712.719	34530.35
713.063	34535.09
713.407	34774.18
713.75	34526.96
714.094	34393.63
714.438	34287.64
714.782	34364.7
715.125	34211.94
715.469	34234.99
715.812	33965.17
716.156	33890.14
716.499	33879.97
716.843	33847.43
717.186	33666.87
717.53	33798.84
717.873	33761.78
718.216	33622.8
718.559	33461
718.902	33211.97
719.246	33351.85
719.589	33267.78
719.932	33000.67
720.275	33037.06
720.617	33123.83
720.96	33067.79
721.303	32942.82
721.646	32902.82
721.989	32677.06
722.331	32774.92
722.674	32673.67
723.016	32695.14
723.359	32653.34
723.701	32599.55
724.044	32429.39
724.386	32141.94
724.729	32216.74
725.071	32195.27
725.413	32179.9
725.755	32212.9
726.097	32004.09
726.439	31896.07
726.782	31880.25
727.124	31921.83
727.465	31721.16
727.807	31760.93
728.149	31711.21
728.491	31511.9
728.833	31530.43
729.175	31395.52
729.516	31402.52
729.858	31318.46
730.199	31381.96
730.541	31297.44
730.882	31248.18
731.224	31288.4
731.565	31143.77
731.906	31091.12
732.248	31122.98
732.589	30808.41
732.93	30740.62
733.271	30803.22
733.612	30814.29
733.953	30799.37
734.294	30688.64
734.635	30624.01
734.976	30704.46
735.317	30564.35
735.658	30481.19
735.999	30430.12
736.339	30456.33
736.68	30381.98
737.021	30296.79
737.361	30209.56
737.702	30338.37
738.042	30237.35
738.383	30153.74
738.723	30149
739.063	30054.08
739.404	30047.98
739.744	29888.21
740.084	29754.88
740.424	29814.77
740.764	29752.85
741.104	29776.58
741.444	29607.54
741.784	29468.56
742.124	29561.89
742.464	29431.27
742.804	29438.51
743.143	29460.65
743.483	29376.13
743.823	29161
744.162	29158.06
744.502	29222.47
744.841	29114.9
745.181	29111.51
745.52	28920.78
745.86	28926.65
746.199	28904.73
746.538	28846.66
746.877	28789.03
747.216	28729.37
747.556	28734.34
747.895	28730.28
748.234	28507.68
748.573	28490.28
748.911	28453.45
749.25	28299.1
749.589	28132.33
749.928	28276.95
750.267	28322.83
750.605	28237.18
750.944	28105.21
751.283	28125.09
751.621	28057.98
751.96	27863.86
752.298	27986.79
752.636	27821.37
752.975	27641.72
753.313	27466.81
753.651	27686.01
753.989	27572.79
754.327	27457.31
754.666	27371.22
755.004	27378.22
755.342	27349.07
755.679	27303.19
756.017	27159.24
756.355	27234.95
756.693	26941.17
757.031	27100.94
757.368	26910.89
757.706	26796.99
758.044	26849.65
758.381	26703.21
758.719	26522.65
759.056	26584.12
759.394	26615.98
759.731	26384.12
760.068	26181.87
760.405	26134.41
760.743	26081.08
761.08	26188.2
761.417	25932.38
761.754	25874.76
762.091	25926.06
762.428	25662.11
762.765	25522.45
763.102	25708.21
763.438	25423.02
763.775	25530.13
764.112	25333.75
764.449	25307.54
764.785	25137.15
765.122	24983.48
765.458	24856.03
765.795	24819.19
766.131	24833.88
766.467	24700.78
766.804	24538.3
767.14	24440.44
767.476	24416.26
767.812	24289.04
768.148	24421.91
768.485	24257.17
768.821	24113.9
769.157	24157.06
769.492	23929.95
769.828	23873.91
770.164	23740.8
770.5	23769.5
770.836	23721.59
771.171	23509.17
771.507	23517.53
771.842	23259.01
772.178	23282.06
772.513	23241.61
772.849	23167.03
773.184	23007.26
773.519	23015.17
773.855	22876.19
774.19	22768.62
774.525	22725.24
774.86	22778.12
775.195	22686.82
775.53	22495.41
775.865	22516.65
776.2	22257
776.535	22243.67
776.87	22062.43
777.205	21943.56
777.539	21888.87
777.874	21929.1
778.209	21854.98
778.543	21677.58
778.878	21607.98
779.212	21511.71
779.547	21386.51
779.881	21497.25
780.215	21261.77
780.55	21186.07
780.884	21140.87
781.218	21061.1
781.552	20992.63
781.886	20952.18
782.22	20807.32
782.554	20694.78
782.888	20527.78
783.222	20470.83
783.556	20351.74
783.889	20340.89
784.223	20113.1
784.557	20161.69
784.89	20259.54
785.224	20034.91
785.557	19894.35
785.891	19812.32
786.224	19783.39
786.558	19794.69
786.891	19634.92
787.224	19559.44
787.557	19428.83
787.891	19351.77
788.224	19334.14
788.557	19384.08
788.89	19252.11
789.223	19200.36
789.556	18969.85
789.888	18965.56
790.221	18925.79
790.554	18897.99
790.887	18808.73
791.219	18742.52
791.552	18592.01
791.884	18602.86
792.217	18496.87
792.549	18496.87
792.882	18351.57
793.214	18183.43
793.546	18280.61
793.879	18164
794.211	18054.62
794.543	18123.77
794.875	17976.43
795.207	18034.29
795.539	17856.21
795.871	17888.07
796.203	17714.29
796.535	17639.49
796.867	17569.21
797.198	17500.74
797.53	17546.16
797.862	17411.7
798.193	17352.5
798.525	17289.9
798.856	17340.74
799.188	17258.71
799.519	17160.18
799.85	17141.65
800.182	17013.52
800.513	16971.71
800.844	16834.32
801.175	16889.68
801.506	16852.17
801.837	16721.1
802.168	16715.68
802.499	16648.33
802.83	16597.26
803.161	16643.14
803.491	16544.38
803.822	16456.93
804.153	16471.39
804.483	16222.36
804.814	16240.89
805.145	16166.76
805.475	16229.81
805.805	16164.73
806.136	16160.66
806.466	16071.85
806.796	15985.3
807.126	15934.45
807.457	15799.77
807.787	15781.01
808.117	15772.88
808.447	15640.9
808.777	15756.38
809.107	15595.48
809.436	15486.78
809.766	15518.42
810.096	15511.64
810.426	15455.37
810.755	15435.71
811.085	15415.6
811.414	15327.24
811.744	15187.35
812.073	15199.78
812.403	15223.29
812.732	15032.78
813.061	15060.35
813.39	15023.74
813.719	14923.86
814.049	15002.73
814.378	14846.57
814.707	14844.54
815.036	14835.05
815.365	14692.45
815.693	14685.67
816.022	14645.45
816.351	14658.1
816.68	14622.62
817.008	14641.38
817.337	14485.9
817.665	14492.68
817.994	14510.08
818.322	14526.13
818.651	14376.53
818.979	14388.73
819.307	14447.49
819.636	14305.34
819.964	14213.6
820.292	14218.34
820.62	14241.39
820.948	14153.94
821.276	14200.26
821.604	14152.58
821.932	14203.88
822.259	14228.96
822.587	14132.24
822.915	14079.59
823.243	14141.96
823.57	14057.67
823.898	14059.25
824.225	14057.67
824.553	14049.08
824.88	14022.64
825.207	14030.32
825.535	14076.2
825.862	14023.77
826.189	14029.42
826.516	14068.97
826.843	14060.15
827.17	14055.63
827.497	14042.75
827.824	14012.24
828.151	13969.53
828.478	14017.44
828.805	14031.68
829.131	14062.41
829.458	13947.61
829.785	13971.79
830.111	13965.47
830.438	13956.65
830.764	13991.23
831.09	14002.98
831.417	13958.91
831.743	13963.66
832.069	13969.08
832.395	13912.36
832.722	13859.25
833.048	13790.33
833.374	13830.33
833.7	13776.54
834.026	13825.58
834.351	13823.55
834.677	13872.81
835.003	13896.77
835.329	13845.02
835.654	13839.82
835.98	13817.67
836.306	13797.11
836.631	13683.21
836.956	13789.43
837.282	13747.84
837.607	13700.16
837.932	13655.42
838.258	13705.13
838.583	13664.01
838.908	13504.46
839.233	13551.47
839.558	13554.18
839.883	13479.6
840.208	13398.02
840.533	13418.81
840.858	13492.71
841.182	13412.71
841.507	13449.32
841.832	13375.2
842.156	13308.53
842.481	13341.08
842.805	13247.74
843.13	13242.32
843.454	13218.82
843.778	13224.02
844.103	13224.92
844.427	13200.29
844.751	13111.93
845.075	12984.47
845.399	13097.47
845.723	12951.71
846.047	12950.35
846.371	12897.47
846.695	12897.92
847.019	12723.01
847.343	12657.7
847.666	12636.01
847.99	12623.13
848.313	12598.5
848.637	12506.75
848.96	12444.6
849.284	12414.55
849.607	12273.08
849.931	12317.6
850.254	12259.52
850.577	12187.66
850.9	12212.52
851.223	12130.26
851.546	12018.85
851.869	11951.06
852.192	12034.22
852.515	11932.3
852.838	11869.48
853.161	11837.84
853.483	11805.75
853.806	11753.55
854.129	11754.45
854.451	11638.07
854.774	11714.9
855.096	11572.76
855.419	11506.77
855.741	11511.75
856.063	11519.43
856.385	11519.43
856.708	11459.32
857.03	11371.18
857.352	11471.52
857.674	11410.05
857.996	11341.58
858.318	11294.8
858.64	11269.27
858.961	11248.48
859.283	11131.42
859.605	11159.44
859.926	11159.44
860.248	11032.44
860.57	10989.73
860.891	11078.99
861.212	11004.41
861.534	10962.16
861.855	10975.04
862.176	11052.1
862.498	11003.06
862.819	11027.01
863.14	11005.09
863.461	10977.07
863.782	10892.1
864.103	10902.95
864.424	10859.56
864.745	10929.16
865.065	10781.6
865.386	10714.93
865.707	10814.14
866.027	10755.16
866.348	10737.3
866.668	10746.57
866.989	10714.48
867.309	10639.9
867.63	10606.23
867.95	10572.11
868.27	10581.15
868.59	10649.4
868.91	10515.61
869.23	10609.4
869.55	10490.98
869.87	10610.98
870.19	10490.3
870.51	10542.51
870.83	10478.33
871.15	10416.63
871.469	10441.94
871.789	10368.27
872.109	10406.92
872.428	10394.49
872.748	10432.68
873.067	10352.68
873.386	10371.21
873.706	10438.55
874.025	10272
874.344	10309.29
874.663	10338.22
874.982	10287.82
875.301	10256.19
875.62	10241.95
875.939	10219.58
876.258	10200.37
876.577	10150.65
876.896	10180.71
877.214	10203.08
877.533	10191.55
877.852	10179.13
878.17	10129.63
878.489	10166.02
878.807	10075.62
879.125	10084.66
879.444	10124.21
879.762	10105.91
880.08	10075.85
880.398	10020.03
880.716	10023.42
881.034	9974.38
881.352	10063.2
881.67	9994.5
881.988	9956.53
882.306	9945.46
882.624	9923.54
882.941	9844.44
883.259	9904.33
883.577	9843.09
883.894	9827.27
884.212	9833.15
884.529	9789.53
884.846	9756.09
885.164	9722.19
885.481	9729.87
885.798	9740.04
886.115	9652.13
886.432	9686.48
886.75	9586.37
887.067	9592.47
887.383	9581.63
887.7	9640.38
888.017	9540.95
888.334	9588.41
888.651	9515.87
888.967	9483.55
889.284	9556.32
889.6	9427.28
889.917	9343.21
890.233	9460.27
890.55	9322.88
890.866	9374.4
891.182	9319.94
891.498	9264.8
891.815	9252.6
892.131	9279.26
892.447	9238.81
892.763	9168.98
893.079	9110.9
893.395	9107.74
893.71	9134.41
894.026	9021.87
894.342	9053.5
894.657	9075.88
894.973	8972.6
895.289	8982.55
895.604	9010.79
895.92	8894.86
896.235	8830.23
896.55	8839.27
896.865	8815.09
897.181	8788.88
897.496	8808.54
897.811	8714.08
898.126	8690.35
898.441	8682.67
898.756	8713.4
899.071	8639.96
899.386	8549.34
899.7	8536.46
900.015	8520.41
900.33	8474.54
900.644	8449
900.959	8476.8
901.273	8436.57
901.588	8374.43
901.902	8451.49
902.216	8396.8
902.531	8324.94
902.845	8308.67
903.159	8215.56
903.473	8212.17
903.787	8176.92
904.101	8176.01
904.415	8164.49
904.729	8167.43
905.042	8105.28
905.356	8092.85
905.67	8040.88
905.984	8016.92
906.297	8089.91
906.611	7992.06
906.924	7884.95
907.237	7899.86
907.551	7837.49
907.864	7870.03
908.177	7830.03
908.491	7823.71
908.804	7711.62
909.117	7749.58
909.43	7685.18
909.743	7673.65
910.056	7648.34
910.368	7592.07
910.681	7544.17
910.994	7584.84
911.307	7520.21
911.619	7460.78
911.932	7489.93
912.244	7391.85
912.557	7410.61
912.869	7302.36
913.181	7317.28
913.494	7299.88
913.806	7251.07
914.118	7220.11
914.43	7171.97
914.742	7144.4
915.054	7133.33
915.366	7160.9
915.678	7100.79
915.99	7048.59
916.302	7073.67
916.613	7077.51
916.925	6968.59
917.236	6984.41
917.548	6905.54
917.859	6902.38
918.171	6841.13
918.482	6819.67
918.794	6821.7
919.105	6794.13
919.416	6759.33
919.727	6710.06
920.038	6635.94
920.349	6734.47
920.66	6636.62
920.971	6629.61
921.282	6595.26
921.593	6601.14
921.903	6616.96
922.214	6527.24
922.525	6477.08
922.835	6452.22
923.146	6397.3
923.456	6404.76
923.767	6323.18
924.077	6334.71
924.387	6317.08
924.697	6284.99
925.008	6287.93
925.318	6251.32
925.628	6248.83
925.938	6216.97
926.248	6146.24
926.558	6150.53
926.867	6070.08
927.177	6071.89
927.487	6111.89
927.796	5989.63
928.106	6028.95
928.416	5995.28
928.725	5926.81
929.034	5863.31
929.344	5894.04
929.653	5916.64
929.962	5913.47
930.271	5829.18
930.581	5819.92
930.89	5800.48
931.199	5750.09
931.508	5768.39
931.817	5723.2
932.125	5690.2
932.434	5641.62
932.743	5648.85
933.051	5621.96
933.36	5597.1
933.669	5579.7
933.977	5582.64
934.286	5522.07
934.594	5504.67
934.902	5509.19
935.21	5480.72
935.519	5450.44
935.827	5417.22
936.135	5397.56
936.443	5353.49
936.751	5279.14
937.059	5332.25
937.367	5307.16
937.674	5295.41
937.982	5228.97
938.29	5236.66
938.597	5234.4
938.905	5218.8
939.213	5188.97
939.52	5080.5
939.827	5105.59
940.135	5105.81
940.442	5097.9
940.749	5057.23
941.056	5051.8
941.363	4982.2
941.67	4971.58
941.977	4942.2
942.284	4874.63
942.591	4891.13
942.898	4893.61
943.205	4867.17
943.511	4845.48
943.818	4819.72
944.125	4805.26
944.431	4758.93
944.738	4757.8
945.044	4798.7
945.35	4748.53
945.657	4694.98
945.963	4727.52
946.269	4664.24
946.575	4663.79
946.881	4658.59
947.187	4646.62
947.493	4630.12
947.799	4562.55
948.105	4555.09
948.41	4557.58
948.716	4530.01
949.022	4461.54
949.327	4517.13
949.633	4448.2
949.938	4464.92
950.244	4453.85
950.549	4411.14
950.854	4387.86
951.16	4376.34
951.465	4330.92
951.77	4334.31
952.075	4291.14
952.38	4255.89
952.685	4253.41
952.99	4253.86
953.294	4216.57
953.599	4181.09
953.904	4202.11
954.209	4187.87
954.513	4140.87
954.818	4130.92
955.122	4147.65
955.426	4132.96
955.731	4085.5
956.035	4045.05
956.339	4020.87
956.643	4058.61
956.948	4010.02
957.252	3994.65
957.556	3961.89
957.86	3945.16
958.163	3965.05
958.467	3890.02
958.771	3884.15
959.075	3902.45
959.378	3873.53
959.682	3887.31
959.985	3815.22
960.289	3810.25
960.592	3813.19
960.896	3777.03
961.199	3826.98
961.502	3770.71
961.805	3742.91
962.108	3757.6
962.411	3700.2
962.714	3696.36
963.017	3737.49
963.32	3669.01
963.623	3668.56
963.926	3624.5
964.228	3598.28
964.531	3624.72
964.833	3596.7
965.136	3601.44
965.438	3576.59
965.741	3520.77
966.043	3502.24
966.345	3558.06
966.648	3528.23
966.95	3499.75
967.252	3470.37
967.554	3481.45
967.856	3412.52
968.158	3402.58
968.46	3372.07
968.761	3404.16
969.063	3375.46
969.365	3335.69
969.666	3314.22
969.968	3338.4
970.269	3335.01
970.571	3357.38
970.872	3300.21
971.174	3215.47
971.475	3276.26
971.776	3248.01
972.077	3227.44
972.378	3239.42
972.679	3243.26
972.98	3178.86
973.281	3169.59
973.582	3223.83
973.883	3181.12
974.183	3149.25
974.484	3145.41
974.785	3097.05
975.085	3095.24
975.386	3128.46
975.686	3095.24
975.986	3047.56
976.287	3046.43
976.587	3038.3
976.887	3028.58
977.187	3021.8
977.487	3002.82
977.787	2980.22
978.087	2937.73
978.387	2913.78
978.687	2930.05
978.987	2921.91
979.286	2947.68
979.586	2917.4
979.885	2878.98
980.185	2849.37
980.484	2859.32
980.784	2830.39
981.083	2822.03
981.382	2853.89
981.682	2820.67
981.981	2782.71
982.28	2743.16
982.579	2768.7
982.878	2767.34
983.177	2787
983.475	2752.65
983.774	2733.9
984.073	2710.39
984.372	2671.75
984.67	2697.06
984.969	2686.67
985.267	2655.03
985.566	2633.79
985.864	2634.69
986.162	2616.61
986.461	2603.5
986.759	2617.29
987.057	2600.57
987.355	2584.3
987.653	2571.19
987.951	2548.82
988.249	2535.48
988.547	2540.68
988.844	2499.55
989.142	2531.64
989.44	2516.73
989.737	2485.99
990.035	2490.74
990.332	2447.58
990.63	2435.6
990.927	2439.89
991.224	2469.05
991.521	2421.14
991.819	2413.68
992.116	2383.85
992.413	2379.33
992.71	2344.98
993.006	2395.6
993.303	2374.13
993.6	2383.17
993.897	2342.49
994.193	2367.58
994.49	2327.13
994.787	2312.89
995.083	2300.01
995.379	2261.37
995.676	2280.12
995.972	2285.32
996.268	2245.1
996.565	2201.03
996.861	2220.69
997.157	2210.07
997.453	2190.18
997.749	2204.65
998.044	2161.93
998.34	2180.92
998.636	2149.51
998.932	2157.64
999.227	2116.29
999.523	2143.4
999.818	2111.99
1000.114	2116.51
1000.409	2099.34
1000.704	2095.72
1001	2055.72
1001.295	2036.06
1001.59	2027.02
1001.885	2078.55
1002.18	2017.08
1002.475	2014.82
1002.77	1995.16
1003.065	1995.61
1003.359	1978.89
1003.654	1966.91
1003.949	1967.14
1004.243	1968.72
1004.538	1945.67
1004.832	1935.73
1005.127	1921.04
1005.421	1913.13
1005.715	1892.11
1006.009	1895.95
1006.304	1895.73
1006.598	1880.13
1006.892	1846.69
1007.186	1822.51
1007.48	1829.06
1007.773	1860.47
1008.067	1812.11
1008.361	1776.18
1008.655	1799.01
1008.948	1789.06
1009.242	1780.25
1009.535	1748.16
1009.829	1736.41
1010.122	1748.16
1010.415	1758.33
1010.708	1765.33
1011.001	1695.51
1011.295	1710.65
1011.588	1691.21
1011.881	1680.14
1012.173	1670.87
1012.466	1701.61
1012.759	1664.09
1013.052	1693.92
1013.344	1638.56
1013.637	1650.76
1013.93	1619.12
1014.222	1609.86
1014.514	1625.45
1014.807	1591.1
1015.099	1573.48
1015.391	1580.71
1015.683	1557.66
1015.976	1543.42
1016.268	1558.33
1016.56	1518.79
1016.851	1544.78
1017.143	1509.75
1017.435	1520.37
1017.727	1482.4
1018.018	1446.93
1018.31	1453.7
1018.602	1443.76
1018.893	1442.41
1019.185	1444.89
1019.476	1428.39
1019.767	1411.9
1020.058	1398.79
1020.35	1415.51
1020.641	1392.92
1020.932	1383.2
1021.223	1388.17
1021.514	1377.1
1021.804	1350.66
1022.095	1352.01
1022.386	1342.3
1022.677	1297.1
1022.967	1323.09
1023.258	1336.65
1023.548	1330.54
1023.839	1306.59
1024.129	1300.04
1024.419	1280.6
1024.709	1266.37
1025	1263.2
1025.29	1259.81
1025.58	1247.83
1025.87	1243.99
1026.16	1223.43
1026.449	1218.68
1026.739	1233.37
1027.029	1216.42
1027.319	1201.73
1027.608	1180.49
1027.898	1173.03
1028.187	1156.31
1028.477	1154.96
1028.766	1173.94
1029.055	1170.1
1029.344	1148.18
1029.634	1128.06
1029.923	1113.83
1030.212	1106.82
1030.501	1123.77
1030.79	1114.96
1031.078	1107.05
1031.367	1100.95
1031.656	1061.85
1031.945	1070.44
1032.233	1063.88
1032.522	1063.43
1032.81	1039.48
1033.099	1043.09
1033.387	1047.16
1033.675	1069.31
1033.963	1027.95
1034.251	1026.15
1034.54	999.25
1034.828	1030.89
1035.116	991.34
1035.403	985.69
1035.691	994.06
1035.979	996.09
1036.267	1007.39
1036.554	987.95
1036.842	954.06
1037.129	967.16
1037.417	958.12
1037.704	974.85
1037.992	951.8
1038.279	944.34
1038.566	933.04
1038.853	933.04
1039.14	933.04
