Data from foil_FLMS001491_062.txt Node
Date: Tue Feb 07 11:36:26 GMT 2017
User: dcchb
Spectrometer: FLMS00149
Trigger mode: 0
Integration Time (sec): 2.000000E-2
Scans to average: 10
Electric dark correction enabled: true
Nonlinearity correction enabled: false
Boxcar width: 0
XAxis mode: Wavelengths
Number of Pixels in Spectrum: 2048
>>>>>Begin Spectral Data<<<<<
341.393	8.46
341.776	8.46
342.16	8.46
342.543	-59.11
342.927	-49.62
343.31	-76.74
343.693	-78.32
344.077	-62.27
344.46	-65.21
344.843	-47.81
345.226	-48.71
345.61	-24.99
345.993	-10.75
346.376	-0.58
346.759	25.63
347.142	18.4
347.525	27.67
347.908	64.28
348.291	80.77
348.674	91.85
349.057	106.76
349.44	117.38
349.823	134.11
350.206	167.1
350.588	268.11
350.971	287.77
351.354	314.67
351.737	301.11
352.119	353.76
352.502	350.82
352.884	349.24
353.267	356.93
353.65	358.06
354.032	378.85
354.414	381.56
354.797	416.59
355.179	412.29
355.562	420.2
355.944	425.62
356.326	431.95
356.709	427.66
357.091	426.3
357.473	438.96
357.855	450.71
358.238	428.34
358.62	455
359.002	453.65
359.384	455.23
359.766	455.45
360.148	448.45
360.53	442.12
360.912	422.69
361.294	452.29
361.676	438.05
362.057	459.75
362.439	450.03
362.821	446.41
363.203	461.33
363.584	453.42
363.966	452.29
364.348	467.43
364.729	426.53
365.111	472.63
365.493	473.08
365.874	458.17
366.256	465.17
366.637	473.98
367.019	463.14
367.4	484.83
367.781	459.07
368.163	467.43
368.544	470.37
368.925	462.01
369.306	469.01
369.688	493.42
370.069	471.95
370.45	489.13
370.831	507.2
371.212	501.1
371.593	485.74
371.974	502.46
372.355	494.1
372.736	508.79
373.117	528.22
373.498	485.06
373.879	535
374.26	502.68
374.641	480.76
375.021	514.44
375.402	545.62
375.783	554.43
376.163	570.93
376.544	588.33
376.925	536.58
377.305	562.12
377.686	539.07
378.066	529.8
378.447	570.48
378.827	568.45
379.208	581.55
379.588	590.14
379.968	586.52
380.349	608.22
380.729	629.91
381.109	590.82
381.489	602.57
381.87	629.69
382.25	631.49
382.63	622.23
383.01	626.3
383.39	648.44
383.77	632.4
384.15	620.2
384.53	651.38
384.91	646.18
385.29	680.08
385.67	695.45
386.049	681.21
386.429	702
386.809	687.31
387.189	711.49
387.568	701.78
387.948	709.46
388.328	733.64
388.707	711.94
389.087	760.3
389.466	753.75
389.846	747.88
390.225	757.82
390.605	767.99
390.984	788.1
391.363	784.03
391.743	777.71
392.122	830.59
392.501	828.78
392.881	847.76
393.26	845.5
393.639	855.44
394.018	857.25
394.397	879.4
394.776	869
395.155	900.87
395.534	899.96
395.913	908.32
396.292	924.37
396.671	935.67
397.05	948.1
397.429	949.45
397.808	944.48
398.186	956.23
398.565	951.26
398.944	991.94
399.323	996.23
399.701	991.71
400.08	986.51
400.458	1009.79
400.837	1022.9
401.215	1048.21
401.594	1047.3
401.972	1061.31
402.351	1093.4
402.729	1099.28
403.107	1106.96
403.486	1094.08
403.864	1125.72
404.242	1142.67
404.62	1130.92
404.999	1138.6
405.377	1164.36
405.755	1165.04
406.133	1203.91
406.511	1210.46
406.889	1257.47
407.267	1233.96
407.645	1274.42
408.023	1277.58
408.401	1307.64
408.779	1307.64
409.156	1338.37
409.534	1322.32
409.912	1343.79
410.29	1380.85
410.667	1390.34
411.045	1394.41
411.422	1431.47
411.8	1462.89
412.178	1496.33
412.555	1482.55
412.933	1499.95
413.31	1557.35
413.687	1555.31
414.065	1590.79
414.442	1586.27
414.819	1607.74
415.197	1592.6
415.574	1644.58
415.951	1679.38
416.328	1703.78
416.705	1713.95
417.082	1706.04
417.46	1735.42
417.837	1756.66
418.214	1772.26
418.591	1786.27
418.967	1804.12
419.344	1840.05
419.721	1850.9
420.098	1880.05
420.475	1871.91
420.852	1912.36
421.228	1901.07
421.605	1909.65
421.982	1929.99
422.358	1964.34
422.735	1994.17
423.111	1975.19
423.488	2004.57
423.864	2043.43
424.241	2048.63
424.617	2100.38
424.994	2100.61
425.37	2106.26
425.746	2153.26
426.123	2200.49
426.499	2206.82
426.875	2242.53
427.251	2312.35
427.627	2292.92
428.003	2342.64
428.379	2344.44
428.756	2375.4
429.132	2427.61
429.507	2459.02
429.883	2483.42
430.259	2542.4
430.635	2511.67
431.011	2528.39
431.387	2645
431.763	2665.34
432.138	2686.13
432.514	2722.97
432.89	2745.34
433.265	2785.34
433.641	2858.1
434.016	2888.16
434.392	2899.01
434.767	2973.35
435.143	2992.34
435.518	2988.72
435.894	3036.18
436.269	3068.72
436.644	3099.68
437.02	3180.81
437.395	3146.23
437.77	3198.43
438.145	3251.09
438.52	3317.07
438.895	3302.38
439.271	3339.45
439.646	3380.8
440.021	3432.78
440.395	3396.62
440.77	3427.58
441.145	3486.11
441.52	3553.68
441.895	3566.56
442.27	3567.46
442.645	3598.87
443.019	3639.78
443.394	3652.66
443.769	3627.35
444.143	3651.08
444.518	3749.15
444.892	3741.7
445.267	3771.3
445.641	3791.41
446.016	3837.96
446.39	3818.98
446.764	3879.77
447.139	3877.06
447.513	3950.05
447.887	3961.58
448.262	3967.68
448.636	4032.31
449.01	4055.36
449.384	4109.82
449.758	4114.57
450.132	4143.94
450.506	4195.24
450.88	4171.74
451.254	4205.64
451.628	4317.05
452.002	4372.87
452.376	4380.1
452.75	4435.46
453.123	4502.13
453.497	4529.7
453.871	4576.93
454.244	4638.17
454.618	4712.52
454.992	4746.41
455.365	4753.65
455.739	4868.67
456.112	4931.49
456.486	4972.85
456.859	5054.88
457.232	5130.59
457.606	5112.51
457.979	5153.86
458.352	5282.67
458.725	5357.7
459.099	5366.06
459.472	5474.08
459.845	5514.3
460.218	5575.55
460.591	5627.07
460.964	5715.2
461.337	5815.99
461.71	5900.51
462.083	5999.49
462.456	5985.03
462.829	6020.05
463.201	6138.69
463.574	6167.39
463.947	6200.39
464.32	6357.22
464.692	6373.72
465.065	6449.19
465.438	6513.6
465.81	6688.28
466.183	6724.89
466.555	6886.02
466.928	6897.77
467.3	6950.65
467.672	6970.99
468.045	7257.54
468.417	7247.59
468.789	7284.65
469.161	7331.66
469.534	7495.04
469.906	7699.78
470.278	7736.84
470.65	7830.85
471.022	8003.73
471.394	8107.91
471.766	8181.8
472.138	8265.19
472.51	8434
472.882	8595.35
473.253	8735.46
473.625	8809.81
473.997	9071.95
474.369	9031.73
474.74	9120.31
475.112	9343.81
475.484	9436.01
475.855	9708.77
476.227	9691.6
476.598	9997.58
476.97	10115.54
477.341	10324.35
477.713	10460.61
478.084	10555.98
478.455	10807.27
478.827	10892.92
479.198	11262.85
479.569	11251.78
479.94	11563.86
480.311	11615.39
480.682	11945.32
481.053	12159.33
481.424	12371.07
481.795	12486.32
482.166	12720.44
482.537	12871.85
482.908	13182.13
483.279	13289.01
483.65	13542.57
484.021	13707.31
484.391	13905.5
484.762	14026.17
485.133	14161.08
485.503	14426.39
485.874	14794.96
486.244	14895.3
486.615	15113.6
486.985	15304.33
487.356	15560.37
487.726	15732.34
488.097	16118.32
488.467	16117.19
488.837	16441.93
489.207	16531.42
489.578	16850.28
489.948	16947.9
490.318	17291.17
490.688	17290.49
491.058	17592.18
491.428	17810.25
491.798	17949.01
492.168	18339.96
492.538	18462.44
492.908	18653.62
493.278	18873.27
493.648	18966.61
494.017	19076.66
494.387	19360.72
494.757	19523.43
495.126	19646.59
495.496	19739.92
495.866	19967.94
496.235	20117.08
496.605	20348.49
496.974	20460.13
497.344	20586.22
497.713	20843.84
498.082	20960.68
498.452	21199.09
498.821	21197.28
499.19	21392.3
499.559	21517.05
499.928	21695.35
500.298	21856.47
500.667	22120.2
501.036	22038.39
501.405	22256.24
501.774	22284.48
502.143	22519.73
502.512	22623.91
502.88	22939.16
503.249	22913.39
503.618	23077.91
503.987	23243.1
504.356	23356.77
504.724	23521.97
505.093	23721.96
505.462	23794.28
505.83	23965.12
506.199	24109.97
506.567	24378.21
506.936	24380.93
507.304	24768.71
507.672	24795.15
508.041	24895.72
508.409	25124.86
508.777	25393.56
509.145	25552.87
509.514	25569.82
509.882	25810.27
510.25	25820.44
510.618	26197.15
510.986	26193.99
511.354	26487.54
511.722	26548.33
512.09	27011.14
512.458	26850.47
512.826	27177.92
513.193	27360.96
513.561	27429.43
513.929	27783.1
514.297	27805.7
514.664	28181.05
515.032	28303.99
515.4	28461.05
515.767	28634.6
516.135	28774.48
516.502	28655.16
516.869	29239.56
517.237	29309.16
517.604	29330.18
517.972	29686.1
518.339	29884.96
518.706	29978.97
519.073	30270.04
519.44	30421.45
519.808	30756.35
520.175	30736.92
520.542	31140.97
520.909	31278.82
521.276	31500.29
521.643	31789.55
522.009	32056.66
522.376	32190.44
522.743	32272.7
523.11	32711.78
523.477	32962.85
523.843	33034.03
524.21	33444.64
524.577	33822.26
524.943	33858.87
525.31	34104.06
525.676	34406.2
526.043	34566.42
526.409	34796.02
526.776	35234.65
527.142	35230.36
527.508	35528.66
527.874	35738.37
528.241	35954.86
528.607	36063.78
528.973	36391.46
529.339	36477.78
529.705	36811.79
530.071	37148.05
530.437	37373.13
530.803	37526.34
531.169	37653.12
531.535	37686.34
531.901	38039.55
532.267	38011.53
532.632	38290.39
532.998	38419.88
533.364	38770.6
533.73	38749.81
534.095	39195.23
534.461	39208.11
534.826	39380.31
535.192	39597.7
535.557	39812.84
535.923	39929.67
536.288	39955.21
536.653	40172.15
537.019	40220.06
537.384	40499.37
537.749	40713.15
538.114	40823.88
538.479	40868.63
538.845	40981.62
539.21	40951.56
539.575	41209.86
539.94	41260.26
540.305	41598.1
540.67	41651.21
541.034	41808.49
541.399	41936.85
541.764	42093.68
542.129	42115.83
542.494	42164.41
542.858	42471.75
543.223	42530.73
543.587	42950.83
543.952	42798.3
544.316	43045.75
544.681	42959.42
545.045	43361.44
545.41	43532.97
545.774	43498.62
546.138	43647.76
546.503	43671.27
546.867	43776.57
547.231	44053.86
547.595	44071.71
547.959	44263.57
548.324	44374.3
548.688	44502.66
549.052	44649.77
549.416	44786.04
549.779	44896.55
550.143	45146.48
550.507	45337.89
550.871	45585.57
551.235	45469.19
551.599	45737.65
551.962	45990.08
552.326	46066.46
552.689	46374.47
553.053	46234.82
553.417	46255.15
553.78	46849.94
554.143	46703.28
554.507	46868.02
554.87	47053.78
555.234	47367.21
555.597	47233.66
555.96	47441.34
556.323	47597.94
556.686	47695.79
557.05	47926.75
557.413	48027.31
557.776	48245.84
558.139	48486.06
558.502	48506.85
558.865	48712.72
559.228	48952.94
559.59	49114.06
559.953	49160.39
560.316	49466.14
560.679	49618.68
561.041	49689.41
561.404	49930.31
561.767	50184.54
562.129	50149.97
562.492	50461.6
562.854	50514.93
563.217	50486
563.579	50717.86
563.941	50955.82
564.304	51085.54
564.666	51267.23
565.028	51361.91
565.39	51547.67
565.753	51740.66
566.115	51772.97
566.477	51945.85
566.839	52064.27
567.201	52222.91
567.563	52336.58
567.925	52493.86
568.287	52628.09
568.648	52570.69
569.01	52866.73
569.372	52976.33
569.734	52941.98
570.095	53192.82
570.457	53314.63
570.819	53301.75
571.18	53417.68
571.542	53507.84
571.903	53623.77
572.265	53673.04
572.626	53762.08
572.987	53844.78
573.349	53981.73
573.71	54109.18
574.071	54215.4
574.432	54238.22
574.794	54402.74
575.155	54458.55
575.516	54336.52
575.877	54546.69
576.238	54568.38
576.599	54643.18
576.96	54731.32
577.32	54771.77
577.681	54866.68
578.042	54877.98
578.403	54939.9
578.763	54992.1
579.124	55031.19
579.485	55208.36
579.845	55127.01
580.206	55201.36
580.566	55067.35
580.927	55193.68
581.287	55287.68
581.648	55192.77
582.008	55307.12
582.368	55277.06
582.728	55276.61
583.089	55299.89
583.449	55308.25
583.809	55306.89
584.169	55365.42
584.529	55334.46
584.889	55651.29
585.249	55316.61
585.609	55325.88
585.969	55486.32
586.329	55374.46
586.688	55483.16
587.048	55460.79
587.408	55277.74
587.768	55457.4
588.127	55453.33
588.487	55385.31
588.846	55613.33
589.206	55357.29
589.565	55381.92
589.925	55613.55
590.284	55530.62
590.643	55604.29
591.003	55559.32
591.362	55654.68
591.721	55599.54
592.08	55545.31
592.44	55656.49
592.799	55710.27
593.158	55604.51
593.517	55582.37
593.876	55599.09
594.235	55529.49
594.593	55621.69
594.952	55715.02
595.311	55582.82
595.67	55664.62
596.029	55753.44
596.387	55817.39
596.746	55789.37
597.104	55677.5
597.463	55667.11
597.822	55808.12
598.18	55720.89
598.538	55637.51
598.897	55891.96
599.255	55617.39
599.613	56120.88
599.972	55947.1
600.33	55998.17
600.688	55878.4
601.046	55924.5
601.404	56040.21
601.762	55980.1
602.12	56093.54
602.478	56068.23
602.836	56023.71
603.194	55909.14
603.552	55966.54
603.91	55978.74
604.268	56105.29
604.625	55988.68
604.983	56087.21
605.341	55989.36
605.698	56126.31
606.056	56188.45
606.413	56202.24
606.771	56333.76
607.128	56357.49
607.485	56188.23
607.843	56262.12
608.2	56386.19
608.557	56419.63
608.914	56319.52
609.272	56497.14
609.629	56501.21
609.986	56564.49
610.343	56499.4
610.7	56699.85
611.057	56560.87
611.414	56558.16
611.771	56628.44
612.127	56752.5
612.484	56686.52
612.841	56776.91
613.198	56680.42
613.554	56721.09
613.911	56855.1
614.267	56822.56
614.624	56864.14
614.98	56894.42
615.337	56980.3
615.693	56929.45
616.05	56892.39
616.406	57066.17
616.762	56961.76
617.118	57039.28
617.475	56983.69
617.831	57138.03
618.187	57070.24
618.543	57056
618.899	57232.49
619.255	57158.82
619.611	57106.39
619.967	57173.28
620.323	57206.73
620.678	57130.57
621.034	57047.86
621.39	57096.68
621.746	57009.22
622.101	57346.61
622.457	57109.33
622.812	57185.04
623.168	57202.66
623.523	57231.81
623.879	57268.88
624.234	57092.83
624.589	57192.95
624.945	57183.23
625.3	57232.72
625.655	57304.81
626.01	57257.58
626.365	57275.43
626.72	57267.75
627.075	57184.58
627.43	57253.96
627.785	57086.96
628.14	57157.01
628.495	57164.02
628.85	57103.91
629.205	57062.78
629.559	57211.48
629.914	57021.42
630.269	57032.72
630.623	56926.06
630.978	56877.93
631.332	56950.92
631.687	56993.63
632.041	56861.88
632.396	56898.94
632.75	56853.07
633.104	56871.6
633.459	56728.78
633.813	56704.37
634.167	56704.37
634.521	56681.55
634.875	56764.93
635.229	56709.79
635.583	56522.91
635.937	56549.57
636.291	56548.67
636.645	56547.54
636.999	56439.52
637.352	56541.89
637.706	56348.22
638.06	56443.13
638.413	56373.08
638.767	56262.8
639.121	56395
639.474	56258.28
639.828	56245.63
640.181	56214.21
640.534	56269.81
640.888	56127.66
641.241	56064.39
641.594	56090.38
641.947	56192.97
642.301	56150.26
642.654	56081.34
643.007	55943.94
643.36	55967.44
643.713	55950.04
644.066	56039.98
644.419	55612.42
644.771	55395.93
645.124	55057.63
645.477	55065.32
645.83	54953.23
646.182	54993.68
646.535	54999.33
646.888	55116.62
647.24	54837.08
647.593	55164.75
647.945	55001.59
648.298	54781.71
648.65	54744.87
649.002	54640.7
649.355	54763.86
649.707	54651.54
650.059	54661.71
650.411	55001.59
650.763	55015.6
651.115	55296.5
651.467	55186.67
651.819	55279.78
652.171	55176.73
652.523	55123.17
652.875	55117.52
653.227	55004.53
653.578	55174.92
653.93	55073.23
654.282	54999.33
654.633	54827.81
654.985	54946.68
655.337	54871.88
655.688	54896.96
656.039	55019.9
656.391	54706.46
656.742	54685.89
657.094	54733.8
657.445	54796.17
657.796	54734.25
658.147	54693.8
658.498	54659.68
658.849	54717.98
659.2	54677.76
659.551	54691.32
659.902	54611.54
660.253	54645.22
660.604	54669.4
660.955	54482.28
661.306	54638.89
661.656	54569.96
662.007	54558.89
662.358	54436.18
662.708	54467.82
663.059	54424.43
663.409	54255.85
663.76	54443.87
664.11	54420.81
664.461	54451.1
664.811	54442.06
665.161	54321.16
665.511	54305.56
665.862	54286.81
666.212	54370.19
666.562	54339.91
666.912	54226.7
667.262	54210.2
667.612	54227.15
667.962	54182.18
668.312	54037.32
668.662	54231.89
669.011	54113.03
669.361	54143.76
669.711	54186.47
670.06	54040.94
670.41	54015.4
670.76	53974.95
671.109	54095.4
671.459	53991.45
671.808	53970.66
672.157	53958
672.507	53782.19
672.856	53783.77
673.205	53771.79
673.554	53873.26
673.904	53746.71
674.253	53877.1
674.602	53793.94
674.951	53387.62
675.3	53292.93
675.649	53616.99
675.998	53562.31
676.346	53668.07
676.695	53749.19
677.044	53447.06
677.393	53592.14
677.741	53676.65
678.09	53497
678.438	53381.75
678.787	53521.63
679.135	53549.88
679.484	53372.48
679.832	53380.84
680.181	53238.47
680.529	53387.85
680.877	53243.44
681.225	53217.91
681.573	53310.79
681.922	53072.15
682.27	53026.73
682.618	53075.09
682.966	52988.31
683.314	53138.36
683.661	52942.66
684.009	52711.93
684.357	52703.57
684.705	52587.19
685.053	52626.96
685.4	52603.24
685.748	52405.27
686.095	52479.85
686.443	52273.98
686.79	52197.6
687.138	52340.19
687.485	52177.48
687.832	52080.99
688.18	52159.18
688.527	51913.31
688.874	51964.61
689.221	51854.33
689.568	51676.93
689.915	51619.98
690.262	51665.86
690.609	51578.18
690.956	51418.86
691.303	51491.17
691.65	51257.73
691.997	51148.58
692.344	51074.69
692.69	51062.26
693.037	51068.13
693.383	50659.78
693.73	50764.19
694.077	50540.01
694.423	50512.89
694.769	50497.3
695.116	50259.34
695.462	50293.92
695.808	50263.86
696.155	50235.39
696.501	49993.13
696.847	49964.66
697.193	49712.69
697.539	49858
697.885	49681.96
698.231	49532.58
698.577	49452.36
698.923	49363.09
699.269	49272.48
699.614	49094.4
699.96	48950.45
700.306	49011.47
700.651	48699.84
700.997	48703.9
701.342	48582.55
701.688	48516.56
702.033	48436.34
702.379	48290.58
702.724	48266.85
703.069	48396.34
703.415	47903.25
703.76	47881.78
704.105	47723.36
704.45	47667.09
704.795	47464.39
705.14	47429.81
705.485	47431.39
705.83	47326.54
706.175	47215.81
706.52	47018.3
706.865	47024.17
707.209	46956.6
707.554	46750.51
707.899	46838.42
708.243	46563.85
708.588	46509.84
708.932	46230.75
709.277	46233.69
709.621	46246.57
709.966	46025.56
710.31	46151.88
710.654	45707.6
710.998	45822.62
711.342	45856.52
711.687	45774.26
712.031	45445.01
712.375	45314.84
712.719	45368.62
713.063	45317.55
713.407	45372.01
713.75	45158.91
714.094	45010.44
714.438	44901.52
714.782	45017.45
715.125	44666.27
715.469	44821.07
715.812	44536.78
716.156	44420.4
716.499	44408.2
716.843	44369.78
717.186	44087.75
717.53	44355.54
717.873	44316.67
718.216	44023.12
718.559	43905.84
718.902	43693.19
719.246	43830.58
719.589	43783.13
719.932	43348.79
720.275	43394.89
720.617	43275.35
720.96	43392.18
721.303	43271.73
721.646	43302.69
721.989	43026.76
722.331	43143.37
722.674	43063.15
723.016	42871.29
723.359	42855.7
723.701	42931.4
724.044	42564.63
724.386	42442.6
724.729	42525.08
725.071	42534.35
725.413	42435.82
725.755	42281.92
726.097	42196.96
726.439	41940.92
726.782	41993.12
727.124	42151.08
727.465	41885.1
727.807	41993.12
728.149	41752.9
728.491	41750.87
728.833	41757.42
729.175	41566.24
729.516	41528.27
729.858	41422.29
730.199	41376.19
730.541	41294.38
730.882	41252.12
731.224	41328.96
731.565	41126.02
731.906	41042.64
732.248	41117.66
732.589	40721.74
732.93	40743.43
733.271	40834.28
733.612	40858.46
733.953	40712.7
734.294	40580.27
734.635	40490.11
734.976	40643.32
735.317	40225.48
735.658	40325.37
735.999	40274.29
736.339	40085.15
736.68	40265.25
737.021	40088.76
737.361	39816.68
737.702	40049.44
738.042	39870.46
738.383	39764.25
738.723	39796.34
739.063	39679.73
739.404	39780.07
739.744	39484.48
740.084	39493.07
740.424	39512.28
740.764	39353.64
741.104	39620.07
741.444	39307.54
741.784	39118.62
742.124	39121.33
742.464	39150.48
742.804	39003.82
743.143	38875.69
743.483	38932.63
743.823	38717.5
744.162	38647.67
744.502	38720.66
744.841	38437.51
745.181	38575.58
745.52	38470.95
745.86	38326.32
746.199	38212.43
746.538	38145.54
746.877	38260.34
747.216	38232.31
747.556	38179.43
747.895	38237.06
748.234	37939.67
748.573	37907.35
748.911	37820.12
749.25	37740.58
749.589	37578.55
749.928	37593.46
750.267	37623.06
750.605	37463.75
750.944	37372.22
751.283	37215.17
751.621	37360.7
751.96	37147.14
752.298	37087.71
752.636	36953.48
752.975	36888.39
753.313	36762.97
753.651	36915.96
753.989	36639.59
754.327	36554.17
754.666	36376.54
755.004	36348.07
755.342	36352.36
755.679	36237.11
756.017	35984.24
756.355	36042.77
756.693	35929.78
757.031	35891.36
757.368	35790.12
757.706	35756.9
758.044	35497.92
758.381	35610.24
758.719	35395.1
759.056	35351.94
759.394	35236.69
759.731	35078.95
760.068	34971.83
760.405	34779.07
760.743	34726.19
761.08	34869.24
761.417	34612.75
761.754	34418.63
762.091	34486.2
762.428	34304.73
762.765	34037.85
763.102	34179.77
763.438	34039.88
763.775	33930.51
764.112	33817.97
764.449	33885.08
764.785	33501.59
765.122	33332.78
765.458	33235.61
765.795	33304.08
766.131	33203.07
766.467	33050.08
766.804	32882.17
767.14	32791.78
767.476	32670.43
767.812	32578
768.148	32492.58
768.485	32303.43
768.821	32165.13
769.157	32109.31
769.492	32188.86
769.828	31993.61
770.164	31680.85
770.5	31662.54
770.836	31634.97
771.171	31511.81
771.507	31421.87
771.842	31172.39
772.178	31201.99
772.513	31114.99
772.849	30972.84
773.184	30940.3
773.519	30842.23
773.855	30673.87
774.19	30365.63
774.525	30349.13
774.86	30366.76
775.195	30268.68
775.53	30129.02
775.865	29955.02
776.2	29685.87
776.535	29523.84
776.87	29492.43
777.205	29417.4
777.539	29311.87
777.874	29301.25
778.209	29180.12
778.543	29006.34
778.878	28862.84
779.212	28835.27
779.547	28657.2
779.881	28727.93
780.215	28282.07
780.55	28515.96
780.884	28228.74
781.218	28224.22
781.552	28078.23
781.886	28013.83
782.22	27873.94
782.554	27695.42
782.888	27430.34
783.222	27431.69
783.556	27318.02
783.889	27374.29
784.223	27059.5
784.557	26991.03
784.89	27131.14
785.224	26844.59
785.557	26692.73
785.891	26613.64
786.224	26598.27
786.558	26601.89
786.891	26210.26
787.224	26106.76
787.557	26140.88
787.891	26046.19
788.224	25974.33
788.557	25907.21
788.89	25952.64
789.223	25831.96
789.556	25551.07
789.888	25524.4
790.221	25362.6
790.554	25252.99
790.887	25264.52
791.219	25114.01
791.552	25063.62
791.884	24882.83
792.217	25046.22
792.549	24866.11
792.882	24663.41
793.214	24606.01
793.546	24562.16
793.879	24430.64
794.211	24236.52
794.543	24270.42
794.875	24173.47
795.207	24281.49
795.539	24022.07
795.871	24032.01
796.203	23794.73
796.535	23691.68
796.867	23698.91
797.198	23579.37
797.53	23596.99
797.862	23310.9
798.193	23376.21
798.525	23390.67
798.856	23345.93
799.188	23096.21
799.519	22968.08
799.85	22870.46
800.182	22867.52
800.513	22849.22
800.844	22569.22
801.175	22710.01
801.506	22592.73
801.837	22385.72
802.168	22376.91
802.499	22280.42
802.83	22205.39
803.161	22194.77
803.491	22162.68
803.822	22154.54
804.153	22051.5
804.483	21802.24
804.814	21766.98
805.145	21771.5
805.475	21686.53
805.805	21556.37
806.136	21555.92
806.466	21630.04
806.796	21582.36
807.126	21465.75
807.457	21342.36
807.787	21358.63
808.117	21206.09
808.447	21098.53
808.777	21076.83
809.107	21066.66
809.436	20934.69
809.766	20937.85
810.096	20906.22
810.426	20807.69
810.755	20887.01
811.085	20646.11
811.414	20776.95
811.744	20557.52
812.073	20545.32
812.403	20520.01
812.732	20273.92
813.061	20357.08
813.39	20232.34
813.719	20052
814.049	20308.94
814.378	20158.44
814.707	20143.52
815.036	20030.76
815.365	19842.06
815.693	19706.47
816.022	19727.26
816.351	19786.02
816.68	19566.82
817.008	19681.16
817.337	19473.94
817.665	19481.62
817.994	19563.65
818.322	19522.98
818.651	19298.12
818.979	19325.69
819.307	19313.04
819.636	19216.09
819.964	19066.49
820.292	19179.03
820.62	19169.09
820.948	19159.37
821.276	19127.51
821.604	19045.7
821.932	19168.18
822.259	19159.14
822.587	19015.64
822.915	18981.75
823.243	18981.97
823.57	18975.87
823.898	18989.43
824.225	18928.87
824.553	19000.5
824.88	18951.24
825.207	18902.65
825.535	18825.14
825.862	18971.35
826.189	18890.68
826.516	18962.99
826.843	19032.59
827.17	18983.78
827.497	18912.82
827.824	18922.09
828.151	18936.78
828.478	18912.6
828.805	18875.53
829.131	18855.42
829.458	18762.54
829.785	18734.3
830.111	18850.45
830.438	18876.89
830.764	18918.02
831.09	18829.43
831.417	18730.68
831.743	18834.18
832.069	18820.17
832.395	18721.41
832.722	18786.95
833.048	18662.88
833.374	18749.21
833.7	18692.04
834.026	18716.67
834.351	18711.02
834.677	18716.44
835.003	18645.26
835.329	18637.8
835.654	18626.73
835.98	18540.63
836.306	18561.87
836.631	18456.11
836.956	18610.91
837.282	18533.85
837.607	18461.99
837.932	18525.49
838.258	18437.81
838.583	18315.32
838.908	18323.91
839.233	18336.57
839.558	18303.57
839.883	18189.23
840.208	18123.92
840.533	18169.79
840.858	18275.32
841.182	18241.88
841.507	18169.79
841.832	18026.74
842.156	18001.43
842.481	17947.2
842.805	17920.76
843.13	17919.85
843.454	17855.45
843.778	17833.98
844.103	17746.3
844.427	17773.64
844.751	17734.77
845.075	17720.31
845.399	17683.02
845.723	17365.29
846.047	17582.91
846.371	17426.53
846.695	17390.83
847.019	17307.21
847.343	17198.97
847.666	17144.05
847.99	17043.49
848.313	17001.69
848.637	16831.75
848.96	16984.96
849.284	16868.36
849.607	16677.4
849.931	16698.64
850.254	16560.79
850.577	16574.58
850.9	16419.1
851.223	16421.36
851.546	16375.26
851.869	16246.23
852.192	16390.4
852.515	16152.22
852.838	16171.2
853.161	16095.95
853.483	16030.64
853.806	15935.73
854.129	15868.61
854.451	15797.88
854.774	15838.78
855.096	15734.15
855.419	15699.35
855.741	15733.02
856.063	15508.62
856.385	15546.36
856.708	15409.64
857.03	15422.74
857.352	15310.66
857.674	15286.7
857.996	15250.09
858.318	15168.74
858.64	15173.49
858.961	15198.57
859.283	15118.57
859.605	15026.37
859.926	15084.9
860.248	15031.79
860.57	15033.83
860.891	15012.13
861.212	14892.36
861.534	14995.41
861.855	14802.65
862.176	14869.99
862.498	14959.71
862.819	14844
863.14	14835.87
863.461	14787.28
863.782	14799.94
864.103	14741.86
864.424	14742.08
864.745	14691.69
865.065	14528.98
865.386	14531.24
865.707	14486.72
866.027	14537.12
866.348	14530.34
866.668	14586.16
866.989	14346.16
867.309	14303.45
867.63	14366.5
867.95	14435.88
868.27	14235.43
868.59	14329.67
868.91	14322.66
869.23	14382.77
869.55	14247.41
869.87	14203.34
870.19	14209.22
870.51	14252.61
870.83	14166.28
871.15	14178.26
871.469	14161.08
871.789	14117.47
872.109	14159.73
872.428	13984.14
872.748	14164.92
873.067	14084.25
873.386	14035.44
873.706	13960.41
874.025	13988.66
874.344	13916.12
874.663	13950.01
874.982	13880.19
875.301	13992.27
875.62	13895.55
875.939	13880.64
876.258	13865.5
876.577	13770.58
876.896	13800.41
877.214	13750.7
877.533	13756.8
877.852	13725.39
878.17	13752.73
878.489	13675.9
878.807	13665.28
879.125	13579.85
879.444	13622.11
879.762	13583.47
880.08	13634.54
880.398	13527.65
880.716	13510.48
881.034	13499.63
881.352	13510.25
881.67	13438.84
881.988	13485.85
882.306	13401.55
882.624	13388
882.941	13369.24
883.259	13291.27
883.577	13281.78
883.894	13190.03
884.212	13223.71
884.529	13233.42
884.846	13162.69
885.164	13207.66
885.481	13104.84
885.798	13173.54
886.115	13088.79
886.432	13016.71
886.75	13004.05
887.067	12974.22
887.383	12927.22
887.7	12984.39
888.017	12916.6
888.334	12899.42
888.651	12881.34
888.967	12752.98
889.284	12739.88
889.6	12664.4
889.917	12583.27
890.233	12672.31
890.55	12566.55
890.866	12594.34
891.182	12559.09
891.498	12561.58
891.815	12489.49
892.131	12464.63
892.447	12463.27
892.763	12345.99
893.079	12319.77
893.395	12288.59
893.71	12275.93
894.026	12324.07
894.342	12193.22
894.657	12114.36
894.973	12066
895.289	12088.14
895.604	12087.92
895.92	11988.03
896.235	11891.76
896.55	11947.36
896.865	12012.21
897.181	11835.04
897.496	11906.9
897.811	11829.17
898.126	11745.1
898.441	11706.46
898.756	11766.57
899.071	11668.04
899.386	11670.53
899.7	11580.13
900.015	11430.98
900.33	11475.73
900.644	11434.37
900.959	11413.36
901.273	11359.35
901.588	11313.93
901.902	11336.3
902.216	11244.32
902.531	11251.55
902.845	11276.41
903.159	11142.63
903.473	11039.36
903.787	11009.3
904.101	11007.49
904.415	10940.15
904.729	10925.91
905.042	10904.67
905.356	10862.86
905.67	10755.3
905.984	10814.96
906.297	10831.23
906.611	10691.57
906.924	10617.45
907.237	10613.15
907.551	10575.41
907.864	10513.27
908.177	10524.34
908.491	10537.9
908.804	10394.18
909.117	10374.29
909.43	10290.9
909.743	10241.41
910.056	10267.4
910.368	10212.94
910.681	10180.62
910.994	10052.26
911.307	10058.37
911.619	10012.72
911.932	10066.05
912.244	9987.63
912.557	9956.67
912.869	9900.18
913.181	9868.31
913.494	9814.53
913.806	9773.4
914.118	9812.04
914.43	9626.06
914.742	9694.99
915.054	9588.77
915.366	9607.08
915.678	9462.22
915.99	9468.32
916.302	9426.52
916.613	9420.87
916.925	9454.09
917.236	9438.72
917.548	9292.74
917.859	9320.53
918.171	9216.58
918.482	9118.73
918.794	9125.06
919.105	9159.41
919.416	9010.03
919.727	9059.75
920.038	8965.29
920.349	8918.96
920.66	8874.67
920.971	8892.75
921.282	8747.89
921.593	8815.01
921.903	8780.88
922.214	8719.42
922.525	8745.18
922.835	8683.49
923.146	8582.25
923.456	8590.83
923.767	8556.03
924.077	8524.17
924.387	8386.55
924.697	8455.24
925.008	8372.99
925.318	8431.97
925.628	8313.33
925.938	8323.72
926.248	8244.18
926.558	8264.97
926.867	8192.65
927.177	8149.72
927.487	8140.22
927.796	8050.28
928.106	8078.3
928.416	7977.74
928.725	7944.52
929.034	8001.7
929.344	7846.9
929.653	7869.04
929.962	7866.33
930.271	7821.14
930.581	7779.33
930.89	7756.96
931.199	7706.11
931.508	7732.32
931.817	7610.52
932.125	7618.2
932.434	7531.2
932.743	7524.87
933.051	7464.54
933.36	7470.64
933.669	7441.71
933.977	7407.81
934.286	7352.22
934.594	7331.43
934.902	7305.67
935.21	7225.45
935.519	7283.52
935.827	7199.23
936.135	7209.63
936.443	7105.45
936.751	7131.89
937.059	7113.13
937.367	7000.82
937.674	7032.68
937.982	7005.79
938.29	6955.4
938.597	6887.15
938.905	6856.19
939.213	6875.4
939.52	6839.47
939.827	6817.09
940.135	6764.21
940.442	6770.99
940.749	6730.09
941.056	6714.5
941.363	6598.8
941.67	6605.57
941.977	6579.59
942.284	6525.13
942.591	6559.25
942.898	6478.57
943.205	6474.5
943.511	6479.93
943.818	6377.11
944.125	6324.23
944.431	6320.61
944.738	6343.21
945.044	6315.19
945.35	6304.57
945.657	6237.67
945.963	6205.13
946.269	6205.36
946.575	6157.45
946.881	6108.41
947.187	6054.85
947.493	6074.74
947.799	6047.4
948.105	6037.45
948.41	5944.58
948.716	5979.38
949.022	5911.81
949.327	5971.69
949.633	5925.14
949.938	5846.27
950.244	5846.95
950.549	5777.35
950.854	5820.74
951.16	5738.48
951.465	5691.7
951.77	5719.27
952.075	5692.38
952.38	5701.87
952.685	5636.33
952.99	5609.22
953.294	5596.11
953.599	5570.57
953.904	5548.88
954.209	5477.47
954.513	5494.64
954.818	5471.37
955.122	5401.99
955.426	5395.89
955.731	5403.35
956.035	5435.89
956.339	5404.7
956.643	5345.5
956.948	5269.11
957.252	5258.72
957.556	5273.41
957.86	5220.3
958.163	5203.35
958.467	5159.06
958.771	5112.28
959.075	5174.88
959.378	5098.95
959.682	5095.11
959.985	5051.27
960.289	5032.06
960.592	4966.97
960.896	4987.31
961.199	4948.22
961.502	4941.66
961.805	4897.15
962.108	4910.93
962.411	4895.11
962.714	4822.12
963.017	4880.2
963.32	4839.75
963.623	4809.92
963.926	4791.84
964.228	4772.63
964.531	4724.95
964.833	4708.45
965.136	4653.08
965.438	4668.9
965.741	4673.87
966.043	4674.78
966.345	4619.64
966.648	4560.2
966.95	4550.94
967.252	4504.61
967.554	4561.56
967.856	4532.18
968.158	4504.39
968.46	4442.69
968.761	4404.73
969.063	4394.56
969.365	4376.93
969.666	4364.73
969.968	4346.43
970.269	4319.08
970.571	4349.59
970.872	4298.06
971.174	4277.5
971.475	4214
971.776	4269.14
972.077	4227.33
972.378	4202.25
972.679	4204.28
972.98	4170.38
973.281	4153.89
973.582	4150.5
973.883	4093.78
974.183	4072.76
974.484	4096.94
974.785	4020.11
975.085	4027.11
975.386	4067.79
975.686	3970.16
975.986	3993.89
976.287	3974.46
976.587	3941.92
976.887	3925.87
977.187	3897.17
977.487	3899.21
977.787	3859.43
978.087	3836.83
978.387	3835.03
978.687	3820.11
978.987	3816.5
979.286	3780.11
979.586	3754.12
979.885	3724.75
980.185	3722.94
980.484	3746.67
980.784	3699.21
981.083	3691.08
981.382	3647.91
981.682	3659.21
981.981	3614.69
982.28	3596.61
982.579	3567.69
982.878	3577.18
983.177	3570.4
983.475	3593
983.774	3565.2
984.073	3500.8
984.372	3463.06
984.67	3525.2
984.969	3493.79
985.267	3421.93
985.566	3413.34
985.864	3413.57
986.162	3425.55
986.461	3350.97
986.759	3387.81
987.057	3362.04
987.355	3327.69
987.653	3301.48
987.951	3299.67
988.249	3307.36
988.547	3275.94
988.844	3260.8
989.142	3226.45
989.44	3239.79
989.737	3178.77
990.035	3223.52
990.332	3212.44
990.63	3153.46
990.927	3115.72
991.224	3111.66
991.521	3122.95
991.819	3106.01
992.116	3083.63
992.413	3079.11
992.71	3054.48
993.006	3075.27
993.303	3023.3
993.6	3047.02
993.897	3023.07
994.193	3007.03
994.49	2967.7
994.787	2944.2
995.083	2926.35
995.379	2890.87
995.676	2908.95
995.972	2885.45
996.268	2900.59
996.565	2899.23
996.861	2877.54
997.157	2831.21
997.453	2793.92
997.749	2814.94
998.044	2808.39
998.34	2785.79
998.636	2778.33
998.932	2754.38
999.227	2763.42
999.523	2683.19
999.818	2713.02
1000.114	2682.74
1000.409	2680.93
1000.704	2662.63
1001	2654.27
1001.295	2634.38
1001.59	2603.19
1001.885	2640.48
1002.18	2632.35
1002.475	2608.17
1002.77	2548.51
1003.065	2513.71
1003.359	2539.02
1003.654	2543.53
1003.949	2490.43
1004.243	2485.68
1004.538	2469.41
1004.832	2459.7
1005.127	2439.36
1005.421	2418.79
1005.715	2437.32
1006.009	2379.92
1006.304	2405.23
1006.598	2354.16
1006.892	2358.45
1007.186	2340.15
1007.48	2314.16
1007.773	2323.2
1008.067	2305.35
1008.361	2292.24
1008.655	2275.07
1008.948	2266.71
1009.242	2263.77
1009.535	2237.55
1009.829	2216.54
1010.122	2176.76
1010.415	2220.83
1010.708	2174.96
1011.001	2158.23
1011.295	2183.09
1011.588	2110.55
1011.881	2122.08
1012.173	2094.28
1012.466	2083.89
1012.759	2095.86
1013.052	2101.29
1013.344	2101.06
1013.637	2069.2
1013.93	2053.6
1014.222	2010.44
1014.514	2015.41
1014.807	2021.51
1015.099	1979.48
1015.391	1991.68
1015.683	1997.79
1015.976	1933.16
1016.268	1942.65
1016.56	1902.2
1016.851	1901.52
1017.143	1918.69
1017.435	1884.8
1017.727	1872.37
1018.018	1849.77
1018.31	1869.88
1018.602	1845.25
1018.893	1816.1
1019.185	1804.35
1019.476	1784.68
1019.767	1779.49
1020.058	1825.59
1020.35	1772.93
1020.641	1739.94
1020.932	1762.76
1021.223	1738.81
1021.514	1701.98
1021.804	1723.22
1022.095	1680.73
1022.386	1682.09
1022.677	1649.55
1022.967	1660.39
1023.258	1640.73
1023.548	1588.31
1023.839	1633.73
1024.129	1629.21
1024.419	1612.03
1024.709	1622.66
1025	1563.45
1025.29	1562.32
1025.58	1552.15
1025.87	1555.31
1026.16	1506.05
1026.449	1497.91
1026.739	1509.21
1027.029	1499.95
1027.319	1472.15
1027.608	1452.94
1027.898	1454.07
1028.187	1472.38
1028.477	1469.66
1028.766	1450
1029.055	1422.89
1029.344	1421.98
1029.634	1391.02
1029.923	1371.59
1030.212	1402.55
1030.501	1369.33
1030.79	1385.15
1031.078	1371.59
1031.367	1377.46
1031.656	1345.6
1031.945	1361.42
1032.233	1314.87
1032.522	1301.99
1032.81	1313.06
1033.099	1318.48
1033.387	1285.26
1033.675	1256.56
1033.963	1272.16
1034.251	1258.14
1034.54	1255.43
1034.828	1261.08
1035.116	1211.82
1035.403	1199.84
1035.691	1203.01
1035.979	1207.52
1036.267	1200.29
1036.554	1192.38
1036.842	1167.98
1037.129	1182.89
1037.417	1157.81
1037.704	1153.06
1037.992	1155.1
1038.279	1128.88
1038.566	1137.02
1038.853	1137.02
1039.14	1137.02
