Data from mousepad_grey_FLMS001491_00063.txt Node
Date: Wed Feb 08 14:29:46 GMT 2017
User: dcchb
Spectrometer: FLMS00149
Trigger mode: 0
Integration Time (sec): 2.000000E-2
Scans to average: 10
Electric dark correction enabled: true
Nonlinearity correction enabled: false
Boxcar width: 0
XAxis mode: Wavelengths
Number of Pixels in Spectrum: 2048
>>>>>Begin Spectral Data<<<<<
341.393	1.41
341.776	1.41
342.16	1.41
342.543	-54.18
342.927	-57.34
343.31	-64.12
343.693	-79.49
344.077	-52.15
344.46	-57.8
344.843	-48.53
345.226	-52.6
345.61	-47.4
345.993	-13.73
346.376	1.86
346.759	11.81
347.142	41.86
347.525	35.08
347.908	62.2
348.291	82.54
348.674	72.37
349.057	108.08
349.44	118.47
349.823	129.54
350.206	143.78
350.588	177.9
350.971	179.94
351.354	213.38
351.737	231.69
352.119	222.42
352.502	252.93
352.884	254.97
353.267	251.58
353.65	247.73
354.032	291.12
354.414	294.29
354.797	265.59
355.179	297.9
355.562	299.71
355.944	316.21
356.326	305.36
356.709	334.51
357.091	309.43
357.473	322.99
357.855	316.21
358.238	326.6
358.62	311.01
359.002	315.3
359.384	305.81
359.766	299.26
360.148	323.66
360.53	313.72
360.912	318.92
361.294	326.6
361.676	312.59
362.057	319.37
362.439	329.09
362.821	319.37
363.203	311.23
363.584	306.49
363.966	301.07
364.348	305.13
364.729	290.9
365.111	286.15
365.493	318.69
365.874	306.49
366.256	285.47
366.637	296.09
367.019	288.18
367.4	319.6
367.781	275.76
368.163	301.52
368.544	296.32
368.925	299.03
369.306	304.46
369.688	290.9
370.069	287.73
370.45	284.79
370.831	281.41
371.212	296.09
371.593	299.26
371.974	310.1
372.355	305.81
372.736	304.46
373.117	313.95
373.498	282.53
373.879	298.81
374.26	289.99
374.641	305.81
375.021	308.3
375.402	304.91
375.783	315.3
376.163	298.35
376.544	308.52
376.925	306.26
377.305	298.58
377.686	308.97
378.066	295.19
378.447	313.72
378.827	327.51
379.208	302.42
379.588	320.73
379.968	329.99
380.349	302.65
380.729	309.88
381.109	325.25
381.489	318.92
381.87	324.34
382.25	322.99
382.63	330.44
383.01	306.72
383.39	328.18
383.77	334.96
384.15	316.88
384.53	320.95
384.91	328.18
385.29	340.84
385.67	308.52
386.049	332.25
386.429	345.58
386.809	322.53
387.189	341.29
387.568	347.17
387.948	324.34
388.328	330.22
388.707	308.52
389.087	335.87
389.466	335.64
389.846	328.64
390.225	354.4
390.605	351.69
390.984	343.78
391.363	359.37
391.743	345.58
392.122	359.82
392.501	342.87
392.881	352.59
393.26	355.3
393.639	341.29
394.018	361.85
394.397	336.77
394.776	365.92
395.155	365.24
395.534	362.53
395.913	380.39
396.292	379.26
396.671	379.03
397.05	374.06
397.429	369.54
397.808	356.66
398.186	358.69
398.565	368.41
398.944	390.78
399.323	388.07
399.701	372.48
400.08	388.52
400.458	379.93
400.837	350.56
401.215	394.85
401.594	391.91
401.972	366.83
402.351	417.9
402.729	399.59
403.107	408.86
403.486	394.85
403.864	408.63
404.242	392.36
404.62	400.05
404.999	397.11
405.377	419.93
405.755	413.38
406.133	411.12
406.511	420.38
406.889	416.99
407.267	440.95
407.645	436.66
408.023	424
408.401	463.32
408.779	430.33
409.156	433.72
409.534	442.53
409.912	457.67
410.29	449.31
410.667	464.68
411.045	422.64
411.422	471.46
411.8	475.07
412.178	479.14
412.555	465.35
412.933	459.93
413.31	468.07
413.687	473.72
414.065	499.25
414.442	495.86
414.819	494.51
415.197	464.68
415.574	496.77
415.951	481.4
416.328	491.12
416.705	480.72
417.082	485.92
417.46	500.61
417.837	511.68
418.214	511.91
418.591	512.36
418.967	536.54
419.344	523.21
419.721	514.85
420.098	534.73
420.475	537.9
420.852	541.29
421.228	542.64
421.605	530.44
421.982	529.53
422.358	532.92
422.735	540.83
423.111	572.7
423.488	581.06
423.864	567.73
424.241	578.57
424.617	567.95
424.994	579.25
425.37	571.34
425.746	596.2
426.123	586.48
426.499	588.74
426.875	606.59
427.251	600.27
427.627	606.59
428.003	591
428.379	601.62
428.756	628.06
429.132	646.59
429.507	624.9
429.883	643.43
430.259	667.61
430.635	653.37
431.011	631.45
431.387	675.07
431.763	665.58
432.138	670.55
432.514	686.14
432.89	684.33
433.265	688.63
433.641	697.44
434.016	701.73
434.392	700.6
434.767	707.16
435.143	715.07
435.518	714.84
435.894	732.92
436.269	723.88
436.644	731.79
437.02	756.87
437.395	753.03
437.77	751.9
438.145	776.99
438.52	757.78
438.895	779.7
439.271	781.28
439.646	792.13
440.021	786.93
440.395	796.65
440.77	781.73
441.145	821.05
441.52	804.1
441.895	799.58
442.27	820.6
442.645	833.71
443.019	833.25
443.394	832.35
443.769	835.97
444.143	822.18
444.518	836.42
444.892	856.76
445.267	857.44
445.641	856.76
446.016	858.11
446.39	899.69
446.764	872.58
447.139	885.68
447.513	915.06
447.887	876.42
448.262	905.8
448.636	885.46
449.01	899.92
449.384	922.74
449.758	911.9
450.132	914.61
450.506	936.98
450.88	924.1
451.254	947.15
451.628	964.1
452.002	961.39
452.376	990.99
452.75	973.14
453.123	979.92
453.497	1009.3
453.871	1010.65
454.244	998.9
454.618	998.67
454.992	1012.01
455.365	1034.61
455.739	1039.58
456.112	1037.09
456.486	1063.31
456.859	1055.17
457.232	1087.94
457.606	1074.15
457.979	1104.43
458.352	1093.14
458.725	1117.54
459.099	1158.9
459.472	1149.86
459.845	1146.69
460.218	1171.78
460.591	1205.45
460.964	1176.07
461.337	1178.33
461.71	1198.9
462.083	1238.44
462.456	1175.62
462.829	1228.72
463.201	1242.96
463.574	1264.66
463.947	1284.77
464.32	1295.16
464.692	1316.86
465.065	1322.73
465.438	1339.91
465.81	1338.33
466.183	1346.01
466.555	1367.48
466.928	1380.81
467.3	1399.12
467.672	1398.21
468.045	1404.54
468.417	1441.15
468.789	1452.67
469.161	1456.29
469.534	1476.85
469.906	1510.75
470.278	1529.51
470.65	1530.86
471.022	1578.77
471.394	1571.54
471.766	1612.22
472.138	1615.38
472.51	1660.8
472.882	1634.14
473.253	1672.78
473.625	1710.75
473.997	1740.35
474.369	1728.6
474.74	1744.64
475.112	1764.98
475.484	1813.12
475.855	1829.16
476.227	1826.68
476.598	1839.1
476.97	1891.76
477.341	1922.94
477.713	1970.17
478.084	1945.09
478.455	1987.35
478.827	2017.4
479.198	2085.65
479.569	2106.22
479.94	2156.84
480.311	2166.78
480.682	2213.11
481.053	2228.92
481.424	2256.27
481.795	2292.65
482.166	2308.7
482.537	2356.83
482.908	2382.82
483.279	2416.94
483.65	2440.67
484.021	2504.4
484.391	2496.04
484.762	2543.04
485.133	2563.38
485.503	2573.1
485.874	2616.03
486.244	2678.4
486.615	2716.14
486.985	2736.93
487.356	2766.09
487.726	2776.93
488.097	2855.35
488.467	2835.01
488.837	2921.34
489.207	2915.01
489.578	2981.67
489.948	3010.6
490.318	3013.08
490.688	3051.5
491.058	3110.71
491.428	3106.64
491.798	3145.51
492.168	3209.46
492.538	3246.98
492.908	3275.22
493.278	3294.66
493.648	3323.13
494.017	3410.36
494.387	3371.04
494.757	3387.31
495.126	3465.5
495.496	3448.55
495.866	3511.15
496.235	3524.48
496.605	3516.57
496.974	3546.4
497.344	3587.31
497.713	3599.28
498.082	3637.25
498.452	3673.63
498.821	3690.58
499.19	3737.13
499.559	3750.92
499.928	3766.74
500.298	3783.23
500.667	3861.42
501.036	3811.93
501.405	3901.65
501.774	3887.19
502.143	3872.5
502.512	3945.72
502.88	3944.81
503.249	3949.33
503.618	3985.71
503.987	3992.27
504.356	4005.6
504.724	4065.26
505.093	4124.69
505.462	4082.21
505.83	4116.56
506.199	4119.72
506.567	4185.71
506.936	4223.22
507.304	4223.22
507.672	4281.07
508.041	4275.42
508.409	4324.91
508.777	4297.12
509.145	4365.59
509.514	4395.87
509.882	4470.9
510.25	4414.4
510.618	4454.85
510.986	4475.65
511.354	4515.64
511.722	4552.93
512.09	4639.48
512.458	4571.01
512.826	4649.43
513.193	4672.93
513.561	4716.99
513.929	4721.06
514.297	4732.14
514.664	4801.74
515.032	4847.39
515.4	4850.55
515.767	4879.48
516.135	4925.8
516.502	4874.05
516.869	4980.94
517.237	4988.17
517.604	5013.71
517.972	4999.02
518.339	5084.22
518.706	5095.29
519.073	5167.6
519.44	5177.32
519.808	5213.93
520.175	5209.19
520.542	5306.36
520.909	5254.83
521.276	5278.56
521.643	5377.54
522.009	5414.38
522.376	5417.77
522.743	5477.65
523.11	5532.34
523.477	5528.5
523.843	5599.01
524.21	5671.55
524.577	5646.91
524.943	5719.91
525.31	5756.74
525.676	5787.93
526.043	5833.58
526.409	5854.59
526.776	5889.85
527.142	5942.95
527.508	5960.13
527.874	6013.68
528.241	6016.62
528.607	6058.88
528.973	6083.74
529.339	6130.29
529.705	6191.76
530.071	6208.71
530.437	6229.95
530.803	6286.22
531.169	6373.67
531.535	6288.25
531.901	6332.32
532.267	6436.5
532.632	6443.28
532.998	6452.09
533.364	6510.85
533.73	6560.34
534.095	6576.83
534.461	6625.19
534.826	6735.47
535.192	6646.66
535.557	6666.32
535.923	6679.65
536.288	6796.26
536.653	6822.25
537.019	6747
537.384	6861.57
537.749	6869.03
538.114	6867.45
538.479	6937.05
538.845	6953.09
539.21	6963.49
539.575	7014.11
539.94	7001.45
540.305	7018.18
540.67	7036.71
541.034	7110.38
541.399	7142.69
541.764	7156.93
542.129	7216.59
542.494	7139.3
542.858	7201.9
543.223	7283.71
543.587	7372.07
543.952	7327.1
544.316	7375.23
544.681	7382.46
545.045	7396.02
545.41	7453.65
545.774	7442.35
546.138	7474.89
546.503	7602.57
546.867	7529.8
547.231	7617.71
547.595	7591.04
547.959	7632.85
548.324	7703.81
548.688	7678.95
549.052	7763.02
549.416	7766.86
549.779	7778.38
550.143	7862.45
550.507	7855.44
550.871	7922.33
551.235	7892.96
551.599	7942.9
551.962	7943.35
552.326	8044.82
552.689	8113.29
553.053	8043.91
553.417	8029.9
553.78	8150.12
554.143	8161.88
554.507	8178.15
554.87	8190.35
555.234	8260.63
555.597	8260.4
555.96	8339.27
556.323	8352.15
556.686	8361.64
557.05	8420.17
557.413	8499.95
557.776	8460.85
558.139	8564.8
558.502	8550.79
558.865	8587.18
559.228	8605.71
559.59	8687.06
559.953	8609.77
560.316	8753.72
560.679	8763.67
561.041	8797.34
561.404	8932.25
561.767	8880.5
562.129	8882.99
562.492	8995.53
562.854	8974.74
563.217	8979.03
563.579	9029.88
563.941	9085.24
564.304	9081.63
564.666	9159.59
565.028	9196.2
565.39	9263.54
565.753	9318
566.115	9327.72
566.477	9315.29
566.839	9379.02
567.201	9427.38
567.563	9456.31
567.925	9512.12
568.287	9494.27
568.648	9591.89
569.01	9620.59
569.372	9701.95
569.734	9605.45
570.095	9710.76
570.457	9768.84
570.819	9767.26
571.18	9815.17
571.542	9860.59
571.903	9805.22
572.265	9893.58
572.626	9988.04
572.987	10007.7
573.349	9983.75
573.71	10045.67
574.071	10035.95
574.432	10045.67
574.794	10166.12
575.155	10144.65
575.516	10172.44
575.877	10196.17
576.238	10170.18
576.599	10299.45
576.96	10233.46
577.32	10322.27
577.681	10300.8
578.042	10260.35
578.403	10280.46
578.763	10367.24
579.124	10366.34
579.485	10419.22
579.845	10435.04
580.206	10448.37
580.566	10411.53
580.927	10447.69
581.287	10469.16
581.648	10430.29
582.008	10551.87
582.368	10494.7
582.728	10511.19
583.089	10483.62
583.449	10496.73
583.809	10554.13
584.169	10527.46
584.529	10555.26
584.889	10579.89
585.249	10618.76
585.609	10528.14
585.969	10548.25
586.329	10546.9
586.688	10535.37
587.048	10680.23
587.408	10600.91
587.768	10509.16
588.127	10603.85
588.487	10534.92
588.846	10631.64
589.206	10557.07
589.565	10530.63
589.925	10593.45
590.284	10531.98
590.643	10666.44
591.003	10660.57
591.362	10690.17
591.721	10646.56
592.08	10701.24
592.44	10644.52
592.799	10613.11
593.158	10687.69
593.517	10614.47
593.876	10702.15
594.235	10675.48
594.593	10675.93
594.952	10707.12
595.311	10659.44
595.67	10704.86
596.029	10734.24
596.387	10821.01
596.746	10783.95
597.104	10756.16
597.463	10722.71
597.822	10803.16
598.18	10755.71
598.538	10740.34
598.897	10724.97
599.255	10745.54
599.613	10834.57
599.972	10772.65
600.33	10781.24
600.688	10797.51
601.046	10849.04
601.404	10825.76
601.762	10826.89
602.12	10831.86
602.478	10808.81
602.836	10887.91
603.194	10843.39
603.552	10814.24
603.91	10765.42
604.268	10841.13
604.625	10858.08
604.983	10977.62
605.341	10861.92
605.698	10849.71
606.056	10938.98
606.413	10863.95
606.771	10895.59
607.128	10884.97
607.485	10950.5
607.843	10898.08
608.2	10941.24
608.557	11026.66
608.914	10957.51
609.272	11077.96
609.629	11050.61
609.986	11098.97
610.343	10955.47
610.7	11155.47
611.057	11076.15
611.414	11054.23
611.771	11191.63
612.127	11069.14
612.484	11103.95
612.841	11174.23
613.198	11094.91
613.554	11162.93
613.911	11185.98
614.267	11180.1
614.624	11147.11
614.98	11251.51
615.337	11273.66
615.693	11211.74
616.05	11184.17
616.406	11269.59
616.762	11235.24
617.118	11275.47
617.475	11192.98
617.831	11322.24
618.187	11287.44
618.543	11309.14
618.899	11394.33
619.255	11317.5
619.611	11313.66
619.967	11318.85
620.323	11359.31
620.678	11322.47
621.034	11375.58
621.39	11352.75
621.746	11343.49
622.101	11438.63
622.457	11303.26
622.812	11332.64
623.168	11348.46
623.523	11390.04
623.879	11361.57
624.234	11374.22
624.589	11350.72
624.945	11413.09
625.3	11479.3
625.655	11457.61
626.01	11475.69
626.365	11395.01
626.72	11422.36
627.075	11441.79
627.43	11398.63
627.785	11394.56
628.14	11450.83
628.495	11449.92
628.85	11411.51
629.205	11396.59
629.559	11471.62
629.914	11364.05
630.269	11381.23
630.623	11385.52
630.978	11367.67
631.332	11437.04
631.687	11408.12
632.041	11325.86
632.396	11325.86
632.75	11254
633.104	11374.45
633.459	11275.92
633.813	11329.7
634.167	11315.24
634.521	11300.55
634.875	11344.39
635.229	11307.33
635.583	11185.53
635.937	11286.99
636.291	11274.11
636.645	11268.69
636.999	11173.1
637.352	11224.17
637.706	11107.11
638.06	11141.01
638.413	11194.11
638.767	11153.21
639.121	11143.94
639.474	11120.67
639.828	11170.16
640.181	11160.44
640.534	11184.85
640.888	11118.63
641.241	11110.05
641.594	11051.29
641.947	11147.33
642.301	11089.71
642.654	11102.36
643.007	11126.32
643.36	11068.92
643.713	11037.96
644.066	11144.4
644.419	11039.77
644.771	10982.37
645.124	10876.83
645.477	10925.64
645.83	10715.25
646.182	10809.04
646.535	10786.21
646.888	10759.32
647.24	10706.44
647.593	10767.46
647.945	10722.26
648.298	10707.57
648.65	10677.29
649.002	10716.84
649.355	10714.13
649.707	10662.15
650.059	10786.67
650.411	10853.56
650.763	10875.93
651.115	10943.5
651.467	10985.3
651.819	10903.27
652.171	10950.95
652.523	10866.21
652.875	10904.18
653.227	10945.98
653.578	10975.59
653.93	10937.62
654.282	10876.83
654.633	10888.58
654.985	10910.05
655.337	10937.85
655.688	10902.82
656.039	10932.88
656.391	10886.78
656.742	10901.01
657.094	10899.88
657.445	10988.02
657.796	10868.7
658.147	10839.32
658.498	10862.14
658.849	10917.28
659.2	10901.69
659.551	10875.02
659.902	10908.02
660.253	10870.05
660.604	10861.24
660.955	10825.08
661.306	10890.62
661.656	10868.92
662.007	10877.51
662.358	10874.12
662.708	10879.77
663.059	10840
663.409	10805.42
663.76	10890.39
664.11	10860.79
664.461	10938.53
664.811	10831.86
665.161	10898.75
665.511	10873.22
665.862	10835.93
666.212	10941.46
666.562	10872.31
666.912	10875.25
667.262	10842.94
667.612	10812.2
667.962	10881.58
668.312	10824.86
668.662	10876.38
669.011	10857.4
669.361	10839.09
669.711	10848.58
670.06	10887.68
670.41	10774.91
670.76	10821.92
671.109	10857.62
671.459	10786.44
671.808	10831.41
672.157	10802.26
672.507	10735.82
672.856	10762.26
673.205	10725.88
673.554	10815.14
673.904	10748.02
674.253	10828.7
674.602	10752.77
674.951	10548.48
675.3	10602.26
675.649	10661.92
675.998	10697.18
676.346	10736.5
676.695	10717.29
677.044	10685.65
677.393	10716.84
677.741	10656.95
678.09	10678.19
678.438	10622.6
678.787	10662.6
679.135	10613.34
679.484	10594.58
679.832	10650.85
680.181	10565.2
680.529	10585.99
680.877	10529.95
681.225	10545.99
681.573	10628.7
681.922	10557.74
682.27	10501.93
682.618	10479.55
682.966	10471.19
683.314	10509.16
683.661	10416.05
684.009	10405.21
684.357	10339.9
684.705	10390.52
685.053	10449.27
685.4	10396.85
685.748	10250.41
686.095	10333.57
686.443	10229.17
686.79	10266.23
687.138	10252.44
687.485	10310.29
687.832	10226.91
688.18	10220.8
688.527	10131.09
688.874	10124.31
689.221	10133.35
689.568	10147.36
689.915	10037.53
690.262	10107.81
690.609	10083.63
690.956	10018.78
691.303	10007.7
691.65	9933.81
691.997	10043.86
692.344	9890.64
692.69	9883.86
693.037	9826.24
693.383	9793.25
693.73	9829.4
694.077	9781.49
694.423	9762.96
694.769	9719.35
695.116	9769.97
695.462	9679.8
695.808	9666.24
696.155	9713.02
696.501	9626.92
696.847	9622.63
697.193	9534.72
697.539	9570.88
697.885	9505.57
698.231	9430.32
698.577	9442.75
698.923	9359.13
699.269	9306.7
699.614	9344.22
699.96	9321.39
700.306	9268.29
700.651	9294.5
700.997	9242.07
701.342	9230.32
701.688	9150.1
702.033	9207.95
702.379	9187.39
702.724	9130.89
703.069	9114.39
703.415	9032.81
703.76	9114.85
704.105	9035.75
704.45	8976.77
704.795	8912.59
705.14	8934.51
705.485	8963.89
705.83	8917.34
706.175	8846.6
706.52	8918.69
706.865	8861.52
707.209	8915.08
707.554	8746.27
707.899	8838.69
708.243	8708.98
708.588	8692.03
708.932	8716.66
709.277	8681.64
709.621	8706.95
709.966	8634.86
710.31	8667.17
710.654	8588.31
710.998	8626.72
711.342	8582.2
711.687	8529.1
712.031	8508.31
712.375	8493.62
712.719	8508.31
713.063	8488.19
713.407	8537.91
713.75	8508.53
714.094	8486.61
714.438	8483.68
714.782	8468.76
715.125	8412.72
715.469	8429.44
715.812	8288.2
716.156	8389.89
716.499	8340.63
716.843	8426.73
717.186	8360.97
717.53	8356.9
717.873	8356.45
718.216	8320.52
718.559	8272.38
718.902	8300.86
719.246	8261.53
719.589	8231.7
719.932	8238.94
720.275	8264.25
720.617	8259.05
720.96	8219.95
721.303	8203
721.646	8264.02
721.989	8219.5
722.331	8214.08
722.674	8154.64
723.016	8173.85
723.359	8176.79
723.701	8239.16
724.044	8117.58
724.386	8148.77
724.729	8116.45
725.071	8150.35
725.413	8127.53
725.755	8115.32
726.097	8159.39
726.439	8096.11
726.782	8098.6
727.124	8106.06
727.465	8054.08
727.807	8054.53
728.149	8025.83
728.491	7995.78
728.833	8071.03
729.175	8025.16
729.516	8036.91
729.858	8008.66
730.199	7985.38
730.541	8111.48
730.882	8067.87
731.224	8015.21
731.565	8052.05
731.906	7965.04
732.248	8048.88
732.589	8030.35
732.93	7971.82
733.271	8013.18
733.612	7919.85
733.953	7908.32
734.294	7906.29
734.635	7955.55
734.976	7943.8
735.317	7932.28
735.658	7911.03
735.999	7932.96
736.339	7887.08
736.68	7962.11
737.021	7945.16
737.361	7899.06
737.702	7923.92
738.042	7937.47
738.383	7892.28
738.723	7958.72
739.063	7869.45
739.404	7915.1
739.744	7940.41
740.084	7965.04
740.424	7961.43
740.764	7914.42
741.104	7931.83
741.444	7883.01
741.784	7923.24
742.124	7875.56
742.464	7854.09
742.804	7808.44
743.143	7865.84
743.483	7815.9
743.823	7781.09
744.162	7840.75
744.502	7810.92
744.841	7820.64
745.181	7847.76
745.52	7874.65
745.86	7824.94
746.199	7860.19
746.538	7844.6
746.877	7848.66
747.216	7829.68
747.556	7849.57
747.895	7778.61
748.234	7807.08
748.573	7774.99
748.911	7842.34
749.25	7792.17
749.589	7821.55
749.928	7750.81
750.267	7786.52
750.605	7772.28
750.944	7707.65
751.283	7746.97
751.621	7740.19
751.96	7684.37
752.298	7669.69
752.636	7727.08
752.975	7688.89
753.313	7635.79
753.651	7682.34
753.989	7632.62
754.327	7688.67
754.666	7644.83
755.004	7641.44
755.342	7635.56
755.679	7607.54
756.017	7551.5
756.355	7591.27
756.693	7583.13
757.031	7635.11
757.368	7484.38
757.706	7540.42
758.044	7542.46
758.381	7513.76
758.719	7481.22
759.056	7502.68
759.394	7463.59
759.731	7448
760.068	7373.87
760.405	7434.89
760.743	7392.86
761.08	7365.29
761.417	7326.19
761.754	7396.02
762.091	7386.53
762.428	7308.11
762.765	7284.61
763.102	7286.42
763.438	7229.7
763.775	7218.4
764.112	7201.22
764.449	7191.73
764.785	7143.6
765.122	7142.24
765.458	7086.88
765.795	7141.11
766.131	7138.85
766.467	7093.2
766.804	7076.03
767.14	7010.72
767.476	7013.21
767.812	6993.09
768.148	6943.6
768.485	6944.96
768.821	6952.87
769.157	6898.41
769.492	6910.16
769.828	6931.85
770.164	6813.21
770.5	6821.8
770.836	6818.18
771.171	6705.64
771.507	6759.43
771.842	6749.26
772.178	6772.08
772.513	6716.04
772.849	6681.01
773.184	6622.93
773.519	6655.02
773.855	6591.52
774.19	6597.85
774.525	6561.92
774.86	6517.4
775.195	6536.61
775.53	6547
775.865	6503.84
776.2	6418.87
776.535	6391.75
776.87	6404.41
777.205	6362.15
777.539	6302.04
777.874	6328.7
778.209	6306.56
778.543	6288.25
778.878	6269.72
779.212	6295.26
779.547	6308.59
779.881	6190.63
780.215	6234.92
780.55	6212.77
780.884	6151.76
781.218	6140.91
781.552	6179.56
781.886	6093.46
782.22	6060.46
782.554	6057.07
782.888	6016.17
783.222	5973.23
783.556	5980.24
783.889	6012.78
784.223	5903.18
784.557	5975.27
784.89	5957.64
785.224	5935.49
785.557	5918.54
785.891	5885.33
786.224	5802.16
786.558	5843.97
786.891	5799.68
787.224	5821.82
787.557	5753.8
787.891	5697.99
788.224	5711.54
788.557	5716.97
788.89	5704.09
789.223	5713.8
789.556	5635.61
789.888	5661.83
790.221	5660.92
790.554	5621.6
790.887	5571.44
791.219	5606.91
791.552	5588.16
791.884	5527.14
792.217	5506.35
792.549	5535.5
792.882	5402.63
793.214	5477.43
793.546	5476.07
793.879	5371.21
794.211	5442.4
794.543	5389.97
794.875	5347.94
795.207	5429.97
795.539	5317.88
795.871	5296.41
796.203	5318.11
796.535	5289.41
796.867	5297.09
797.198	5292.35
797.53	5248.73
797.862	5219.35
798.193	5273.14
798.525	5206.47
798.856	5237.88
799.188	5161.05
799.519	5200.15
799.85	5128.28
800.182	5117.89
800.513	5104.1
800.844	5125.12
801.175	5106.14
801.506	5079.02
801.837	5089.87
802.168	5106.59
802.499	5060.04
802.83	5017.1
803.161	5023.2
803.491	5018
803.822	5020.49
804.153	4923.99
804.483	4941.85
804.814	4939.14
805.145	4961.73
805.475	4917.67
805.805	4877.89
806.136	4896.65
806.466	4888.97
806.796	4851
807.126	4817.33
807.457	4814.62
807.787	4799.25
808.117	4808.07
808.447	4832.92
808.777	4813.72
809.107	4785.02
809.436	4771.91
809.766	4780.04
810.096	4780.5
810.426	4740.04
810.755	4792.25
811.085	4739.14
811.414	4707.96
811.744	4702.53
812.073	4656.66
812.403	4671.35
812.732	4674.06
813.061	4638.35
813.39	4675.19
813.719	4597.68
814.049	4599.94
814.378	4592.7
814.707	4632.03
815.036	4584.57
815.365	4546.6
815.693	4530.78
816.022	4557.22
816.351	4547.28
816.68	4512.03
817.008	4498.7
817.337	4488.07
817.665	4453.5
817.994	4497.11
818.322	4471.13
818.651	4411.69
818.979	4461.63
819.307	4513.61
819.636	4438.36
819.964	4437.91
820.292	4458.47
820.62	4447.17
820.948	4396.33
821.276	4433.84
821.604	4372.6
821.932	4409.88
822.259	4391.35
822.587	4394.07
822.915	4388.64
823.243	4392.48
823.57	4356.78
823.898	4418.7
824.225	4407.85
824.553	4370.56
824.88	4367.17
825.207	4388.42
825.535	4402.88
825.862	4430.45
826.189	4352.26
826.516	4422.54
826.843	4371.47
827.17	4406.49
827.497	4421.64
827.824	4408.75
828.151	4408.53
828.478	4435.87
828.805	4406.27
829.131	4398.13
829.458	4438.36
829.785	4357.23
830.111	4409.88
830.438	4402.88
830.764	4408.75
831.09	4398.81
831.417	4430.67
831.743	4378.47
832.069	4379.15
832.395	4331.69
832.722	4349.55
833.048	4365.59
833.374	4356.1
833.7	4369.43
834.026	4314.29
834.351	4337.12
834.677	4360.17
835.003	4367.63
835.329	4299.38
835.654	4332.37
835.98	4329.21
836.306	4327.63
836.631	4342.32
836.956	4337.34
837.282	4327.17
837.607	4300.28
837.932	4284.24
838.258	4254.18
838.583	4275.88
838.908	4251.7
839.233	4290.79
839.558	4283.79
839.883	4246.72
840.208	4251.24
840.533	4253.05
840.858	4262.09
841.182	4237.01
841.507	4217.35
841.832	4227.52
842.156	4188.87
842.481	4171.47
842.805	4168.31
843.13	4171.7
843.454	4199.95
843.778	4163.56
844.103	4124.24
844.427	4131.47
844.751	4158.59
845.075	4104.13
845.399	4123.11
845.723	4100.29
846.047	4113.85
846.371	4084.02
846.695	4064.81
847.019	4038.37
847.343	4045.37
847.666	4029.33
847.99	4049.67
848.313	3976.68
848.637	3955.21
848.96	3975.77
849.284	3978.93
849.607	3908.88
849.931	3928.99
850.254	3909.56
850.577	3869.33
850.9	3886.28
851.223	3865.72
851.546	3831.14
851.869	3798.37
852.192	3832.95
852.515	3761.99
852.838	3796.11
853.161	3774.65
853.483	3750.69
853.806	3782.33
854.129	3747.3
854.451	3738.49
854.774	3710.92
855.096	3685.84
855.419	3714.31
855.741	3648.77
856.063	3649.45
856.385	3675.44
856.708	3629.57
857.03	3670.24
857.352	3636.8
857.674	3637.25
857.996	3656.23
858.318	3636.57
858.64	3603.35
858.961	3562.22
859.283	3583.47
859.605	3580.08
859.926	3579.17
860.248	3590.92
860.57	3575.56
860.891	3563.58
861.212	3550.92
861.534	3531.26
861.855	3553.86
862.176	3532.17
862.498	3537.36
862.819	3528.33
863.14	3528.33
863.461	3495.56
863.782	3505.28
864.103	3467.54
864.424	3475.9
864.745	3500.53
865.065	3440.42
865.386	3505.28
865.707	3472.51
866.027	3449.46
866.348	3471.83
866.668	3457.82
866.989	3443.36
867.309	3415.33
867.63	3386.18
867.95	3411.72
868.27	3402.68
868.59	3437.71
868.91	3353.87
869.23	3400.42
869.55	3396.35
869.87	3357.48
870.19	3392.74
870.51	3385.05
870.83	3391.15
871.15	3368.78
871.469	3374.66
871.789	3380.53
872.109	3351.38
872.428	3355
872.748	3314.32
873.067	3335.11
873.386	3352.74
873.706	3343.92
874.025	3279.29
874.344	3310.25
874.663	3287.43
874.982	3275.45
875.301	3308.44
875.62	3307.99
875.939	3292.63
876.258	3263.25
876.577	3251.72
876.896	3279.52
877.214	3264.6
877.533	3267.77
877.852	3257.6
878.17	3261.89
878.489	3251.5
878.807	3230.48
879.125	3262.12
879.444	3240.88
879.762	3263.02
880.08	3263.7
880.398	3237.94
880.716	3202.91
881.034	3188
881.352	3228.45
881.67	3209.01
881.988	3192.06
882.306	3193.19
882.624	3151.84
882.941	3189.58
883.259	3165.17
883.577	3187.09
883.894	3172.4
884.212	3167.43
884.529	3172.63
884.846	3154.1
885.164	3142.12
885.481	3138.05
885.798	3110.94
886.115	3123.36
886.432	3070.03
886.75	3090.6
887.067	3111.16
887.383	3093.53
887.7	3104.16
888.017	3089.92
888.334	3120.88
888.651	3046.53
888.967	3047.66
889.284	3047.66
889.6	3025.74
889.917	3030.71
890.233	3024.16
890.55	3017.38
890.866	2998.85
891.182	2974.89
891.498	2963.59
891.815	3018.06
892.131	2962.69
892.447	2967.44
892.763	2978.74
893.079	2938.06
893.395	2949.81
893.71	2932.86
894.026	2933.31
894.342	2963.59
894.657	2946.42
894.973	2931.5
895.289	2935.8
895.604	2891.51
895.92	2879.75
896.235	2894.44
896.55	2894.9
896.865	2836.37
897.181	2842.92
897.496	2855.35
897.811	2858.96
898.126	2825.74
898.441	2838.4
898.756	2816.03
899.071	2805.41
899.386	2843.15
899.7	2766.09
900.015	2753.2
900.33	2765.18
900.644	2736.03
900.959	2758.63
901.273	2731.96
901.588	2754.79
901.902	2725.41
902.216	2743.26
902.531	2708.01
902.845	2673.66
903.159	2683.15
903.473	2671.4
903.787	2623.26
904.101	2665.75
904.415	2631.63
904.729	2647.22
905.042	2650.83
905.356	2639.31
905.67	2602.02
905.984	2607.45
906.297	2624.39
906.611	2588.24
906.924	2610.84
907.237	2575.13
907.551	2550.27
907.864	2543.72
908.177	2573.32
908.491	2555.24
908.804	2526.32
909.117	2503.49
909.43	2527.22
909.743	2513.21
910.056	2479.99
910.368	2488.58
910.681	2495.13
910.994	2493.78
911.307	2453.33
911.619	2457.84
911.932	2450.61
912.244	2425.76
912.557	2422.59
912.869	2410.39
913.181	2398.64
913.494	2422.82
913.806	2409.26
914.118	2383.72
914.43	2397.28
914.742	2371.29
915.054	2337.17
915.366	2350.28
915.678	2350.96
915.99	2348.24
916.302	2322.26
916.613	2322.71
916.925	2295.14
917.236	2324.29
917.548	2292.88
917.859	2324.29
918.171	2266.21
918.482	2285.42
918.794	2255.14
919.105	2260.79
919.416	2281.13
919.727	2262.14
920.038	2274.35
920.349	2201.81
920.66	2205.42
920.971	2223.73
921.282	2217.63
921.593	2211.07
921.903	2183.95
922.214	2184.86
922.525	2207.46
922.835	2175.14
923.146	2129.27
923.456	2135.82
923.767	2143.05
924.077	2139.89
924.387	2127.01
924.697	2101.92
925.008	2096.95
925.318	2089.27
925.628	2101.24
925.938	2074.13
926.248	2072.54
926.558	2068.48
926.867	2052.88
927.177	2050.85
927.487	2029.16
927.796	2041.13
928.106	2047.46
928.416	2018.31
928.725	2013.11
929.034	1997.52
929.344	1997.29
929.653	1993.9
929.962	1957.52
930.271	1981.7
930.581	1960.23
930.89	1962.72
931.199	1963.62
931.508	1960.68
931.817	1950.29
932.125	1926.56
932.434	1922.04
932.743	1902.61
933.051	1893.34
933.36	1912.1
933.669	1864.87
933.977	1920.91
934.286	1884.75
934.594	1856.73
934.902	1879.1
935.21	1887.01
935.519	1857.18
935.827	1862.83
936.135	1838.43
936.443	1840.23
936.751	1812.21
937.059	1814.92
937.367	1820.8
937.674	1813.12
937.982	1799.33
938.29	1797.52
938.597	1781.48
938.905	1800.24
939.213	1780.12
939.52	1767.92
939.827	1764.3
940.135	1746.9
940.442	1767.02
940.749	1737.86
941.056	1748.03
941.363	1716.62
941.67	1751.65
941.977	1702.16
942.284	1695.38
942.591	1712.1
942.898	1692.89
943.205	1686.57
943.511	1684.98
943.818	1668.26
944.125	1669.17
944.431	1656.96
944.738	1686.57
945.044	1673.46
945.35	1670.52
945.657	1628.49
945.963	1660.8
946.269	1641.14
946.575	1646.79
946.881	1612.44
947.187	1628.04
947.493	1605.66
947.799	1607.92
948.105	1608.83
948.41	1609.28
948.716	1634.14
949.022	1576.96
949.327	1568.15
949.633	1579
949.938	1586.68
950.244	1543.07
950.549	1560.47
950.854	1562.28
951.16	1534.93
951.465	1530.19
951.77	1556.85
952.075	1528.6
952.38	1515.72
952.685	1513.24
952.99	1513.24
953.294	1485.89
953.599	1501.03
953.904	1491.09
954.209	1481.6
954.513	1482.96
954.818	1486.35
955.122	1497.87
955.426	1475.27
955.731	1489.96
956.035	1432.79
956.339	1446.35
956.643	1447.48
956.948	1393.69
957.252	1459.91
957.556	1429.62
957.86	1424.65
958.163	1439.57
958.467	1435.5
958.771	1411.09
959.075	1423.3
959.378	1403.64
959.682	1401.15
959.985	1416.97
960.289	1386.69
960.592	1389.85
960.896	1388.72
961.199	1354.6
961.502	1356.63
961.805	1363.18
962.108	1376.74
962.411	1376.74
962.714	1340.59
963.017	1347.37
963.32	1356.86
963.623	1344.43
963.926	1360.92
964.228	1338.1
964.531	1354.82
964.833	1279.12
965.136	1316.18
965.438	1309.85
965.741	1300.81
966.043	1298.78
966.345	1307.14
966.648	1281.83
966.95	1276.63
967.252	1263.75
967.554	1287.48
967.856	1280.93
968.158	1263.98
968.46	1280.25
968.761	1264.2
969.063	1275.73
969.365	1261.49
969.666	1252.9
969.968	1241.15
970.269	1240.02
970.571	1218.56
970.872	1227.82
971.174	1230.76
971.475	1209.52
971.776	1195.28
972.077	1188.05
972.378	1199.12
972.679	1198.9
972.98	1214.94
973.281	1181.49
973.582	1226.69
973.883	1209.97
974.183	1201.61
974.484	1174.04
974.785	1183.08
975.085	1169.29
975.386	1176.52
975.686	1182.4
975.986	1139.24
976.287	1161.16
976.587	1129.29
976.887	1144.21
977.187	1151.21
977.487	1138.33
977.787	1138.78
978.087	1129.07
978.387	1099.69
978.687	1115.28
978.987	1102.85
979.286	1121.38
979.586	1105.34
979.885	1104.21
980.185	1111.67
980.484	1078.9
980.784	1126.13
981.083	1087.26
981.382	1089.97
981.682	1063.31
981.981	1092.68
982.28	1070.99
982.579	1066.92
982.878	1087.94
983.177	1081.38
983.475	1049.07
983.774	1040.93
984.073	1084.32
984.372	1069.86
984.67	1029.63
984.969	1031.22
985.267	1058.11
985.566	1016.53
985.864	1040.48
986.162	1013.82
986.461	1039.13
986.759	1024.44
987.057	1017.66
987.355	970.2
987.653	1006.13
987.951	988.73
988.249	1012.91
988.547	1012.46
988.844	988.96
989.142	986.7
989.44	987.38
989.737	960.03
990.035	974.72
990.332	989.86
990.63	971.1
990.927	955.96
991.224	992.57
991.521	953.93
991.819	971.33
992.116	946.92
992.413	957.09
992.71	950.99
993.006	939.24
993.303	933.59
993.6	945.34
993.897	938.11
994.193	933.59
994.49	943.76
994.787	935.4
995.083	923.87
995.379	936.3
995.676	913.03
995.972	916.87
996.268	913.03
996.565	907.83
996.861	926.36
997.157	882.52
997.453	903.76
997.749	900.37
998.044	881.39
998.34	875.51
998.636	883.65
998.932	878.68
999.227	890.88
999.523	887.26
999.818	872.35
1000.114	863.99
1000.409	863.54
1000.704	880.94
1001	841.39
1001.295	864.67
1001.59	858.11
1001.885	869.86
1002.18	842.75
1002.475	843.65
1002.77	855.4
1003.065	827.83
1003.359	803.65
1003.654	837.77
1003.949	811.79
1004.243	816.53
1004.538	816.53
1004.832	813.82
1005.127	831.22
1005.421	818.11
1005.715	812.24
1006.009	823.54
1006.304	804.1
1006.598	780.37
1006.892	793.48
1007.186	787.38
1007.48	779.7
1007.773	761.39
1008.067	788.96
1008.361	785.57
1008.655	763.2
1008.948	784.67
1009.242	773.37
1009.535	772.47
1009.829	776.31
1010.122	770.21
1010.415	754.16
1010.708	749.64
1011.001	757.55
1011.295	720.72
1011.588	741.05
1011.881	736.99
1012.173	733.37
1012.466	717.78
1012.759	718.68
1013.052	748.74
1013.344	712.13
1013.637	720.94
1013.93	718.91
1014.222	721.85
1014.514	709.87
1014.807	703.77
1015.099	701.51
1015.391	698.12
1015.683	708.29
1015.976	717.55
1016.268	700.83
1016.56	674.39
1016.851	677.78
1017.143	678.46
1017.435	673.94
1017.727	689.3
1018.018	647.72
1018.31	668.29
1018.602	658.12
1018.893	679.59
1019.185	667.84
1019.476	654.5
1019.767	666.93
1020.058	673.03
1020.35	657.21
1020.641	631.23
1020.932	647.05
1021.223	651.11
1021.514	650.43
1021.804	643.66
1022.095	638.68
1022.386	639.36
1022.677	640.04
1022.967	628.29
1023.258	629.64
1023.548	618.57
1023.839	613.37
1024.129	624.45
1024.419	614.28
1024.709	619.02
1025	619.25
1025.29	610.44
1025.58	613.37
1025.87	606.59
1026.16	611.11
1026.449	613.6
1026.739	610.21
1027.029	592.13
1027.319	604.11
1027.608	586.03
1027.898	573.83
1028.187	607.27
1028.477	593.26
1028.766	575.63
1029.055	560.04
1029.344	596.2
1029.634	572.92
1029.923	567.5
1030.212	591.23
1030.501	564.34
1030.79	577.44
1031.078	586.48
1031.367	542.64
1031.656	566.6
1031.945	556.2
1032.233	568.63
1032.522	574.28
1032.81	546.26
1033.099	560.95
1033.387	539.25
1033.675	536.99
1033.963	547.16
1034.251	558.46
1034.54	545.13
1034.828	526.6
1035.116	548.29
1035.403	556.2
1035.691	517.33
1035.979	529.31
1036.267	523.66
1036.554	534.28
1036.842	540.16
1037.129	522.53
1037.417	524.56
1037.704	524.79
1037.992	513.94
1038.279	513.94
1038.566	523.66
1038.853	523.66
1039.14	523.66
