Data from mousepad_grey_FLMS001491_00052.txt Node
Date: Wed Feb 08 14:29:37 GMT 2017
User: dcchb
Spectrometer: FLMS00149
Trigger mode: 0
Integration Time (sec): 2.000000E-2
Scans to average: 10
Electric dark correction enabled: true
Nonlinearity correction enabled: false
Boxcar width: 0
XAxis mode: Wavelengths
Number of Pixels in Spectrum: 2048
>>>>>Begin Spectral Data<<<<<
341.393	-18.54
341.776	-18.54
342.16	-18.54
342.543	-56.74
342.927	-87.02
343.31	-66.45
343.693	-67.81
344.077	-63.29
344.46	-75.49
344.843	-55.15
345.226	-51.76
345.61	-42.05
345.993	-2.95
346.376	9.25
346.759	3.15
347.142	12.87
347.525	57.84
347.908	51.51
348.291	92.41
348.674	88.12
349.057	109.81
349.44	117.27
349.823	139.42
350.206	139.87
350.588	162.47
350.971	192.07
351.354	188.68
351.737	221
352.119	222.35
352.502	265.29
352.884	240.21
353.267	257.38
353.65	248.57
354.032	274.55
354.414	288.79
354.797	289.47
355.179	293.09
355.562	302.12
355.944	289.24
356.326	298.96
356.709	322.46
357.091	296.25
357.473	324.72
357.855	314.33
358.238	315.46
358.62	317.27
359.002	318.85
359.384	312.75
359.766	312.07
360.148	317.72
360.53	307.1
360.912	314.55
361.294	309.58
361.676	312.75
362.057	301.22
362.439	292.18
362.821	296.93
363.203	282.46
363.584	306.19
363.966	328.11
364.348	291.05
364.729	298.06
365.111	303.93
365.493	294.67
365.874	285.85
366.256	293.54
366.637	289.7
367.019	276.59
367.4	278.17
367.781	291.28
368.163	282.01
368.544	276.59
368.925	292.41
369.306	279.75
369.688	299.41
370.069	289.24
370.45	289.24
370.831	283.82
371.212	281.33
371.593	281.11
371.974	300.32
372.355	288.57
372.736	272.3
373.117	308.9
373.498	298.28
373.879	284.95
374.26	287.66
374.641	264.61
375.021	310.71
375.402	291.5
375.783	284.95
376.163	279.3
376.544	293.09
376.925	284.72
377.305	307.32
377.686	278.62
378.066	284.72
378.447	303.03
378.827	304.38
379.208	322.69
379.588	288.34
379.968	304.84
380.349	289.7
380.729	307.1
381.109	310.94
381.489	313.42
381.87	296.48
382.25	307.55
382.63	309.36
383.01	309.58
383.39	297.15
383.77	324.5
384.15	309.81
384.53	313.2
384.91	315.46
385.29	300.54
385.67	331.95
386.049	342.35
386.429	328.34
386.809	306.87
387.189	301.67
387.568	312.97
387.948	320.43
388.328	326.98
388.707	311.16
389.087	340.32
389.466	338.06
389.846	327.21
390.225	311.84
390.605	331.28
390.984	339.64
391.363	332.41
391.743	346.42
392.122	327.21
392.501	333.54
392.881	339.41
393.26	323.37
393.639	317.72
394.018	333.99
394.397	326.3
394.776	336.7
395.155	326.3
395.534	331.95
395.913	347.77
396.292	354.1
396.671	353.2
397.05	357.26
397.429	345.97
397.808	362.01
398.186	356.59
398.565	331.5
398.944	359.52
399.323	349.81
399.701	333.08
400.08	352.52
400.458	346.19
400.837	357.94
401.215	362.46
401.594	333.99
401.972	351.84
402.351	362.24
402.729	382.8
403.107	371.28
403.486	392.07
403.864	363.82
404.242	380.99
404.62	358.85
404.999	375.34
405.377	383.48
405.755	386.19
406.133	399.52
406.511	392.29
406.889	369.02
407.267	372.41
407.645	407.88
408.023	399.98
408.401	403.14
408.779	402.01
409.156	419.18
409.534	392.07
409.912	409.69
410.29	407.21
410.667	421.67
411.045	412.86
411.422	396.59
411.8	435.45
412.178	423.7
412.555	419.41
412.933	441.56
413.31	438.84
413.687	432.52
414.065	431.16
414.442	433.87
414.819	429.35
415.197	454.89
415.574	444.04
415.951	460.54
416.328	457.37
416.705	441.33
417.082	453.08
417.46	448.34
417.837	438.39
418.214	449.01
418.591	447.43
418.967	459.63
419.344	470.71
419.721	457.37
420.098	447.43
420.475	457.6
420.852	469.58
421.228	477.26
421.605	491.72
421.982	516.36
422.358	484.27
422.735	489.69
423.111	495.57
423.488	489.01
423.864	489.46
424.241	523.59
424.617	495.79
424.994	499.63
425.37	524.27
425.746	512.29
426.123	523.36
426.499	528.56
426.875	507.32
427.251	507.32
427.627	516.36
428.003	540.76
428.379	561.1
428.756	529.46
429.132	537.6
429.507	548.45
429.883	548.67
430.259	552.74
430.635	545.06
431.011	562.68
431.387	569.24
431.763	574.89
432.138	593.87
432.514	594.55
432.89	602.68
433.265	583.93
433.641	619.18
434.016	597.94
434.392	609.24
434.767	611.95
435.143	618.95
435.518	602
435.894	623.92
436.269	649.23
436.644	654.66
437.02	639.74
437.395	626.18
437.77	646.97
438.145	652.62
438.52	655.34
438.895	658.95
439.271	659.18
439.646	660.76
440.021	681.78
440.395	667.76
440.77	670.93
441.145	669.35
441.52	707.09
441.895	705.5
442.27	716.35
442.645	690.36
443.019	686.3
443.394	690.14
443.769	708.89
444.143	706.41
444.518	700.76
444.892	701.44
445.267	735.56
445.641	716.13
446.016	727.42
446.39	730.81
446.764	755.22
447.139	724.94
447.513	737.59
447.887	739.63
448.262	743.92
448.636	743.7
449.01	747.08
449.384	744.37
449.758	769.01
450.132	791.83
450.506	780.3
450.88	783.47
451.254	763.81
451.628	799.29
452.002	793.86
452.376	797.71
452.75	786.41
453.123	800.42
453.497	809
453.871	816.91
454.244	836.57
454.618	848.78
454.992	845.16
455.365	806.29
455.739	836.35
456.112	893.07
456.486	874.31
456.859	865.5
457.232	897.14
457.606	871.15
457.979	929.45
458.352	902.34
458.725	933.75
459.099	929.45
459.472	933.97
459.845	952.05
460.218	953.86
460.591	982.78
460.964	954.09
461.337	968.55
461.71	984.59
462.083	976.68
462.456	1008.55
462.829	1023.46
463.201	1022.78
463.574	1011.71
463.947	1046.29
464.32	1070.01
464.692	1053.07
465.065	1058.04
465.438	1098.49
465.81	1113.4
466.183	1143.46
466.555	1087.87
466.928	1138.94
467.3	1151.82
467.672	1158.6
468.045	1147.98
468.417	1191.59
468.789	1168.54
469.161	1189.56
469.534	1213.06
469.906	1220.52
470.278	1258.03
470.65	1248.31
471.022	1239.05
471.394	1235.89
471.766	1265.26
472.138	1300.74
472.51	1310.23
472.882	1312.49
473.253	1340.29
473.625	1364.7
473.997	1403.34
474.369	1360.18
474.74	1400.63
475.112	1410.57
475.484	1441.3
475.855	1456.67
476.227	1434.3
476.598	1494.41
476.97	1519.72
477.341	1548.19
477.713	1571.47
478.084	1534.63
478.455	1586.84
478.827	1634.52
479.198	1659.83
479.569	1644.01
479.94	1702.99
480.311	1677.23
480.682	1742.76
481.053	1769.88
481.424	1781.63
481.795	1784.35
482.166	1821.63
482.537	1832.03
482.908	1885.13
483.279	1869.99
483.65	1921.74
484.021	1930.1
484.391	1966.04
484.762	1979.14
485.133	2000.84
485.503	2005.58
485.874	2066.82
486.244	2101.85
486.615	2123.32
486.985	2125.58
487.356	2133.94
487.726	2146.82
488.097	2220.94
488.467	2201.96
488.837	2299.13
489.207	2278.57
489.578	2301.17
489.948	2314.28
490.318	2356.99
490.688	2390.88
491.058	2405.12
491.428	2452.12
491.798	2480.37
492.168	2463.65
492.538	2519.69
492.908	2525.34
493.278	2554.49
493.648	2539.13
494.017	2574.16
494.387	2622.74
494.757	2643.98
495.126	2677.2
495.496	2685.34
495.866	2699.35
496.235	2701.61
496.605	2728.5
496.974	2750.87
497.344	2770.08
497.713	2808.5
498.082	2777.77
498.452	2833.36
498.821	2827.93
499.19	2880.59
499.559	2917.42
499.928	2889.18
500.298	2918.78
500.667	2894.83
501.036	2925.11
501.405	2946.12
501.774	2963.3
502.143	3020.25
502.512	3000.81
502.88	3056.85
503.249	3024.31
503.618	3090.07
503.987	3089.17
504.356	3094.82
504.724	3101.37
505.093	3125.55
505.462	3129.85
505.83	3198.77
506.199	3208.94
506.567	3208.26
506.936	3260.24
507.304	3254.59
507.672	3258.43
508.041	3268.15
508.409	3321.93
508.777	3315.38
509.145	3367.13
509.514	3373.46
509.882	3430.86
510.25	3433.57
510.618	3437.41
510.986	3420.69
511.354	3483.96
511.722	3474.24
512.09	3507.69
512.458	3502.94
512.826	3581.13
513.193	3561.02
513.561	3582.72
513.929	3608.93
514.297	3658.19
514.664	3645.09
515.032	3711.3
515.4	3705.88
515.767	3685.09
516.135	3749.49
516.502	3740.68
516.869	3782.71
517.237	3834.69
517.604	3784.07
517.972	3849.38
518.339	3852.31
518.706	3882.37
519.073	3877.85
519.44	3961.92
519.808	3919.88
520.175	3957.4
520.542	3990.62
520.909	4040.11
521.276	4024.51
521.643	4101.57
522.009	4103.83
522.376	4069.71
522.743	4156.03
523.11	4169.82
523.477	4195.58
523.843	4240.78
524.21	4253.43
524.577	4289.36
524.943	4292.53
525.31	4323.49
525.676	4327.33
526.043	4387.67
526.409	4433.54
526.776	4454.11
527.142	4478.74
527.508	4513.31
527.874	4549.24
528.241	4538.4
528.607	4553.09
528.973	4593.99
529.339	4609.13
529.705	4673.76
530.071	4725.96
530.437	4722.35
530.803	4770.03
531.169	4725.96
531.535	4794.89
531.901	4762.8
532.267	4779.3
532.632	4850.93
532.998	4862.23
533.364	4914.43
533.73	4922.57
534.095	4931.83
534.461	4982.91
534.826	4962.12
535.192	4969.8
535.557	5082.79
535.923	5060.64
536.288	5090.7
536.653	5102
537.019	5126.4
537.384	5113.52
537.749	5163.47
538.114	5191.94
538.479	5146.97
538.845	5221.77
539.21	5207.76
539.575	5255.89
539.94	5278.72
540.305	5309.9
540.67	5331.6
541.034	5349.68
541.399	5360.52
541.764	5353.07
542.129	5384.48
542.494	5414.53
542.858	5445.27
543.223	5447.75
543.587	5485.27
543.952	5495.66
544.316	5563.23
544.681	5520.29
545.045	5565.04
545.41	5629.22
545.774	5668.31
546.138	5648.88
546.503	5644.81
546.867	5609.56
547.231	5717.58
547.595	5711.25
547.959	5773.17
548.324	5797.57
548.688	5802.77
549.052	5839.61
549.416	5827.4
549.779	5841.19
550.143	5836.44
550.507	5925.71
550.871	5874.41
551.235	5903.33
551.599	5951.47
551.962	5998.47
552.326	5969.09
552.689	6029.66
553.053	6020.17
553.417	6048.41
553.78	6160.28
554.143	6082.09
554.507	6141.29
554.87	6202.53
555.234	6160.95
555.597	6197.56
555.96	6247.73
556.323	6206.15
556.686	6253.83
557.05	6315.98
557.413	6343.1
557.776	6334.96
558.139	6355.3
558.502	6379.48
558.865	6400.72
559.228	6379.25
559.59	6453.83
559.953	6464.9
560.316	6553.94
560.679	6526.14
561.041	6557.78
561.404	6580.15
561.767	6681.62
562.129	6660.38
562.492	6746.93
562.854	6699.47
563.217	6680.04
563.579	6756.87
563.941	6782.41
564.304	6794.61
564.666	6820.6
565.028	6813.14
565.39	6882.74
565.753	6938.56
566.115	6953.7
566.477	6964.77
566.839	6957.09
567.201	7016.07
567.563	7006.81
567.925	7034.6
568.287	7094.49
568.648	7140.36
569.01	7116.18
569.372	7226.69
569.734	7163.87
570.095	7236.18
570.457	7232.11
570.819	7251.32
571.18	7255.84
571.542	7319.34
571.903	7311.88
572.265	7319.12
572.626	7377.64
572.987	7373.58
573.349	7389.85
573.71	7442.73
574.071	7425.55
574.432	7491.31
574.794	7534.93
575.155	7585.55
575.516	7562.05
575.877	7615.6
576.238	7562.72
576.599	7610.63
576.96	7624.19
577.32	7683.85
577.681	7571.99
578.042	7716.39
578.403	7654.25
578.763	7683.4
579.124	7649.5
579.485	7755.04
579.845	7765.43
580.206	7809.27
580.566	7762.72
580.927	7755.26
581.287	7803.62
581.648	7831.87
582.008	7890.17
582.368	7781.48
582.728	7806.56
583.089	7846.33
583.449	7794.58
583.809	7804.53
584.169	7816.73
584.529	7873.23
584.889	7855.82
585.249	7887.91
585.609	7872.32
585.969	7920
586.329	7881.81
586.688	7855.15
587.048	7803.85
587.408	7868.93
587.768	7890.85
588.127	7857.41
588.487	7875.26
588.846	7917.97
589.206	7903.96
589.565	7880.23
589.925	7909.83
590.284	7955.26
590.643	7967.46
591.003	7894.69
591.362	7957.97
591.721	7929.72
592.08	7852.43
592.44	7962.94
592.799	7936.95
593.158	7912.09
593.517	7876.61
593.876	7934.47
594.235	7946.9
594.593	7992.77
594.952	7954.8
595.311	7972.21
595.67	7991.41
596.029	8016.5
596.387	7966.56
596.746	7996.39
597.104	7984.18
597.463	7967.01
597.822	8022.15
598.18	7988.93
598.538	8008.14
598.897	8011.07
599.255	7931.75
599.613	8024.63
599.972	8022.83
600.33	8033.9
600.688	8023.5
601.046	8030.74
601.404	8060.11
601.762	8065.76
602.12	8058.31
602.478	8112.54
602.836	8062.82
603.194	8021.24
603.552	8085.87
603.91	8024.18
604.268	8074.8
604.625	8040.23
604.983	8039.55
605.341	8056.05
605.698	8110.28
606.056	8142.14
606.413	8115.7
606.771	8157.51
607.128	8156.61
607.485	8076.61
607.843	8196.15
608.2	8147.34
608.557	8178.3
608.914	8177.4
609.272	8254.91
609.629	8254.23
609.986	8186.66
610.343	8163.16
610.7	8266.44
611.057	8213.78
611.414	8300.11
611.771	8212.65
612.127	8230.73
612.484	8290.62
612.841	8329.03
613.198	8257.85
613.554	8213.78
613.911	8306.89
614.267	8299.2
614.624	8286.77
614.98	8310.5
615.337	8320.67
615.693	8381.23
616.05	8267.34
616.406	8369.71
616.762	8338.3
617.118	8324.96
617.475	8349.37
617.831	8347.79
618.187	8343.04
618.543	8406.32
618.899	8494
619.255	8386.88
619.611	8403.15
619.967	8477.05
620.323	8446.54
620.678	8437.73
621.034	8389.14
621.39	8417.62
621.746	8369.26
622.101	8492.87
622.457	8450.84
622.812	8433.89
623.168	8447.67
623.523	8447.45
623.879	8506.88
624.234	8355.92
624.589	8418.97
624.945	8432.31
625.3	8451.06
625.655	8534.68
626.01	8467.79
626.365	8492.64
626.72	8430.5
627.075	8404.06
627.43	8512.08
627.785	8415.13
628.14	8460.1
628.495	8474.79
628.85	8482.93
629.205	8386.43
629.559	8536.71
629.914	8392.53
630.269	8409.71
630.623	8426.66
630.978	8504.85
631.332	8463.49
631.687	8452.64
632.041	8466.43
632.396	8465.98
632.75	8409.93
633.104	8435.92
633.459	8395.47
633.813	8427.79
634.167	8369.26
634.521	8360.9
634.875	8361.12
635.229	8344.4
635.583	8337.62
635.937	8359.31
636.291	8314.34
636.645	8360.22
636.999	8291.07
637.352	8342.59
637.706	8316.38
638.06	8359.99
638.413	8303.5
638.767	8281.35
639.121	8316.38
639.474	8247.45
639.828	8293.78
640.181	8271.86
640.534	8223.5
640.888	8284.51
641.241	8308.69
641.594	8289.49
641.947	8299.88
642.301	8199.54
642.654	8281.8
643.007	8263.05
643.36	8249.71
643.713	8212.43
644.066	8331.07
644.419	8223.27
644.771	8137.85
645.124	8120.45
645.477	8131.07
645.83	8036.84
646.182	7990.74
646.535	8033.22
646.888	8057.18
647.24	7982.37
647.593	8010.17
647.945	8022.83
648.298	8007.23
648.65	7978.08
649.002	7967.23
649.355	7988.25
649.707	7970.17
650.059	8058.98
650.411	8117.96
650.763	8114.57
651.115	8190.28
651.467	8214.46
651.819	8152.99
652.171	8160.22
652.523	8122.03
652.875	8178.98
653.227	8126.1
653.578	8247
653.93	8246.32
654.282	8109.15
654.633	8144.18
654.985	8176.49
655.337	8145.99
655.688	8177.17
656.039	8175.36
656.391	8146.44
656.742	8150.96
657.094	8169.94
657.445	8168.81
657.796	8154.12
658.147	8115.7
658.498	8181.47
658.849	8213.56
659.2	8237.51
659.551	8127.91
659.902	8209.49
660.253	8170.62
660.604	8164.74
660.955	8121.81
661.306	8137.17
661.656	8157.74
662.007	8141.24
662.358	8200.9
662.708	8110.51
663.059	8164.29
663.409	8108.93
663.76	8171.97
664.11	8148.25
664.461	8144.63
664.811	8146.89
665.161	8131.75
665.511	8125.2
665.862	8177.17
666.212	8178.53
666.562	8182.37
666.912	8204.52
667.262	8176.95
667.612	8174.46
667.962	8217.4
668.312	8086.1
668.662	8256.27
669.011	8160.45
669.361	8075.71
669.711	8107.57
670.06	8081.81
670.41	8114.12
670.76	8104.86
671.109	8089.72
671.459	8151.86
671.808	8123.61
672.157	8123.84
672.507	8034.12
672.856	8079.77
673.205	8144.18
673.554	8098.53
673.904	8082.03
674.253	8163.84
674.602	8074.8
674.951	8047.23
675.3	7905.77
675.649	7990.28
675.998	8055.59
676.346	8075.03
676.695	8018.53
677.044	8037.06
677.393	8047.46
677.741	8030.28
678.09	7980.57
678.438	7973.79
678.787	8015.59
679.135	7972.21
679.484	7952.77
679.832	7981.7
680.181	7920.68
680.529	8030.28
680.877	7891.53
681.225	7939.66
681.573	7939.44
681.922	7922.04
682.27	7863.28
682.618	7899.21
682.966	7867.58
683.314	7850.85
683.661	7849.72
684.009	7838.42
684.357	7786.9
684.705	7813.79
685.053	7754.13
685.4	7804.3
685.748	7710.29
686.095	7774.02
686.443	7720.46
686.79	7679.78
687.138	7685.21
687.485	7676.85
687.832	7630.29
688.18	7646.34
688.527	7644.08
688.874	7574.25
689.221	7610.86
689.568	7531.54
689.915	7559.79
690.262	7575.61
690.609	7546.45
690.956	7528.83
691.303	7492.22
691.65	7470.52
691.997	7415.38
692.344	7402.73
692.69	7457.87
693.037	7414.03
693.383	7345.56
693.73	7367.7
694.077	7318.21
694.423	7311.43
694.769	7282.96
695.116	7269.4
695.462	7242.73
695.808	7247.03
696.155	7262.62
696.501	7197.31
696.847	7143.75
697.193	7155.28
697.539	7199.12
697.885	7095.17
698.231	7047.26
698.577	7099.91
698.923	7006.81
699.269	6951.44
699.614	6966.81
699.96	6971.78
700.306	6993.93
700.651	6898.11
700.997	6862.18
701.342	6827.38
701.688	6872.35
702.033	6854.49
702.379	6840.48
702.724	6849.75
703.069	6808.17
703.415	6754.61
703.76	6804.1
704.105	6743.31
704.45	6748.73
704.795	6655.18
705.14	6682.07
705.485	6661.05
705.83	6603.43
706.175	6696.76
706.52	6638.46
706.865	6562.75
707.209	6614.5
707.554	6587.84
707.899	6558.23
708.243	6539.7
708.588	6507.39
708.932	6498.35
709.277	6498.12
709.621	6453.83
709.966	6427.16
710.31	6511.23
710.654	6412.02
710.998	6386.48
711.342	6491.34
711.687	6433.26
712.031	6396.43
712.375	6332.93
712.719	6365.47
713.063	6338.12
713.407	6346.49
713.75	6308.52
714.094	6321.85
714.438	6294.28
714.782	6306.94
715.125	6263.1
715.469	6310.1
715.812	6262.87
716.156	6227.39
716.499	6229.43
716.843	6224.68
717.186	6201.86
717.53	6253.83
717.873	6254.51
718.216	6190.11
718.559	6199.82
718.902	6165.02
719.246	6204.34
719.589	6217
719.932	6171.12
720.275	6192.59
720.617	6173.16
720.96	6158.24
721.303	6168.19
721.646	6179.48
721.989	6106.49
722.331	6198.69
722.674	6148.3
723.016	6136.55
723.359	6107.4
723.701	6133.38
724.044	6112.37
724.386	6051.35
724.729	6121.86
725.071	6071.92
725.413	6111.69
725.755	6046.61
726.097	6030.11
726.439	6035.31
726.782	5998.47
727.124	6065.14
727.465	6077.57
727.807	6050.22
728.149	6039.83
728.491	6045.02
728.833	6075.08
729.175	6079.15
729.516	5992.14
729.858	6034.63
730.199	6054.74
730.541	5963.22
730.882	6018.13
731.224	6073.72
731.565	6007.96
731.906	6014.52
732.248	6074.4
732.589	6068.53
732.93	6012.03
733.271	6038.25
733.612	6011.13
733.953	6001.86
734.294	6023.78
734.635	5997.57
734.976	5997.12
735.317	5965.93
735.658	6059.26
735.999	5996.89
736.339	6015.87
736.68	6032.6
737.021	5971.13
737.361	5981.75
737.702	6045.25
738.042	6042.99
738.383	6011.58
738.723	6033.05
739.063	6015.87
739.404	6035.31
739.744	6000.73
740.084	5947.63
740.424	6012.48
740.764	5980.62
741.104	6017.23
741.444	5946.95
741.784	5959.83
742.124	5992.37
742.464	5991.24
742.804	5953.95
743.143	5981.3
743.483	5998.47
743.823	5976.78
744.162	5961.19
744.502	5958.02
744.841	6013.39
745.181	6005.93
745.52	5968.42
745.86	5981.07
746.199	5968.87
746.538	5995.08
746.877	5941.52
747.216	5971.81
747.556	5987.4
747.895	5968.19
748.234	5957.34
748.573	5967.06
748.911	5987.4
749.25	5988.75
749.589	5937.23
749.928	5956.21
750.267	5979.72
750.605	5997.57
750.944	5879.38
751.283	5912.15
751.621	5906.72
751.96	5890.45
752.298	5878.02
752.636	5881.19
752.975	5905.59
753.313	5869.21
753.651	5957.12
753.989	5891.13
754.327	5878.7
754.666	5847.97
755.004	5881.64
755.342	5878.93
755.679	5835.54
756.017	5831.47
756.355	5842.09
756.693	5803.22
757.031	5828.76
757.368	5769.55
757.706	5829.66
758.044	5755.77
758.381	5786.73
758.719	5770.68
759.056	5764.13
759.394	5763.45
759.731	5716.9
760.068	5689.33
760.405	5711.93
760.743	5663.57
761.08	5688.65
761.417	5713.06
761.754	5704.47
762.091	5659.05
762.428	5641.65
762.765	5641.87
763.102	5635.54
763.438	5602.32
763.775	5570.01
764.112	5610.69
764.449	5567.07
764.785	5552.83
765.122	5504.93
765.458	5485.04
765.795	5470.35
766.131	5447.53
766.467	5516.23
766.804	5445.27
767.14	5453.18
767.476	5422.22
767.812	5419.73
768.148	5450.46
768.485	5358.94
768.821	5355.33
769.157	5335.89
769.492	5370.24
769.828	5313.97
770.164	5204.82
770.5	5243.92
770.836	5308.55
771.171	5219.96
771.507	5190.13
771.842	5138.16
772.178	5188.78
772.513	5184.71
772.849	5162.34
773.184	5184.93
773.519	5170.7
773.855	5133.64
774.19	5079.17
774.525	5044.37
774.86	5040.53
775.195	5101.32
775.53	5056.35
775.865	5074.43
776.2	4959.86
776.535	4942.23
776.87	4951.04
777.205	4949.01
777.539	4951.95
777.874	4925.96
778.209	4898.61
778.543	4860.88
778.878	4836.69
779.212	4860.65
779.547	4801.44
779.881	4840.31
780.215	4829.69
780.55	4849.58
780.884	4776.13
781.218	4767.32
781.552	4757.15
781.886	4717.6
782.22	4739.07
782.554	4682.57
782.888	4660.65
783.222	4688
783.556	4627.89
783.889	4619.53
784.223	4603.03
784.557	4644.61
784.89	4611.39
785.224	4564.84
785.557	4522.8
785.891	4520.09
786.224	4477.16
786.558	4550.15
786.891	4482.13
787.224	4446.65
787.557	4466.31
787.891	4463.15
788.224	4473.31
788.557	4419.08
788.89	4396.71
789.223	4420.66
789.556	4375.46
789.888	4415.91
790.221	4378.85
790.554	4330.49
790.887	4367.55
791.219	4342.24
791.552	4305.64
791.884	4303.38
792.217	4291.17
792.549	4278.74
792.882	4280.55
793.214	4245.98
793.546	4260.44
793.879	4257.5
794.211	4213.89
794.543	4210.5
794.875	4193.77
795.207	4207.56
795.539	4145.19
795.871	4190.61
796.203	4118.52
796.535	4116.94
796.867	4109.26
797.198	4099.77
797.53	4081.23
797.862	4044.63
798.193	4076.94
798.525	4089.14
798.856	4056.6
799.188	4025.87
799.519	4032.2
799.85	3991.29
800.182	3998.07
800.513	3999.65
800.844	3977.73
801.175	3965.31
801.506	3971.18
801.837	3935.7
802.168	3925.08
802.499	3919.2
802.83	3887.79
803.161	3874.91
803.491	3907.45
803.822	3881.01
804.153	3877.17
804.483	3845.31
804.814	3812.54
805.145	3848.25
805.475	3861.58
805.805	3818.19
806.136	3834.01
806.466	3817.51
806.796	3795.82
807.126	3813.67
807.457	3782.03
807.787	3794.01
808.117	3752.88
808.447	3729.61
808.777	3747.91
809.107	3748.81
809.436	3734.35
809.766	3698.65
810.096	3704.97
810.426	3679.66
810.755	3748.81
811.085	3657.97
811.414	3678.31
811.744	3655.03
812.073	3643.73
812.403	3640.79
812.732	3644.86
813.061	3649.61
813.39	3569.16
813.719	3613.45
814.049	3610.29
814.378	3583.85
814.707	3625.65
815.036	3586.56
815.365	3572.32
815.693	3575.26
816.022	3531.42
816.351	3578.87
816.68	3506.33
817.008	3511.53
817.337	3458.65
817.665	3507.92
817.994	3471.31
818.322	3538.2
818.651	3454.13
818.979	3481.48
819.307	3466.11
819.636	3416.62
819.964	3462.49
820.292	3437.41
820.62	3464.3
820.948	3457.52
821.276	3455.49
821.604	3394.7
821.932	3467.69
822.259	3468.37
822.587	3489.61
822.915	3451.65
823.243	3442.83
823.57	3448.48
823.898	3435.83
824.225	3409.84
824.553	3414.81
824.88	3441.25
825.207	3424.75
825.535	3455.49
825.862	3458.2
826.189	3456.62
826.516	3452.55
826.843	3446.9
827.17	3455.94
827.497	3418.65
827.824	3471.98
828.151	3450.06
828.478	3425.21
828.805	3476.73
829.131	3450.29
829.458	3436.73
829.785	3426.56
830.111	3434.92
830.438	3442.61
830.764	3422.95
831.09	3406.68
831.417	3392.67
831.743	3419.56
832.069	3434.25
832.395	3383.63
832.722	3398.09
833.048	3397.86
833.374	3425.43
833.7	3369.39
834.026	3399.44
834.351	3409.16
834.677	3396.28
835.003	3396.05
835.329	3411.65
835.654	3391.54
835.98	3424.08
836.306	3368.03
836.631	3349.05
836.956	3387.69
837.282	3387.24
837.607	3397.64
837.932	3359.67
838.258	3381.14
838.583	3346.79
838.908	3293.91
839.233	3342.5
839.558	3366.45
839.883	3277.64
840.208	3326.9
840.533	3334.14
840.858	3271.76
841.182	3301.14
841.507	3327.58
841.832	3307.02
842.156	3279.45
842.481	3275.83
842.805	3288.94
843.13	3267.02
843.454	3262.27
843.778	3246.68
844.103	3214.36
844.427	3265.44
844.751	3255.49
845.075	3220.01
845.399	3255.95
845.723	3204.42
846.047	3221.14
846.371	3157.87
846.695	3179.11
847.019	3144.08
847.343	3185.44
847.666	3142.95
847.99	3158.09
848.313	3110.19
848.637	3133.01
848.96	3091.66
849.284	3056.85
849.607	3076.06
849.931	3041.94
850.254	3063.86
850.577	3022.05
850.9	3024.54
851.223	3014.14
851.546	2998.55
851.869	2977.53
852.192	2990.64
852.515	2963.3
852.838	2994.03
853.161	2965.33
853.483	2969.63
853.806	2966.91
854.129	2987.48
854.451	2943.86
854.774	2881.49
855.096	2890.08
855.419	2887.59
855.741	2927.59
856.063	2887.37
856.385	2903.19
856.708	2872.45
857.03	2875.16
857.352	2878.1
857.674	2795.84
857.996	2870.87
858.318	2803.3
858.64	2828.16
858.961	2855.73
859.283	2807.37
859.605	2786.13
859.926	2797.2
860.248	2793.36
860.57	2782.96
860.891	2805.56
861.212	2759.91
861.534	2782.06
861.855	2735.06
862.176	2773.25
862.498	2758.33
862.819	2756.75
863.14	2738.22
863.461	2758.78
863.782	2777.54
864.103	2749.97
864.424	2747.48
864.745	2726.24
865.065	2721.27
865.386	2702.29
865.707	2755.17
866.027	2702.74
866.348	2702.06
866.668	2691.21
866.989	2688.28
867.309	2693.93
867.63	2664.1
867.95	2697.32
868.27	2682.63
868.59	2678.56
868.91	2691.21
869.23	2677.88
869.55	2650.31
869.87	2644.66
870.19	2647.15
870.51	2662.74
870.83	2647.83
871.15	2631.56
871.469	2675.4
871.789	2685.11
872.109	2643.98
872.428	2633.36
872.748	2588.17
873.067	2621.61
873.386	2613.25
873.706	2652.12
874.025	2616.19
874.344	2598.56
874.663	2630.65
874.982	2624.78
875.301	2595.4
875.62	2605.79
875.939	2585.68
876.258	2582.97
876.577	2603.31
876.896	2582.74
877.214	2547.49
877.533	2608.73
877.852	2585.91
878.17	2578.9
878.489	2552.46
878.807	2544.55
879.125	2570.77
879.444	2547.04
879.762	2523.31
880.08	2565.34
880.398	2534.16
880.716	2518.34
881.034	2531.67
881.352	2541.84
881.67	2549.98
881.988	2544.78
882.306	2527.15
882.624	2511.33
882.941	2490.32
883.259	2495.29
883.577	2514.72
883.894	2472.24
884.212	2473.59
884.529	2470.66
884.846	2487.83
885.164	2463.65
885.481	2489.41
885.798	2441.5
886.115	2460.26
886.432	2463.88
886.75	2409.19
887.067	2452.12
887.383	2453.71
887.7	2430.43
888.017	2400.83
888.334	2419.13
888.651	2425.46
888.967	2413.26
889.284	2382.75
889.6	2399.02
889.917	2368.29
890.233	2402.63
890.55	2368.29
890.866	2368.96
891.182	2379.81
891.498	2359.7
891.815	2369.64
892.131	2306.14
892.447	2325.35
892.763	2332.13
893.079	2323.99
893.395	2331.68
893.71	2309.53
894.026	2298.91
894.342	2301.85
894.657	2297.1
894.973	2277.44
895.289	2268.4
895.604	2289.42
895.92	2286.93
896.235	2257.1
896.55	2268.4
896.865	2258.91
897.181	2242.41
897.496	2220.72
897.811	2254.84
898.126	2270.66
898.441	2211.68
898.756	2204.67
899.071	2234.28
899.386	2202.64
899.7	2189.53
900.015	2205.13
900.33	2180.04
900.644	2185.01
900.959	2172.13
901.273	2180.04
901.588	2152.7
901.902	2130.1
902.216	2164.67
902.531	2156.09
902.845	2155.18
903.159	2128.52
903.473	2095.75
903.787	2084.68
904.101	2091.23
904.415	2088.07
904.729	2072.93
905.042	2086.26
905.356	2077.45
905.67	2081.51
905.984	2066.82
906.297	2055.3
906.611	2017.11
906.924	2027.96
907.237	2055.3
907.551	2002.42
907.864	2018.69
908.177	2008.75
908.491	2046.49
908.804	2025.02
909.117	1995.64
909.43	1985.02
909.743	1994.06
910.056	2016.88
910.368	1970.1
910.681	1954.51
910.994	1937.56
911.307	1939.6
911.619	1967.17
911.932	1939.14
912.244	1915.42
912.557	1919.26
912.869	1926.94
913.181	1897.11
913.494	1884.68
913.806	1877.68
914.118	1879.03
914.43	1871.58
914.742	1860.28
915.054	1859.15
915.366	1870.22
915.678	1861.86
915.99	1832.48
916.302	1849.65
916.613	1827.28
916.925	1857.79
917.236	1808.98
917.548	1833.61
917.859	1782.54
918.171	1833.61
918.482	1775.53
918.794	1779.37
919.105	1794.74
919.416	1761.52
919.727	1753.39
920.038	1764.91
920.349	1756.32
920.66	1728.98
920.971	1747.51
921.282	1759.26
921.593	1756.32
921.903	1726.72
922.214	1755.65
922.525	1724.69
922.835	1714.97
923.146	1705.7
923.456	1698.02
923.767	1675.2
924.077	1692.82
924.387	1711.81
924.697	1664.57
925.008	1660.51
925.318	1667.29
925.628	1699.6
925.938	1660.73
926.248	1635.42
926.558	1614.41
926.867	1624.12
927.177	1631.58
927.487	1625.48
927.796	1613.5
928.106	1617.57
928.416	1619.83
928.725	1634.97
929.034	1587.51
929.344	1611.92
929.653	1599.72
929.962	1588.64
930.271	1549.1
930.581	1554.07
930.89	1555.65
931.199	1547.97
931.508	1565.14
931.817	1555.2
932.125	1548.87
932.434	1536.67
932.743	1521.75
933.051	1507.29
933.36	1528.99
933.669	1513.39
933.977	1518.14
934.286	1531.7
934.594	1518.14
934.902	1496.22
935.21	1476.56
935.519	1495.99
935.827	1478.82
936.135	1482.88
936.443	1486.73
936.751	1439.5
937.059	1452.83
937.367	1482.66
937.674	1454.64
937.982	1440.85
938.29	1450.8
938.597	1437.91
938.905	1430.68
939.213	1433.85
939.52	1428.42
939.827	1431.59
940.135	1407.63
940.442	1392.94
940.749	1422.55
941.056	1383.23
941.363	1420.06
941.67	1375.32
941.977	1375.99
942.284	1374.19
942.591	1398.37
942.898	1368.76
943.205	1373.96
943.511	1364.24
943.818	1352.27
944.125	1334.87
944.431	1359.95
944.738	1346.84
945.044	1340.52
945.35	1331.7
945.657	1342.78
945.963	1297.58
946.269	1337.13
946.575	1306.39
946.881	1314.53
947.187	1317.47
947.493	1294.64
947.799	1283.34
948.105	1272.04
948.41	1259.61
948.716	1288.77
949.022	1276.34
949.327	1286.51
949.633	1272.95
949.938	1307.97
950.244	1262.33
950.549	1228.88
950.854	1261.42
951.16	1248.77
951.465	1285.6
951.77	1256.45
952.075	1243.34
952.38	1225.94
952.685	1233.17
952.99	1225.94
953.294	1211.71
953.599	1224.81
953.904	1236.56
954.209	1225.94
954.513	1216.9
954.818	1180.07
955.122	1176
955.426	1192.04
955.731	1201.31
956.035	1190.01
956.339	1201.99
956.643	1166.28
956.948	1179.16
957.252	1198.6
957.556	1149.56
957.86	1166.28
958.163	1136.68
958.467	1154.08
958.771	1143.23
959.075	1175.32
959.378	1135.32
959.682	1156.11
959.985	1126.74
960.289	1142.1
960.592	1124.93
960.896	1116.34
961.199	1121.76
961.502	1122.44
961.805	1096
962.108	1125.15
962.411	1139.16
962.714	1113.85
963.017	1102.56
963.32	1110.47
963.623	1096.68
963.926	1086.96
964.228	1093.97
964.531	1072.5
964.833	1099.39
965.136	1068.66
965.438	1064.14
965.741	1064.36
966.043	1061.2
966.345	1066.17
966.648	1054.87
966.95	1070.01
967.252	1055.1
967.554	1010.81
967.856	1048.32
968.158	1025.5
968.46	1027.53
968.761	1028.66
969.063	1028.43
969.365	1021.88
969.666	1010.35
969.968	1020.98
970.269	1026.63
970.571	1013.74
970.872	975.78
971.174	1014.2
971.475	1003.8
971.776	999.96
972.077	985.72
972.378	1005.61
972.679	1003.8
972.98	973.97
973.281	985.04
973.582	951.83
973.883	986.17
974.183	961.77
974.484	986.85
974.785	959.96
975.085	938.04
975.386	971.71
975.686	952.28
975.986	965.84
976.287	947.31
976.587	959.96
976.887	957.25
977.187	958.15
977.487	968.77
977.787	948.21
978.087	940.3
978.387	943.24
978.687	929.9
978.987	914.99
979.286	936.46
979.586	933.52
979.885	910.24
980.185	896.46
980.484	891.04
980.784	935.55
981.083	882.22
981.382	907.76
981.682	906.63
981.981	902.11
982.28	896.46
982.579	889.91
982.878	871.6
983.177	892.39
983.475	855.78
983.774	864.37
984.073	879.51
984.372	857.59
984.67	874.99
984.969	883.58
985.267	869.12
985.566	871.6
985.864	854.88
986.162	867.53
986.461	849.68
986.759	874.99
987.057	830.92
987.355	852.17
987.653	830.25
987.951	843.58
988.249	838.16
988.547	834.09
988.844	847.2
989.142	853.07
989.44	823.47
989.737	830.92
990.035	821.21
990.332	823.24
990.63	813.52
990.927	819.17
991.224	804.03
991.521	798.38
991.819	810.81
992.116	789.12
992.413	809.46
992.71	787.31
993.006	811.72
993.303	788.21
993.6	772.62
993.897	776.46
994.193	783.92
994.49	804.26
994.787	799.74
995.083	773.3
995.379	786.63
995.676	773.52
995.972	789.12
996.268	761.32
996.565	743.47
996.861	797.25
997.157	759.29
997.453	760.64
997.749	758.38
998.044	758.38
998.34	757.03
998.636	738.72
998.932	738.95
999.227	733.75
999.523	726.97
999.818	740.53
1000.114	724.49
1000.409	713.41
1000.704	741.66
1001	720.64
1001.295	720.87
1001.59	746.63
1001.885	725.62
1002.18	716.13
1002.475	726.52
1002.77	710.7
1003.065	713.19
1003.359	713.41
1003.654	711.83
1003.949	696.69
1004.243	686.3
1004.538	693.98
1004.832	693.53
1005.127	692.4
1005.421	708.44
1005.715	672.51
1006.009	692.62
1006.304	707.76
1006.598	682
1006.892	661.89
1007.186	667.99
1007.48	687.43
1007.773	669.35
1008.067	650.14
1008.361	672.28
1008.655	657.14
1008.948	654.88
1009.242	654.21
1009.535	665.28
1009.829	665.51
1010.122	658.95
1010.415	659.86
1010.708	654.21
1011.001	661.21
1011.295	629.8
1011.588	643.58
1011.881	636.58
1012.173	624.15
1012.466	635.45
1012.759	644.94
1013.052	616.24
1013.344	619.86
1013.637	641.55
1013.93	596.81
1014.222	611.95
1014.514	626.86
1014.807	606.52
1015.099	600.42
1015.391	604.72
1015.683	600.87
1015.976	589.57
1016.268	595.68
1016.56	604.72
1016.851	609.46
1017.143	576.47
1017.435	608.11
1017.727	595.68
1018.018	597.48
1018.31	606.07
1018.602	583.93
1018.893	603.13
1019.185	594.77
1019.476	601.1
1019.767	575.79
1020.058	580.31
1020.35	590.03
1020.641	584.83
1020.932	577.15
1021.223	551.38
1021.514	559.97
1021.804	547.54
1022.095	562.68
1022.386	553.87
1022.677	541.67
1022.967	555.9
1023.258	538.5
1023.548	567.65
1023.839	573.53
1024.129	565.85
1024.419	531.05
1024.709	529.69
1025	550.25
1025.29	528.79
1025.58	536.24
1025.87	538.5
1026.16	540.99
1026.449	529.01
1026.739	522.46
1027.029	532.18
1027.319	510.93
1027.608	521.1
1027.898	497.83
1028.187	531.95
1028.477	524.49
1028.766	524.27
1029.055	523.59
1029.344	514.55
1029.634	522.23
1029.923	514.32
1030.212	516.81
1030.501	498.96
1030.79	505.96
1031.078	491.5
1031.367	509.35
1031.656	515.45
1031.945	503.93
1032.233	495.57
1032.522	504.61
1032.81	505.51
1033.099	498.96
1033.387	493.98
1033.675	467.09
1033.963	474.78
1034.251	477.04
1034.54	479.07
1034.828	483.14
1035.116	487.2
1035.403	462.35
1035.691	478.84
1035.979	467.77
1036.267	479.97
1036.554	456.25
1036.842	459.63
1037.129	442.91
1037.417	481.56
1037.704	470.26
1037.992	437.26
1038.279	444.27
1038.566	433.87
1038.853	433.87
1039.14	433.87
