Data from mousepad_grey_FLMS001491_00030.txt Node
Date: Wed Feb 08 14:29:13 GMT 2017
User: dcchb
Spectrometer: FLMS00149
Trigger mode: 0
Integration Time (sec): 2.000000E-2
Scans to average: 10
Electric dark correction enabled: true
Nonlinearity correction enabled: false
Boxcar width: 0
XAxis mode: Wavelengths
Number of Pixels in Spectrum: 2048
>>>>>Begin Spectral Data<<<<<
341.393	-19.24
341.776	-19.24
342.16	-19.24
342.543	-59.01
342.927	-56.07
343.31	-75.05
343.693	-72.57
344.077	-66.69
344.46	-72.79
344.843	-65.56
345.226	-39.35
345.61	-34.15
345.993	-18.56
346.376	-13.14
346.759	4.72
347.142	39.07
347.525	52.4
347.908	67.54
348.291	73.64
348.674	93.75
349.057	126.75
349.44	117.26
349.823	142.79
350.206	149.8
350.588	178.5
350.971	195.22
351.354	208.55
351.737	194.99
352.119	234.99
352.502	239.29
352.884	254.88
353.267	262.34
353.65	258.27
354.032	289
354.414	291.94
354.797	282
355.179	304.6
355.562	312.05
355.944	305.95
356.326	319.51
356.709	324.26
357.091	312.51
357.473	321.77
357.855	300.3
358.238	310.7
358.62	305.05
359.002	311.15
359.384	314.09
359.766	293.3
360.148	316.12
360.53	323.13
360.912	322.22
361.294	307.99
361.676	312.51
362.057	299.62
362.439	294.43
362.821	326.52
363.203	303.01
363.584	303.01
363.966	311.6
364.348	295.56
364.729	311.83
365.111	308.66
365.493	298.49
365.874	300.98
366.256	300.08
366.637	293.3
367.019	278.83
367.4	308.21
367.781	302.56
368.163	312.73
368.544	299.62
368.925	309.12
369.306	294.2
369.688	310.92
370.069	294.88
370.45	286.52
370.831	282.45
371.212	273.86
371.593	301.66
371.974	313.64
372.355	286.52
372.736	301.21
373.117	285.84
373.498	292.62
373.879	285.84
374.26	305.05
374.641	310.47
375.021	291.26
375.402	297.37
375.783	298.27
376.163	304.37
376.544	308.66
376.925	314.54
377.305	298.04
377.686	310.47
378.066	297.82
378.447	306.63
378.827	271.15
379.208	326.29
379.588	301.21
379.968	307.08
380.349	295.11
380.729	272.96
381.109	310.92
381.489	317.48
381.87	305.73
382.25	315.44
382.63	307.99
383.01	313.41
383.39	299.17
383.77	290.59
384.15	307.31
384.53	340.75
384.91	319.51
385.29	311.38
385.67	313.18
386.049	324.93
386.429	322.68
386.809	298.72
387.189	341.66
387.568	337.14
387.948	321.32
388.328	329.68
388.707	338.49
389.087	321.09
389.466	345.95
389.846	333.3
390.225	346.4
390.605	321.77
390.984	352.96
391.363	328.55
391.743	332.17
392.122	348.21
392.501	343.24
392.881	352.96
393.26	335.78
393.639	349.34
394.018	361.09
394.397	343.92
394.776	330.36
395.155	343.01
395.534	357.02
395.913	361.54
396.292	358.83
396.671	359.96
397.05	352.05
397.429	373.97
397.808	357.02
398.186	390.24
398.565	378.27
398.944	359.06
399.323	390.7
399.701	384.82
400.08	375.1
400.458	363.13
400.837	377.14
401.215	394.54
401.594	401.54
401.972	358.61
402.351	398.15
402.729	379.62
403.107	391.83
403.486	380.07
403.864	385.95
404.242	401.77
404.62	385.5
404.999	397.93
405.377	399.51
405.755	396.57
406.133	411.94
406.511	388.89
406.889	420.53
407.267	410.13
407.645	409.45
408.023	402
408.401	416.01
408.779	403.58
409.156	441.99
409.534	405.84
409.912	434.76
410.29	430.24
410.667	433.86
411.045	423.24
411.422	421.88
411.8	435.21
412.178	434.31
412.555	444.71
412.933	484.93
413.31	464.37
413.687	467.3
414.065	458.94
414.442	473.18
414.819	446.29
415.197	469.56
415.574	459.17
415.951	478.38
416.328	450.13
416.705	481.77
417.082	488.09
417.46	483.35
417.837	498.26
418.214	468.66
418.591	482.67
418.967	496.23
419.344	498.26
419.721	496.46
420.098	494.87
420.475	496
420.852	473.41
421.228	506.17
421.605	508.66
421.982	508.43
422.358	506.85
422.735	529.45
423.111	535.78
423.488	508.21
423.864	517.92
424.241	500.75
424.617	522.44
424.994	535.1
425.37	533.97
425.746	542.56
426.123	557.47
426.499	553.18
426.875	591.82
427.251	571.93
427.627	542.56
428.003	568.77
428.379	585.27
428.756	589.79
429.132	584.36
429.507	591.14
429.883	596.11
430.259	579.17
430.635	589.11
431.011	609.67
431.387	629.33
431.763	628.2
432.138	622.55
432.514	639.28
432.89	623.91
433.265	631.37
433.641	656.45
434.016	638.37
434.392	640.63
434.767	622.1
435.143	651.71
435.518	686.51
435.894	636.11
436.269	661.65
436.644	640.63
437.02	682.67
437.395	675.43
437.77	706.39
438.145	709.56
438.52	716.56
438.895	716.11
439.271	696.45
439.646	728.09
440.021	703.46
440.395	709.78
440.77	705.04
441.145	713.4
441.52	745.94
441.895	737.58
442.27	753.85
442.645	749.1
443.019	750.69
443.394	731.93
443.769	770.8
444.143	752.04
444.518	773.28
444.892	767.64
445.267	786.84
445.641	764.92
446.016	776.67
446.39	773.51
446.764	779.16
447.139	770.8
447.513	771.02
447.887	770.35
448.262	796.79
448.636	801.53
449.01	802.66
449.384	794.98
449.758	837.01
450.132	810.35
450.506	820.97
450.88	815.77
451.254	856.9
451.628	839.95
452.002	842.89
452.376	857.35
452.75	877.01
453.123	869.55
453.497	897.12
453.871	879.27
454.244	903
454.618	899.61
454.992	929.44
455.365	892.15
455.739	929.89
456.112	927.63
456.486	933.96
456.859	928.99
457.232	966.5
457.606	937.35
457.979	992.26
458.352	997.46
458.725	969.21
459.099	1001.08
459.472	1012.37
459.845	1027.74
460.218	1013.73
460.591	1067.06
460.964	1035.42
461.337	1056.22
461.71	1057.57
462.083	1087.85
462.456	1072.49
462.829	1097.57
463.201	1086.04
463.574	1109.55
463.947	1121.75
464.32	1135.76
464.692	1138.7
465.065	1167.85
465.438	1163.33
465.81	1152.71
466.183	1189.54
466.555	1197
466.928	1224.57
467.3	1213.27
467.672	1219.37
468.045	1232.26
468.417	1271.35
468.789	1272.25
469.161	1302.54
469.534	1276.77
469.906	1321.07
470.278	1343.21
470.65	1340.05
471.022	1357
471.394	1373.49
471.766	1367.17
472.138	1368.3
472.51	1450.33
472.882	1437
473.253	1443.1
473.625	1456.2
473.997	1499.14
474.369	1486.49
474.74	1536.43
475.112	1552.02
475.484	1587.5
475.855	1605.13
476.227	1602.19
476.598	1634.96
476.97	1643.32
477.341	1672.02
477.713	1710.21
478.084	1682.19
478.455	1736.88
478.827	1735.52
479.198	1807.16
479.569	1825.46
479.94	1834.05
480.311	1829.53
480.682	1922.63
481.053	1918.79
481.424	1965.34
481.795	1969.19
482.166	1953.14
482.537	2009.41
482.908	2031.78
483.279	2064.1
483.65	2100.03
484.021	2107.49
484.391	2137.77
484.762	2177.09
485.133	2199.46
485.503	2224.77
485.874	2284.88
486.244	2258.9
486.615	2279.01
486.985	2352.45
487.356	2377.99
487.726	2370.98
488.097	2390.42
488.467	2429.06
488.837	2447.82
489.207	2514.48
489.578	2538.89
489.948	2575.72
490.318	2553.12
490.688	2598.1
491.058	2636.51
491.428	2680.35
491.798	2746.79
492.168	2740.92
492.538	2757.41
492.908	2737.3
493.278	2812.33
493.648	2810.52
494.017	2829.05
494.387	2882.38
494.757	2859.56
495.126	2900.01
495.496	2904.53
495.866	2934.36
496.235	2954.92
496.605	2977.52
496.974	2989.27
497.344	2994.02
497.713	3062.49
498.082	3084.64
498.452	3100.68
498.821	3100
499.19	3150.85
499.559	3164.86
499.928	3196.72
500.298	3214.8
500.667	3183.39
501.036	3211.64
501.405	3188.59
501.774	3247.12
502.143	3316.49
502.512	3250.51
502.88	3341.58
503.249	3326.44
503.618	3325.99
503.987	3386.32
504.356	3375.93
504.724	3424.74
505.093	3431.52
505.462	3449.6
505.83	3468.81
506.199	3471.52
506.567	3521.24
506.936	3511.74
507.304	3521.91
507.672	3579.09
508.041	3642.36
508.409	3577.96
508.777	3656.82
509.145	3639.2
509.514	3660.89
509.882	3703.38
510.25	3701.12
510.618	3725.98
510.986	3745.41
511.354	3801.45
511.722	3795.58
512.09	3857.95
512.458	3858.18
512.826	3850.94
513.193	3907.67
513.561	3905.41
513.929	3927.33
514.297	4018.62
514.664	3990.6
515.032	4012.97
515.4	4038.06
515.767	4071.73
516.135	4072.18
516.502	4060.43
516.869	4144.04
517.237	4139.07
517.604	4128.9
517.972	4211.39
518.339	4229.47
518.706	4216.81
519.073	4277.37
519.44	4248
519.808	4287.32
520.175	4304.94
520.542	4364.83
520.909	4393.75
521.276	4406.64
521.643	4461.1
522.009	4494.77
522.376	4497.71
522.743	4519.85
523.11	4574.99
523.477	4580.64
523.843	4593.98
524.21	4676.46
524.577	4706.06
524.943	4660.19
525.31	4773.18
525.676	4775.67
526.043	4858.15
526.409	4829.68
526.776	4838.94
527.142	4883.01
527.508	4928.66
527.874	4921.42
528.241	4968.43
528.607	4996.68
528.973	5022.89
529.339	5020.4
529.705	5112.15
530.071	5086.17
530.437	5103.79
530.803	5159.16
531.169	5191.93
531.535	5256.1
531.901	5228.76
532.267	5286.39
532.632	5312.6
532.998	5330.68
533.364	5361.64
533.73	5357.57
534.095	5407.74
534.461	5440.73
534.826	5419.04
535.192	5501.75
535.557	5570.45
535.923	5503.33
536.288	5570.9
536.653	5637.11
537.019	5586.04
537.384	5615.19
537.749	5614.06
538.114	5641.86
538.479	5639.82
538.845	5715.98
539.21	5701.97
539.575	5721.86
539.94	5751.23
540.305	5831.23
540.67	5793.72
541.034	5884.34
541.399	5820.16
541.764	5883.43
542.129	5928.18
542.494	5921.62
542.858	5944.22
543.223	5960.94
543.587	5993.03
543.952	6019.93
544.316	6033.71
544.681	6062.41
545.045	6084.78
545.41	6091.56
545.774	6151.22
546.138	6139.7
546.503	6164.1
546.867	6174.95
547.231	6210.88
547.595	6219.7
547.959	6224.44
548.324	6266.93
548.688	6264.21
549.052	6395.06
549.416	6352.12
549.779	6333.14
550.143	6386.7
550.507	6446.58
550.871	6453.36
551.235	6446.58
551.599	6514.15
551.962	6549.63
552.326	6499.69
552.689	6579.46
553.053	6507.15
553.417	6572.91
553.78	6651.77
554.143	6564.54
554.507	6727.7
554.87	6698.78
555.234	6755.27
555.597	6727.48
555.96	6770.64
556.323	6800.7
556.686	6846.57
557.05	6822.17
557.413	6883.63
557.776	6899.45
558.139	6925.21
558.502	6956.17
558.865	6993.23
559.228	7016.06
559.59	7052.22
559.953	7056.06
560.316	7114.13
560.679	7146.22
561.041	7174.47
561.404	7185.32
561.767	7268.48
562.129	7235.49
562.492	7241.14
562.854	7284.3
563.217	7287.46
563.579	7357.74
563.941	7411.3
564.304	7416.05
564.666	7411.08
565.028	7498.53
565.39	7475.26
565.753	7580.79
566.115	7566.33
566.477	7633.9
566.839	7681.35
567.201	7679.77
567.563	7679.54
567.925	7691.52
568.287	7726.77
568.648	7714.57
569.01	7865.08
569.372	7910.95
569.734	7779.88
570.095	7863.27
570.457	7937.62
570.819	7937.84
571.18	7981.23
571.542	7956.37
571.903	7977.62
572.265	8075.92
572.626	8096.93
572.987	8045.86
573.349	8129.48
573.71	8133.32
574.071	8224.39
574.432	8170.15
574.794	8285.63
575.155	8228.46
575.516	8294.44
575.877	8292.86
576.238	8320.66
576.599	8360.2
576.96	8278.62
577.32	8293.31
577.681	8372.86
578.042	8394.78
578.403	8378.06
578.763	8442.46
579.124	8411.5
579.485	8393.2
579.845	8444.95
580.206	8478.62
580.566	8468.45
580.927	8469.35
581.287	8514.32
581.648	8457.83
582.008	8567.43
582.368	8465.29
582.728	8518.62
583.089	8580.54
583.449	8659.63
583.809	8570.14
584.169	8599.97
584.529	8636.81
584.889	8671.16
585.249	8546.41
585.609	8568.79
585.969	8578.73
586.329	8550.48
586.688	8601.78
587.048	8613.98
587.408	8588.45
587.768	8563.14
588.127	8551.84
588.487	8633.64
588.846	8691.27
589.206	8585.96
589.565	8542.35
589.925	8640.2
590.284	8573.98
590.643	8697.82
591.003	8627.99
591.362	8684.94
591.721	8652.4
592.08	8603.59
592.44	8673.42
592.799	8682
593.158	8643.13
593.517	8661.21
593.876	8663.47
594.235	8691.72
594.593	8607.2
594.952	8705.73
595.311	8628.9
595.67	8651.27
596.029	8718.16
596.387	8688.1
596.746	8686.97
597.104	8757.93
597.463	8643.36
597.822	8709.8
598.18	8682.91
598.538	8676.81
598.897	8727.88
599.255	8688.33
599.613	8785.96
599.972	8741.44
600.33	8793.19
600.688	8708.22
601.046	8690.59
601.404	8774.43
601.762	8753.19
602.12	8772.4
602.478	8762.45
602.836	8801.77
603.194	8757.71
603.552	8836.58
603.91	8733.08
604.268	8820.08
604.625	8705.73
604.983	8825.5
605.341	8746.86
605.698	8844.26
606.056	8885.61
606.413	8796.12
606.771	8834.99
607.128	8817.37
607.485	8837.03
607.843	8828.21
608.2	8843.13
608.557	8916.8
608.914	8895.78
609.272	8921.09
609.629	8903.47
609.986	8971.49
610.343	8835.22
610.7	8947.31
611.057	8907.99
611.414	8960.64
611.771	8954.76
612.127	9008.1
612.484	8988.44
612.841	8991.6
613.198	8980.98
613.554	8952.28
613.911	8970.13
614.267	9060.07
614.624	9051.26
614.98	9009.45
615.337	9081.54
615.693	9071.82
616.05	9045.61
616.406	9112.27
616.762	9098.72
617.118	9042.67
617.475	9098.26
617.831	9148.88
618.187	9159.96
618.543	9038.83
618.899	9129.9
619.255	9191.82
619.611	9100.52
619.967	9099.62
620.323	9198.15
620.678	9189.11
621.034	9134.19
621.39	9165.83
621.746	9137.13
622.101	9136.91
622.457	9148.66
622.812	9166.28
623.168	9207.19
623.523	9138.94
623.879	9219.16
624.234	9196.11
624.589	9182.78
624.945	9235.21
625.3	9255.32
625.655	9151.82
626.01	9195.44
626.365	9179.62
626.72	9154.99
627.075	9166.51
627.43	9241.99
627.785	9194.76
628.14	9257.13
628.495	9197.47
628.85	9230.24
629.205	9225.72
629.559	9162.67
629.914	9132.84
630.269	9162.22
630.623	9208.54
630.978	9149.34
631.332	9197.24
631.687	9241.31
632.041	9154.76
632.396	9200.63
632.75	9193.18
633.104	9121.54
633.459	9085.16
633.813	9182.56
634.167	9124.48
634.521	9043.8
634.875	9098.49
635.229	9080.86
635.583	9106.17
635.937	9070.69
636.291	9058.04
636.645	9043.12
636.999	9043.58
637.352	8991.37
637.706	9011.49
638.06	9089.68
638.413	9046.29
638.767	9050.36
639.121	9063.46
639.474	8983.92
639.828	8955.67
640.181	8978.49
640.534	8988.89
640.888	8978.04
641.241	8962.22
641.594	8927.42
641.947	8930.58
642.301	8963.58
642.654	8940.75
643.007	8963.58
643.36	8896.46
643.713	8975.78
644.066	8974.43
644.419	8936.46
644.771	8830.93
645.124	8741.66
645.477	8830.93
645.83	8718.84
646.182	8680.65
646.535	8683.13
646.888	8706.64
647.24	8632.06
647.593	8649.91
647.945	8696.69
648.298	8659.18
648.65	8626.86
649.002	8636.13
649.355	8672.74
649.707	8727.88
650.059	8693.53
650.411	8708.22
650.763	8764.04
651.115	8906.18
651.467	8862.79
651.819	8811.04
652.171	8834.32
652.523	8825.73
652.875	8851.26
653.227	8811.72
653.578	8822.79
653.93	8830.02
654.282	8861.66
654.633	8816.01
654.985	8850.59
655.337	8873.18
655.688	8844.48
656.039	8872.05
656.391	8825.05
656.742	8831.38
657.094	8878.83
657.445	8942.79
657.796	8862.56
658.147	8837.93
658.498	8820.53
658.849	8822.56
659.2	8796.58
659.551	8858.04
659.902	8825.05
660.253	8853.07
660.604	8816.92
660.955	8786.18
661.306	8857.82
661.656	8828.21
662.007	8798.61
662.358	8800.19
662.708	8871.83
663.059	8840.64
663.409	8772.62
663.76	8873.64
664.11	8793.19
664.461	8812.85
664.811	8804.71
665.161	8863.69
665.511	8772.62
665.862	8810.81
666.212	8791.38
666.562	8861.43
666.912	8827.99
667.262	8830.93
667.612	8837.48
667.962	8802.9
668.312	8818.72
668.662	8890.59
669.011	8817.14
669.361	8794.77
669.711	8764.71
670.06	8810.36
670.41	8772.4
670.76	8765.39
671.109	8787.99
671.459	8731.95
671.808	8706.18
672.157	8834.54
672.507	8726.3
672.856	8722
673.205	8741.89
673.554	8807.65
673.904	8757.71
674.253	8749.35
674.602	8797.03
674.951	8653.98
675.3	8577.37
675.649	8733.08
675.998	8660.53
676.346	8691.95
676.695	8755.22
677.044	8686.3
677.393	8671.16
677.741	8736.47
678.09	8650.82
678.438	8629.58
678.787	8623.7
679.135	8686.07
679.484	8587.77
679.832	8583.25
680.181	8608.33
680.529	8580.54
680.877	8567.88
681.225	8528.11
681.573	8607.66
681.922	8522.01
682.27	8523.82
682.618	8486.75
682.966	8480.43
683.314	8505.74
683.661	8524.72
684.009	8446.08
684.357	8427.77
684.705	8377.15
685.053	8478.39
685.4	8340.32
685.748	8374.67
686.095	8405.17
686.443	8327.21
686.79	8251.05
687.138	8323.14
687.485	8403.14
687.832	8287.21
688.18	8265.07
688.527	8256.03
688.874	8239.98
689.221	8142.58
689.568	8178.51
689.915	8207.44
690.262	8205.63
690.609	8140.32
690.956	8088.8
691.303	8080.21
691.65	8046.77
691.997	8103.04
692.344	8035.24
692.69	8028.01
693.037	7978.75
693.383	7944.4
693.73	7948.69
694.077	7927.9
694.423	7914.57
694.769	7880.22
695.116	7886.77
695.462	7806.32
695.808	7823.27
696.155	7859.88
696.501	7792.54
696.847	7772.87
697.193	7721.58
697.539	7705.08
697.885	7620.34
698.231	7583.28
698.577	7610.39
698.923	7579.21
699.269	7549.15
699.614	7533.56
699.96	7493.79
700.306	7492.88
700.651	7508.47
700.997	7450.17
701.342	7454.01
701.688	7446.78
702.033	7368.37
702.379	7341.47
702.724	7371.08
703.069	7393
703.415	7258.99
703.76	7216.73
704.105	7255.15
704.45	7247.92
704.795	7225.54
705.14	7163.85
705.485	7193.68
705.83	7170.4
706.175	7081.59
706.52	7154.13
706.865	7051.31
707.209	7129.28
707.554	7083.18
707.899	7142.16
708.243	7062.16
708.588	7088.82
708.932	6980.13
709.277	7031.43
709.621	6998.21
709.966	6970.64
710.31	6983.97
710.654	6880.47
710.998	6891.77
711.342	6944.65
711.687	6894.25
712.031	6896.29
712.375	6880.47
712.719	6840.92
713.063	6863.52
713.407	6816.06
713.75	6775.84
714.094	6822.17
714.438	6831.66
714.782	6863.75
715.125	6768.61
715.469	6755.05
715.812	6720.02
716.156	6631.44
716.499	6781.04
716.843	6760.47
717.186	6739
717.53	6763.64
717.873	6746.01
718.216	6689.29
718.559	6727.25
718.902	6661.49
719.246	6684.32
719.589	6668.72
719.932	6627.14
720.275	6635.28
720.617	6610.65
720.96	6660.36
721.303	6680.47
721.646	6601.61
721.989	6596.18
722.331	6650.87
722.674	6621.49
723.016	6654.03
723.359	6584.66
723.701	6607.03
724.044	6573.58
724.386	6559.12
724.729	6548.5
725.071	6588.95
725.413	6619.46
725.755	6588.73
726.097	6588.5
726.439	6574.71
726.782	6519.12
727.124	6550.53
727.465	6561.16
727.807	6540.14
728.149	6513.92
728.491	6546.01
728.833	6558.9
729.175	6429.63
729.516	6470.76
729.858	6485.45
730.199	6558.44
730.541	6480.71
730.882	6564.54
731.224	6564.32
731.565	6457.2
731.906	6482.74
732.248	6484.1
732.589	6514.6
732.93	6512.12
733.271	6459.01
733.612	6518.67
733.953	6530.87
734.294	6446.81
734.635	6469.41
734.976	6477.54
735.317	6440.71
735.658	6472.57
735.999	6493.13
736.339	6471.89
736.68	6489.97
737.021	6472.8
737.361	6447.94
737.702	6505.56
738.042	6504.21
738.383	6467.6
738.723	6454.04
739.063	6475.73
739.404	6472.12
739.744	6475.96
740.084	6457.66
740.424	6455.85
740.764	6437.54
741.104	6466.24
741.444	6486.81
741.784	6440.93
742.124	6443.64
742.464	6463.53
742.804	6438.45
743.143	6451.78
743.483	6463.76
743.823	6395.74
744.162	6413.59
744.502	6434.15
744.841	6407.03
745.181	6453.36
745.52	6403.65
745.86	6384.66
746.199	6419.69
746.538	6435.51
746.877	6464.43
747.216	6524.77
747.556	6420.59
747.895	6400.26
748.234	6380.37
748.573	6403.87
748.911	6442.51
749.25	6457.43
749.589	6388.96
749.928	6428.5
750.267	6384.21
750.605	6467.15
750.944	6409.07
751.283	6362.52
751.621	6428.96
751.96	6383.76
752.298	6368.17
752.636	6346.47
752.975	6343.99
753.313	6349.86
753.651	6341.73
753.989	6349.41
754.327	6322.29
754.666	6319.58
755.004	6357.77
755.342	6297.66
755.679	6285.23
756.017	6296.3
756.355	6305.12
756.693	6225.57
757.031	6268.73
757.368	6230.32
757.706	6234.84
758.044	6197.77
758.381	6234.38
758.719	6162.07
759.056	6200.71
759.394	6169.75
759.731	6164.56
760.068	6187.15
760.405	6195.52
760.743	6125.69
761.08	6126.59
761.417	6065.8
761.754	6059.47
762.091	6109.19
762.428	6056.99
762.765	6018.12
763.102	6022.86
763.438	6021.51
763.775	5992.81
764.112	6000.27
764.449	5987.61
764.785	6004.11
765.122	5963.88
765.458	5894.51
765.795	5859.7
766.131	5893.6
766.467	5884.79
766.804	5875.98
767.14	5816.54
767.476	5854.73
767.812	5845.69
768.148	5785.13
768.485	5744.91
768.821	5762.08
769.157	5734.74
769.492	5681.4
769.828	5743.78
770.164	5687.28
770.5	5729.09
770.836	5665.59
771.171	5671.69
771.507	5634.17
771.842	5552.37
772.178	5591.69
772.513	5584.68
772.849	5569.09
773.184	5528.64
773.519	5501.97
773.855	5531.8
774.19	5452.03
774.525	5460.39
774.86	5467.17
775.195	5478.7
775.53	5412.48
775.865	5412.26
776.2	5390.56
776.535	5339.27
776.87	5328.42
777.205	5318.48
777.539	5287.06
777.874	5286.39
778.209	5239.16
778.543	5226.28
778.878	5187.63
779.212	5228.53
779.547	5200.29
779.881	5260.17
780.215	5150.12
780.55	5212.72
780.884	5169.1
781.218	5171.59
781.552	5127.75
781.886	5113.51
782.22	5063.79
782.554	5043.45
782.888	5046.17
783.222	4998.48
783.556	4994.64
783.889	4951.25
784.223	4918.94
784.557	4967.75
784.89	4960.52
785.224	4922.78
785.557	4945.15
785.891	4885.49
786.224	4867.41
786.558	4857.92
786.891	4803.69
787.224	4786.51
787.557	4805.95
787.891	4818.15
788.224	4795.1
788.557	4781.99
788.89	4747.42
789.223	4763.69
789.556	4719.62
789.888	4702
790.221	4742.9
790.554	4645.5
790.887	4680.07
791.219	4662.9
791.552	4648.44
791.884	4603.47
792.217	4629.23
792.549	4631.04
792.882	4590.13
793.214	4558.5
793.546	4562.79
793.879	4525.95
794.211	4516.46
794.543	4517.37
794.875	4483.92
795.207	4509.68
795.539	4488.89
795.871	4447.31
796.203	4425.84
796.535	4438.5
796.867	4421.1
797.198	4411.83
797.53	4406.64
797.862	4344.72
798.193	4362.57
798.525	4372.29
798.856	4349.46
799.188	4272.18
799.519	4297.03
799.85	4290.25
800.182	4329.12
800.513	4280.31
800.844	4262.91
801.175	4251.61
801.506	4240.76
801.837	4201.67
802.168	4203.25
802.499	4208.22
802.83	4211.39
803.161	4229.47
803.491	4180.88
803.822	4188.56
804.153	4158.05
804.483	4163.48
804.814	4143.82
805.145	4156.25
805.475	4112.86
805.805	4158.51
806.136	4068.79
806.466	4051.39
806.796	4062.46
807.126	4046.42
807.457	4054.55
807.787	4023.82
808.117	4033.09
808.447	3994.67
808.777	4008.68
809.107	4002.35
809.436	4002.58
809.766	4015.23
810.096	3924.61
810.426	3976.36
810.755	3989.7
811.085	3941.79
811.414	3920.77
811.744	3910.6
812.073	3918.51
812.403	3946.08
812.732	3884.62
813.061	3900.21
813.39	3892.98
813.719	3836.26
814.049	3852.3
814.378	3852.75
814.707	3859.76
815.036	3843.71
815.365	3791.74
815.693	3817.95
816.022	3793.54
816.351	3778.86
816.68	3784.96
817.008	3785.41
817.337	3764.39
817.665	3746.31
817.994	3751.51
818.322	3747.67
818.651	3744.51
818.979	3712.87
819.307	3728.46
819.636	3720.55
819.964	3728.46
820.292	3700.44
820.62	3699.99
820.948	3659.99
821.276	3653.21
821.604	3696.15
821.932	3686.65
822.259	3704.28
822.587	3713.32
822.915	3669.25
823.243	3674.9
823.57	3657.5
823.898	3697.95
824.225	3633.32
824.553	3641.91
824.88	3655.69
825.207	3645.07
825.535	3656.37
825.862	3698.86
826.189	3657.95
826.516	3675.13
826.843	3675.81
827.17	3672.42
827.497	3720.55
827.824	3685.52
828.151	3694.56
828.478	3647.56
828.805	3707.22
829.131	3645.98
829.458	3646.88
829.785	3672.19
830.111	3637.62
830.438	3654.56
830.764	3708.57
831.09	3690.04
831.417	3669.93
831.743	3688.69
832.069	3693.21
832.395	3629.71
832.722	3643.72
833.048	3613.21
833.374	3691.85
833.7	3632.19
834.026	3585.41
834.351	3634.68
834.677	3656.6
835.003	3624.51
835.329	3638.29
835.654	3648.01
835.98	3620.22
836.306	3640.33
836.631	3579.31
836.956	3623.15
837.282	3576.15
837.607	3613.89
837.932	3583.38
838.258	3610.72
838.583	3579.09
838.908	3553.78
839.233	3589.93
839.558	3537.51
839.883	3555.36
840.208	3574.57
840.533	3551.29
840.858	3504.74
841.182	3520.56
841.507	3507.9
841.832	3490.95
842.156	3510.61
842.481	3508.58
842.805	3531.18
843.13	3517.85
843.454	3472.2
843.778	3467.9
844.103	3478.98
844.427	3444.85
844.751	3452.76
845.075	3430.84
845.399	3443.72
845.723	3426.32
846.047	3433.78
846.371	3389.71
846.695	3387.45
847.019	3394.91
847.343	3335.03
847.666	3363.73
847.99	3331.86
848.313	3323.95
848.637	3340
848.96	3303.16
849.284	3312.88
849.607	3266.1
849.931	3281.24
850.254	3266.33
850.577	3276.95
850.9	3242.37
851.223	3265.42
851.546	3207.8
851.869	3207.35
852.192	3165.76
852.515	3202.83
852.838	3162.6
853.161	3187.01
853.483	3138.19
853.806	3164.63
854.129	3160.11
854.451	3104.97
854.774	3093
855.096	3129.16
855.419	3116.5
855.741	3105.2
856.063	3056.39
856.385	3036.05
856.708	3069.95
857.03	3070.85
857.352	3057.97
857.674	3067.01
857.996	3026.78
858.318	3028.14
858.64	2986.11
858.961	3008.03
859.283	3019.33
859.605	2994.7
859.926	3010.97
860.248	2970.29
860.57	2985.2
860.891	2942.49
861.212	2939.33
861.534	2930.74
861.855	2940.69
862.176	2956.05
862.498	2946.56
862.819	2930.97
863.14	2916.51
863.461	2936.39
863.782	2902.49
864.103	2908.37
864.424	2920.8
864.745	2921.7
865.065	2906.34
865.386	2865.89
865.707	2935.04
866.027	2918.99
866.348	2861.14
866.668	2873.57
866.989	2841.25
867.309	2887.81
867.63	2853.68
867.95	2856.17
868.27	2824.08
868.59	2841.7
868.91	2793.12
869.23	2828.82
869.55	2820.69
869.87	2851.65
870.19	2823.63
870.51	2846.68
870.83	2822.95
871.15	2828.82
871.469	2805.55
871.789	2800.58
872.109	2830.86
872.428	2791.99
872.748	2808.26
873.067	2784.53
873.386	2767.13
873.706	2763.74
874.025	2773.68
874.344	2794.93
874.663	2794.02
874.982	2775.49
875.301	2779.11
875.62	2795.6
875.939	2724.19
876.258	2754.02
876.577	2749.5
876.896	2747.7
877.214	2728.26
877.533	2746.79
877.852	2721.93
878.17	2676.29
878.489	2736.17
878.807	2758.54
879.125	2716.06
879.444	2710.41
879.762	2754.7
880.08	2709.28
880.398	2683.74
880.716	2692.1
881.034	2688.71
881.352	2697.98
881.67	2705.89
881.988	2669.28
882.306	2664.31
882.624	2651.88
882.941	2657.3
883.259	2658.66
883.577	2623.63
883.894	2634.03
884.212	2636.74
884.529	2644.87
884.846	2623.18
885.164	2639.9
885.481	2617.53
885.798	2619.11
886.115	2598.32
886.432	2581.15
886.75	2588.6
887.067	2600.58
887.383	2576.63
887.7	2590.41
888.017	2558.32
888.334	2576.85
888.651	2564.2
888.967	2546.35
889.284	2553.8
889.6	2509.51
889.917	2544.31
890.233	2507.7
890.55	2494.14
890.866	2516.74
891.182	2494.6
891.498	2515.61
891.815	2517.87
892.131	2462.73
892.447	2467.48
892.763	2483.07
893.079	2464.09
893.395	2436.74
893.71	2467.93
894.026	2463.18
894.342	2436.52
894.657	2437.42
894.973	2444.88
895.289	2424.54
895.604	2442.85
895.92	2384.32
896.235	2374.6
896.55	2401.72
896.865	2368.95
897.181	2386.8
897.496	2384.99
897.811	2378.21
898.126	2376.41
898.441	2348.16
898.756	2346.8
899.071	2367.14
899.386	2342.74
899.7	2324.43
900.015	2331.66
900.33	2317.2
900.644	2335.5
900.959	2325.79
901.273	2269.97
901.588	2274.49
901.902	2283.08
902.216	2271.32
902.531	2279.23
902.845	2293.24
903.159	2231.55
903.473	2230.42
903.787	2239.91
904.101	2243.08
904.415	2210.99
904.729	2250.08
905.042	2221.38
905.356	2189.97
905.67	2211.67
905.984	2194.49
906.297	2197.88
906.611	2161.04
906.924	2185
907.237	2176.41
907.551	2138.9
907.864	2162.63
908.177	2147.94
908.491	2182.06
908.804	2144.32
909.117	2122.4
909.43	2079.69
909.743	2098.22
910.056	2074.04
910.368	2091.67
910.681	2046.47
910.994	2066.58
911.307	2047.38
911.619	2070.2
911.932	2073.14
912.244	2047.15
912.557	2036.53
912.869	2017.32
913.181	2000.6
913.494	2017.09
913.806	1984.55
914.118	2029.97
914.43	1970.09
914.742	2002.4
915.054	1964.21
915.366	1949.53
915.678	1970.32
915.99	1991.56
916.302	1982.97
916.613	1964.67
916.925	1937.55
917.236	1933.25
917.548	1909.75
917.859	1916.08
918.171	1882.41
918.482	1906.59
918.794	1883.99
919.105	1912.01
919.416	1864.56
919.727	1855.06
920.038	1893.71
920.349	1863.88
920.66	1850.54
920.971	1835.86
921.282	1843.99
921.593	1846.02
921.903	1823.43
922.214	1806.25
922.525	1803.31
922.835	1784.56
923.146	1812.81
923.456	1813.94
923.767	1794.95
924.077	1811
924.387	1777.78
924.697	1765.12
925.008	1772.81
925.318	1784.78
925.628	1782.98
925.938	1760.6
926.248	1734.62
926.558	1715.18
926.867	1730.77
927.177	1750.66
927.487	1706.14
927.796	1701.17
928.106	1711.57
928.416	1705.69
928.725	1695.97
929.034	1708.63
929.344	1695.07
929.653	1702.07
929.962	1656.2
930.271	1652.58
930.581	1670.89
930.89	1639.7
931.199	1654.62
931.508	1646.03
931.817	1638.12
932.125	1612.81
932.434	1597.44
932.743	1637.89
933.051	1622.08
933.36	1622.53
933.669	1605.81
933.977	1552.25
934.286	1576.43
934.594	1567.16
934.902	1565.35
935.21	1539.37
935.519	1535.98
935.827	1563.09
936.135	1553.15
936.443	1539.14
936.751	1533.49
937.059	1512.7
937.367	1533.49
937.674	1539.14
937.982	1535.52
938.29	1521.29
938.597	1547.28
938.905	1502.08
939.213	1515.19
939.52	1508.41
939.827	1502.08
940.135	1480.38
940.442	1492.81
940.749	1479.93
941.056	1502.31
941.363	1447.39
941.67	1437.22
941.977	1467.05
942.284	1463.89
942.591	1443.55
942.898	1445.58
943.205	1430.44
943.511	1407.62
943.818	1421.18
944.125	1394.96
944.431	1433.38
944.738	1409.43
945.044	1398.35
945.35	1405.58
945.657	1390.22
945.963	1403.1
946.269	1375.75
946.575	1384.34
946.881	1357.22
947.187	1386.38
947.493	1371.69
947.799	1354.29
948.105	1356.55
948.41	1379.14
948.716	1368.98
949.022	1364.23
949.327	1336.43
949.633	1342.54
949.938	1359.48
950.244	1335.76
950.549	1312.03
950.854	1306.83
951.16	1308.41
951.465	1327.85
951.77	1301.41
952.075	1306.83
952.38	1309.09
952.685	1323.55
952.99	1263.67
953.294	1296.21
953.599	1278.81
953.904	1239.04
954.209	1283.55
954.513	1271.12
954.818	1247.85
955.122	1262.09
955.426	1258.47
955.731	1245.14
956.035	1244.91
956.339	1218.7
956.643	1243.1
956.948	1201.97
957.252	1232.71
957.556	1230
957.86	1182.99
958.163	1253.72
958.467	1202.65
958.771	1214.18
959.075	1222.76
959.378	1194.97
959.682	1202.88
959.985	1187.96
960.289	1194.52
960.592	1171.69
960.896	1171.92
961.199	1197.23
961.502	1165.82
961.805	1178.92
962.108	1156.55
962.411	1124.46
962.714	1144.8
963.017	1173.73
963.32	1136.89
963.623	1141.64
963.926	1142.99
964.228	1140.28
964.531	1143.44
964.833	1126.5
965.136	1126.5
965.438	1110.9
965.741	1120.62
966.043	1124.46
966.345	1097.8
966.648	1115.87
966.95	1114.07
967.252	1095.08
967.554	1079.94
967.856	1105.48
968.158	1099.6
968.46	1082.2
968.761	1089.21
969.063	1093.95
969.365	1082.2
969.666	1056.22
969.968	1053.28
970.269	1048.08
970.571	1060.73
970.872	1055.54
971.174	1058.47
971.475	1022.54
971.776	1006.72
972.077	1035.88
972.378	1028.65
972.679	1011.24
972.98	1016.44
973.281	1001.75
973.582	1014.18
973.883	1019.61
974.183	1006.27
974.484	1028.65
974.785	982.09
975.085	1006.05
975.386	1025.03
975.686	987.74
975.986	983
976.287	975.77
976.587	1008.31
976.887	976.44
977.187	993.39
977.487	999.72
977.787	985.71
978.087	974.64
978.387	974.41
978.687	977.57
978.987	971.02
979.286	971.7
979.586	970.34
979.885	961.08
980.185	943
980.484	952.72
980.784	944.13
981.083	957.69
981.382	936.44
981.682	936.22
981.981	937.35
982.28	935.31
982.579	917.01
982.878	927.4
983.177	881.98
983.475	931.25
983.774	926.5
984.073	906.61
984.372	920.4
984.67	913.62
984.969	916.11
985.267	906.16
985.566	898.93
985.864	878.14
986.162	925.15
986.461	878.14
986.759	858.03
987.057	875.88
987.355	874.75
987.653	894.19
987.951	885.82
988.249	882.43
988.547	872.27
988.844	853.06
989.142	841.31
989.44	862.77
989.737	861.87
990.035	838.59
990.332	862.77
990.63	850.8
990.927	841.08
991.224	851.25
991.521	863.23
991.819	847.63
992.116	820.06
992.413	855.54
992.71	813.51
993.006	846.05
993.303	846.73
993.6	827.07
993.897	796.11
994.193	850.12
994.49	805.37
994.787	819.39
995.083	792.95
995.379	810.12
995.676	810.8
995.972	778.71
996.268	791.14
996.565	787.3
996.861	810.8
997.157	792.49
997.453	796.11
997.749	788.43
998.044	766.73
998.34	773.06
998.636	768.77
998.932	768.31
999.227	767.18
999.523	764.02
999.818	782.55
1000.114	759.27
1000.409	739.16
1000.704	753.17
1001	731.25
1001.295	759.5
1001.59	744.58
1001.885	744.13
1002.18	756.11
1002.475	729.67
1002.77	733.06
1003.065	740.29
1003.359	729.44
1003.654	746.62
1003.949	731.03
1004.243	726.96
1004.538	730.35
1004.832	713.17
1005.127	729.67
1005.421	710.69
1005.715	710.46
1006.009	691.25
1006.304	733.29
1006.598	698.94
1006.892	688.32
1007.186	709.56
1007.48	681.54
1007.773	710.46
1008.067	689.67
1008.361	687.19
1008.655	685.38
1008.948	707.75
1009.242	663.68
1009.535	674.76
1009.829	665.94
1010.122	678.82
1010.415	666.85
1010.708	683.57
1011.001	654.42
1011.295	660.52
1011.588	642.21
1011.881	660.07
1012.173	667.07
1012.466	654.87
1012.759	644.93
1013.052	639.73
1013.344	652.38
1013.637	658.71
1013.93	641.99
1014.222	648.09
1014.514	635.89
1014.807	634.31
1015.099	659.16
1015.391	636.34
1015.683	629.11
1015.976	627.53
1016.268	626.62
1016.56	631.14
1016.851	614.87
1017.143	620.97
1017.435	616
1017.727	597.92
1018.018	599.5
1018.31	604.02
1018.602	615.32
1018.893	606.06
1019.185	612.16
1019.476	610.8
1019.767	597.7
1020.058	582.78
1020.35	597.47
1020.641	607.19
1020.932	597.7
1021.223	548.21
1021.514	588.66
1021.804	566.28
1022.095	567.87
1022.386	562.67
1022.677	573.74
1022.967	579.17
1023.258	593.4
1023.548	570.58
1023.839	566.06
1024.129	561.99
1024.419	529.45
1024.709	539.39
1025	562.44
1025.29	541.65
1025.58	560.86
1025.87	525.16
1026.16	532.61
1026.449	554.08
1026.739	547.98
1027.029	529.22
1027.319	558.15
1027.608	539.62
1027.898	531.48
1028.187	551.14
1028.477	522.22
1028.766	527.64
1029.055	494.2
1029.344	548.21
1029.634	526.96
1029.923	531.48
1030.212	525.61
1030.501	533.97
1030.79	525.16
1031.078	498.49
1031.367	524.7
1031.656	500.75
1031.945	486.96
1032.233	521.31
1032.522	497.13
1032.81	498.94
1033.099	508.66
1033.387	494.2
1033.675	522.9
1033.963	490.13
1034.251	504.37
1034.54	477.02
1034.828	500.98
1035.116	498.26
1035.403	484.03
1035.691	493.29
1035.979	477.02
1036.267	487.87
1036.554	513.86
1036.842	469.34
1037.129	505.27
1037.417	480.86
1037.704	478.83
1037.992	470.02
1038.279	457.59
1038.566	468.43
1038.853	468.43
1039.14	468.43
