Data from mousepad_grey_FLMS001491_00079.txt Node
Date: Wed Feb 08 14:29:55 GMT 2017
User: dcchb
Spectrometer: FLMS00149
Trigger mode: 0
Integration Time (sec): 2.000000E-2
Scans to average: 10
Electric dark correction enabled: true
Nonlinearity correction enabled: false
Boxcar width: 0
XAxis mode: Wavelengths
Number of Pixels in Spectrum: 2048
>>>>>Begin Spectral Data<<<<<
341.393	-22.32
341.776	-22.32
342.16	-22.32
342.543	-58.93
342.927	-60.51
343.31	-69.55
343.693	-79.26
344.077	-60.05
344.46	-66.61
344.843	-59.15
345.226	-29.1
345.61	-33.84
345.993	-9.21
346.376	-2.43
346.759	-4.01
347.142	50.22
347.525	28.08
347.908	74.18
348.291	88.64
348.674	75.76
349.057	96.33
349.44	123.67
349.823	149.43
350.206	171.58
350.588	179.71
350.971	169.32
351.354	187.85
351.737	221.07
352.119	243.89
352.502	252.93
352.884	262.2
353.267	244.57
353.65	270.78
354.032	276.21
354.414	295.19
354.797	292.25
355.179	288.18
355.562	303.33
355.944	310.1
356.326	313.04
356.709	300.39
357.091	318.69
357.473	340.61
357.855	336.32
358.238	306.26
358.62	330.9
359.002	319.82
359.384	323.44
359.766	318.92
360.148	330.9
360.53	325.7
360.912	311.69
361.294	308.52
361.676	301.97
362.057	297.45
362.439	315.3
362.821	321.63
363.203	317.79
363.584	287.51
363.966	306.26
364.348	320.5
364.729	301.74
365.111	294.74
365.493	285.92
365.874	283.21
366.256	287.51
366.637	309.65
367.019	305.13
367.4	302.42
367.781	285.47
368.163	292.48
368.544	296.09
368.925	305.36
369.306	300.39
369.688	303.78
370.069	306.04
370.45	325.02
370.831	311.69
371.212	296.09
371.593	301.74
371.974	323.66
372.355	290.9
372.736	288.64
373.117	290.22
373.498	262.65
373.879	293.83
374.26	288.64
374.641	305.36
375.021	329.99
375.402	325.47
375.783	285.47
376.163	302.42
376.544	309.88
376.925	308.07
377.305	307.62
377.686	294.29
378.066	307.62
378.447	310.56
378.827	305.13
379.208	312.36
379.588	309.88
379.968	309.65
380.349	314.62
380.729	312.36
381.109	317.11
381.489	310.78
381.87	317.79
382.25	314.62
382.63	323.21
383.01	304.23
383.39	318.47
383.77	328.18
384.15	333.83
384.53	328.41
384.91	327.28
385.29	318.01
385.67	320.95
386.049	344.91
386.429	342.87
386.809	346.26
387.189	321.63
387.568	332.7
387.948	345.81
388.328	322.53
388.707	333.83
389.087	324.12
389.466	336.77
389.846	350.33
390.225	339.71
390.605	350.78
390.984	335.41
391.363	341.06
391.743	349.43
392.122	339.71
392.501	351.23
392.881	368.18
393.26	365.02
393.639	356.43
394.018	348.07
394.397	348.3
394.776	348.75
395.155	369.09
395.534	370.22
395.913	393.27
396.292	358.24
396.671	366.83
397.05	377.9
397.429	380.39
397.808	386.94
398.186	374.74
398.565	372.93
398.944	388.97
399.323	382.65
399.701	383.1
400.08	376.32
400.458	374.28
400.837	379.71
401.215	390.55
401.594	412.02
401.972	398.69
402.351	398.69
402.729	421.51
403.107	393.04
403.486	405.02
403.864	389.65
404.242	427.62
404.62	404.79
404.999	406.83
405.377	407.5
405.755	411.57
406.133	425.81
406.511	431.01
406.889	431.23
407.267	453.38
407.645	437.56
408.023	435.75
408.401	418.35
408.779	429.42
409.156	440.72
409.534	449.76
409.912	450.21
410.29	448.63
410.667	457.22
411.045	464
411.422	460.61
411.8	473.04
412.178	471.46
412.555	484.56
412.933	480.04
413.31	454.06
413.687	500.38
414.065	487.05
414.442	491.12
414.819	492.92
415.197	483.66
415.574	506.03
415.951	496.31
416.328	501.96
416.705	529.76
417.082	516.88
417.46	511.91
417.837	528.4
418.214	519.14
418.591	524.79
418.967	522.98
419.344	534.73
419.721	527.95
420.098	527.27
420.475	531.12
420.852	543.55
421.228	532.47
421.605	546.03
421.982	541.29
422.358	568.63
422.735	558.46
423.111	559.59
423.488	576.31
423.864	544.9
424.241	570.44
424.617	580.83
424.994	591.68
425.37	590.32
425.746	569.31
426.123	576.09
426.499	595.52
426.875	588.06
427.251	603.66
427.627	601.62
428.003	602.75
428.379	616.99
428.756	614.05
429.132	625.12
429.507	636.42
429.883	650.21
430.259	638.91
430.635	635.75
431.011	636.88
431.387	663.99
431.763	687.27
432.138	666.93
432.514	690.89
432.89	696.76
433.265	697.89
433.641	672.81
434.016	710.09
434.392	692.02
434.767	706.48
435.143	705.57
435.518	699.47
435.894	722.75
436.269	758
436.644	729.98
437.02	753.48
437.395	758
437.77	768.62
438.145	761.39
438.52	779.7
438.895	787.38
439.271	791
439.646	788.28
440.021	776.76
440.395	782.41
440.77	799.58
441.145	809.3
441.52	812.69
441.895	816.08
442.27	804.1
442.645	821.05
443.019	798.68
443.394	800.71
443.769	851.56
444.143	855.85
444.518	876.19
444.892	845.68
445.267	840.49
445.641	845.46
446.016	871.9
446.39	865.57
446.764	853.59
447.139	871.9
447.513	870.99
447.887	871.67
448.262	865.12
448.636	875.29
449.01	907.83
449.384	901.95
449.758	909.64
450.132	922.97
450.506	921.61
450.88	936.98
451.254	922.52
451.628	925.68
452.002	933.37
452.376	959.13
452.75	964.78
453.123	975.62
453.497	962.07
453.871	969.3
454.244	997.32
454.618	1021.95
454.992	1006.81
455.365	1014.04
455.739	1028.5
456.112	1039.35
456.486	1060.59
456.859	1069.41
457.232	1044.77
457.606	1053.59
457.979	1092.23
458.352	1136.3
458.725	1123.64
459.099	1115.06
459.472	1165
459.845	1132.46
460.218	1150.08
460.591	1152.34
460.964	1166.13
461.337	1191.44
461.71	1184.66
462.083	1211.1
462.456	1212
462.829	1221.72
463.201	1228.27
463.574	1245.9
463.947	1272.79
464.32	1283.86
464.692	1290.64
465.065	1279.12
465.438	1332.22
465.81	1322.51
466.183	1327.48
466.555	1358.66
466.928	1355.28
467.3	1374.03
467.672	1391.21
468.045	1416.52
468.417	1419.68
468.789	1435.27
469.161	1428.72
469.534	1487.02
469.906	1480.24
470.278	1499.68
470.65	1501.03
471.022	1537.87
471.394	1538.32
471.766	1541.94
472.138	1591.2
472.51	1623.74
472.882	1647.7
473.253	1673.46
473.625	1659.45
473.997	1701.71
474.369	1721.37
474.74	1734.25
475.112	1762.72
475.484	1777.41
475.855	1829.84
476.227	1805.66
476.598	1845.21
476.97	1869.84
477.341	1916.62
477.713	1945.54
478.084	1962.49
478.455	1990.29
478.827	1998.87
479.198	2065.99
479.569	2010.85
479.94	2112.54
480.311	2118.64
480.682	2155.25
481.053	2214.01
481.424	2251.07
481.795	2246.55
482.166	2289.71
482.537	2314.35
482.908	2335.36
483.279	2360.45
483.65	2394.34
484.021	2445.64
484.391	2474.34
484.762	2498.3
485.133	2501.69
485.503	2550.95
485.874	2590.5
486.244	2611.29
486.615	2683.6
486.985	2670.04
487.356	2718.4
487.726	2764.73
488.097	2799.53
488.467	2789.14
488.837	2861.45
489.207	2865.07
489.578	2940.32
489.948	2975.12
490.318	3004.72
490.688	3017.15
491.058	3043.14
491.428	3053.54
491.798	3122.01
492.168	3158.62
492.538	3192.97
492.908	3174.44
493.278	3245.39
493.648	3230.25
494.017	3280.65
494.387	3301.21
494.757	3334.21
495.126	3390.48
495.496	3361.1
495.866	3415.56
496.235	3453.98
496.605	3496.91
496.974	3512.96
497.344	3533.75
497.713	3516.35
498.082	3562.9
498.452	3630.47
498.821	3579.4
499.19	3649.23
499.559	3729.9
499.928	3686.97
500.298	3726.96
500.667	3754.53
501.036	3725.83
501.405	3772.39
501.774	3826.4
502.143	3813.52
502.512	3820.07
502.88	3832.05
503.249	3851.03
503.618	3889.22
503.987	3940.52
504.356	3905.49
504.724	3959.27
505.093	3999.95
505.462	3985.04
505.83	3985.71
506.199	4093.06
506.567	4068.42
506.936	4093.96
507.304	4157.46
507.672	4122.21
508.041	4188.65
508.409	4198.14
508.777	4232.26
509.145	4310.23
509.514	4297.8
509.882	4302.54
510.25	4308.42
510.618	4349.32
510.986	4397.23
511.354	4384.8
511.722	4449.88
512.09	4473.39
512.458	4465.02
512.826	4536.66
513.193	4516.1
513.561	4573.27
513.929	4570.33
514.297	4640.16
514.664	4696.88
515.032	4646.26
515.4	4741.63
515.767	4782.53
516.135	4764.23
516.502	4712.93
516.869	4804.45
517.237	4833.15
517.604	4834.28
517.972	4860.04
518.339	4938.91
518.706	4933.49
519.073	4961.73
519.44	4995.41
519.808	5031.79
520.175	5063.43
520.542	5105.91
520.909	5142.29
521.276	5148.85
521.643	5193.59
522.009	5214.38
522.376	5237.88
522.743	5250.99
523.11	5360.14
523.477	5371.67
523.843	5396.98
524.21	5486.24
524.577	5498.67
524.943	5572.79
525.31	5575.96
525.676	5605.33
526.043	5634.03
526.409	5630.87
526.776	5707.48
527.142	5753.35
527.508	5737.98
527.874	5832.67
528.241	5825.21
528.607	5865.66
528.973	5941.14
529.339	5929.62
529.705	5967.58
530.071	6049.61
530.437	6006
530.803	6082.83
531.169	6110.18
531.535	6112.21
531.901	6111.76
532.267	6166
532.632	6278.08
532.998	6225.66
533.364	6333
533.73	6310.17
534.095	6363.73
534.461	6365.54
534.826	6393.33
535.192	6417.29
535.557	6528.92
535.923	6472.43
536.288	6568.7
536.653	6582.48
537.019	6519.43
537.384	6603.05
537.749	6633.55
538.114	6646.44
538.479	6666.77
538.845	6763.95
539.21	6708.35
539.575	6768.47
539.94	6759.88
540.305	6802.14
540.67	6824.06
541.034	6850.72
541.399	6878.97
541.764	6888.24
542.129	6925.98
542.494	6963.26
542.858	6989.48
543.223	7017.73
543.587	7063.83
543.952	7071.73
544.316	7111.51
544.681	7058.4
545.045	7130.04
545.41	7205.52
545.774	7200.55
546.138	7209.13
546.503	7209.13
546.867	7269.02
547.231	7355.12
547.595	7299.53
547.959	7348.79
548.324	7381.56
548.688	7331.62
549.052	7401.22
549.416	7426.53
549.779	7484.38
550.143	7503.14
550.507	7546.98
550.871	7568.9
551.235	7540.88
551.599	7674.43
551.962	7643.02
552.326	7706.07
552.689	7752.4
553.053	7737.93
553.417	7729.34
553.78	7847.99
554.143	7830.13
554.507	7876.69
554.87	7875.1
555.234	7953.97
555.597	7964.37
555.96	7972.28
556.323	8036.46
556.686	7991.94
557.05	8052.95
557.413	8067.64
557.776	8167.75
558.139	8266.05
558.502	8168.88
558.865	8220.18
559.228	8260.63
559.59	8292.49
559.953	8350.35
560.316	8438.7
560.679	8407.97
561.041	8437.57
561.404	8493.84
561.767	8544.46
562.129	8450.23
562.492	8611.58
562.854	8639.15
563.217	8695.2
563.579	8659.94
563.941	8665.37
564.304	8770
564.666	8800.5
565.028	8836.43
565.39	8859.71
565.753	8863.78
566.115	8932.25
566.477	8964.57
566.839	8992.59
567.201	9010.22
567.563	9097.22
567.925	9113.26
568.287	9128.63
568.648	9162.3
569.01	9242.98
569.372	9274.16
569.734	9271.9
570.095	9265.12
570.457	9387.38
570.819	9322.75
571.18	9342.41
571.542	9384.44
571.903	9415.63
572.265	9483.65
572.626	9481.16
572.987	9534.27
573.349	9603.42
573.71	9623.53
574.071	9645.23
574.432	9647.49
574.794	9720.25
575.155	9672.57
575.516	9663.53
575.877	9711.21
576.238	9759.12
576.599	9774.94
576.96	9731.55
577.32	9834.6
577.681	9869.18
578.042	9868.95
578.403	9906.69
578.763	9883.64
579.124	9941.26
579.485	9957.31
579.845	10018.32
580.206	9890.42
580.566	9929.51
580.927	10092.45
581.287	10000.02
581.648	10015.84
582.008	10087.47
582.368	10012.45
582.728	10024.88
583.089	10073.01
583.449	10051.77
583.809	10025.78
584.169	10115.04
584.529	10075.27
584.889	10147.36
585.249	10127.93
585.609	10018.32
585.969	10079.11
586.329	10055.39
586.688	10102.62
587.048	10193.46
587.408	10162.28
587.768	10094.48
588.127	10190.07
588.487	10121.37
588.846	10184.87
589.206	10111.43
589.565	10108.49
589.925	10153.69
590.284	10150.3
590.643	10149.17
591.003	10165.89
591.362	10216.96
591.721	10181.71
592.08	10179.45
592.44	10138.77
592.799	10181.71
593.158	10160.24
593.517	10171.31
593.876	10194.36
594.235	10234.36
594.593	10228.94
594.952	10223.74
595.311	10295.83
595.67	10205.66
596.029	10270.52
596.387	10255.15
596.746	10243.63
597.104	10274.81
597.463	10244.76
597.822	10218.77
598.18	10218.77
598.538	10219.67
598.897	10317.75
599.255	10233.46
599.613	10338.99
599.972	10340.35
600.33	10301.48
600.688	10306.45
601.046	10360.01
601.404	10330.86
601.762	10343.51
602.12	10379.67
602.478	10393
602.836	10344.42
603.194	10373.34
603.552	10260.58
603.91	10297.64
604.268	10338.54
604.625	10347.58
604.983	10331.54
605.341	10328.15
605.698	10408.14
606.056	10454.24
606.413	10327.47
606.771	10386.9
607.128	10455.83
607.485	10357.07
607.843	10426.67
608.2	10498.31
608.557	10527.01
608.914	10463.51
609.272	10481.36
609.629	10485.43
609.986	10567.46
610.343	10493.34
610.7	10521.59
611.057	10487.24
611.414	10582.6
611.771	10521.81
612.127	10550.51
612.484	10568.82
612.841	10621.92
613.198	10547.35
613.554	10615.14
613.911	10629.38
614.267	10617.63
614.624	10588.03
614.98	10656.95
615.337	10687.23
615.693	10668.02
616.05	10686.1
616.406	10754.35
616.762	10705.76
617.118	10699.44
617.475	10681.13
617.831	10737.18
618.187	10731.53
618.543	10722.71
618.899	10764.97
619.255	10757.29
619.611	10788.47
619.967	10786.44
620.323	10891.52
620.678	10793.9
621.034	10785.99
621.39	10748.25
621.746	10774.46
622.101	10894.23
622.457	10800.45
622.812	10750.73
623.168	10851.52
623.523	10875.48
623.879	10819.21
624.234	10860.79
624.589	10804.74
624.945	10841.81
625.3	10830.28
625.655	10808.81
626.01	10831.18
626.365	10843.39
626.72	10782.15
627.075	10896.72
627.43	10872.54
627.785	10814.24
628.14	10804.52
628.495	10849.26
628.85	10823.5
629.205	10811.3
629.559	10872.31
629.914	10809.72
630.269	10809.26
630.623	10781.24
630.978	10752.77
631.332	10743.5
631.687	10869.83
632.041	10776.72
632.396	10723.84
632.75	10809.94
633.104	10772.2
633.459	10701.47
633.813	10626.67
634.167	10725.88
634.521	10682.04
634.875	10720.45
635.229	10693.11
635.583	10709.15
635.937	10657.18
636.291	10626.22
636.645	10672.32
636.999	10642.71
637.352	10653.56
637.706	10587.35
638.06	10616.27
638.413	10627.57
638.767	10595.26
639.121	10637.97
639.474	10497.18
639.828	10589.83
640.181	10522.72
640.534	10629.83
640.888	10532.89
641.241	10560.23
641.594	10591.87
641.947	10547.12
642.301	10530.18
642.654	10612.21
643.007	10553.45
643.36	10524.3
643.713	10544.19
644.066	10497.63
644.419	10459.89
644.771	10463.28
645.124	10353.23
645.477	10306.9
645.83	10287.7
646.182	10164.76
646.535	10256.96
646.888	10221.03
647.24	10206.79
647.593	10208.83
647.945	10234.59
648.298	10118.21
648.65	10174.03
649.002	10115.27
649.355	10217.87
649.707	10163.41
650.059	10183.74
650.411	10281.59
650.763	10310.97
651.115	10410.86
651.467	10377.64
651.819	10388.94
652.171	10395.26
652.523	10356.62
652.875	10331.54
653.227	10355.04
653.578	10397.98
653.93	10396.85
654.282	10341.93
654.633	10345.1
654.985	10320.92
655.337	10354.13
655.688	10357.98
656.039	10358.88
656.391	10238.21
656.742	10332.67
657.094	10380.8
657.445	10424.19
657.796	10345.1
658.147	10299.22
658.498	10336.96
658.849	10371.31
659.2	10335.15
659.551	10264.19
659.902	10309.39
660.253	10422.83
660.604	10286.11
660.955	10312.33
661.306	10322.5
661.656	10324.3
662.007	10338.54
662.358	10363.85
662.708	10304.19
663.059	10325.89
663.409	10280.46
663.76	10329.95
664.11	10276.4
664.461	10336.73
664.811	10302.61
665.161	10331.08
665.511	10308.03
665.862	10305.32
666.212	10313.23
666.562	10326.79
666.912	10322.04
667.262	10309.16
667.612	10368.37
667.962	10364.3
668.312	10355.94
668.662	10359.11
669.011	10318.2
669.361	10351.42
669.711	10287.47
670.06	10347.81
670.41	10278.66
670.76	10254.48
671.109	10298.99
671.459	10177.64
671.808	10189.62
672.157	10327.92
672.507	10241.14
672.856	10191.2
673.205	10256.96
673.554	10229.17
673.904	10199.56
674.253	10278.66
674.602	10193.46
674.951	10111.66
675.3	9982.39
675.649	10166.12
675.998	10147.59
676.346	10165.21
676.695	10121.6
677.044	10063.75
677.393	10094.71
677.741	10202.73
678.09	10139.22
678.438	10117.08
678.787	10087.7
679.135	10102.84
679.484	9990.3
679.832	10025.78
680.181	10081.15
680.529	10049.06
680.877	10044.76
681.225	10010.64
681.573	10068.49
681.922	9934.48
682.27	9963.86
682.618	9936.97
682.966	9911.21
683.314	9920.7
683.661	9830.76
684.009	9840.7
684.357	9878.21
684.705	9889.51
685.053	9774.04
685.4	9812.68
685.748	9796.18
686.095	9704.21
686.443	9721.83
686.79	9732.23
687.138	9690.2
687.485	9726.58
687.832	9666.02
688.18	9684.55
688.527	9572.46
688.874	9584.66
689.221	9539.01
689.568	9505.12
689.915	9519.81
690.262	9548.51
690.609	9475.06
690.956	9442.52
691.303	9464.89
691.65	9328.4
691.997	9379.47
692.344	9302.64
692.69	9287.95
693.037	9406.59
693.383	9283.43
693.73	9240.49
694.077	9221.73
694.423	9269.87
694.769	9202.75
695.116	9155.52
695.462	9153.71
695.808	9082.76
696.155	9142.19
696.501	9082.53
696.847	9059.93
697.193	8974.51
697.539	9056.99
697.885	8938.35
698.231	8867.17
698.577	8899.94
698.923	8894.51
699.269	8889.77
699.614	8791.69
699.96	8806.83
700.306	8722.99
700.651	8719.6
700.997	8705.36
701.342	8713.73
701.688	8673.95
702.033	8644.12
702.379	8630.34
702.724	8583.33
703.069	8626.95
703.415	8551.7
703.76	8501.98
704.105	8508.76
704.45	8442.32
704.795	8463.79
705.14	8410.68
705.485	8394.64
705.83	8321.19
706.175	8443.68
706.52	8310.12
706.865	8323.23
707.209	8311.25
707.554	8246.85
707.899	8311.48
708.243	8199.61
708.588	8260.18
708.932	8183.34
709.277	8214.3
709.621	8185.15
709.966	8105.15
710.31	8146.73
710.654	8060.18
710.998	8080.97
711.342	8142.44
711.687	8032.39
712.031	8001.88
712.375	8013.41
712.719	8009.11
713.063	8017.92
713.407	8019.28
713.75	7961.66
714.094	8010.47
714.438	7972.73
714.782	7963.46
715.125	7841.88
715.469	7912.84
715.812	7884.37
716.156	7859.28
716.499	7892.73
716.843	7855.22
717.186	7779.96
717.53	7904.71
717.873	7836.23
718.216	7908.1
718.559	7872.84
718.902	7759.4
719.246	7765.73
719.589	7770.02
719.932	7729.57
720.275	7755.78
720.617	7777.93
720.96	7706.29
721.303	7735.22
721.646	7753.52
721.989	7683.7
722.331	7682.34
722.674	7710.36
723.016	7697.48
723.359	7644.38
723.701	7755.78
724.044	7697.48
724.386	7607.99
724.729	7656.8
725.071	7751.27
725.413	7650.25
725.755	7651.83
726.097	7691.15
726.439	7618.61
726.782	7625.39
727.124	7610.25
727.465	7638.95
727.807	7564.83
728.149	7541.1
728.491	7576.81
728.833	7625.17
729.175	7562.57
729.516	7509.24
729.858	7521.44
730.199	7552.85
730.541	7591.72
730.882	7512.4
731.224	7565.96
731.565	7514.21
731.906	7545.17
732.248	7550.82
732.589	7453.65
732.93	7494.55
733.271	7450.93
733.612	7520.54
733.953	7531.84
734.294	7510.82
734.635	7487.54
734.976	7531.84
735.317	7535.45
735.658	7498.39
735.999	7518.05
736.339	7503.59
736.68	7567.77
737.021	7480.09
737.361	7470.59
737.702	7524.83
738.042	7423.14
738.383	7464.49
738.723	7498.84
739.063	7477.83
739.404	7486.41
739.744	7471.5
740.084	7431.05
740.424	7445.51
740.764	7423.36
741.104	7427.43
741.444	7436.25
741.784	7396.47
742.124	7492.97
742.464	7455.45
742.804	7444.83
743.143	7450.48
743.483	7381.11
743.823	7396.02
744.162	7408.68
744.502	7478.5
744.841	7387.21
745.181	7435.57
745.52	7405.74
745.86	7402.35
746.199	7386.98
746.538	7417.94
746.877	7422.69
747.216	7423.59
747.556	7371.61
747.895	7463.82
748.234	7327.77
748.573	7411.16
748.911	7377.49
749.25	7361.22
749.589	7339.75
749.928	7369.81
750.267	7360.54
750.605	7396.25
750.944	7351.73
751.283	7394.44
751.621	7345.85
751.96	7307.89
752.298	7325.51
752.636	7377.49
752.975	7306.31
753.313	7257.27
753.651	7273.99
753.989	7222.24
754.327	7250.26
754.666	7240.32
755.004	7263.59
755.342	7219.53
755.679	7243.93
756.017	7249.13
756.355	7208.68
756.693	7244.39
757.031	7252.97
757.368	7120.1
757.706	7140.21
758.044	7131.39
758.381	7117.38
758.719	7107.89
759.056	7105.86
759.394	7095.69
759.731	7035.35
760.068	7039.19
760.405	7060.66
760.743	6946.99
761.08	7001.68
761.417	6966.88
761.754	6951.74
762.091	7007.33
762.428	6921.91
762.765	6870.61
763.102	6963.72
763.438	6895.92
763.775	6923.04
764.112	6848.01
764.449	6846.43
764.785	6830.39
765.122	6809.37
765.458	6831.74
765.795	6748.13
766.131	6797.17
766.467	6736.6
766.804	6667.23
767.14	6670.16
767.476	6660.22
767.812	6657.06
768.148	6621.35
768.485	6574.12
768.821	6563.5
769.157	6548.13
769.492	6537.74
769.828	6597.85
770.164	6490.28
770.5	6505.2
770.836	6441.47
771.171	6417.29
771.507	6394.24
771.842	6381.36
772.178	6369.38
772.513	6347.46
772.849	6380.45
773.184	6306.56
773.519	6301.59
773.855	6297.74
774.19	6223.85
774.525	6220.23
774.86	6239.21
775.195	6176.17
775.53	6147.47
775.865	6162.61
776.2	6136.62
776.535	6067.92
776.87	6094.81
777.205	6040.35
777.539	6036.73
777.874	6038.99
778.209	5982.05
778.543	6013.01
778.878	5963.29
779.212	5937.3
779.547	5912.44
779.881	5988.6
780.215	5925.1
780.55	5898.88
780.884	5833.58
781.218	5844.2
781.552	5815.27
781.886	5807.14
782.22	5781.6
782.554	5746.8
782.888	5661.15
783.222	5695.27
783.556	5653.24
783.889	5629.96
784.223	5659.79
784.557	5596.07
784.89	5610.98
785.224	5609.4
785.557	5577.54
785.891	5579.12
786.224	5537.09
786.558	5558.1
786.891	5484.66
787.224	5503.41
787.557	5478.1
787.891	5442.4
788.224	5446.47
788.557	5439.69
788.89	5419.8
789.223	5404.66
789.556	5360.82
789.888	5363.53
790.221	5370.08
790.554	5307.26
790.887	5304.1
791.219	5293.7
791.552	5300.71
791.884	5256.42
792.217	5247.6
792.549	5235.17
792.882	5174.38
793.214	5135.29
793.546	5215.51
793.879	5137.32
794.211	5111.11
794.543	5191.78
794.875	5134.16
795.207	5117.66
795.539	5130.09
795.871	5047.83
796.203	5069.08
796.535	5036.76
796.867	5013.71
797.198	5014.61
797.53	4955.86
797.862	4958.57
798.193	4968.51
798.525	4941.62
798.856	4955.86
799.188	4894.39
799.519	4906.37
799.85	4845.8
800.182	4831.12
800.513	4861.85
800.844	4826.6
801.175	4900.49
801.506	4842.42
801.837	4838.35
802.168	4789.31
802.499	4815.3
802.83	4792.25
803.161	4764
803.491	4722.64
803.822	4737.56
804.153	4718.58
804.483	4708.18
804.814	4669.54
805.145	4711.12
805.475	4684.45
805.805	4649.43
806.136	4605.81
806.466	4602.65
806.796	4618.01
807.126	4608.3
807.457	4539.82
807.787	4565.36
808.117	4562.2
808.447	4521.97
808.777	4550.67
809.107	4514.97
809.436	4588.18
809.766	4547.96
810.096	4531.24
810.426	4452.59
810.755	4507.73
811.085	4475.19
811.414	4455.98
811.744	4465.25
812.073	4442.43
812.403	4437.91
812.732	4377.34
813.061	4426.61
813.39	4384.35
813.719	4388.42
814.049	4382.31
814.378	4407.17
814.707	4369.89
815.036	4357.91
815.365	4312.94
815.693	4280.62
816.022	4273.39
816.351	4263.45
816.68	4263.45
817.008	4304.35
817.337	4279.94
817.665	4236.56
817.994	4259.15
818.322	4248.76
818.651	4205.14
818.979	4217.12
819.307	4237.69
819.636	4170.57
819.964	4151.36
820.292	4203.11
820.62	4195.65
820.948	4164.47
821.276	4146.61
821.604	4206.05
821.932	4162.43
822.259	4146.16
822.587	4184.35
822.915	4151.81
823.243	4213.96
823.57	4190.68
823.898	4208.99
824.225	4146.39
824.553	4193.39
824.88	4189.78
825.207	4140.74
825.535	4163.34
825.862	4153.17
826.189	4136.67
826.516	4142.77
826.843	4156.78
827.17	4158.59
827.497	4162.66
827.824	4167.18
828.151	4155.2
828.478	4158.82
828.805	4165.14
829.131	4126.95
829.458	4143
829.785	4125.37
830.111	4145.48
830.438	4176.9
830.764	4139.38
831.09	4161.3
831.417	4170.34
831.743	4110
832.069	4133.73
832.395	4137.35
832.722	4147.74
833.048	4095.09
833.374	4129.44
833.7	4106.16
834.026	4105.94
834.351	4122.43
834.677	4136.22
835.003	4151.13
835.329	4134.64
835.654	4079.05
835.98	4060.97
836.306	4127.41
836.631	4063
836.956	4070.23
837.282	4050.8
837.607	4054.87
837.932	4050.35
838.258	4081.08
838.583	4102.1
838.908	4056.67
839.233	4024.13
839.558	3997.47
839.883	3978.71
840.208	4004.02
840.533	4028.88
840.858	4027.3
841.182	3968.09
841.507	3976
841.832	3949.33
842.156	3963.12
842.481	3920.63
842.805	3974.64
843.13	3927.64
843.454	3931.93
843.778	3917.69
844.103	3933.96
844.427	3898.26
844.751	3912.5
845.075	3884.47
845.399	3906.17
845.723	3872.95
846.047	3893.97
846.371	3830.24
846.695	3870.69
847.019	3806.96
847.343	3827.3
847.666	3800.18
847.99	3763.12
848.313	3782.56
848.637	3717.25
848.96	3757.25
849.284	3773.29
849.607	3715.21
849.931	3726.29
850.254	3648.32
850.577	3700.52
850.9	3662.11
851.223	3664.37
851.546	3587.76
851.869	3590.47
852.192	3612.62
852.515	3580.98
852.838	3574.2
853.161	3590.7
853.483	3586.18
853.806	3527.87
854.129	3527.2
854.451	3519.06
854.774	3517.03
855.096	3461.43
855.419	3495.78
855.741	3527.65
856.063	3444.26
856.385	3497.82
856.708	3471.15
857.03	3441.77
857.352	3419.18
857.674	3447.2
857.996	3409.91
858.318	3392.06
858.64	3429.57
858.961	3359.06
859.283	3366.75
859.605	3349.8
859.926	3387.76
860.248	3369.91
860.57	3376.69
860.891	3322
861.212	3327.88
861.534	3316.13
861.855	3301.89
862.176	3335.11
862.498	3290.37
862.819	3320.2
863.14	3317.71
863.461	3294.43
863.782	3266.64
864.103	3303.92
864.424	3257.15
864.745	3267.54
865.065	3261.89
865.386	3259.86
865.707	3227.77
866.027	3246.98
866.348	3277.03
866.668	3261.44
866.989	3267.32
867.309	3197.03
867.63	3223.02
867.95	3231.16
868.27	3188
868.59	3191.61
868.91	3211.72
869.23	3211.95
869.55	3174.44
869.87	3213.53
870.19	3204.04
870.51	3191.16
870.83	3169.69
871.15	3173.31
871.469	3197.71
871.789	3157.26
872.109	3145.51
872.428	3152.74
872.748	3130.6
873.067	3128.79
873.386	3118.84
873.706	3139.41
874.025	3113.87
874.344	3128.79
874.663	3141.89
874.982	3158.62
875.301	3146.87
875.62	3120.43
875.939	3107.09
876.258	3099.86
876.577	3092.18
876.896	3084.5
877.214	3068
877.533	3106.19
877.852	3093.53
878.17	3116.58
878.489	3098.73
878.807	3039.07
879.125	3063.03
879.444	3087.88
879.762	3043.37
880.08	3055.12
880.398	2996.36
880.716	3018.73
881.034	3015.34
881.352	3049.69
881.67	2997.49
881.988	3044.72
882.306	3038.39
882.624	2990.71
882.941	2986.42
883.259	2981.45
883.577	2986.64
883.894	2938.96
884.212	2945.97
884.529	2961.11
884.846	2969.24
885.164	2967.21
885.481	2954.56
885.798	2981.22
886.115	2922.01
886.432	2906.87
886.75	2894.44
887.067	2930.15
887.383	2899.42
887.7	2937.38
888.017	2905.06
888.334	2913.65
888.651	2881.56
888.967	2893.77
889.284	2874.78
889.6	2827.78
889.917	2871.17
890.233	2852.64
890.55	2856.7
890.866	2816.03
891.182	2825.74
891.498	2828
891.815	2838.63
892.131	2783.03
892.447	2804.95
892.763	2813.09
893.079	2812.41
893.395	2763.37
893.71	2797.5
894.026	2765.41
894.342	2713.21
894.657	2702.13
894.973	2701
895.289	2756.14
895.604	2727.67
895.92	2706.2
896.235	2670.95
896.55	2656.03
896.865	2691.74
897.181	2694
897.496	2661
897.811	2654.22
898.126	2624.62
898.441	2647.67
898.756	2636.15
899.071	2644.96
899.386	2628.91
899.7	2592.98
900.015	2583.72
900.33	2584.17
900.644	2574
900.959	2587.33
901.273	2578.75
901.588	2571.06
901.902	2564.51
902.216	2515.47
902.531	2521.12
902.845	2495.36
903.159	2510.27
903.473	2484.06
903.787	2517.73
904.101	2513.66
904.415	2489.26
904.729	2472.53
905.042	2477.28
905.356	2461.91
905.67	2434.12
905.984	2454.46
906.297	2436.15
906.611	2436.15
906.924	2452.42
907.237	2423.72
907.551	2393.44
907.864	2386.21
908.177	2395.25
908.491	2389.15
908.804	2393.67
909.117	2335.59
909.43	2336.27
909.743	2362.71
910.056	2341.69
910.368	2314.8
910.681	2317.74
910.994	2317.28
911.307	2281.13
911.619	2295.36
911.932	2297.4
912.244	2286.1
912.557	2294.46
912.869	2261.24
913.181	2272.31
913.494	2260.34
913.806	2241.81
914.118	2259.88
914.43	2221.92
914.742	2221.02
915.054	2220.79
915.366	2194.35
915.678	2203.39
915.99	2204.07
916.302	2201.81
916.613	2173.56
916.925	2125.65
917.236	2122.49
917.548	2153.22
917.859	2165.2
918.171	2145.08
918.482	2132.88
918.794	2131.3
919.105	2123.62
919.416	2090.17
919.727	2089.72
920.038	2102.15
920.349	2073.67
920.66	2079.32
920.971	2074.13
921.282	2086.56
921.593	2059.44
921.903	2063.28
922.214	2068.02
922.525	2004.3
922.835	2024.18
923.146	2021.25
923.456	1983.51
923.767	2011.3
924.077	2024.41
924.387	1990.29
924.697	2014.47
925.008	1998.87
925.318	1954.58
925.628	1953.68
925.938	1963.39
926.248	1943.06
926.558	1932.44
926.867	1942.6
927.177	1953.9
927.487	1930.63
927.796	1896.28
928.106	1910.51
928.416	1873.23
928.725	1911.64
929.034	1876.39
929.344	1878.2
929.653	1898.76
929.962	1849.95
930.271	1853.34
930.581	1842.27
930.89	1875.94
931.199	1838.43
931.508	1848.37
931.817	1847.69
932.125	1833.45
932.434	1826.9
932.743	1807.01
933.051	1775.38
933.36	1803.17
933.669	1774.25
933.977	1777.86
934.286	1815.38
934.594	1753.68
934.902	1735.38
935.21	1724.08
935.519	1746.68
935.827	1754.13
936.135	1743.51
936.443	1728.37
936.751	1714.36
937.059	1734.93
937.367	1707.81
937.674	1708.03
937.982	1684.76
938.29	1696.74
938.597	1701.25
938.905	1670.3
939.213	1668.26
939.52	1669.39
939.827	1669.62
940.135	1625.78
940.442	1663.74
940.749	1647.92
941.056	1641.37
941.363	1615.38
941.67	1624.19
941.977	1638.66
942.284	1576.06
942.591	1615.38
942.898	1605.66
943.205	1586.91
943.511	1591.2
943.818	1588.49
944.125	1573.8
944.431	1564.99
944.738	1556.4
945.044	1559.79
945.35	1525.67
945.657	1558.66
945.963	1528.83
946.269	1508.72
946.575	1532.67
946.881	1514.37
947.187	1520.02
947.493	1522.05
947.799	1506.46
948.105	1488.15
948.41	1490.19
948.716	1494.93
949.022	1491.32
949.327	1496.51
949.633	1490.86
949.938	1487.25
950.244	1508.27
950.549	1479.11
950.854	1462.39
951.16	1450.64
951.465	1458.32
951.77	1443.41
952.075	1456.52
952.38	1447.02
952.685	1436.4
952.99	1397.99
953.294	1396.18
953.599	1409.06
953.904	1423.97
954.209	1393.01
954.513	1401.6
954.818	1432.34
955.122	1385.33
955.426	1410.64
955.731	1406.8
956.035	1349.4
956.339	1363.86
956.643	1343.98
956.948	1350.3
957.252	1335.39
957.556	1340.36
957.86	1373.13
958.163	1349.85
958.467	1341.26
958.771	1335.39
959.075	1336.29
959.378	1318.44
959.682	1346.91
959.985	1282.28
960.289	1327.93
960.592	1261.04
960.896	1334.48
961.199	1285.45
961.502	1278.21
961.805	1289.29
962.108	1268.5
962.411	1263.75
962.714	1264.2
963.017	1293.58
963.32	1253.13
963.623	1240.93
963.926	1277.09
964.228	1254.03
964.531	1246.58
964.833	1230.53
965.136	1238.67
965.438	1245.67
965.741	1209.74
966.043	1239.35
966.345	1215.84
966.648	1219.91
966.95	1220.59
967.252	1202.96
967.554	1197.31
967.856	1226.46
968.158	1196.18
968.46	1206.13
968.761	1200.93
969.063	1180.36
969.365	1185.56
969.666	1176.07
969.968	1145.34
970.269	1167.03
970.571	1160.7
970.872	1183.53
971.174	1161.16
971.475	1187.6
971.776	1148.27
972.077	1143.3
972.378	1115.73
972.679	1142.63
972.98	1133.81
973.281	1103.3
973.582	1105.56
973.883	1118.67
974.183	1126.58
974.484	1138.78
974.785	1108.05
975.085	1119.12
975.386	1082.97
975.686	1085.45
975.986	1084.77
976.287	1079.58
976.587	1053.59
976.887	1087.71
977.187	1110.31
977.487	1081.61
977.787	1069.18
978.087	1049.07
978.387	1068.28
978.687	1069.86
978.987	1072.34
979.286	1042.29
979.586	1044.77
979.885	1050.42
980.185	1062.4
980.484	1025.11
980.784	1022.4
981.083	1033.25
981.382	1034.61
981.682	1002.06
981.981	995.28
982.28	1009.52
982.579	1013.14
982.878	1026.47
983.177	1012.91
983.475	1017.88
983.774	1004.1
984.073	995.96
984.372	995.51
984.67	979.01
984.969	983.53
985.267	975.85
985.566	991.67
985.864	977.66
986.162	970.88
986.461	973.14
986.759	961.39
987.057	946.92
987.355	925
987.653	963.65
987.951	936.76
988.249	968.84
988.547	941.73
988.844	946.47
989.142	950.99
989.44	958.45
989.737	946.47
990.035	930.2
990.332	917.55
990.63	900.82
990.927	936.98
991.224	922.52
991.521	941.05
991.819	922.97
992.116	909.19
992.413	914.61
992.71	922.74
993.006	901.5
993.303	870.32
993.6	878
993.897	906.25
994.193	859.47
994.49	883.65
994.787	878
995.083	889.52
995.379	871.45
995.676	893.59
995.972	849.98
996.268	849.07
996.565	868.06
996.861	850.2
997.157	852.24
997.453	856.76
997.749	854.05
998.044	841.84
998.34	838.68
998.636	854.27
998.932	835.29
999.227	819.92
999.523	843.2
999.818	831.9
1000.114	822.41
1000.409	830.77
1000.704	826.02
1001	793.26
1001.295	797.32
1001.59	802.3
1001.885	837.77
1002.18	810.88
1002.475	784.22
1002.77	803.65
1003.065	799.13
1003.359	781.5
1003.654	800.26
1003.949	788.51
1004.243	786.02
1004.538	779.92
1004.832	771.79
1005.127	775.63
1005.421	774.73
1005.715	776.08
1006.009	756.19
1006.304	785.12
1006.598	742.64
1006.892	744.9
1007.186	754.61
1007.48	758.45
1007.773	744.22
1008.067	750.77
1008.361	753.48
1008.655	735.18
1008.948	727.49
1009.242	745.8
1009.535	725.24
1009.829	730.21
1010.122	739.92
1010.415	704.67
1010.708	719.36
1011.001	718.46
1011.295	693.15
1011.588	723.43
1011.881	695.63
1012.173	715.52
1012.466	697.21
1012.759	680.04
1013.052	709.87
1013.344	686.37
1013.637	687.04
1013.93	674.62
1014.222	688.85
1014.514	689.3
1014.807	671
1015.099	698.12
1015.391	681.17
1015.683	650.21
1015.976	667.38
1016.268	653.82
1016.56	661.51
1016.851	641.4
1017.143	661.51
1017.435	654.95
1017.727	658.57
1018.018	662.86
1018.31	656.76
1018.602	652.69
1018.893	640.72
1019.185	652.24
1019.476	654.05
1019.767	638.46
1020.058	616.09
1020.35	620.83
1020.641	613.37
1020.932	629.42
1021.223	614.96
1021.514	601.17
1021.804	628.06
1022.095	598.23
1022.386	601.85
1022.677	617.44
1022.967	608.18
1023.258	589.42
1023.548	591
1023.839	584.9
1024.129	586.48
1024.419	603.66
1024.709	592.81
1025	582.87
1025.29	610.44
1025.58	582.87
1025.87	572.47
1026.16	578.8
1026.449	583.77
1026.739	582.64
1027.029	550.1
1027.319	570.89
1027.608	565.69
1027.898	553.49
1028.187	550.32
1028.477	564.79
1028.766	555.52
1029.055	552.81
1029.344	550.78
1029.634	558.23
1029.923	555.52
1030.212	551
1030.501	552.36
1030.79	550.32
1031.078	560.95
1031.367	533.6
1031.656	543.55
1031.945	532.25
1032.233	527.73
1032.522	534.05
1032.81	521.4
1033.099	538.35
1033.387	519.82
1033.675	527.05
1033.963	517.56
1034.251	532.02
1034.54	497.67
1034.828	506.48
1035.116	523.43
1035.403	501.29
1035.691	503.77
1035.979	506.48
1036.267	502.42
1036.554	505.81
1036.842	515.52
1037.129	487.28
1037.417	504.68
1037.704	493.15
1037.992	500.16
1038.279	475.07
1038.566	500.61
1038.853	500.61
1039.14	500.61
