Data from mousepad_grey_FLMS001491_00084.txt Node
Date: Wed Feb 08 14:30:03 GMT 2017
User: dcchb
Spectrometer: FLMS00149
Trigger mode: 0
Integration Time (sec): 2.000000E-2
Scans to average: 10
Electric dark correction enabled: true
Nonlinearity correction enabled: false
Boxcar width: 0
XAxis mode: Wavelengths
Number of Pixels in Spectrum: 2048
>>>>>Begin Spectral Data<<<<<
341.393	-4.31
341.776	-4.31
342.16	-4.31
342.543	-70.52
342.927	-69.39
343.31	-51.31
343.693	-82.05
344.077	-51.99
344.46	-54.02
344.843	-60.13
345.226	-52.44
345.61	-28.26
345.993	-20.35
346.376	-23.97
346.759	12.64
347.142	32.98
347.525	60.32
347.908	44.96
348.291	73.2
348.674	78.4
349.057	122.02
349.44	111.17
349.823	126.08
350.206	164.73
350.588	164.73
350.971	210.83
351.354	206.76
351.737	201.56
352.119	241.56
352.502	227.1
352.884	263.03
353.267	244.27
353.65	256.25
354.032	292.86
354.414	284.72
354.797	282.46
355.179	294.44
355.562	286.53
355.944	298.96
356.326	296.7
356.709	293.31
357.091	297.83
357.473	321.11
357.855	317.72
358.238	336.02
358.62	315.23
359.002	313.88
359.384	322.46
359.766	317.72
360.148	326.08
360.53	334.44
360.912	307.77
361.294	321.33
361.676	299.64
362.057	305.29
362.439	314.1
362.821	307.55
363.203	305.51
363.584	306.64
363.966	301.9
364.348	291.73
364.729	292.86
365.111	308.23
365.493	289.47
365.874	289.7
366.256	293.31
366.637	303.48
367.019	288.79
367.4	306.19
367.781	295.57
368.163	305.74
368.544	312.29
368.925	274.55
369.306	286.53
369.688	296.7
370.069	300.99
370.45	281.33
370.831	305.06
371.212	289.92
371.593	299.86
371.974	281.79
372.355	292.18
372.736	295.8
373.117	292.63
373.498	297.38
373.879	296.48
374.26	291.05
374.641	292.41
375.021	311.39
375.402	305.97
375.783	306.64
376.163	283.59
376.544	292.63
376.925	305.29
377.305	295.8
377.686	309.36
378.066	279.53
378.447	328.79
378.827	307.55
379.208	318.85
379.588	301.22
379.968	305.51
380.349	311.16
380.729	297.38
381.109	332.18
381.489	318.17
381.87	338.73
382.25	337.38
382.63	301.67
383.01	334.89
383.39	330.82
383.77	318.62
384.15	315.68
384.53	314.78
384.91	310.26
385.29	338.51
385.67	311.39
386.049	315.91
386.429	319.98
386.809	340.32
387.189	322.24
387.568	327.66
387.948	336.25
388.328	326.98
388.707	326.76
389.087	333.76
389.466	344.38
389.846	342.35
390.225	336.02
390.605	335.57
390.984	338.73
391.363	355.91
391.743	348.23
392.122	343.71
392.501	362.69
392.881	352.74
393.26	349.58
393.639	363.59
394.018	373.54
394.397	331.05
394.776	375.12
395.155	355.68
395.534	352.52
395.913	352.07
396.292	353.42
396.671	372.63
397.05	363.37
397.429	372.63
397.808	363.59
398.186	370.82
398.565	378.73
398.944	367.21
399.323	376.47
399.701	380.99
400.08	391.84
400.458	382.8
400.837	383.25
401.215	398.17
401.594	390.94
401.972	376.47
402.351	379.64
402.729	399.52
403.107	396.13
403.486	385.29
403.864	401.11
404.242	382.8
404.62	404.04
404.999	408.34
405.377	441.56
405.755	415.12
406.133	413.08
406.511	411.5
406.889	405.17
407.267	446.98
407.645	433.65
408.023	434.78
408.401	435.91
408.779	423.48
409.156	446.98
409.534	437.49
409.912	452.86
410.29	433.87
410.667	439.75
411.045	435.68
411.422	442.23
411.8	454.89
412.178	467.09
412.555	457.15
412.933	457.6
413.31	463.25
413.687	469.58
414.065	461.22
414.442	468
414.819	485.62
415.197	474.55
415.574	500.76
415.951	483.59
416.328	496.02
416.705	482.46
417.082	500.99
417.46	511.61
417.837	506.87
418.214	518.84
418.591	514.77
418.967	507.09
419.344	510.71
419.721	515
420.098	514.1
420.475	534.89
420.852	523.36
421.228	536.47
421.605	539.86
421.982	558.84
422.358	548.22
422.735	552.97
423.111	531.72
423.488	563.36
423.864	544.38
424.241	540.76
424.617	570.14
424.994	576.47
425.37	585.06
425.746	595.45
426.123	583.93
426.499	571.95
426.875	571.72
427.251	600.42
427.627	593.42
428.003	606.3
428.379	596.81
428.756	629.8
429.132	618.95
429.507	590.93
429.883	611.95
430.259	644.26
430.635	640.87
431.011	619.18
431.387	640.42
431.763	646.52
432.138	633.19
432.514	675.22
432.89	667.99
433.265	664.83
433.641	674.32
434.016	696.92
434.392	697.59
434.767	697.37
435.143	680.87
435.518	695.79
435.894	716.13
436.269	739.18
436.644	705.5
437.02	727.88
437.395	712.74
437.77	725.39
438.145	750.02
438.52	770.59
438.895	743.24
439.271	771.94
439.646	753.19
440.021	775.78
440.395	810.81
440.77	787.31
441.145	792.51
441.52	794.09
441.895	795.45
442.27	798.61
442.645	800.64
443.019	801.77
443.394	795.67
443.769	831.15
444.143	813.75
444.518	847.87
444.892	815.56
445.267	821.66
445.641	839.51
446.016	841.09
446.39	852.84
446.764	864.6
447.139	860.3
447.513	844.94
447.887	868.89
448.262	841.55
448.636	837.93
449.01	872.51
449.384	884.48
449.758	883.58
450.132	900.3
450.506	922.22
450.88	890.13
451.254	903.46
451.628	933.52
452.002	933.52
452.376	952.96
452.75	930.36
453.123	931.71
453.497	950.7
453.871	946.63
454.244	979.17
454.618	983.01
454.992	998.6
455.365	1018.94
455.739	1022.56
456.112	1010.81
456.486	1014.42
456.859	1027.98
457.232	1045.83
457.606	1043.12
457.979	1067.08
458.352	1064.14
458.725	1067.75
459.099	1094.42
459.472	1115.44
459.845	1074.31
460.218	1120.41
460.591	1121.09
460.964	1150.24
461.337	1148.43
461.71	1152.95
462.083	1193.17
462.456	1194.08
462.829	1172.16
463.201	1191.82
463.574	1218.48
463.947	1237.69
464.32	1247.41
464.692	1256.9
465.065	1277.24
465.438	1294.64
465.81	1257.13
466.183	1314.53
466.555	1336.22
466.928	1330.8
467.3	1343
467.672	1345.71
468.045	1370.57
468.417	1391.36
468.789	1394.98
469.161	1368.99
469.534	1406.05
469.906	1439.27
470.278	1480.62
470.65	1416.45
471.022	1510.68
471.394	1517.69
471.766	1530.34
472.138	1542.09
472.51	1589.55
472.882	1561.07
473.253	1610.11
473.625	1608.76
473.997	1644.01
474.369	1669.77
474.74	1678.59
475.112	1709.32
475.484	1728.75
475.855	1742.31
476.227	1752.26
476.598	1791.13
476.97	1829.09
477.341	1832.48
477.713	1859.6
478.084	1864.34
478.455	1928.97
478.827	1938.92
479.198	1988.18
479.569	1972.82
479.94	2083.09
480.311	2058.01
480.682	2088.97
481.053	2105.24
481.424	2210.78
481.795	2175.97
482.166	2191.34
482.537	2196.99
482.908	2262.75
483.279	2258.68
483.65	2327.38
484.021	2381.39
484.391	2388.17
484.762	2397.66
485.133	2418.45
485.503	2482.86
485.874	2507.26
486.244	2511.56
486.615	2534.83
486.985	2533.03
487.356	2643.98
487.726	2643.98
488.097	2663.87
488.467	2707.94
488.837	2751.55
489.207	2802.62
489.578	2801.27
489.948	2795.62
490.318	2867.03
490.688	2890.53
491.058	2940.02
491.428	2947.25
491.798	2975.05
492.168	3003.07
492.538	3044.65
492.908	3068.61
493.278	3082.84
493.648	3108.38
494.017	3161.71
494.387	3174.59
494.757	3208.94
495.126	3250.97
495.496	3245.1
495.866	3236.28
496.235	3284.19
496.605	3308.6
496.974	3316.51
497.344	3370.29
497.713	3386.79
498.082	3443.29
498.452	3460.46
498.821	3423.4
499.19	3469.05
499.559	3528.71
499.928	3528.03
500.298	3508.82
500.667	3584.3
501.036	3585.43
501.405	3596.95
501.774	3621.13
502.143	3649.16
502.512	3671.3
502.88	3690.51
503.249	3714.46
503.618	3726.44
503.987	3753.33
504.356	3756.95
504.724	3794.01
505.093	3790.85
505.462	3856.83
505.83	3834.46
506.199	3858.19
506.567	3907.91
506.936	3934.35
507.304	3956.04
507.672	3970.05
508.041	3986.55
508.409	4036.04
508.777	4059.54
509.145	4122.36
509.514	4111.52
509.882	4156.49
510.25	4099.31
510.618	4153.77
510.986	4185.41
511.354	4203.04
511.722	4236.26
512.09	4299.99
512.458	4304.51
512.826	4270.38
513.193	4361.91
513.561	4395.8
513.929	4376.59
514.297	4420.21
514.664	4423.82
515.032	4430.15
515.4	4512.64
515.767	4537.04
516.135	4574.1
516.502	4548.11
516.869	4629.02
517.237	4579.98
517.604	4605.97
517.972	4667.66
518.339	4694.55
518.706	4722.35
519.073	4742.01
519.44	4784.72
519.808	4777.94
520.175	4847.09
520.542	4868.33
520.909	4841.67
521.276	4906.07
521.643	4967.54
522.009	4988.33
522.376	5043.92
522.743	5051.15
523.11	5084.37
523.477	5107.87
523.843	5130.92
524.21	5237.14
524.577	5239.85
524.943	5255.21
525.31	5325.04
525.676	5334.08
526.043	5360.07
526.409	5412.95
526.776	5442.78
527.142	5512.38
527.508	5503.8
527.874	5529.78
528.241	5623.57
528.607	5577.24
528.973	5629.22
529.339	5648.88
529.705	5674.64
530.071	5747.41
530.437	5763.9
530.803	5819.04
531.169	5783.56
531.535	5817.91
531.901	5896.1
532.267	5835.31
532.632	5924.8
532.998	5929.32
533.364	5992.82
533.73	5983.33
534.095	6062.65
534.461	6057.91
534.826	6057.91
535.192	6074.85
535.557	6142.2
535.923	6166.83
536.288	6164.8
536.653	6292.48
537.019	6244.79
537.384	6287.28
537.749	6289.76
538.114	6308.29
538.479	6370.21
538.845	6370.21
539.21	6371.8
539.575	6437.56
539.94	6425.81
540.305	6452.92
540.67	6517.55
541.034	6514.39
541.399	6570.43
541.764	6580.38
542.129	6630.77
542.494	6560.72
542.858	6643.43
543.223	6650.66
543.587	6697.89
543.952	6730.66
544.316	6742.41
544.681	6791.45
545.045	6813.59
545.41	6826.93
545.774	6842.29
546.138	6828.05
546.503	6927.49
546.867	6981.5
547.231	6938.33
547.595	7065.56
547.959	7060.59
548.324	7048.61
548.688	7062.4
549.052	7065.11
549.416	7044.32
549.779	7118.89
550.143	7124.09
550.507	7183.3
550.871	7221.72
551.235	7256.29
551.599	7268.72
551.962	7281.15
552.326	7299.23
552.689	7372.45
553.053	7423.75
553.417	7401.37
553.78	7501.48
554.143	7456.06
554.507	7509.17
554.87	7501.26
555.234	7608.37
555.597	7596.85
555.96	7614.7
556.323	7604.76
556.686	7667.13
557.05	7703.29
557.413	7762.27
557.776	7723.17
558.139	7807.46
558.502	7848.14
558.865	7801.59
559.228	7851.3
559.59	7919.78
559.953	7917.74
560.316	7952.77
560.679	8017.18
561.041	8112.54
561.404	8119.09
561.767	8136.5
562.129	8075.93
562.492	8224.63
562.854	8209.71
563.217	8193.67
563.579	8201.8
563.941	8327
564.304	8306.66
564.666	8353.44
565.028	8410.16
565.39	8451.52
565.753	8498.29
566.115	8495.36
566.477	8533.09
566.839	8566.77
567.201	8672.3
567.563	8588.46
567.925	8671.85
568.287	8696.93
568.648	8748.46
569.01	8770.83
569.372	8853.99
569.734	8810.15
570.095	8814.22
570.457	8877.72
570.819	8946.64
571.18	8915.23
571.542	8945.97
571.903	9028.68
572.265	9028.45
572.626	9045.85
572.987	9099.86
573.349	9116.81
573.71	9158.84
574.071	9219.4
574.432	9232.96
574.794	9318.84
575.155	9267.76
575.516	9220.31
575.877	9267.31
576.238	9295.79
576.599	9322.68
576.96	9351.6
577.32	9343.24
577.681	9369.01
578.042	9428.89
578.403	9464.37
578.763	9380.08
579.124	9407.42
579.485	9466.4
579.845	9568.32
580.206	9529.9
580.566	9462.79
580.927	9538.49
581.287	9500.53
581.648	9468.66
582.008	9587.76
582.368	9577.14
582.728	9603.35
583.089	9510.7
583.449	9500.3
583.809	9592.05
584.169	9595.67
584.529	9626.63
584.889	9620.75
585.249	9609.22
585.609	9553.41
585.969	9745.72
586.329	9526.52
586.688	9680.41
587.048	9577.81
587.408	9604.48
587.768	9633.4
588.127	9673.86
588.487	9609.22
588.846	9692.39
589.206	9672.95
589.565	9666.62
589.925	9693.29
590.284	9654.65
590.643	9572.62
591.003	9601.32
591.362	9691.03
591.721	9703.69
592.08	9700.97
592.44	9708.43
592.799	9642.44
593.158	9705.49
593.517	9677.47
593.876	9733.29
594.235	9665.27
594.593	9645.83
594.952	9771.71
595.311	9740.07
595.67	9714.53
596.029	9751.37
596.387	9689.45
596.746	9785.27
597.104	9720.41
597.463	9737.58
597.822	9776.9
598.18	9735.1
598.538	9765.6
598.897	9796.11
599.255	9712.5
599.613	9797.24
599.972	9806.06
600.33	9774.87
600.688	9726.96
601.046	9758.37
601.404	9870.23
601.762	9809.45
602.12	9908.43
602.478	9819.84
602.836	9838.37
603.194	9884.25
603.552	9874.98
603.91	9755.21
604.268	9815.77
604.625	9750.92
604.983	9844.92
605.341	9869.78
605.698	9892.83
606.056	9882.44
606.413	9926.96
606.771	9902.78
607.128	9914.75
607.485	9859.61
607.843	9855.55
608.2	9942.78
608.557	9997.24
608.914	9967.41
609.272	9911.14
609.629	9944.36
609.986	10002.43
610.343	9969.22
610.7	10035.43
611.057	9994.98
611.414	10002.89
611.771	9993.85
612.127	10060.06
612.484	10000.85
612.841	10058.7
613.198	10070.46
613.554	10091.92
613.911	10107.29
614.267	10134.63
614.624	10093.28
614.98	10083.11
615.337	10191.36
615.693	10210.11
616.05	10151.13
616.406	10206.05
616.762	10115.65
617.118	10136.22
617.475	10167.85
617.831	10181.64
618.187	10215.54
618.543	10161.3
618.899	10262.09
619.255	10277
619.611	10149.32
619.967	10256.89
620.323	10286.95
620.678	10279.26
621.034	10268.64
621.39	10238.13
621.746	10256.67
622.101	10342.31
622.457	10261.41
622.812	10269.32
623.168	10264.8
623.523	10239.94
623.879	10367.85
624.234	10211.47
624.589	10263.67
624.945	10267.74
625.3	10314.52
625.655	10302.54
626.01	10279.72
626.365	10315.42
626.72	10266.83
627.075	10251.02
627.43	10319.49
627.785	10178.48
628.14	10348.64
628.495	10269.77
628.85	10381.63
629.205	10226.61
629.559	10348.19
629.914	10263.22
630.269	10272.94
630.623	10269.09
630.978	10275.2
631.332	10277.91
631.687	10310.68
632.041	10213.95
632.396	10160.85
632.75	10211.47
633.104	10297.57
633.459	10160.62
633.813	10172.6
634.167	10091.02
634.521	10135.31
634.875	10171.7
635.229	10217.57
635.583	10145.48
635.937	10120.85
636.291	10099.61
636.645	10182.09
636.999	10125.82
637.352	10162.2
637.706	10077.91
638.06	10094.86
638.413	10064.35
638.767	10021.19
639.121	10103.22
639.474	10098.25
639.828	10121.08
640.181	10033.62
640.534	10080.85
640.888	9992.04
641.241	9964.24
641.594	9954.98
641.947	10065.71
642.301	9948.65
642.654	10006.5
643.007	9978.03
643.36	9985.03
643.713	10000.4
644.066	9919.73
644.419	9991.14
644.771	9873.62
645.124	9787.98
645.477	9737.81
645.83	9703.91
646.182	9659.62
646.535	9698.94
646.888	9693.97
647.24	9660.3
647.593	9697.36
647.945	9682.44
648.298	9651.48
648.65	9643.35
649.002	9609
649.355	9614.42
649.707	9651.71
650.059	9696.68
650.411	9834.3
650.763	9845.15
651.115	9892.83
651.467	9891.93
651.819	9896.67
652.171	9840.86
652.523	9883.79
652.875	9867.07
653.227	9841.76
653.578	9884.25
653.93	9849.67
654.282	9844.7
654.633	9838.82
654.985	9841.76
655.337	9897.8
655.688	9869.78
656.039	9855.32
656.391	9801.99
656.742	9855.77
657.094	9860.97
657.445	9867.52
657.796	9791.37
658.147	9807.86
658.498	9755.21
658.849	9872.72
659.2	9797.47
659.551	9827.98
659.902	9811.25
660.253	9781.88
660.604	9888.31
660.955	9829.78
661.306	9843.79
661.656	9777.13
662.007	9873.85
662.358	9841.31
662.708	9806.96
663.059	9833.17
663.409	9776.23
663.76	9814.42
664.11	9806.73
664.461	9826.17
664.811	9847.18
665.161	9877.69
665.511	9817.35
665.862	9800.63
666.212	9920.4
666.562	9837.02
666.912	9859.16
667.262	9822.55
667.612	9805.83
667.962	9812.38
668.312	9811.93
668.662	9844.25
669.011	9780.97
669.361	9793.63
669.711	9760.41
670.06	9773.97
670.41	9730.35
670.76	9749.33
671.109	9854.19
671.459	9842.66
671.808	9789.78
672.157	9776.68
672.507	9730.58
672.856	9719.96
673.205	9668.21
673.554	9721.76
673.904	9715.66
674.253	9754.53
674.602	9714.31
674.951	9613.07
675.3	9500.75
675.649	9679.51
675.998	9651.48
676.346	9695.1
676.695	9701.2
677.044	9622.11
677.393	9656.91
677.741	9704.36
678.09	9678.83
678.438	9559.73
678.787	9637.02
679.135	9580.52
679.484	9577.36
679.832	9599.06
680.181	9513.86
680.529	9574.2
680.877	9513.86
681.225	9504.59
681.573	9552.5
681.922	9444.71
682.27	9474.31
682.618	9491.26
682.966	9383.92
683.314	9456.01
683.661	9408.55
684.009	9360.64
684.357	9374.65
684.705	9333.07
685.053	9373.52
685.4	9380.08
685.748	9340.08
686.095	9317.71
686.443	9261.66
686.79	9232.06
687.138	9156.36
687.485	9242.23
687.832	9209.46
688.18	9190.7
688.527	9142.57
688.874	9117.71
689.221	9147.77
689.568	9031.16
689.915	9139.63
690.262	9112.29
690.609	9005.62
690.956	8917.49
691.303	8986.87
691.65	8920.66
691.997	8933.08
692.344	8900.54
692.69	8882.69
693.037	8890.6
693.383	8806.31
693.73	8840.21
694.077	8769.02
694.423	8771.28
694.769	8752.75
695.116	8705.75
695.462	8723.82
695.808	8731.96
696.155	8716.37
696.501	8606.31
696.847	8578.74
697.193	8526.09
697.539	8528.35
697.885	8481.34
698.231	8450.61
698.577	8470.5
698.923	8419.88
699.269	8436.83
699.614	8357.05
699.96	8345.53
700.306	8358.64
700.651	8291.75
700.997	8267.11
701.342	8264.18
701.688	8218.53
702.033	8248.58
702.379	8156.38
702.724	8181.47
703.069	8248.81
703.415	8121.35
703.76	8090.39
704.105	8101.92
704.45	8049.94
704.795	7971.75
705.14	7959.78
705.485	8049.72
705.83	7970.85
706.175	7980.79
706.52	7900.8
706.865	7910.06
707.209	7884.07
707.554	7861.7
707.899	7763.4
708.243	7819.22
708.588	7827.35
708.932	7774.7
709.277	7735.38
709.621	7734.92
709.966	7713
710.31	7694.25
710.654	7626.23
710.998	7637.98
711.342	7647.92
711.687	7657.19
712.031	7659.45
712.375	7618.99
712.719	7631.65
713.063	7544.42
713.407	7577.64
713.75	7489.73
714.094	7545.78
714.438	7493.8
714.782	7492.67
715.125	7520.92
715.469	7566.57
715.812	7413.35
716.156	7398.21
716.499	7430.75
716.843	7486.57
717.186	7373.58
717.53	7426.01
717.873	7454.25
718.216	7431.88
718.559	7366.57
718.902	7323.41
719.246	7317.08
719.589	7327.02
719.932	7343.07
720.275	7303.07
720.617	7324.31
720.96	7282.73
721.303	7374.26
721.646	7352.56
721.989	7266.91
722.331	7350.08
722.674	7274.37
723.016	7283.86
723.359	7308.49
723.701	7340.58
724.044	7277.31
724.386	7243.64
724.729	7307.14
725.071	7269.17
725.413	7235.28
725.755	7242.73
726.097	7222.62
726.439	7222.17
726.782	7268.5
727.124	7278.21
727.465	7234.37
727.807	7203.86
728.149	7237.31
728.491	7190.53
728.833	7209.97
729.175	7138.56
729.516	7231.43
729.858	7148.95
730.199	7251.77
730.541	7204.99
730.882	7188.5
731.224	7223.07
731.565	7156.18
731.906	7153.47
732.248	7232.34
732.589	7157.31
732.93	7152.57
733.271	7139.01
733.612	7122.51
733.953	7200.7
734.294	7146.46
734.635	7154.6
734.976	7210.19
735.317	7132.91
735.658	7136.3
735.999	7099.01
736.339	7110.08
736.68	7136.75
737.021	7132.23
737.361	7117.09
737.702	7114.15
738.042	7126.8
738.383	7110.53
738.723	7205.9
739.063	7090.87
739.404	7157.09
739.744	7109.18
740.084	7125.9
740.424	7099.01
740.764	7065.34
741.104	7118.89
741.444	7103.3
741.784	7100.59
742.124	7112.57
742.464	7126.13
742.804	7085.45
743.143	7097.43
743.483	7128.39
743.823	7077.99
744.162	7116.18
744.502	7046.35
744.841	7068.95
745.181	7123.41
745.52	7027.6
745.86	7102.4
746.199	7060.14
746.538	7030.54
746.877	7111.66
747.216	7153.24
747.556	7062.17
747.895	7080.25
748.234	7047.03
748.573	6984.89
748.911	7026.47
749.25	7061.95
749.589	7028.5
749.928	7045.9
750.267	7043.19
750.605	7049.97
750.944	6976.53
751.283	7001.16
751.621	7011.55
751.96	6960.93
752.298	7022.17
752.636	6972.46
752.975	6999.8
753.313	6950.31
753.651	7012.68
753.989	6939.69
754.327	6948.28
754.666	6898.34
755.004	6924.55
755.342	6893.59
755.679	6863.08
756.017	6906.02
756.355	6918.22
756.693	6920.03
757.031	6885
757.368	6865.79
757.706	6842.52
758.044	6800.03
758.381	6837.09
758.719	6812.46
759.056	6866.25
759.394	6804.55
759.731	6715.97
760.068	6729.07
760.405	6707.61
760.743	6699.02
761.08	6709.41
761.417	6673.71
761.754	6677.1
762.091	6692.24
762.428	6678
762.765	6621.28
763.102	6673.26
763.438	6629.42
763.775	6563.2
764.112	6591.9
764.449	6528.85
764.785	6562.07
765.122	6506.71
765.458	6458.57
765.795	6459.25
766.131	6505.35
766.467	6471.91
766.804	6399.37
767.14	6372.93
767.476	6406.37
767.812	6370.21
768.148	6374.73
768.485	6359.37
768.821	6355.52
769.157	6307.39
769.492	6332.93
769.828	6274.4
770.164	6207.05
770.5	6195.53
770.836	6261.29
771.171	6196.21
771.507	6188.3
771.842	6060.17
772.178	6115.31
772.513	6108.98
772.849	6108.53
773.184	5990.56
773.519	6004.8
773.855	6019.04
774.19	6014.52
774.525	5996.66
774.86	5958.25
775.195	5934.97
775.53	5952.82
775.865	5943.78
776.2	5887.51
776.535	5849.32
776.87	5860.4
777.205	5833.73
777.539	5767.07
777.874	5809.55
778.209	5759.38
778.543	5729.55
778.878	5703.34
779.212	5711.93
779.547	5632.38
779.881	5647.52
780.215	5633.28
780.55	5690.23
780.884	5604.58
781.218	5627.86
781.552	5621.98
781.886	5621.98
782.22	5511.03
782.554	5541.99
782.888	5509.45
783.222	5399.62
783.556	5418.6
783.889	5492.27
784.223	5418.83
784.557	5440.29
784.89	5417.7
785.224	5372.27
785.557	5323.91
785.891	5311.03
786.224	5339.51
786.558	5314.2
786.891	5326.4
787.224	5255.21
787.557	5207.08
787.891	5224.26
788.224	5222
788.557	5287.98
788.89	5216.57
789.223	5201.88
789.556	5183.8
789.888	5165.5
790.221	5109.91
790.554	5105.16
790.887	5088.21
791.219	5069.68
791.552	5051.38
791.884	5061.55
792.217	5010.02
792.549	5024.49
792.882	4995.79
793.214	5002.79
793.546	4929.8
793.879	4965.51
794.211	4934.55
794.543	4932.96
794.875	4916.47
795.207	4936.35
795.539	4895.9
795.871	4913.75
796.203	4847.77
796.535	4819.97
796.867	4826.3
797.198	4789.46
797.53	4837.15
797.862	4786.75
798.193	4773.65
798.525	4772.74
798.856	4748.79
799.188	4719.41
799.519	4699.98
799.85	4669.02
800.182	4745.4
800.513	4668.79
800.844	4631.95
801.175	4630.37
801.506	4634.89
801.837	4619.53
802.168	4592.63
802.499	4611.84
802.83	4593.31
803.161	4553.99
803.491	4536.82
803.822	4586.53
804.153	4518.96
804.483	4494.78
804.814	4492.52
805.145	4495.91
805.475	4499.3
805.805	4428.12
806.136	4420.66
806.466	4459.98
806.796	4379.53
807.126	4408.23
807.457	4415.01
807.787	4436.03
808.117	4399.87
808.447	4391.06
808.777	4334.79
809.107	4355.8
809.436	4343.6
809.766	4332.53
810.096	4334.34
810.426	4363.03
810.755	4311.28
811.085	4260.66
811.414	4319.65
811.744	4301.79
812.073	4270.16
812.403	4259.31
812.732	4224.51
813.061	4247.78
813.39	4209.37
813.719	4196.49
814.049	4243.72
814.378	4203.49
814.707	4184.51
815.036	4164.4
815.365	4149.71
815.693	4156.71
816.022	4102.02
816.351	4106.32
816.68	4114.23
817.008	4144.96
817.337	4088.69
817.665	4073.55
817.994	4067.68
818.322	4048.24
818.651	4055.92
818.979	3996.72
819.307	4042.37
819.636	4070.61
819.964	4018.41
820.292	4020.45
820.62	4055.7
820.948	4024.29
821.276	4017.06
821.604	4012.99
821.932	4011.41
822.259	4003.72
822.587	4012.08
822.915	4018.64
823.243	4021.12
823.57	3998.07
823.898	4023.83
824.225	3989.94
824.553	3963.27
824.88	4014.34
825.207	4002.59
825.535	4004.17
825.862	4010.73
826.189	3945.19
826.516	4024.29
826.843	3982.48
827.17	4028.81
827.497	4022.7
827.824	4040.56
828.151	4005.3
828.478	3954.91
828.805	4001.46
829.131	4024.96
829.458	4009.6
829.785	3968.24
830.111	3980.45
830.438	4024.06
830.764	3954.68
831.09	4019.99
831.417	4006.21
831.743	4003.04
832.069	3964.18
832.395	4003.5
832.722	3980.22
833.048	3945.64
833.374	3970.95
833.7	3991.97
834.026	4011.86
834.351	3961.92
834.677	3954.46
835.003	3985.64
835.329	3928.02
835.654	3902.71
835.98	3895.25
836.306	3951.29
836.631	3900.9
836.956	3940.45
837.282	3900.22
837.607	3899.09
837.932	3886.89
838.258	3909.26
838.583	3888.02
838.908	3894.12
839.233	3900.67
839.558	3876.49
839.883	3836.5
840.208	3875.59
840.533	3896.38
840.858	3841.24
841.182	3893.44
841.507	3810.51
841.832	3826.78
842.156	3820
842.481	3784.29
842.805	3808.47
843.13	3765.76
843.454	3794.01
843.778	3781.13
844.103	3795.14
844.427	3748.14
844.751	3757.18
845.075	3766.89
845.399	3754.01
845.723	3711.75
846.047	3726.89
846.371	3672.66
846.695	3711.75
847.019	3661.58
847.343	3655.71
847.666	3709.27
847.99	3600.12
848.313	3610.96
848.637	3639.21
848.96	3613.45
849.284	3625.88
849.607	3556.5
849.931	3562.6
850.254	3536.16
850.577	3523.74
850.9	3499.78
851.223	3539.33
851.546	3480.8
851.869	3465.66
852.192	3478.54
852.515	3474.24
852.838	3448.71
853.161	3455.49
853.483	3422.72
853.806	3427.24
854.129	3439.22
854.451	3417.07
854.774	3383.63
855.096	3356.73
855.419	3418.2
855.741	3329.16
856.063	3354.7
856.385	3343.63
856.708	3358.09
857.03	3355.6
857.352	3306.79
857.674	3308.15
857.996	3305.66
858.318	3299.33
858.64	3277.19
858.961	3263.85
859.283	3271.09
859.605	3246.23
859.926	3242.61
860.248	3246
860.57	3243.74
860.891	3231.77
861.212	3197.19
861.534	3211.88
861.855	3196.51
862.176	3210.52
862.498	3228.6
862.819	3205.55
863.14	3151.32
863.461	3168.26
863.782	3153.35
864.103	3121.26
864.424	3172.11
864.745	3148.6
865.065	3183.4
865.386	3154.03
865.707	3144.08
866.027	3144.08
866.348	3117.87
866.668	3150.86
866.989	3160.13
867.309	3094.82
867.63	3131.88
867.95	3129.85
868.27	3103.63
868.59	3117.87
868.91	3048.95
869.23	3041.04
869.55	3078.77
869.87	3041.26
870.19	3059.79
870.51	3080.81
870.83	3093.01
871.15	3050.53
871.469	3076.29
871.789	3065.89
872.109	3018.44
872.428	3016.86
872.748	3076.06
873.067	3061.6
873.386	3052.56
873.706	2996.97
874.025	2985.9
874.344	3001.94
874.663	3005.1
874.982	2987.48
875.301	2998.1
875.62	2979.34
875.939	2992.9
876.258	3001.71
876.577	2982.73
876.896	2970.3
877.214	2975.05
877.533	2980.92
877.852	2956.97
878.17	2982.73
878.489	2977.99
878.807	2967.59
879.125	2986.57
879.444	2972.79
879.762	2922.62
880.08	2917.2
880.398	2930.08
880.716	2932.34
881.034	2902.73
881.352	2909.29
881.67	2906.58
881.988	2920.81
882.306	2883.3
882.624	2865.9
882.941	2879.01
883.259	2865.45
883.577	2900.47
883.894	2897.54
884.212	2841.04
884.529	2845.56
884.846	2853.47
885.164	2825.22
885.481	2826.8
885.798	2855.28
886.115	2824.54
886.432	2805.11
886.75	2818.67
887.067	2786.58
887.383	2815.05
887.7	2826.35
888.017	2807.6
888.334	2799.01
888.651	2800.36
888.967	2796.75
889.284	2741.83
889.6	2755.17
889.917	2736.41
890.233	2750.42
890.55	2740.93
890.866	2738.44
891.182	2707.71
891.498	2713.36
891.815	2730.08
892.131	2693.25
892.447	2723.76
892.763	2667.03
893.079	2678.56
893.395	2681.5
893.71	2686.92
894.026	2647.6
894.342	2646.24
894.657	2634.94
894.973	2655.51
895.289	2641.5
895.604	2636.07
895.92	2628.62
896.235	2609.86
896.55	2627.26
896.865	2581.39
897.181	2584.32
897.496	2601.73
897.811	2528.05
898.126	2555.62
898.441	2557.21
898.756	2535.29
899.071	2527.83
899.386	2519.69
899.7	2498.23
900.015	2510.43
900.33	2503.65
900.644	2497.55
900.959	2493.25
901.273	2479.47
901.588	2471.79
901.902	2454.38
902.216	2471.56
902.531	2458.45
902.845	2478.34
903.159	2450.09
903.473	2426.36
903.787	2419.58
904.101	2425.91
904.415	2398.34
904.729	2404.44
905.042	2408.74
905.356	2383.88
905.67	2388.62
905.984	2353.14
906.297	2374.16
906.611	2356.08
906.924	2326.93
907.237	2358.12
907.551	2339.59
907.864	2287.84
908.177	2302.52
908.491	2298.68
908.804	2291.45
909.117	2268.63
909.43	2240.6
909.743	2265.24
910.056	2274.5
910.368	2234.5
910.681	2245.8
910.994	2213.49
911.307	2237.67
911.619	2213.94
911.932	2196.99
912.244	2197.44
912.557	2211.45
912.869	2176.65
913.181	2171.45
913.494	2144.11
913.806	2148.18
914.118	2165.58
914.43	2155.64
914.742	2144.34
915.054	2136.43
915.366	2108.18
915.678	2109.31
915.99	2117.9
916.302	2074.28
916.613	2060.5
916.925	2084
917.236	2072.47
917.548	2085.81
917.859	2074.51
918.171	2091.68
918.482	2027.73
918.794	2024.57
919.105	2042.42
919.416	2022.76
919.727	2069.99
920.038	2012.36
920.349	1991.35
920.66	2003.1
920.971	1987.73
921.282	2006.49
921.593	1946.83
921.903	1958.58
922.214	1946.6
922.525	1960.84
922.835	1950.67
923.146	1942.53
923.456	1961.52
923.767	1943.44
924.077	1937.11
924.387	1919.94
924.697	1880.61
925.008	1933.27
925.318	1905.25
925.628	1902.99
925.938	1912.7
926.248	1860.28
926.558	1874.96
926.867	1863.21
927.177	1836.55
927.487	1863.89
927.796	1832.48
928.106	1836.1
928.416	1829.32
928.725	1827.96
929.034	1835.64
929.344	1806.04
929.653	1808.07
929.962	1798.81
930.271	1809.88
930.581	1776.66
930.89	1760.84
931.199	1774.4
931.508	1764.91
931.817	1788.19
932.125	1792.71
932.434	1752.93
932.743	1745.7
933.051	1747.51
933.36	1718.81
933.669	1710.45
933.977	1715.42
934.286	1724.46
934.594	1710.68
934.902	1697.57
935.21	1704.12
935.519	1649.21
935.827	1666.83
936.135	1665.7
936.443	1663.22
936.751	1664.35
937.059	1657.57
937.367	1643.56
937.674	1639.26
937.982	1621.86
938.29	1603.11
938.597	1649.89
938.905	1609.66
939.213	1612.37
939.52	1606.27
939.827	1600.85
940.135	1582.09
940.442	1586.84
940.749	1607.18
941.056	1590.68
941.363	1578.93
941.67	1568.08
941.977	1578.25
942.284	1536.67
942.591	1548.87
942.898	1537.12
943.205	1522.66
943.511	1519.27
943.818	1550.23
944.125	1520.62
944.431	1507.52
944.738	1517.23
945.044	1512.04
945.35	1518.82
945.657	1486.95
945.963	1500.74
946.269	1471.36
946.575	1487.63
946.881	1505.48
947.187	1474.75
947.493	1443.56
947.799	1439.95
948.105	1463.68
948.41	1447.86
948.716	1497.12
949.022	1406.73
949.327	1411.7
949.633	1397.46
949.938	1420.06
950.244	1410.8
950.549	1418.71
950.854	1388.65
951.16	1396.11
951.465	1399.27
951.77	1390.68
952.075	1413.73
952.38	1371.7
952.685	1371.25
952.99	1361.31
953.294	1349.33
953.599	1366.96
953.904	1348.88
954.209	1361.08
954.513	1359.95
954.818	1359.27
955.122	1355.66
955.426	1345.71
955.731	1317.47
956.035	1324.24
956.339	1323.57
956.643	1314.53
956.948	1306.17
957.252	1312.95
957.556	1332.61
957.86	1292.83
958.163	1291.25
958.467	1296.45
958.771	1267.75
959.075	1302.1
959.378	1293.51
959.682	1262.78
959.985	1252.61
960.289	1273.4
960.592	1257.58
960.896	1266.39
961.199	1247.18
961.502	1238.82
961.805	1272.72
962.108	1232.27
962.411	1269.33
962.714	1266.17
963.017	1234.76
963.32	1206.06
963.623	1209.9
963.926	1231.37
964.228	1228.43
964.531	1206.06
964.833	1191.37
965.136	1181.88
965.438	1177.13
965.741	1186.4
966.043	1142.78
966.345	1196.79
966.648	1181.2
966.95	1155.89
967.252	1169.45
967.554	1158.15
967.856	1178.26
968.158	1152.72
968.46	1159.28
968.761	1148.43
969.063	1148.2
969.365	1136.45
969.666	1149.11
969.968	1141.2
970.269	1105.72
970.571	1106.17
970.872	1102.1
971.174	1124.7
971.475	1103.91
971.776	1103.69
972.077	1109.11
972.378	1093.29
972.679	1103.01
972.98	1098.49
973.281	1086.74
973.582	1091.93
973.883	1080.41
974.183	1080.18
974.484	1062.78
974.785	1079.28
975.085	1049.68
975.386	1029.56
975.686	1072.05
975.986	1077.7
976.287	1053.74
976.587	1028.89
976.887	1066.17
977.187	1069.79
977.487	1033.86
977.787	1041.31
978.087	1022.78
978.387	1040.18
978.687	1024.82
978.987	1022.56
979.286	985.95
979.586	1021.2
979.885	1016.23
980.185	1010.81
980.484	1002.9
980.784	985.95
981.083	1002.67
981.382	1004.93
981.682	973.29
981.981	997.25
982.28	995.21
982.579	992.95
982.878	987.76
983.177	966.97
983.475	969.68
983.774	970.13
984.073	951.83
984.372	976.68
984.67	969.9
984.969	938.72
985.267	963.8
985.566	937.14
985.864	972.62
986.162	964.03
986.461	939.17
986.759	919.74
987.057	919.51
987.355	918.38
987.653	908.44
987.951	909.11
988.249	934.65
988.547	917.48
988.844	907.76
989.142	912.28
989.44	920.19
989.737	922.22
990.035	893.75
990.332	900.75
990.63	895.1
990.927	882.9
991.224	864.37
991.521	878.61
991.819	892.84
992.116	881.54
992.413	882.22
992.71	870.7
993.006	876.57
993.303	883.13
993.6	873.41
993.897	859.62
994.193	866.4
994.49	883.13
994.787	864.6
995.083	826.18
995.379	844.26
995.676	839.96
995.972	857.82
996.268	846.07
996.565	811.72
996.861	855.56
997.157	825.73
997.453	836.57
997.749	806.07
998.044	812.39
998.34	795.45
998.636	807.2
998.932	815.33
999.227	802.22
999.523	813.98
999.818	782.79
1000.114	788.21
1000.409	822.79
1000.704	791.38
1001	785.73
1001.295	788.21
1001.59	769.68
1001.885	783.24
1002.18	781.66
1002.475	776.46
1002.77	775.11
1003.065	777.59
1003.359	782.79
1003.654	755.67
1003.949	759.74
1004.243	761.32
1004.538	748.21
1004.832	737.14
1005.127	735.11
1005.421	758.61
1005.715	733.07
1006.009	738.5
1006.304	735.33
1006.598	730.81
1006.892	739.63
1007.186	730.36
1007.48	745.05
1007.773	725.62
1008.067	713.19
1008.361	731.94
1008.655	711.61
1008.948	715
1009.242	739.4
1009.535	719.97
1009.829	699.18
1010.122	702.79
1010.415	691.27
1010.708	701.66
1011.001	708.44
1011.295	676.13
1011.588	696.01
1011.881	686.97
1012.173	686.07
1012.466	681.78
1012.759	673.64
1013.052	695.56
1013.344	673.64
1013.637	674.32
1013.93	657.82
1014.222	651.72
1014.514	666.18
1014.807	659.4
1015.099	683.36
1015.391	665.73
1015.683	665.05
1015.976	638.39
1016.268	651.27
1016.56	641.32
1016.851	647.88
1017.143	663.25
1017.435	622.12
1017.727	638.39
1018.018	622.57
1018.31	634.32
1018.602	626.86
1018.893	609.91
1019.185	606.75
1019.476	623.25
1019.767	623.25
1020.058	622.12
1020.35	606.75
1020.641	613.08
1020.932	618.27
1021.223	582.8
1021.514	607.43
1021.804	598.39
1022.095	611.27
1022.386	599.07
1022.677	602.91
1022.967	592.29
1023.258	584.38
1023.548	584.6
1023.839	589.12
1024.129	584.83
1024.419	572.17
1024.709	581.67
1025	588.67
1025.29	569.91
1025.58	540.99
1025.87	570.82
1026.16	566.52
1026.449	564.04
1026.739	574.66
1027.029	559.75
1027.319	569.24
1027.608	541.44
1027.898	553.87
1028.187	532.4
1028.477	542.34
1028.766	569.69
1029.055	547.32
1029.344	529.69
1029.634	524.49
1029.923	526.3
1030.212	552.29
1030.501	539.63
1030.79	536.24
1031.078	542.57
1031.367	525.85
1031.656	537.37
1031.945	514.77
1032.233	518.16
1032.522	523.14
1032.81	522.46
1033.099	510.03
1033.387	526.98
1033.675	499.63
1033.963	496.02
1034.251	510.25
1034.54	502.8
1034.828	512.06
1035.116	498.05
1035.403	511.61
1035.691	485.85
1035.979	507.54
1036.267	513.19
1036.554	489.01
1036.842	493.76
1037.129	496.7
1037.417	500.09
1037.704	492.85
1037.992	486.07
1038.279	491.5
1038.566	480.43
1038.853	480.43
1039.14	480.43
