Data from mousepad_grey_FLMS001491_00077.txt Node
Date: Wed Feb 08 14:29:55 GMT 2017
User: dcchb
Spectrometer: FLMS00149
Trigger mode: 0
Integration Time (sec): 2.000000E-2
Scans to average: 10
Electric dark correction enabled: true
Nonlinearity correction enabled: false
Boxcar width: 0
XAxis mode: Wavelengths
Number of Pixels in Spectrum: 2048
>>>>>Begin Spectral Data<<<<<
341.393	-18.23
341.776	-18.23
342.16	-18.23
342.543	-74.28
342.927	-91.23
343.31	-75.86
343.693	-53.49
344.077	-71.11
344.46	-53.71
344.843	-65.69
345.226	-36.76
345.61	-23.66
345.993	-6.71
346.376	-26.6
346.759	9.56
347.142	19.05
347.525	34.19
347.908	67.19
348.291	78.26
348.674	96.79
349.057	108.54
349.44	116
349.823	130.69
350.206	142.89
350.588	172.04
350.971	203
351.354	177.92
351.737	233.96
352.119	218.37
352.502	241.19
352.884	282.55
353.267	270.35
353.65	286.62
354.032	268.76
354.414	304.47
354.797	299.95
355.179	312.6
355.562	311.93
355.944	291.81
356.326	305.83
356.709	291.14
357.091	312.6
357.473	315.77
357.855	299.5
358.238	292.49
358.62	302.89
359.002	317.8
359.384	321.42
359.766	322.55
360.148	318.25
360.53	307.86
360.912	319.61
361.294	316.22
361.676	332.27
362.057	311.7
362.439	306.28
362.821	329.33
363.203	304.47
363.584	319.16
363.966	304.02
364.348	307.86
364.729	312.83
365.111	307.86
365.493	299.72
365.874	316.45
366.256	290.01
366.637	288.65
367.019	301.76
367.4	298.59
367.781	319.16
368.163	293.17
368.544	299.72
368.925	279.84
369.306	300.85
369.688	294.98
370.069	300.18
370.45	285.03
370.831	325.03
371.212	287.29
371.593	294.75
371.974	292.72
372.355	292.94
372.736	279.16
373.117	269.44
373.498	304.02
373.879	287.07
374.26	308.31
374.641	308.54
375.021	290.91
375.402	304.47
375.783	297.92
376.163	307.63
376.544	298.37
376.925	296.33
377.305	306.96
377.686	312.83
378.066	325.71
378.447	318.25
378.827	314.19
379.208	300.85
379.588	298.14
379.968	291.36
380.349	313.06
380.729	313.51
381.109	315.32
381.489	321.19
381.87	314.86
382.25	317.12
382.63	322.77
383.01	319.61
383.39	301.76
383.77	322.55
384.15	319.38
384.53	341.3
384.91	327.52
385.29	325.71
385.67	352.38
386.049	332.27
386.429	330.01
386.809	336.33
387.189	348.08
387.568	323.23
387.948	353.73
388.328	339.27
388.707	333.17
389.087	318.25
389.466	326.84
389.846	331.81
390.225	339.5
390.605	360.29
390.984	341.98
391.363	353.28
391.743	330.46
392.122	335.66
392.501	366.39
392.881	355.09
393.26	355.77
393.639	357.12
394.018	355.09
394.397	365.03
394.776	357.35
395.155	374.52
395.534	355.77
395.913	328.65
396.292	366.39
396.671	369.1
397.05	371.59
397.429	368.65
397.808	391.7
398.186	372.49
398.565	374.75
398.944	368.42
399.323	389.44
399.701	393.96
400.08	397.8
400.458	381.53
400.837	383.79
401.215	399.83
401.594	398.93
401.972	398.48
402.351	401.87
402.729	382.21
403.107	394.41
403.486	390.12
403.864	395.77
404.242	402.09
404.62	400.51
404.999	424.24
405.377	414.07
405.755	406.39
406.133	431.7
406.511	424.47
406.889	406.61
407.267	417.46
407.645	417.91
408.023	413.39
408.401	440.74
408.779	438.7
409.156	466.27
409.534	449.1
409.912	439.61
410.29	451.81
410.667	448.19
411.045	450.23
411.422	470.57
411.8	466.5
412.178	474.63
412.555	455.65
412.933	457.91
413.31	466.05
413.687	478.93
414.065	454.3
414.442	470.34
414.819	484.13
415.197	503.33
415.574	491.13
415.951	487.06
416.328	499.49
416.705	490.23
417.082	504.46
417.46	498.14
417.837	506.5
418.214	504.01
418.591	512.15
418.967	527.06
419.344	512.83
419.721	526.84
420.098	534.52
420.475	535.2
420.852	535.65
421.228	538.81
421.605	539.72
421.982	546.72
422.358	540.62
422.735	530.9
423.111	564.8
423.488	573.39
423.864	555.54
424.241	592.82
424.617	567.51
424.994	569.1
425.37	576.1
425.746	572.71
426.123	598.92
426.499	585.37
426.875	583.56
427.251	595.08
427.627	610
428.003	611.35
428.379	620.39
428.756	599.6
429.132	607.74
429.507	624.91
429.883	625.14
430.259	632.14
430.635	638.7
431.011	654.74
431.387	650.45
431.763	670.56
432.138	662.43
432.514	665.36
432.89	669.43
433.265	669.43
433.641	705.14
434.016	702.2
434.392	688.87
434.767	707.62
435.143	720.5
435.518	704.46
435.894	739.26
436.269	732.03
436.644	730.9
437.02	740.84
437.395	759.37
437.77	754.4
438.145	755.53
438.52	766.6
438.895	777.68
439.271	776.77
439.646	800.28
440.021	775.87
440.395	796.43
440.77	787.39
441.145	794.4
441.52	804.8
441.895	812.7
442.27	808.41
442.645	799.15
443.019	835.98
443.394	838.69
443.769	821.07
444.143	813.16
444.518	838.24
444.892	854.96
445.267	859.48
445.641	856.77
446.016	850.67
446.39	855.87
446.764	861.52
447.139	868.07
447.513	880.05
447.887	883.44
448.262	872.36
448.636	887.05
449.01	906.94
449.384	887.28
449.758	907.39
450.132	931.57
450.506	937.45
450.88	937.67
451.254	913.72
451.628	964.57
452.002	952.14
452.376	939.03
452.75	980.84
453.123	955.53
453.497	982.42
453.871	1007.05
454.244	987.39
454.618	987.62
454.992	1033.49
455.365	1023.09
455.739	1040.27
456.112	1024.9
456.486	1057.9
456.859	1069.2
457.232	1057.67
457.606	1070.78
457.979	1090.21
458.352	1080.04
458.725	1119.14
459.099	1113.71
459.472	1122.53
459.845	1159.81
460.218	1148.06
460.591	1171.57
460.964	1148.97
461.337	1180.83
461.71	1209.98
462.083	1213.15
462.456	1216.54
462.829	1254.5
463.201	1243.65
463.574	1232.58
463.947	1255.4
464.32	1307.15
464.692	1275.97
465.065	1325.69
465.438	1282.97
465.81	1325.46
466.183	1351.22
466.555	1344.89
466.928	1366.36
467.3	1392.58
467.672	1398.45
468.045	1420.6
468.417	1409.3
468.789	1423.08
469.161	1438.22
469.534	1464.21
469.906	1517.32
470.278	1507.38
470.65	1520.03
471.022	1548.73
471.394	1541.95
471.766	1561.84
472.138	1592.8
472.51	1623.3
472.882	1620.37
473.253	1669.86
473.625	1693.81
473.997	1697.88
474.369	1703.3
474.74	1724.32
475.112	1710.53
475.484	1782.85
475.855	1798.22
476.227	1816.07
476.598	1903.75
476.97	1862.85
477.341	1896.97
477.713	1937.42
478.084	1948.27
478.455	1972.45
478.827	1990.75
479.198	2049.96
479.569	2031.88
479.94	2121.82
480.311	2126.34
480.682	2166.79
481.053	2213.12
481.424	2239.33
481.795	2254.47
482.166	2251.99
482.537	2287.92
482.908	2348.26
483.279	2371.99
483.65	2405.88
484.021	2416.05
484.391	2471.19
484.762	2486.11
485.133	2548.7
485.503	2564.52
485.874	2585.99
486.244	2651.75
486.615	2647.68
486.985	2678.42
487.356	2705.08
487.726	2779.43
488.097	2801.8
488.467	2809.49
488.837	2861.69
489.207	2892.65
489.578	2930.16
489.948	2901.24
490.318	2970.39
490.688	2995.92
491.058	3047
491.428	3076.83
491.798	3083.83
492.168	3144.39
492.538	3174.9
492.908	3180.78
493.278	3256.26
493.648	3229.14
494.017	3304.39
494.387	3317.95
494.757	3352.75
495.126	3366.08
495.496	3399.3
495.866	3396.82
496.235	3453.54
496.605	3426.42
496.974	3496.02
497.344	3525.85
497.713	3524.05
498.082	3555.01
498.452	3590.03
498.821	3588.45
499.19	3599.3
499.559	3659.86
499.928	3652.18
500.298	3722.68
500.667	3737.37
501.036	3745.28
501.405	3718.16
501.774	3775.79
502.143	3854.66
502.512	3804.94
502.88	3840.2
503.249	3857.37
503.618	3883.81
503.987	3879.06
504.356	3913.41
504.724	3913.19
505.093	3940.53
505.462	4021.21
505.83	4023.47
506.199	4064.82
506.567	4094.43
506.936	4091.49
507.304	4122.9
507.672	4136.23
508.041	4179.85
508.409	4239.06
508.777	4232.95
509.145	4296
509.514	4290.13
509.882	4334.42
510.25	4336.23
510.618	4338.04
510.986	4392.5
511.354	4400.41
511.722	4463.46
512.09	4490.8
512.458	4481.76
512.826	4534.64
513.193	4514.3
513.561	4593.17
513.929	4620.97
514.297	4634.07
514.664	4653.06
515.032	4703.9
515.4	4765.82
515.767	4707.52
516.135	4772.6
516.502	4751.13
516.869	4800.85
517.237	4903.44
517.604	4797.68
517.972	4885.14
518.339	4921.07
518.706	4951.8
519.073	4994.52
519.44	4996.55
519.808	5069.09
520.175	5060.05
520.542	5090.11
520.909	5173.04
521.276	5138.01
521.643	5163.55
522.009	5198.13
522.376	5237.45
522.743	5254.4
523.11	5375.07
523.477	5371.91
523.843	5434.28
524.21	5467.05
524.577	5502.07
524.943	5515.63
525.31	5524.67
525.676	5616.19
526.043	5658.9
526.409	5637.89
526.776	5680.83
527.142	5738.68
527.508	5745
527.874	5811.67
528.241	5866.13
528.607	5898.67
528.973	5909.97
529.339	5937.32
529.705	5993.81
530.071	6080.59
530.437	6056.41
530.803	6076.3
531.169	6076.07
531.535	6174.15
531.901	6164.43
532.267	6191.32
532.632	6212.34
532.998	6254.82
533.364	6340.47
533.73	6333.69
534.095	6361.94
534.461	6320.13
534.826	6396.29
535.192	6431.77
535.557	6490.3
535.923	6535.72
536.288	6504.76
536.653	6520.13
537.019	6555.6
537.384	6618.88
537.749	6630.18
538.114	6638.77
538.479	6664.53
538.845	6688.03
539.21	6671.08
539.575	6733.68
539.94	6798.54
540.305	6733.45
540.67	6776.62
541.034	6881.25
541.399	6896.61
541.764	6873.34
542.129	6911.53
542.494	6966.22
542.858	7010.28
543.223	7003.05
543.587	7037.4
543.952	7048.7
544.316	7096.16
544.681	7043.05
545.045	7140.67
545.41	7171.63
545.774	7241.24
546.138	7244.17
546.503	7243.72
546.867	7288.01
547.231	7404.4
547.595	7300.67
547.959	7323.04
548.324	7335.02
548.688	7412.31
549.052	7442.59
549.416	7439.87
549.779	7517.61
550.143	7519.87
550.507	7542.92
550.871	7557.39
551.235	7608.23
551.599	7666.99
551.962	7631.06
552.326	7702.47
552.689	7774.56
553.053	7702.69
553.417	7735.46
553.78	7865.85
554.143	7840.77
554.507	7906.08
554.87	7919.18
555.234	8041.22
555.597	7983.59
555.96	7988.34
556.323	8005.06
556.686	8025.62
557.05	8111.72
557.413	8126.86
557.776	8165.73
558.139	8213.19
558.502	8180.19
558.865	8214.09
559.228	8247.76
559.59	8330.93
559.953	8280.53
560.316	8379.74
560.679	8389.91
561.041	8472.39
561.404	8523.24
561.767	8556.23
562.129	8518.49
562.492	8636.45
562.854	8656.11
563.217	8588.09
563.579	8702.44
563.941	8749.67
564.304	8737.02
564.666	8838.71
565.028	8845.94
565.39	8842.55
565.753	8995.99
566.115	8928.42
566.477	9000.06
566.839	9048.42
567.201	9058.14
567.563	9062.21
567.925	9172.26
568.287	9092.71
568.648	9157.57
569.01	9160.28
569.372	9215.87
569.734	9266.72
570.095	9348.53
570.457	9327.06
570.819	9371.58
571.18	9354.4
571.542	9464.68
571.903	9372.93
572.265	9447.28
572.626	9485.7
572.987	9557.33
573.349	9584.68
573.71	9593.49
574.071	9642.08
574.432	9682.3
574.794	9663.55
575.155	9713.71
575.516	9702.19
575.877	9761.17
576.238	9739.7
576.599	9779.25
576.96	9778.12
577.32	9864.44
577.681	9868.96
578.042	9875.74
578.403	9947.38
578.763	9880.49
579.124	9909.87
579.485	9959.81
579.845	9960.49
580.206	9973.37
580.566	9987.83
580.927	10020.15
581.287	10030.09
581.648	9989.19
582.008	10082.29
582.368	10044.55
582.728	10070.77
583.089	10093.14
583.449	10006.59
583.809	10065.79
584.169	10075.51
584.529	10090.43
584.889	10134.72
585.249	10079.81
585.609	10011.78
585.969	10097.43
586.329	10085
586.688	10130.2
587.048	10101.73
587.408	10096.75
587.768	10101.95
588.127	10076.42
588.487	10110.99
588.846	10136.75
589.206	10135.17
589.565	10144.44
589.925	10114.83
590.284	10105.12
590.643	10163.19
591.003	10181.5
591.362	10195.51
591.721	10143.98
592.08	10106.92
592.44	10110.77
592.799	10158.22
593.158	10259.46
593.517	10144.44
593.876	10277.54
594.235	10183.08
594.593	10252.91
594.952	10228.28
595.311	10169.29
595.67	10188.5
596.029	10203.64
596.387	10217.88
596.746	10254.26
597.104	10207.71
597.463	10234.38
597.822	10230.99
598.18	10282.51
598.538	10296.52
598.897	10348.05
599.255	10241.61
599.613	10331.32
599.972	10314.83
600.33	10308.73
600.688	10256.75
601.046	10297.88
601.404	10390.53
601.762	10341.95
602.12	10343.3
602.478	10322.51
602.836	10380.81
603.194	10316.86
603.552	10348.95
603.91	10358.89
604.268	10456.52
604.625	10292
604.983	10362.74
605.341	10375.62
605.698	10406.8
606.056	10325
606.413	10419.01
606.771	10426.46
607.128	10427.59
607.485	10412.9
607.843	10388.27
608.2	10459.23
608.557	10522.73
608.914	10493.13
609.272	10474.37
609.629	10478.67
609.986	10574.03
610.343	10543.3
610.7	10539
611.057	10573.13
611.414	10511.66
611.771	10522.51
612.127	10642.05
612.484	10580.13
612.841	10595.27
613.198	10454.48
613.554	10561.15
613.911	10671.65
614.267	10628.04
614.624	10633.24
614.98	10701.71
615.337	10696.51
615.693	10729.51
616.05	10623.97
616.406	10729.28
616.762	10707.59
617.118	10700.13
617.475	10627.81
617.831	10741.48
618.187	10706
618.543	10668.49
618.899	10849.5
619.255	10821.03
619.611	10783.29
619.967	10745.78
620.323	10866.9
620.678	10847.24
621.034	10731.99
621.39	10741.94
621.746	10717.53
622.101	10882.5
622.457	10802.72
622.812	10826.23
623.168	10854.7
623.523	10751.88
623.879	10873.46
624.234	10821.71
624.589	10840.69
624.945	10841.14
625.3	10815.38
625.655	10818.32
626.01	10923.17
626.365	10824.64
626.72	10835.04
627.075	10870.97
627.43	10786.23
627.785	10788.71
628.14	10787.81
628.495	10852.89
628.85	10850.18
629.205	10796.85
629.559	10854.02
629.914	10832.33
630.269	10783.74
630.623	10754.82
630.978	10759.79
631.332	10784.65
631.687	10803.18
632.041	10787.58
632.396	10722.73
632.75	10769.28
633.104	10759.56
633.459	10689.28
633.813	10698.77
634.167	10660.36
634.521	10705.33
634.875	10760.24
635.229	10634.82
635.583	10657.64
635.937	10661.49
636.291	10644.54
636.645	10669.17
636.999	10677.76
637.352	10697.42
637.706	10545.1
638.06	10625.78
638.413	10636.85
638.767	10572.22
639.121	10615.84
639.474	10569.28
639.828	10547.82
640.181	10562.05
640.534	10591.88
640.888	10523.64
641.241	10530.87
641.594	10479.8
641.947	10605.22
642.301	10569.06
642.654	10575.16
643.007	10560.02
643.36	10531.55
643.713	10552.34
644.066	10578.1
644.419	10504.88
644.771	10388.95
645.124	10283.19
645.477	10320.93
645.83	10252
646.182	10229.41
646.535	10192.34
646.888	10171.1
647.24	10142.4
647.593	10269.63
647.945	10204.1
648.298	10153.02
648.65	10156.41
649.002	10093.36
649.355	10198.67
649.707	10199.35
650.059	10171.78
650.411	10283.64
650.763	10309.86
651.115	10448.61
651.467	10388.27
651.819	10411.55
652.171	10369.97
652.523	10347.14
652.875	10353.02
653.227	10327.48
653.578	10386.24
653.93	10367.26
654.282	10352.57
654.633	10337.88
654.985	10358.44
655.337	10298.1
655.688	10442.73
656.039	10398.67
656.391	10246.35
656.742	10352.34
657.094	10307.14
657.445	10296.75
657.796	10290.2
658.147	10364.54
658.498	10312.34
658.849	10328.16
659.2	10360.7
659.551	10326.58
659.902	10335.62
660.253	10333.81
660.604	10347.14
660.955	10312.12
661.306	10371.55
661.656	10310.99
662.007	10335.39
662.358	10380.81
662.708	10362.51
663.059	10282.51
663.409	10297.65
663.76	10365.9
664.11	10285.68
664.461	10326.13
664.811	10363.41
665.161	10351.21
665.511	10349.85
665.862	10341.04
666.212	10372.45
666.562	10340.59
666.912	10335.84
667.262	10306.47
667.612	10337.65
667.962	10315.96
668.312	10314.15
668.662	10349.63
669.011	10357.54
669.361	10243.42
669.711	10273.92
670.06	10248.16
670.41	10240.25
670.76	10236.19
671.109	10288.16
671.459	10323.64
671.808	10252
672.157	10262.4
672.507	10227.37
672.856	10235.28
673.205	10197.99
673.554	10277.54
673.904	10168.84
674.253	10301.49
674.602	10257.2
674.951	10061.73
675.3	9953.93
675.649	10184.66
675.998	10149.86
676.346	10168.16
676.695	10272.79
677.044	10092.69
677.393	10172.68
677.741	10119.13
678.09	10086.59
678.438	10111.22
678.787	10104.89
679.135	10037.09
679.484	10039.13
679.832	10086.13
680.181	9994.38
680.529	10052.69
680.877	9986.02
681.225	10005.68
681.573	9980.37
681.922	9944.67
682.27	9960.03
682.618	9966.36
682.966	9973.59
683.314	9912.35
683.661	9860.15
684.009	9878.23
684.357	9889.08
684.705	9803.43
685.053	9825.8
685.4	9845.24
685.748	9751
686.095	9803.2
686.443	9740.61
686.79	9791.23
687.138	9710.32
687.485	9700.83
687.832	9633.04
688.18	9656.77
688.527	9653.83
688.874	9630.1
689.221	9584.45
689.568	9541.74
689.915	9552.36
690.262	9528.86
690.609	9490.44
690.956	9407.51
691.303	9506.71
691.65	9379.71
691.997	9416.55
692.344	9342.42
692.69	9328.64
693.037	9299.71
693.383	9184.91
693.73	9272.14
694.077	9134.52
694.423	9253.61
694.769	9174.74
695.116	9111.7
695.462	9171.81
695.808	9092.94
696.155	9110.34
696.501	9040.06
696.847	9024.47
697.193	8916.9
697.539	8943.56
697.885	8925.03
698.231	8891.36
698.577	8932.04
698.923	8882.55
699.269	8865.83
699.614	8852.27
699.96	8768.43
700.306	8730.24
700.651	8721.88
700.997	8741.31
701.342	8689.56
701.688	8609.34
702.033	8652.05
702.379	8600.3
702.724	8582.67
703.069	8582.44
703.415	8526.4
703.76	8464.03
704.105	8481.88
704.45	8508.1
704.795	8437.36
705.14	8426.74
705.485	8420.64
705.83	8362.56
706.175	8392.84
706.52	8294.09
706.865	8311.04
707.209	8337.7
707.554	8236.92
707.899	8256.12
708.243	8214.77
708.588	8194.21
708.932	8206.86
709.277	8160.76
709.621	8174.54
709.966	8120.76
710.31	8083.02
710.654	8043.7
710.998	8064.72
711.342	8141.1
711.687	8087.77
712.031	7994.66
712.375	7919.86
712.719	7998.05
713.063	7958.05
713.407	8022.68
713.75	7979.97
714.094	7961.9
714.438	7913.53
714.782	7931.61
715.125	7946.75
715.469	7886.19
715.812	7856.59
716.156	7859.98
716.499	7806.42
716.843	7826.08
717.186	7808
717.53	7854.55
717.873	7876.02
718.216	7842.35
718.559	7791.96
718.902	7750.15
719.246	7763.71
719.589	7832.18
719.932	7747.44
720.275	7722.58
720.617	7704.73
720.96	7675.58
721.303	7714.22
721.646	7783.59
721.989	7703.6
722.331	7736.82
722.674	7754.67
723.016	7719.87
723.359	7692.98
723.701	7728.23
724.044	7643.94
724.386	7619.08
724.729	7664.5
725.071	7592.87
725.413	7648.91
725.755	7626.54
726.097	7625.86
726.439	7600.55
726.782	7599.87
727.124	7623.37
727.465	7569.59
727.807	7551.51
728.149	7633.77
728.491	7558.74
728.833	7577.5
729.175	7596.93
729.516	7506.31
729.858	7501.79
730.199	7536.6
730.541	7588.57
730.882	7504.51
731.224	7581.11
731.565	7517.16
731.906	7529.59
732.248	7522.58
732.589	7521.68
732.93	7483.72
733.271	7507.22
733.612	7526.65
733.953	7512.19
734.294	7494.56
734.635	7466.31
734.976	7542.25
735.317	7487.78
735.658	7439.42
735.999	7498.18
736.339	7550.83
736.68	7507.44
737.021	7471.96
737.361	7463.15
737.702	7461.8
738.042	7464.28
738.383	7424.06
738.723	7491.63
739.063	7439.42
739.404	7478.52
739.744	7405.3
740.084	7419.54
740.424	7474.9
740.764	7453.43
741.104	7445.75
741.444	7449.37
741.784	7429.48
742.124	7427.45
742.464	7495.69
742.804	7445.3
743.143	7399.88
743.483	7374.57
743.823	7436.03
744.162	7388.12
744.502	7410.5
744.841	7399.2
745.181	7388.35
745.52	7375.7
745.86	7414.34
746.199	7424.96
746.538	7382.48
746.877	7452.3
747.216	7426.32
747.556	7410.5
747.895	7439.87
748.234	7363.27
748.573	7415.47
748.911	7364.62
749.25	7326.88
749.589	7337.5
749.928	7378.18
750.267	7335.92
750.605	7324.62
750.944	7293.44
751.283	7305.42
751.621	7376.6
751.96	7269.26
752.298	7323.95
752.636	7291.4
752.975	7332.76
753.313	7267
753.651	7276.26
753.989	7236.94
754.327	7257.28
754.666	7229.26
755.004	7267.68
755.342	7313.1
755.679	7283.27
756.017	7139.77
756.355	7226.77
756.693	7201.01
757.031	7193.33
757.368	7142.93
757.706	7171.41
758.044	7142.26
758.381	7166.21
758.719	7109.71
759.056	7082.37
759.394	7086.21
759.731	7029.04
760.068	7073.1
760.405	7007.12
760.743	7013.67
761.08	6998.98
761.417	6956.27
761.754	7003.05
762.091	6968.93
762.428	6972.09
762.765	6912.21
763.102	6931.64
763.438	6852.77
763.775	6812.09
764.112	6880.79
764.449	6884.64
764.785	6833.56
765.122	6700.69
765.458	6678.77
765.795	6753.57
766.131	6733.23
766.467	6709.27
766.804	6693.23
767.14	6668.14
767.476	6660.46
767.812	6615.04
768.148	6645.77
768.485	6596.06
768.821	6544.31
769.157	6557.86
769.492	6537.98
769.828	6495.72
770.164	6492.56
770.5	6441.71
770.836	6479.45
771.171	6451.2
771.507	6433.57
771.842	6379.34
772.178	6389.28
772.513	6351.32
772.849	6350.86
773.184	6355.61
773.519	6384.08
773.855	6235.61
774.19	6310.19
774.525	6231.77
774.86	6264.76
775.195	6186.57
775.53	6190.87
775.865	6206.24
776.2	6167.82
776.535	6090.98
776.87	6097.76
777.205	6061.61
777.539	6018.22
777.874	6031.1
778.209	6008.05
778.543	5991.1
778.878	5895.51
779.212	5988.84
779.547	5932.12
779.881	5902.29
780.215	5902.74
780.55	5934.15
780.884	5830.65
781.218	5855.28
781.552	5801.73
781.886	5841.27
782.22	5780.03
782.554	5767.83
782.888	5771.9
783.222	5673.37
783.556	5650.77
783.889	5668.62
784.223	5612.58
784.557	5595.86
784.89	5644.22
785.224	5606.02
785.557	5586.14
785.891	5608.96
786.224	5559.7
786.558	5532.35
786.891	5507.95
787.224	5470.21
787.557	5453.71
787.891	5473.15
788.224	5458.68
788.557	5468.4
788.89	5389.31
789.223	5429.31
789.556	5383.21
789.888	5351.34
790.221	5361.51
790.554	5259.14
790.887	5278.12
791.219	5295.52
791.552	5307.73
791.884	5219.59
792.217	5220.27
792.549	5187.5
792.882	5220.05
793.214	5182.31
793.546	5189.76
793.879	5123.1
794.211	5123.78
794.543	5101.86
794.875	5070.67
795.207	5066.15
795.539	5058.24
795.871	5095.3
796.203	5012.14
796.535	5046.72
796.867	5023.89
797.198	5006.49
797.53	4965.36
797.862	4980.05
798.193	5006.49
798.525	4902.54
798.856	4983.67
799.188	4867.51
799.519	4923.56
799.85	4925.14
800.182	4900.28
800.513	4849.21
800.844	4828.42
801.175	4859.38
801.506	4834.07
801.837	4829.55
802.168	4806.27
802.499	4819.15
802.83	4716.1
803.161	4745.93
803.491	4773.5
803.822	4707.52
804.153	4701.42
804.483	4679.5
804.814	4702.77
805.145	4653.96
805.475	4622.77
805.805	4695.09
806.136	4666.61
806.466	4622.55
806.796	4635.65
807.126	4574.64
807.457	4576.45
807.787	4596.33
808.117	4570.8
808.447	4542.55
808.777	4516.34
809.107	4572.83
809.436	4497.35
809.766	4484.02
810.096	4496.68
810.426	4516.34
810.755	4502.55
811.085	4448.77
811.414	4491.03
811.744	4498.48
812.073	4437.69
812.403	4427.98
812.732	4400.63
813.061	4377.81
813.39	4351.59
813.719	4345.49
814.049	4352.72
814.378	4388.43
814.707	4373.74
815.036	4312.27
815.365	4316.57
815.693	4285.16
816.022	4290.13
816.351	4251.94
816.68	4306.85
817.008	4263.24
817.337	4209
817.665	4243.12
817.994	4245.83
818.322	4196.12
818.651	4209.23
818.979	4201.09
819.307	4216.68
819.636	4240.19
819.964	4154.31
820.292	4184.59
820.62	4158.61
820.948	4171.26
821.276	4193.18
821.604	4179.62
821.932	4195.89
822.259	4147.53
822.587	4177.59
822.915	4148.21
823.243	4144.59
823.57	4162.67
823.898	4161.32
824.225	4172.39
824.553	4152.28
824.88	4148.21
825.207	4147.98
825.535	4166.97
825.862	4154.99
826.189	4160.87
826.516	4175.55
826.843	4179.17
827.17	4142.56
827.497	4159.96
827.824	4171.03
828.151	4174.2
828.478	4151.83
828.805	4177.36
829.131	4118.15
829.458	4152.28
829.785	4140.75
830.111	4141.2
830.438	4129.91
830.764	4151.37
831.09	4154.99
831.417	4102.79
831.743	4143.69
832.069	4136.91
832.395	4107.99
832.722	4142.56
833.048	4111.15
833.374	4121.32
833.7	4102.56
834.026	4101.43
834.351	4072.05
834.677	4106.4
835.003	4128.78
835.329	4127.87
835.654	4098.49
835.98	4095.78
836.306	4115.22
836.631	4032.51
836.956	4106.18
837.282	4092.62
837.607	4058.49
837.932	4082.45
838.258	4067.99
838.583	4019.4
838.908	4000.87
839.233	4034.77
839.558	3997.93
839.883	4008.78
840.208	4022.56
840.533	3971.72
840.858	3997.48
841.182	4043.13
841.507	3978.27
841.832	3940.53
842.156	3963.58
842.481	3985.73
842.805	3986.63
843.13	3926.3
843.454	3916.35
843.778	3909.57
844.103	3928.1
844.427	3932.17
844.751	3918.84
845.075	3880.87
845.399	3865.96
845.723	3912.96
846.047	3847.43
846.371	3865.96
846.695	3867.31
847.019	3796.81
847.343	3815.56
847.666	3802.91
847.99	3765.85
848.313	3762.01
848.637	3730.82
848.96	3770.37
849.284	3736.47
849.607	3691.95
849.931	3713.42
850.254	3704.15
850.577	3653.99
850.9	3667.54
851.223	3617.15
851.546	3628
851.869	3592.97
852.192	3619.64
852.515	3602.46
852.838	3555.68
853.161	3552.52
853.483	3547.1
853.806	3516.81
854.129	3546.19
854.451	3542.35
854.774	3501.67
855.096	3496.25
855.419	3513.88
855.741	3477.27
856.063	3461.67
856.385	3475.46
856.708	3439.98
857.03	3469.81
857.352	3433.88
857.674	3413.77
857.996	3450.15
858.318	3382.35
858.64	3396.82
858.961	3424.16
859.283	3348.01
859.605	3357.04
859.926	3375.12
860.248	3359.76
860.57	3372.86
860.891	3347.33
861.212	3312.07
861.534	3343.49
861.855	3341.68
862.176	3318.63
862.498	3317.95
862.819	3334.67
863.14	3262.58
863.461	3282.24
863.782	3291.51
864.103	3272.3
864.424	3228.01
864.745	3264.62
865.065	3243.6
865.386	3280.89
865.707	3241.79
866.027	3230.95
866.348	3212.64
866.668	3252.41
866.989	3199.31
867.309	3228.46
867.63	3187.78
867.95	3239.08
868.27	3225.52
868.59	3209.93
868.91	3163.6
869.23	3145.98
869.55	3203.83
869.87	3206.99
870.19	3188.24
870.51	3190.95
870.83	3170.83
871.15	3158.18
871.469	3173.77
871.789	3191.63
872.109	3185.3
872.428	3144.39
872.748	3163.6
873.067	3110.05
873.386	3138.07
873.706	3158.63
874.025	3136.26
874.344	3158.41
874.663	3099.2
874.982	3121.8
875.301	3123.38
875.62	3119.08
875.939	3079.31
876.258	3110.5
876.577	3104.4
876.896	3094.23
877.214	3069.59
877.533	3083.15
877.852	3089.71
878.17	3066.88
878.489	3062.14
878.807	3072.08
879.125	3040.44
879.444	3029.14
879.762	3037.28
880.08	3058.3
880.398	3052.65
880.716	3021.46
881.034	3045.41
881.352	3013.78
881.67	3021.69
881.988	3008.81
882.306	3023.49
882.624	2992.08
882.941	2972.65
883.259	2986.88
883.577	2968.81
883.894	2969.48
884.212	2954.8
884.529	2967.68
884.846	2971.74
885.164	2951.86
885.481	2914.12
885.798	2948.24
886.115	2913.67
886.432	2946.89
886.75	2911.63
887.067	2916.83
887.383	2906.21
887.7	2926.1
888.017	2891.07
888.334	2903.5
888.651	2880.22
888.967	2883.16
889.284	2855.81
889.6	2825.08
889.917	2843.84
890.233	2829.83
890.55	2803.39
890.866	2817.62
891.182	2783.73
891.498	2816.95
891.815	2798.19
892.131	2790.28
892.447	2796.16
892.763	2789.15
893.079	2784.86
893.395	2783.95
893.71	2759.77
894.026	2773.33
894.342	2747.12
894.657	2738.08
894.973	2757.96
895.289	2734.91
895.604	2755.93
895.92	2700.34
896.235	2681.36
896.55	2711.41
896.865	2689.72
897.181	2682.26
897.496	2692.88
897.811	2634.13
898.126	2625.54
898.441	2644.07
898.756	2640
899.071	2626.67
899.386	2636.39
899.7	2562.26
900.015	2602.04
900.33	2607.01
900.644	2567.69
900.959	2598.19
901.273	2592.77
901.588	2574.92
901.902	2548.25
902.216	2516.16
902.531	2543.96
902.845	2550.29
903.159	2519.1
903.473	2529.04
903.787	2521.36
904.101	2507.58
904.415	2484.53
904.729	2480.46
905.042	2456.28
905.356	2479.1
905.67	2488.59
905.984	2467.12
906.297	2468.71
906.611	2416.73
906.924	2447.69
907.237	2432.1
907.551	2424.41
907.864	2389.39
908.177	2349.16
908.491	2386.9
908.804	2356.39
909.117	2369.05
909.43	2350.97
909.743	2342.38
910.056	2341.93
910.368	2320.01
910.681	2316.39
910.994	2316.17
911.307	2255.6
911.619	2277.75
911.932	2312.1
912.244	2303.74
912.557	2293.34
912.869	2294.7
913.181	2282.95
913.494	2274.36
913.806	2237.75
914.118	2262.61
914.43	2233.68
914.742	2226
915.054	2188.71
915.366	2180.8
915.678	2177.19
915.99	2207.92
916.302	2186.45
916.613	2195.72
916.925	2156.4
917.236	2149.84
917.548	2153.01
917.859	2171.31
918.171	2159.79
918.482	2142.61
918.794	2115.72
919.105	2141.26
919.416	2087.93
919.727	2091.09
920.038	2070.98
920.349	2080.92
920.66	2066
920.971	2075.04
921.282	2047.93
921.593	2076.4
921.903	2036.4
922.214	2042.05
922.525	2042.5
922.835	2026.46
923.146	1993.01
923.456	2017.19
923.767	2016.29
924.077	1969.74
924.387	1975.39
924.697	1988.27
925.008	2003.18
925.318	1981.04
925.628	1973.8
925.938	1966.12
926.248	1972
926.558	1936.52
926.867	1942.39
927.177	1922.05
927.487	1908.04
927.796	1875.73
928.106	1869.4
928.416	1886.12
928.725	1890.42
929.034	1890.64
929.344	1862.62
929.653	1891.55
929.962	1867.37
930.271	1859.46
930.581	1811.32
930.89	1843.41
931.199	1828.5
931.508	1804.77
931.817	1814.26
932.125	1804.99
932.434	1833.24
932.743	1821.04
933.051	1790.76
933.36	1800.02
933.669	1757.99
933.977	1761.61
934.286	1751.89
934.594	1784.66
934.902	1765.22
935.21	1749.86
935.519	1750.76
935.827	1747.37
936.135	1739.69
936.443	1753.02
936.751	1752.11
937.059	1707.14
937.367	1704.66
937.674	1724.77
937.982	1690.65
938.29	1692.46
938.597	1700.14
938.905	1659.24
939.213	1666.47
939.52	1655.17
939.827	1667.6
940.135	1641.38
940.442	1656.3
940.749	1621.5
941.056	1639.58
941.363	1597.77
941.67	1638.45
941.977	1606.13
942.284	1593.25
942.591	1619.24
942.898	1583.08
943.205	1588.73
943.511	1603.42
943.818	1609.97
944.125	1578.79
944.431	1599.8
944.738	1558.22
945.044	1548.5
945.35	1560.03
945.657	1508.96
945.963	1525.68
946.269	1526.58
946.575	1542.85
946.881	1553.25
947.187	1556.87
947.493	1498.79
947.799	1500.6
948.105	1503.53
948.41	1502.63
948.716	1496.08
949.022	1504.21
949.327	1480.03
949.633	1471.67
949.938	1475.29
950.244	1469.41
950.549	1476.87
950.854	1453.59
951.16	1437.77
951.465	1456.98
951.77	1427.38
952.075	1430.99
952.38	1433.71
952.685	1409.07
952.99	1449.98
953.294	1406.59
953.599	1382.63
953.904	1413.37
954.209	1395.97
954.513	1405.46
954.818	1405.23
955.122	1398.68
955.426	1390.32
955.731	1382.86
956.035	1370.43
956.339	1393.48
956.643	1383.09
956.948	1337.21
957.252	1347.15
957.556	1336.08
957.86	1364.1
958.163	1329.3
958.467	1334.27
958.771	1343.31
959.075	1310.54
959.378	1318.68
959.682	1313.48
959.985	1304.9
960.289	1308.74
960.592	1311.22
960.896	1276.2
961.199	1276.65
961.502	1291.34
961.805	1264.22
962.108	1275.74
962.411	1287.04
962.714	1248.63
963.017	1277.78
963.32	1285.23
963.623	1258.57
963.926	1263.99
964.228	1252.92
964.531	1241.39
964.833	1245.01
965.136	1208.17
965.438	1235.74
965.741	1202.07
966.043	1185.8
966.345	1214.05
966.648	1209.3
966.95	1200.04
967.252	1191.9
967.554	1203.88
967.856	1197.78
968.158	1192.36
968.46	1191.23
968.761	1199.59
969.063	1225.12
969.365	1164.56
969.666	1151.9
969.968	1156.2
970.269	1161.17
970.571	1176.31
970.872	1140.61
971.174	1167.05
971.475	1163.43
971.776	1148.97
972.077	1118.46
972.378	1128.63
972.679	1127.95
972.98	1136.31
973.281	1120.04
973.582	1129.31
973.883	1137.22
974.183	1126.82
974.484	1110.1
974.785	1125.46
975.085	1082.98
975.386	1103.32
975.686	1101.28
975.986	1107.39
976.287	1102.19
976.587	1080.49
976.887	1091.79
977.187	1050.89
977.487	1079.14
977.787	1046.82
978.087	1060.16
978.387	1061.06
978.687	1077.33
978.987	1058.12
979.286	1025.81
979.586	1050.66
979.885	1028.29
980.185	1062.64
980.484	1046.82
980.784	1020.61
981.083	1027.16
981.382	1031
981.682	996.2
981.981	1029.65
982.28	998.69
982.579	1014.73
982.878	1015.86
983.177	996.65
983.475	983.32
983.774	991.01
984.073	987.16
984.372	981.97
984.67	976.99
984.969	977.22
985.267	990.1
985.566	972.02
985.864	960.5
986.162	952.81
986.461	970.89
986.759	976.54
987.057	941.74
987.355	960.5
987.653	944.9
987.951	964.11
988.249	953.27
988.547	986.49
988.844	940.38
989.142	956.43
989.44	939.93
989.737	952.59
990.035	934.96
990.332	922.98
990.63	904.91
990.927	905.81
991.224	899.03
991.521	910.33
991.819	938.35
992.116	913.49
992.413	915.75
992.71	908.75
993.006	886.6
993.303	874.4
993.6	884.34
993.897	880.95
994.193	884.12
994.49	868.52
994.787	878.24
995.083	876.43
995.379	874.85
995.676	865.13
995.972	886.37
996.268	861.06
996.565	868.97
996.861	858.13
997.157	858.13
997.453	857.22
997.749	833.5
998.044	854.29
998.34	842.99
998.636	824.91
998.932	824.46
999.227	800.73
999.523	819.71
999.818	821.97
1000.114	834.85
1000.409	824.23
1000.704	822.87
1001	837.56
1001.295	811.8
1001.59	808.64
1001.885	833.04
1002.18	816.77
1002.475	806.38
1002.77	775.42
1003.065	805.7
1003.359	802.99
1003.654	801.63
1003.949	782.42
1004.243	760.05
1004.538	797.56
1004.832	769.54
1005.127	777.45
1005.421	755.76
1005.715	784
1006.009	755.98
1006.304	774.51
1006.598	738.81
1006.892	745.81
1007.186	746.72
1007.48	732.71
1007.773	732.93
1008.067	746.49
1008.361	747.17
1008.655	743.1
1008.948	749.43
1009.242	701.3
1009.535	730.67
1009.829	719.37
1010.122	711.92
1010.415	726.15
1010.708	694.29
1011.001	720.5
1011.295	713.95
1011.588	719.37
1011.881	688.64
1012.173	707.4
1012.466	704.46
1012.759	719.37
1013.052	729.54
1013.344	708.07
1013.637	675.99
1013.93	678.7
1014.222	665.14
1014.514	667.4
1014.807	684.35
1015.099	695.42
1015.391	678.7
1015.683	695.42
1015.976	671.01
1016.268	678.24
1016.56	666.49
1016.851	660.84
1017.143	666.95
1017.435	652.71
1017.727	636.89
1018.018	647.06
1018.31	635.31
1018.602	630.34
1018.893	633.73
1019.185	617
1019.476	635.53
1019.767	641.86
1020.058	637.34
1020.35	629.88
1020.641	635.53
1020.932	621.07
1021.223	623.11
1021.514	618.36
1021.804	587.17
1022.095	620.85
1022.386	621.07
1022.677	598.47
1022.967	594.86
1023.258	600.51
1023.548	581.75
1023.839	593.28
1024.129	596.67
1024.419	597.12
1024.709	582.43
1025	566.61
1025.29	581.98
1025.58	594.18
1025.87	565.71
1026.16	566.38
1026.449	567.29
1026.739	571.58
1027.029	561.86
1027.319	550.11
1027.608	552.82
1027.898	548.76
1028.187	565.48
1028.477	570
1028.766	553.28
1029.055	563.22
1029.344	543.11
1029.634	557.12
1029.923	534.75
1030.212	554.86
1030.501	544.46
1030.79	530.68
1031.078	546.5
1031.367	529.1
1031.656	541.75
1031.945	540.17
1032.233	526.61
1032.522	537.23
1032.81	512.37
1033.099	533.84
1033.387	532.03
1033.675	538.36
1033.963	505.14
1034.251	519.38
1034.54	525.25
1034.828	512.6
1035.116	527.97
1035.403	517.57
1035.691	507.4
1035.979	490.23
1036.267	496.33
1036.554	539.72
1036.842	490.45
1037.129	503.11
1037.417	483.45
1037.704	506.27
1037.992	493.84
1038.279	506.72
1038.566	478.02
1038.853	478.02
1039.14	478.02
