Data from mousepad_grey_FLMS001491_00036.txt Node
Date: Wed Feb 08 14:29:21 GMT 2017
User: dcchb
Spectrometer: FLMS00149
Trigger mode: 0
Integration Time (sec): 2.000000E-2
Scans to average: 10
Electric dark correction enabled: true
Nonlinearity correction enabled: false
Boxcar width: 0
XAxis mode: Wavelengths
Number of Pixels in Spectrum: 2048
>>>>>Begin Spectral Data<<<<<
341.393	-17.95
341.776	-17.95
342.16	-17.95
342.543	-41.23
342.927	-61.57
343.31	-57.27
343.693	-47.1
344.077	-87.78
344.46	-64.05
344.843	-53.66
345.226	-46.43
345.61	-31.51
345.993	-36.48
346.376	-1.68
346.759	13.91
347.142	23.18
347.525	51.2
347.908	64.08
348.291	79.45
348.674	96.85
349.057	97.3
349.44	112.21
349.823	123.74
350.206	164.87
350.588	174.13
350.971	189.27
351.354	201.25
351.737	206.22
352.119	234.7
352.502	255.94
352.884	262.72
353.267	268.82
353.65	289.61
354.032	275.83
354.414	298.42
354.797	297.97
355.179	305.88
355.562	317.41
355.944	302.49
356.326	324.19
356.709	310.4
357.091	329.61
357.473	332.1
357.855	330.29
358.238	328.03
358.62	317.18
359.002	313.79
359.384	318.31
359.766	314.02
360.148	335.03
360.53	301.81
360.912	316.5
361.294	308.82
361.676	314.92
362.057	331.19
362.439	330.51
362.821	299.1
363.203	316.28
363.584	316.28
363.966	315.6
364.348	297.52
364.729	302.27
365.111	298.65
365.493	307.92
365.874	271.53
366.256	308.37
366.637	301.36
367.019	290.74
367.4	301.81
367.781	281.02
368.163	310.63
368.544	311.53
368.925	301.36
369.306	306.79
369.688	307.46
370.069	301.14
370.45	300.01
370.831	294.36
371.212	306.56
371.593	297.97
371.974	307.24
372.355	306.33
372.736	304.07
373.117	293.45
373.498	305.43
373.879	289.84
374.26	310.18
374.641	307.24
375.021	281.48
375.402	284.19
375.783	307.24
376.163	302.49
376.544	294.36
376.925	322.6
377.305	292.1
377.686	310.85
378.066	307.46
378.447	306.79
378.827	309.72
379.208	323.73
379.588	307.01
379.968	300.91
380.349	324.86
380.729	296.84
381.109	314.92
381.489	319.89
381.87	308.82
382.25	314.02
382.63	329.61
383.01	309.27
383.39	315.83
383.77	322.6
384.15	315.15
384.53	311.31
384.91	324.41
385.29	325.09
385.67	332.77
386.049	342.49
386.429	323.06
386.809	333
387.189	329.84
387.568	327.8
387.948	337.07
388.328	347.91
388.707	312.21
389.087	330.74
389.466	324.64
389.846	332.77
390.225	327.58
390.605	349.5
390.984	333.9
391.363	321.93
391.743	356.28
392.122	349.27
392.501	341.36
392.881	345.88
393.26	373.9
393.639	347.69
394.018	354.69
394.397	336.84
394.776	338.42
395.155	346.11
395.534	362.15
395.913	371.87
396.292	353.11
396.671	369.83
397.05	365.99
397.429	354.92
397.808	351.08
398.186	356.05
398.565	351.3
398.944	367.58
399.323	363.73
399.701	384.52
400.08	379.33
400.458	364.41
400.837	383.39
401.215	379.33
401.594	372.77
401.972	389.72
402.351	382.26
402.729	413.22
403.107	358.76
403.486	383.39
403.864	398.76
404.242	398.31
404.62	396.27
404.999	407.35
405.377	396.95
405.755	402.83
406.133	393.56
406.511	388.37
406.889	405.54
407.267	422.04
407.645	402.38
408.023	417.07
408.401	441.7
408.779	441.02
409.156	433.79
409.534	438.53
409.912	416.16
410.29	427.23
410.667	437.4
411.045	435.6
411.422	441.47
411.8	443.73
412.178	456.16
412.555	441.02
412.933	462.26
413.31	457.97
413.687	462.04
414.065	453.22
414.442	454.58
414.819	469.72
415.197	479.21
415.574	462.49
415.951	465.2
416.328	488.02
416.705	482.15
417.082	481.7
417.46	487.35
417.837	492.32
418.214	483.28
418.591	476.72
418.967	518.31
419.344	501.81
419.721	513.79
420.098	513.11
420.475	493
420.852	515.82
421.228	495.93
421.605	506.33
421.982	516.95
422.358	521.7
422.735	501.13
423.111	512.2
423.488	515.59
423.864	515.59
424.241	553.33
424.617	535.03
424.994	535.48
425.37	544.97
425.746	551.75
426.123	570.73
426.499	558.53
426.875	572.09
427.251	568.02
427.627	580.45
428.003	580
428.379	614.12
428.756	589.26
429.132	597.4
429.507	604.86
429.883	601.47
430.259	598.76
430.635	616.61
431.011	595.14
431.387	629.49
431.763	629.04
432.138	623.84
432.514	633.78
432.89	605.76
433.265	636.95
433.641	625.87
434.016	643.73
434.392	665.87
434.767	676.72
435.143	677.62
435.518	676.72
435.894	677.85
436.269	683.27
436.644	705.65
437.02	689.15
437.395	678.75
437.77	705.42
438.145	698.87
438.52	697.96
438.895	711.97
439.271	747.23
439.646	725.08
440.021	738.41
440.395	732.99
440.77	747
441.145	738.41
441.52	742.25
441.895	757.4
442.27	749.03
442.645	755.36
443.019	767.79
443.394	763.95
443.769	763.5
444.143	780.45
444.518	784.97
444.892	778.41
445.267	784.74
445.641	787
446.016	808.47
446.39	808.02
446.764	794.91
447.139	810.28
447.513	800.56
447.887	816.83
448.262	797.17
448.636	801.69
449.01	823.83
449.384	848.01
449.758	841.91
450.132	837.17
450.506	856.83
450.88	852.99
451.254	857.05
451.628	882.82
452.002	887.34
452.376	889.6
452.75	900.67
453.123	884.62
453.497	912.87
453.871	930.05
454.244	950.38
454.618	946.32
454.992	948.58
455.365	939.76
455.739	944.06
456.112	972.98
456.486	967.33
456.859	973.43
457.232	989.71
457.606	983.38
457.979	1025.18
458.352	1014.11
458.725	1032.64
459.099	1006.88
459.472	1041
459.845	1066.09
460.218	1071.29
460.591	1059.08
460.964	1085.07
461.337	1108.35
461.71	1107.22
462.083	1107.89
462.456	1132.07
462.829	1111.51
463.201	1130.94
463.574	1172.75
463.947	1155.35
464.32	1167.1
464.692	1176.14
465.065	1195.58
465.438	1200.55
465.81	1232.86
466.183	1249.13
466.555	1271.05
466.928	1266.53
467.3	1267.21
467.672	1269.47
468.045	1323.93
468.417	1300.21
468.789	1313.54
469.161	1335.69
469.534	1355.12
469.906	1369.81
470.278	1391.05
470.65	1387.44
471.022	1417.72
471.394	1413.42
471.766	1432.41
472.138	1440.54
472.51	1514.66
472.882	1506.75
473.253	1523.25
473.625	1539.07
473.997	1570.03
474.369	1585.85
474.74	1574.32
475.112	1585.4
475.484	1643.47
475.855	1657.71
476.227	1660.65
476.598	1678.73
476.97	1711.95
477.341	1765.96
477.713	1785.16
478.084	1773.87
478.455	1795.11
478.827	1809.12
479.198	1875.33
479.569	1876.91
479.94	1930.7
480.311	1944.26
480.682	2011.37
481.053	2008.89
481.424	2029
481.795	2054.31
482.166	2064.25
482.537	2092.5
482.908	2123.91
483.279	2149.22
483.65	2201.43
484.021	2232.61
484.391	2262.89
484.762	2240.97
485.133	2273.06
485.503	2311.48
485.874	2385.83
486.244	2391.02
486.615	2437.35
486.985	2442.1
487.356	2503.34
487.726	2522.55
488.097	2572.26
488.467	2558.48
488.837	2587.86
489.207	2624.24
489.578	2669.66
489.948	2694.29
490.318	2718.02
490.688	2698.59
491.058	2734.07
491.428	2797.79
491.798	2814.06
492.168	2861.75
492.538	2906.94
492.908	2897.45
493.278	2922.31
493.648	2962.54
494.017	3007.28
494.387	3008.86
494.757	3042.53
495.126	3041.63
495.496	3068.3
495.866	3091.35
496.235	3170.21
496.605	3176.99
496.974	3209.76
497.344	3224.9
497.713	3216.77
498.082	3240.95
498.452	3303.77
498.821	3287.27
499.19	3328.4
499.559	3311.45
499.928	3350.77
500.298	3367.5
500.667	3404.56
501.036	3438.45
501.405	3449.98
501.774	3435.97
502.143	3451.34
502.512	3468.74
502.88	3531.33
503.249	3508.28
503.618	3533.82
503.987	3553.03
504.356	3615.17
504.724	3601.16
505.093	3640.26
505.462	3632.57
505.83	3673.25
506.199	3702.18
506.567	3759.8
506.936	3788.95
507.304	3781.04
507.672	3795.73
508.041	3801.38
508.409	3807.26
508.777	3825.56
509.145	3878.44
509.514	3947.82
509.882	3948.72
510.25	3933.81
510.618	3996.63
510.986	3982.4
511.354	4057.87
511.722	4045.67
512.09	4139.23
512.458	4076.63
512.826	4111.66
513.193	4164.99
513.561	4157.08
513.929	4168.83
514.297	4253.57
514.664	4264.2
515.032	4265.33
515.4	4316.62
515.767	4312.56
516.135	4404.31
516.502	4334.93
516.869	4388.71
517.237	4430.52
517.604	4476.39
517.972	4490.63
518.339	4520.01
518.706	4542.83
519.073	4556.17
519.44	4552.55
519.808	4617.63
520.175	4645.88
520.542	4729.27
520.909	4729.49
521.276	4717.29
521.643	4787.8
522.009	4799.32
522.376	4801.81
522.743	4841.13
523.11	4913.22
523.477	4892.88
523.843	4988.47
524.21	5002.71
524.577	5092.65
524.943	5030.73
525.31	5063.04
525.676	5091.52
526.043	5123.83
526.409	5153.89
526.776	5270.05
527.142	5264.62
527.508	5305.3
527.874	5322.7
528.241	5334.45
528.607	5355.01
528.973	5436.14
529.339	5445.86
529.705	5454.67
530.071	5549.13
530.437	5545.29
530.803	5547.55
531.169	5600.43
531.535	5614.22
531.901	5614.44
532.267	5642.92
532.632	5703.48
532.998	5732.63
533.364	5719.07
533.73	5746.64
534.095	5799.75
534.461	5844.04
534.826	5886.07
535.192	5903.02
535.557	5967.88
535.923	5884.49
536.288	5965.39
536.653	6012.17
537.019	6059.63
537.384	6025.51
537.749	6124.03
538.114	6107.54
538.479	6107.54
538.845	6122.23
539.21	6162.45
539.575	6187.76
539.94	6195.22
540.305	6267.08
540.67	6211.26
541.034	6261.88
541.399	6281.32
541.764	6315.22
542.129	6334.2
542.494	6385.72
542.858	6398.38
543.223	6340.07
543.587	6446.96
543.952	6475.66
544.316	6463.69
544.681	6507.07
545.045	6545.27
545.41	6554.08
545.774	6649.67
546.138	6616
546.503	6641.99
546.867	6650.35
547.231	6709.33
547.595	6746.84
547.959	6689.44
548.324	6801.08
548.688	6801.76
549.052	6805.6
549.416	6830
549.779	6907.06
550.143	6861.42
550.507	6929.66
550.871	6932.83
551.235	6985.71
551.599	7062.77
551.962	7053.05
552.326	7021.19
552.689	7094.63
553.053	7146.61
553.417	7108.64
553.78	7183.89
554.143	7192.93
554.507	7236.32
554.87	7244
555.234	7299.6
555.597	7278.58
555.96	7305.02
556.323	7354.51
556.686	7358.8
557.05	7402.87
557.413	7466.15
557.776	7430.89
558.139	7484.45
558.502	7536.43
558.865	7543.88
559.228	7586.82
559.59	7620.94
559.953	7654.16
560.316	7731.68
560.679	7753.37
561.041	7794.27
561.404	7824.33
561.767	7818
562.129	7895.29
562.492	7884.44
562.854	7924.89
563.217	7926.25
563.579	7966.25
563.941	7972.8
564.304	8032.68
564.666	8061.16
565.028	8094.6
565.39	8107.03
565.753	8296.18
566.115	8177.77
566.477	8204.88
566.839	8271.55
567.201	8326.46
567.563	8304.54
567.925	8388.16
568.287	8421.37
568.648	8430.19
569.01	8447.81
569.372	8544.08
569.734	8539.56
570.095	8565.55
570.457	8557.64
570.819	8623.86
571.18	8584.08
571.542	8644.42
571.903	8665.66
572.265	8681.71
572.626	8751.08
572.987	8749.05
573.349	8777.98
573.71	8818.43
574.071	8845.54
574.432	8862.94
574.794	8935.26
575.155	8901.14
575.516	8945.2
575.877	8928.25
576.238	8956.28
576.599	9000.12
576.96	8991.53
577.32	9033.79
577.681	9037.18
578.042	9080.34
578.403	9067.46
578.763	9108.81
579.124	9054.35
579.485	9122.15
579.845	9164.86
580.206	9184.52
580.566	9187.68
580.927	9213.22
581.287	9211.64
581.648	9222.48
582.008	9251.18
582.368	9219.77
582.728	9245.31
583.089	9243.27
583.449	9304.29
583.809	9304.52
584.169	9307.45
584.529	9258.41
584.889	9378.86
585.249	9309.49
585.609	9196.27
585.969	9341.12
586.329	9281.92
586.688	9369.15
587.048	9372.76
587.408	9350.84
587.768	9311.97
588.127	9314.68
588.487	9297.06
588.846	9391.97
589.206	9326.44
589.565	9325.98
589.925	9409.15
590.284	9384.29
590.643	9386.32
591.003	9392.2
591.362	9413.21
591.721	9398.3
592.08	9397.39
592.44	9408.47
592.799	9402.59
593.158	9445.08
593.517	9384.97
593.876	9427.45
594.235	9375.7
594.593	9481.69
594.952	9389.71
595.311	9408.02
595.67	9410.73
596.029	9492.08
596.387	9486.43
596.746	9533.89
597.104	9430.39
597.463	9496.83
597.822	9469.71
598.18	9461.57
598.538	9498.41
598.897	9567.11
599.255	9396.04
599.613	9547.22
599.972	9511.06
600.33	9533.66
600.688	9440.1
601.046	9576.15
601.404	9564.62
601.762	9537.96
602.12	9553.1
602.478	9648.24
602.836	9624.96
603.194	9555.81
603.552	9531.63
603.91	9538.63
604.268	9582.93
604.625	9575.69
604.983	9578.86
605.341	9529.82
605.698	9568.69
606.056	9637.39
606.413	9588.8
606.771	9591.06
607.128	9654.56
607.485	9614.34
607.843	9596.71
608.2	9730.72
608.557	9787.44
608.914	9652.3
609.272	9704.96
609.629	9716.26
609.986	9830.38
610.343	9739.98
610.7	9737.95
611.057	9761.68
611.414	9753.09
611.771	9798.29
612.127	9831.73
612.484	9786.31
612.841	9825.41
613.198	9783.15
613.554	9833.77
613.911	9832.86
614.267	9906.08
614.624	9859.98
614.98	9883.26
615.337	9892.97
615.693	9887.55
616.05	9845.52
616.406	9905.86
616.762	9891.84
617.118	9937.49
617.475	9921.9
617.831	9970.03
618.187	10026.76
618.543	9909.92
618.899	10084.38
619.255	9997.6
619.611	10057.49
619.967	10041.45
620.323	10022.69
620.678	10014.78
621.034	9970.71
621.39	9975.46
621.746	9961.67
622.101	9998.96
622.457	9941.11
622.812	9999.64
623.168	10088.45
623.523	9999.86
623.879	10055.23
624.234	10070.14
624.589	10042.57
624.945	10059.75
625.3	9976.14
625.655	10069.92
626.01	10073.31
626.365	10152.85
626.72	10097.94
627.075	10105.4
627.43	10061.11
627.785	10050.94
628.14	10096.36
628.495	10116.7
628.85	10127.09
629.205	10092.74
629.559	10093.65
629.914	10002.8
630.269	10026.08
630.623	9979.53
630.978	9971.39
631.332	10045.51
631.687	10092.07
632.041	10049.35
632.396	10019.07
632.75	9938.85
633.104	10036.93
633.459	9959.87
633.813	10030.15
634.167	9860.21
634.521	9935.23
634.875	10017.94
635.229	9918.06
635.583	9904.5
635.937	9887.78
636.291	9923.03
636.645	9886.19
636.999	9929.36
637.352	9895.01
637.706	9840.32
638.06	9892.07
638.413	9948.57
638.767	9865.86
639.121	9932.97
639.474	9766.2
639.828	9848.68
640.181	9845.97
640.534	9860.21
640.888	9793.09
641.241	9822.69
641.594	9771.62
641.947	9821.34
642.301	9802.13
642.654	9823.6
643.007	9843.94
643.36	9869.25
643.713	9778.85
644.066	9854.78
644.419	9721.68
644.771	9760.32
645.124	9699.76
645.477	9611.4
645.83	9553.1
646.182	9573.43
646.535	9504.28
646.888	9527.33
647.24	9562.59
647.593	9557.39
647.945	9522.81
648.298	9452.08
648.65	9387.9
649.002	9446.88
649.355	9480.1
649.707	9420.22
650.059	9591.51
650.411	9599.87
650.763	9690.72
651.115	9718.97
651.467	9746.76
651.819	9771.62
652.171	9726.2
652.523	9739.53
652.875	9617.5
653.227	9683.04
653.578	9736.14
653.93	9696.82
654.282	9667.22
654.633	9639.2
654.985	9694.79
655.337	9719.87
655.688	9588.12
656.039	9629.03
656.391	9610.72
656.742	9659.08
657.094	9678.06
657.445	9671.96
657.796	9602.59
658.147	9631.06
658.498	9729.81
658.849	9669.03
659.2	9616.15
659.551	9692.08
659.902	9720.55
660.253	9607.11
660.604	9665.86
660.955	9644.39
661.306	9657.05
661.656	9700.89
662.007	9716.03
662.358	9630.83
662.708	9698.63
663.059	9572.98
663.409	9573.21
663.76	9698.18
664.11	9643.04
664.461	9669.48
664.811	9637.16
665.161	9610.5
665.511	9629.7
665.862	9669.93
666.212	9697.95
666.562	9618.41
666.912	9674.9
667.262	9689.14
667.612	9669.93
667.962	9650.95
668.312	9573.21
668.662	9668.8
669.011	9687.78
669.361	9687.78
669.711	9658.86
670.06	9566.88
670.41	9612.53
670.76	9606.43
671.109	9679.65
671.459	9616.15
671.808	9572.3
672.157	9625.64
672.507	9553.77
672.856	9569.14
673.205	9552.87
673.554	9551.29
673.904	9596.94
674.253	9629.25
674.602	9501.8
674.951	9450.05
675.3	9359.88
675.649	9500.44
675.998	9572.53
676.346	9490.27
676.695	9572.08
677.044	9461.8
677.393	9554.68
677.741	9544.96
678.09	9493.44
678.438	9485.08
678.787	9481.69
679.135	9452.08
679.484	9400.78
679.832	9426.09
680.181	9454.34
680.529	9463.83
680.877	9421.35
681.225	9418.41
681.573	9431.07
681.922	9383.38
682.27	9332.54
682.618	9368.47
682.966	9292.54
683.314	9348.58
683.661	9276.72
684.009	9295.48
684.357	9304.52
684.705	9222.03
685.053	9218.64
685.4	9164.63
685.748	9127.57
686.095	9217.51
686.443	9150.17
686.79	9121.02
687.138	9099.77
687.485	9118.98
687.832	9070.17
688.18	9120.11
688.527	9050.96
688.874	9051.87
689.221	9060.45
689.568	8983.85
689.915	9010.06
690.262	8988.14
690.609	8911.53
690.956	8946.56
691.303	8929.61
691.65	8853.45
691.997	8851.65
692.344	8818.43
692.69	8814.81
693.037	8768.94
693.383	8710.86
693.73	8746.34
694.077	8715.83
694.423	8753.57
694.769	8713.8
695.116	8590.64
695.462	8647.81
695.808	8589.73
696.155	8643.74
696.501	8510.86
696.847	8574.36
697.193	8486.01
697.539	8574.14
697.885	8384.09
698.231	8428.83
698.577	8394.71
698.923	8343.64
699.269	8379.34
699.614	8273.81
699.96	8310.42
700.306	8326.01
700.651	8250.76
700.997	8261.6
701.342	8219.35
701.688	8169.18
702.033	8164.66
702.379	8112.46
702.724	8121.95
703.069	8154.94
703.415	8102.29
703.76	8039.46
704.105	8093.47
704.45	8011.22
704.795	8068.62
705.14	7984.1
705.485	7957.43
705.83	7950.88
706.175	7886.47
706.52	7942.74
706.865	7894.38
707.209	7859.13
707.554	7811.22
707.899	7791.56
708.243	7815.51
708.588	7752.24
708.932	7661.39
709.277	7693.71
709.621	7725.35
709.966	7714.5
710.31	7739.36
710.654	7628.63
710.998	7591.11
711.342	7650.77
711.687	7671.79
712.031	7611.9
712.375	7578.01
712.719	7564.67
713.063	7505.47
713.407	7546.82
713.75	7538.01
714.094	7551.34
714.438	7548.86
714.782	7502.53
715.125	7480.61
715.469	7510.66
715.812	7467.28
716.156	7474.51
716.499	7433.6
716.843	7438.8
717.186	7464.11
717.53	7420.72
717.873	7393.83
718.216	7421.4
718.559	7373.94
718.902	7340.05
719.246	7381.4
719.589	7378.92
719.932	7298.01
720.275	7313.83
720.617	7295.53
720.96	7274.51
721.303	7323.78
721.646	7348.86
721.989	7263.44
722.331	7305.02
722.674	7352.93
723.016	7350.22
723.359	7289.88
723.701	7284.68
724.044	7224.57
724.386	7198.13
724.729	7237.45
725.071	7206.94
725.413	7213.72
725.755	7215.53
726.097	7212.82
726.439	7194.97
726.782	7186.15
727.124	7280.39
727.465	7142.09
727.807	7173.95
728.149	7189.32
728.491	7136.21
728.833	7158.81
729.175	7187.28
729.516	7217.34
729.858	7124.69
730.199	7159.71
730.541	7172.37
730.882	7119.26
731.224	7134.85
731.565	7147.96
731.906	7143.89
732.248	7162.65
732.589	7078.36
732.93	7098.47
733.271	7114.29
733.612	7117.23
733.953	7144.12
734.294	7119.04
734.635	7093.95
734.976	7137.11
735.317	7108.64
735.658	7041.52
735.999	7116.32
736.339	7098.47
736.68	7133.72
737.021	7034.29
737.361	7097.12
737.702	7088.75
738.042	7028.42
738.383	7015.08
738.723	7117.68
739.063	7072.94
739.404	7117
739.744	7071.35
740.084	7087.85
740.424	7083.56
740.764	7082.88
741.104	7079.71
741.444	7047.63
741.784	7060.51
742.124	7098.02
742.464	7075.42
742.804	7005.59
743.143	7040.85
743.483	7076.1
743.823	7007.63
744.162	7066.16
744.502	7011.69
744.841	7051.69
745.181	7070
745.52	7048.08
745.86	7038.36
746.199	7001.98
746.538	7053.27
746.877	7078.59
747.216	7022.99
747.556	7035.87
747.895	6997.01
748.234	6966.05
748.573	7011.47
748.911	7025.71
749.25	7018.47
749.589	6947.06
749.928	6988.19
750.267	7018.02
750.605	6950.23
750.944	6974.18
751.283	6958.36
751.621	7053.95
751.96	6899.15
752.298	6971.02
752.636	6938.48
752.975	6917.69
753.313	6970.11
753.651	6917.23
753.989	6867.52
754.327	6889.89
754.666	6885.6
755.004	6900.96
755.342	6857.57
755.679	6851.47
756.017	6834.75
756.355	6899.61
756.693	6849.21
757.031	6853.05
757.368	6826.61
757.706	6719.5
758.044	6724.47
758.381	6791.36
758.719	6738.48
759.056	6748.65
759.394	6747.52
759.731	6721.76
760.068	6715.2
760.405	6681.99
760.743	6666.62
761.08	6689.67
761.417	6653.06
761.754	6629.33
762.091	6578.49
762.428	6550.01
762.765	6516.34
763.102	6617.58
763.438	6520.86
763.775	6529.67
764.112	6532.84
764.449	6528.54
764.785	6473.4
765.122	6508.43
765.458	6430.47
765.795	6436.57
766.131	6428.88
766.467	6417.36
766.804	6340.3
767.14	6329
767.476	6379.17
767.812	6317.7
768.148	6324.48
768.485	6247.87
768.821	6272.96
769.157	6232.05
769.492	6219.62
769.828	6244.03
770.164	6151.83
770.5	6170.59
770.836	6149.8
771.171	6172.85
771.507	6143.47
771.842	6038.84
772.178	6094.66
772.513	6070.02
772.849	6064.6
773.184	6023.25
773.519	5994.55
773.855	5983.7
774.19	5919.52
774.525	5951.16
774.86	5964.04
775.195	5919.07
775.53	5855.79
775.865	5898.05
776.2	5856.7
776.535	5815.34
776.87	5822.57
777.205	5805.62
777.539	5751.16
777.874	5773.31
778.209	5715.01
778.543	5672.07
778.878	5703.48
779.212	5657.61
779.547	5629.81
779.881	5615.12
780.215	5627.55
780.55	5655.12
780.884	5606.76
781.218	5581
781.552	5632.75
781.886	5571.96
782.22	5495.35
782.554	5486.08
782.888	5477.05
783.222	5494.22
783.556	5430.04
783.889	5405.86
784.223	5377.61
784.557	5402.92
784.89	5360.89
785.224	5305.3
785.557	5345.75
785.891	5291.74
786.224	5301.91
786.558	5300.33
786.891	5228.24
787.224	5257.62
787.557	5231.85
787.891	5203.15
788.224	5174.91
788.557	5243.83
788.89	5133.33
789.223	5160.67
789.556	5149.14
789.888	5077.28
790.221	5110.5
790.554	5103.5
790.887	5141.69
791.219	5072.76
791.552	5005.65
791.884	5065.3
792.217	5047
792.549	5006.55
792.882	4983.72
793.214	4927
793.546	4945.31
793.879	4955.25
794.211	4889.26
794.543	4928.81
794.875	4880.68
795.207	4973.33
795.539	4862.82
795.871	4872.09
796.203	4838.64
796.535	4799.32
796.867	4782.15
797.198	4744.41
797.53	4778.31
797.862	4773.79
798.193	4831.41
798.525	4754.13
798.856	4733.79
799.188	4693.79
799.519	4690.63
799.85	4656.28
800.182	4685.88
800.513	4637.97
800.844	4638.88
801.175	4648.14
801.506	4667.35
801.837	4632.1
802.168	4629.61
802.499	4621.93
802.83	4553.68
803.161	4508.48
803.491	4527.92
803.822	4576.05
804.153	4527.92
804.483	4491.53
804.814	4487.92
805.145	4491.99
805.475	4504.19
805.805	4467.58
806.136	4499.67
806.466	4430.07
806.796	4487.92
807.126	4402.05
807.457	4402.5
807.787	4416.96
808.117	4404.31
808.447	4374.02
808.777	4396.4
809.107	4392.78
809.436	4351.2
809.766	4331.09
810.096	4297.64
810.426	4292.9
810.755	4323.63
811.085	4280.47
811.414	4294.25
811.744	4269.17
812.073	4279.79
812.403	4239.79
812.732	4242.73
813.061	4255.83
813.39	4212.9
813.719	4224.2
814.049	4205.67
814.378	4236.85
814.707	4197.53
815.036	4200.69
815.365	4151.88
815.693	4107.14
816.022	4150.75
816.351	4141.26
816.68	4093.8
817.008	4092.9
817.337	4054.03
817.665	4064.2
817.994	4069.4
818.322	4070.53
818.651	4068.72
818.979	4030.08
819.307	4058.55
819.636	4063.52
819.964	4015.16
820.292	4058.78
820.62	4067.59
820.948	4025.78
821.276	4012.23
821.604	4043.41
821.932	4000.93
822.259	4028.04
822.587	4008.61
822.915	4024.43
823.243	4041.38
823.57	4052.22
823.898	4022.39
824.225	3976.97
824.553	4025.33
824.88	4024.65
825.207	4017.2
825.535	3998.89
825.862	4021.26
826.189	3979.23
826.516	4010.64
826.843	4021.94
827.17	4020.81
827.497	3975.84
827.824	4005.9
828.151	4035.5
828.478	3990.53
828.805	3999.8
829.131	4038.89
829.458	4016.74
829.785	4003.19
830.111	3991.89
830.438	4041.83
830.764	4022.39
831.09	3995.28
831.417	3988.04
831.743	4001.15
832.069	3964.32
832.395	3988.72
832.722	3931.55
833.048	3947.82
833.374	3994.15
833.7	3984.66
834.026	3980.36
834.351	3972.9
834.677	3995.95
835.003	3959.57
835.329	3983.53
835.654	3981.27
835.98	3975.84
836.306	3937.88
836.631	3919.57
836.956	3941.49
837.282	3940.81
837.607	3938.78
837.932	3930.65
838.258	3923.87
838.583	3878.44
838.908	3851.33
839.233	3899.91
839.558	3906.69
839.883	3889.29
840.208	3891.78
840.533	3873.92
840.858	3883.19
841.182	3881.61
841.507	3859.91
841.832	3821.5
842.156	3886.13
842.481	3835.28
842.805	3831.21
843.13	3834.15
843.454	3821.95
843.778	3795.51
844.103	3797.54
844.427	3766.58
844.751	3790.99
845.075	3786.69
845.399	3785.56
845.723	3768.39
846.047	3824.43
846.371	3685.91
846.695	3725.9
847.019	3664.21
847.343	3679.58
847.666	3678.45
847.99	3637.77
848.313	3623.76
848.637	3683.19
848.96	3674.38
849.284	3656.98
849.607	3565.91
849.931	3603.87
850.254	3536.76
850.577	3583.08
850.9	3541.28
851.223	3527.27
851.546	3521.62
851.869	3502.86
852.192	3491.56
852.515	3484.78
852.838	3477.55
853.161	3440.26
853.483	3419.47
853.806	3407.04
854.129	3441.17
854.451	3419.25
854.774	3392.58
855.096	3386.48
855.419	3401.39
855.741	3390.09
856.063	3407.5
856.385	3330.89
856.708	3332.69
857.03	3329.76
857.352	3356.88
857.674	3332.47
857.996	3344.9
858.318	3285.92
858.64	3290.89
858.961	3306.25
859.283	3306.71
859.605	3314.62
859.926	3287.72
860.248	3266.26
860.57	3263.54
860.891	3280.94
861.212	3241.17
861.534	3224.22
861.855	3217.22
862.176	3177.9
862.498	3235.07
862.819	3231
863.14	3193.49
863.461	3200.95
863.782	3177.9
864.103	3191
864.424	3220.16
864.745	3165.47
865.065	3162.76
865.386	3180.16
865.707	3163.89
866.027	3174.96
866.348	3156.2
866.668	3179.03
866.989	3156.2
867.309	3164.56
867.63	3130.89
867.95	3173.38
868.27	3090.89
868.59	3134.96
868.91	3123.66
869.23	3105.13
869.55	3083.89
869.87	3128.41
870.19	3092.25
870.51	3092.7
870.83	3112.59
871.15	3103.1
871.469	3047.96
871.789	3061.52
872.109	3056.54
872.428	3003.66
872.748	3077.33
873.067	3053.61
873.386	3051.35
873.706	3049.76
874.025	3046.6
874.344	3043.89
874.663	3058.8
874.982	3064
875.301	3041.4
875.62	3059.93
875.939	3007.05
876.258	3006.38
876.577	3037.34
876.896	3014.06
877.214	2993.27
877.533	3025.36
877.852	2968.18
878.17	3021.97
878.489	3009.31
878.807	2960.5
879.125	2992.59
879.444	2979.48
879.762	2943.78
880.08	2978.81
880.398	2971.12
880.716	2976.77
881.034	2937.68
881.352	2966.15
881.67	2922.99
881.988	2936.77
882.306	2905.59
882.624	2896.1
882.941	2920.28
883.259	2903.33
883.577	2895.42
883.894	2873.05
884.212	2911.24
884.529	2913.72
884.846	2860.39
885.164	2863.55
885.481	2866.27
885.798	2880.96
886.115	2843.89
886.432	2858.81
886.75	2875.98
887.067	2848.19
887.383	2810.22
887.7	2831.69
888.017	2881.41
888.334	2801.86
888.651	2823.56
888.967	2747.17
889.284	2795.99
889.6	2824.69
889.917	2779.04
890.233	2776.1
890.55	2782.2
890.866	2791.69
891.182	2784.46
891.498	2736.55
891.815	2729.55
892.131	2713.95
892.447	2727.74
892.763	2709.43
893.079	2713.5
893.395	2712.15
893.71	2708.3
894.026	2715.31
894.342	2688.19
894.657	2642.32
894.973	2654.29
895.289	2685.48
895.604	2695.2
895.92	2653.16
896.235	2631.47
896.55	2614.52
896.865	2631.24
897.181	2600.74
897.496	2621.08
897.811	2640.06
898.126	2636.22
898.441	2558.7
898.756	2597.8
899.071	2556.9
899.386	2555.31
899.7	2571.13
900.015	2558.7
900.33	2498.82
900.644	2547.63
900.959	2532.49
901.273	2546.05
901.588	2532.49
901.902	2505.37
902.216	2499.04
902.531	2525.26
902.845	2474.86
903.159	2480.29
903.473	2429.67
903.787	2459.95
904.101	2475.99
904.415	2434.19
904.729	2431.02
905.042	2429.67
905.356	2395.09
905.67	2404.36
905.984	2421.98
906.297	2399.39
906.611	2395.54
906.924	2398.26
907.237	2400.06
907.551	2386.05
907.864	2335.88
908.177	2359.16
908.491	2327.98
908.804	2327.3
909.117	2353.06
909.43	2293.4
909.743	2292.27
910.056	2304.47
910.368	2292.72
910.681	2280.29
910.994	2268.32
911.307	2260.41
911.619	2272.16
911.932	2250.69
912.244	2224.93
912.557	2209.33
912.869	2245.04
913.181	2190.13
913.494	2229.9
913.806	2233.06
914.118	2216.79
914.43	2193.52
914.742	2176.79
915.054	2189.67
915.366	2163.91
915.678	2186.74
915.99	2146.29
916.302	2141.77
916.613	2131.82
916.925	2159.39
917.236	2137.25
917.548	2119.17
917.859	2146.96
918.171	2093.41
918.482	2097.7
918.794	2043.46
919.105	2105.61
919.416	2079.17
919.727	2063.58
920.038	2064.25
920.349	2069.9
920.66	2041.88
920.971	2037.59
921.282	2016.57
921.593	2020.19
921.903	1995.1
922.214	1983.58
922.525	1996.91
922.835	1978.38
923.146	1988.32
923.456	1972.28
923.767	1954.88
924.077	1978.38
924.387	1941.77
924.697	1946.97
925.008	1935.44
925.318	1935.22
925.628	1930.47
925.938	1946.74
926.248	1897.93
926.558	1910.36
926.867	1918.95
927.177	1895.44
927.487	1881.66
927.796	1868.1
928.106	1869
928.416	1855.45
928.725	1840.98
929.034	1848.67
929.344	1862
929.653	1856.35
929.962	1827.65
930.271	1851.15
930.581	1829.23
930.89	1817.93
931.199	1773.87
931.508	1827.65
931.817	1820.64
932.125	1786.07
932.434	1795.11
932.743	1770.02
933.051	1753.08
933.36	1787.88
933.669	1759.4
933.977	1760.31
934.286	1778.84
934.594	1734.09
934.902	1737.26
935.21	1720.31
935.519	1743.81
935.827	1710.36
936.135	1701.55
936.443	1686.86
936.751	1675.79
937.059	1670.14
937.367	1689.57
937.674	1666.75
937.982	1686.41
938.29	1654.09
938.597	1684.6
938.905	1662.46
939.213	1674.21
939.52	1666.07
939.827	1633.98
940.135	1646.19
940.442	1613.42
940.749	1624.04
941.056	1667.88
941.363	1619.07
941.67	1605.96
941.977	1601.21
942.284	1562.8
942.591	1593.98
942.898	1589.92
943.205	1588.79
943.511	1545.17
943.818	1547.43
944.125	1558.5
944.431	1544.49
944.738	1548.11
945.044	1556.02
945.35	1553.31
945.657	1552.63
945.963	1561.89
946.269	1527.32
946.575	1508.34
946.881	1504.72
947.187	1503.59
947.493	1483.48
947.799	1483.48
948.105	1476.92
948.41	1478.51
948.716	1480.09
949.022	1461.56
949.327	1433.54
949.633	1450.03
949.938	1472.86
950.244	1467.66
950.549	1438.73
950.854	1457.26
951.16	1436.25
951.465	1427.66
951.77	1418.62
952.075	1423.14
952.38	1414.78
952.685	1409.36
952.99	1390.6
953.294	1405.74
953.599	1417.26
953.904	1386.98
954.209	1396.25
954.513	1386.31
954.818	1361
955.122	1370.94
955.426	1377.49
955.731	1367.32
956.035	1366.19
956.339	1365.29
956.643	1338.85
956.948	1348.57
957.252	1333.43
957.556	1332.75
957.86	1329.13
958.163	1314.67
958.467	1342.69
958.771	1303.14
959.075	1324.16
959.378	1325.97
959.682	1313.54
959.985	1316.25
960.289	1296.14
960.592	1295.91
960.896	1294.1
961.199	1283.03
961.502	1297.04
961.805	1274.22
962.108	1258.63
962.411	1300.43
962.714	1262.24
963.017	1271.05
963.32	1236.7
963.623	1247.1
963.926	1236.03
964.228	1233.32
964.531	1233.09
964.833	1245.97
965.136	1220.43
965.438	1248.68
965.741	1242.13
966.043	1213.65
966.345	1215.46
966.648	1193.99
966.95	1235.35
967.252	1194.22
967.554	1206.42
967.856	1195.12
968.158	1179.08
968.46	1169.36
968.761	1176.14
969.063	1187.21
969.365	1172.75
969.666	1183.15
969.968	1161.68
970.269	1140.21
970.571	1154.67
970.872	1137.05
971.174	1154.9
971.475	1137.72
971.776	1142.92
972.077	1128.91
972.378	1146.54
972.679	1118.29
972.98	1124.84
973.281	1109.93
973.582	1135.92
973.883	1090.27
974.183	1113.09
974.484	1127.33
974.785	1106.76
975.085	1100.21
975.386	1078.97
975.686	1068.12
975.986	1086.43
976.287	1087.78
976.587	1093.21
976.887	1066.31
977.187	1092.53
977.487	1066.09
977.787	1088.69
978.087	1052.08
978.387	1094.79
978.687	1063.83
978.987	1059.31
979.286	1040.33
979.586	1039.65
979.885	1031.96
980.185	1050.49
980.484	1010.04
980.784	1022.02
981.083	1034.68
981.382	1011.4
981.682	1018.63
981.981	1008.91
982.28	1029.03
982.579	989.71
982.878	1001.46
983.177	1016.37
983.475	1027.67
983.774	994.23
984.073	990.38
984.372	964.4
984.67	976.6
984.969	977.5
985.267	978.63
985.566	992.19
985.864	972.08
986.162	982.93
986.461	982.93
986.759	976.15
987.057	958.52
987.355	985.86
987.653	960.55
987.951	953.77
988.249	926.43
988.547	926.2
988.844	953.32
989.142	963.72
989.44	922.36
989.737	931.18
990.035	936.15
990.332	918.97
990.63	915.58
990.927	917.62
991.224	902.25
991.521	936.83
991.819	881.69
992.116	888.01
992.413	918.07
992.71	893.44
993.006	901.57
993.303	906.32
993.6	888.69
993.897	874.91
994.193	872.65
994.49	906.09
994.787	878.97
995.083	865.64
995.379	864.29
995.676	879.43
995.972	875.36
996.268	869.71
996.565	862.93
996.861	849.6
997.157	858.18
997.453	875.13
997.749	850.27
998.044	850.27
998.34	840.11
998.636	864.51
998.932	849.14
999.227	860.67
999.523	821.8
999.818	842.59
1000.114	803.04
1000.409	831.74
1000.704	824.74
1001	810.28
1001.295	830.84
1001.59	809.37
1001.885	803.95
1002.18	808.24
1002.475	800.78
1002.77	801.91
1003.065	776.38
1003.359	765.3
1003.654	804.4
1003.949	789.26
1004.243	796.26
1004.538	769.6
1004.832	778.64
1005.127	764.17
1005.421	756.94
1005.715	761.01
1006.009	759.2
1006.304	742.03
1006.598	775.47
1006.892	768.02
1007.186	764.63
1007.48	771.63
1007.773	753.1
1008.067	766.21
1008.361	732.31
1008.655	715.59
1008.948	754.01
1009.242	727.11
1009.535	728.02
1009.829	744.74
1010.122	706.78
1010.415	717.62
1010.708	738.41
1011.001	728.24
1011.295	716.72
1011.588	719.66
1011.881	728.7
1012.173	697.96
1012.466	707.45
1012.759	699.77
1013.052	683.95
1013.344	693.22
1013.637	688.92
1013.93	679.21
1014.222	696.15
1014.514	674.23
1014.807	690.73
1015.099	663.16
1015.391	663.61
1015.683	662.93
1015.976	658.87
1016.268	669.71
1016.56	665.42
1016.851	658.19
1017.143	636.04
1017.435	645.76
1017.727	645.53
1018.018	637.62
1018.31	647.34
1018.602	638.98
1018.893	630.62
1019.185	649.6
1019.476	622.94
1019.767	638.08
1020.058	648.25
1020.35	649.83
1020.641	612.77
1020.932	622.26
1021.223	643.5
1021.514	631.97
1021.804	623.16
1022.095	610.96
1022.386	596.95
1022.677	605.08
1022.967	601.92
1023.258	602.37
1023.548	587.91
1023.839	594.24
1024.129	598.98
1024.419	611.86
1024.709	596.04
1025	600.56
1025.29	605.53
1025.58	569.15
1025.87	575.71
1026.16	578.87
1026.449	581.35
1026.739	566.67
1027.029	559.21
1027.319	569.83
1027.608	557.4
1027.898	568.93
1028.187	574.58
1028.477	564.18
1028.766	566.21
1029.055	583.61
1029.344	579.09
1029.634	547.91
1029.923	561.47
1030.212	539.32
1030.501	563.05
1030.79	547.46
1031.078	561.47
1031.367	550.4
1031.656	566.89
1031.945	552.65
1032.233	542.94
1032.522	521.24
1032.81	521.7
1033.099	517.63
1033.387	535.03
1033.675	529.6
1033.963	516.05
1034.251	538.64
1034.54	538.64
1034.828	523.5
1035.116	523.5
1035.403	503.62
1035.691	510.4
1035.979	504.29
1036.267	507.23
1036.554	525.31
1036.842	508.81
1037.129	535.71
1037.417	491.41
1037.704	525.31
1037.992	500.45
1038.279	511.07
1038.566	491.19
1038.853	491.19
1039.14	491.19
