Data from mousepad_grey_FLMS001491_00024.txt Node
Date: Wed Feb 08 14:29:12 GMT 2017
User: dcchb
Spectrometer: FLMS00149
Trigger mode: 0
Integration Time (sec): 2.000000E-2
Scans to average: 10
Electric dark correction enabled: true
Nonlinearity correction enabled: false
Boxcar width: 0
XAxis mode: Wavelengths
Number of Pixels in Spectrum: 2048
>>>>>Begin Spectral Data<<<<<
341.393	-23.54
341.776	-23.54
342.16	-23.54
342.543	-76.42
342.927	-83.43
343.31	-51.34
343.693	-73.26
344.077	-56.99
344.46	-48.4
344.843	-53.6
345.226	-48.85
345.61	-16.77
345.993	-14.51
346.376	-6.14
346.759	5.61
347.142	16.45
347.525	30.47
347.908	54.65
348.291	84.93
348.674	74.76
349.057	103.01
349.44	116.34
349.823	114.3
350.206	160.41
350.588	189.33
350.971	193.62
351.354	214.19
351.737	190.46
352.119	226.62
352.502	234.98
352.884	243.57
353.267	252.61
353.65	271.36
354.032	271.36
354.414	292.83
354.797	301.42
355.179	297.35
355.562	295.09
355.944	313.85
356.326	308.65
356.709	314.53
357.091	309.78
357.473	310.68
357.855	304.58
358.238	303.68
358.62	332.38
359.002	323.56
359.384	313.17
359.766	325.6
360.148	316.33
360.53	313.85
360.912	322.44
361.294	303.68
361.676	323.56
362.057	295.09
362.439	328.08
362.821	320.18
363.203	294.19
363.584	285.15
363.966	288.09
364.348	304.58
364.729	289.44
365.111	286.73
365.493	291.25
365.874	299.61
366.256	306.62
366.637	297.35
367.019	297.12
367.4	287.18
367.781	284.02
368.163	288.99
368.544	287.18
368.925	298.25
369.306	322.89
369.688	284.92
370.069	296
370.45	301.87
370.831	304.81
371.212	274.75
371.593	309.78
371.974	295.77
372.355	289.44
372.736	291.25
373.117	288.31
373.498	276.33
373.879	312.72
374.26	296.9
374.641	285.37
375.021	301.87
375.402	291.93
375.783	283.57
376.163	281.53
376.544	317.92
376.925	296.67
377.305	287.41
377.686	299.84
378.066	312.49
378.447	302.55
378.827	298.25
379.208	320.63
379.588	310.68
379.968	298.71
380.349	316.56
380.729	293.74
381.109	301.64
381.489	312.72
381.87	328.31
382.25	315.88
382.63	320.63
383.01	313.4
383.39	318.82
383.77	309.33
384.15	313.85
384.53	312.94
384.91	304.13
385.29	331.02
385.67	318.37
386.049	334.19
386.429	314.75
386.809	322.66
387.189	319.95
387.568	340.97
387.948	337.8
388.328	321.08
388.707	326.95
389.087	324.47
389.466	341.19
389.846	335.77
390.225	333.96
390.605	334.86
390.984	337.12
391.363	352.26
391.743	355.65
392.122	351.36
392.501	347.75
392.881	358.59
393.26	329.44
393.639	354.98
394.018	358.14
394.397	356.56
394.776	362.66
395.155	358.82
395.534	368.76
395.913	354.07
396.292	375.54
396.671	368.31
397.05	354.98
397.429	367.86
397.808	355.2
398.186	359.72
398.565	349.55
398.944	374.86
399.323	369.44
399.701	385.94
400.08	377.57
400.458	389.1
400.837	388.42
401.215	357.91
401.594	360.17
401.972	355.88
402.351	370.34
402.729	401.08
403.107	405.14
403.486	381.87
403.864	378.48
404.242	392.04
404.62	378.48
404.999	392.94
405.377	400.63
405.755	406.05
406.133	401.98
406.511	402.66
406.889	411.7
407.267	403.56
407.645	422.55
408.023	401.3
408.401	438.14
408.779	417.12
409.156	430.68
409.534	411.25
409.912	434.07
410.29	418.7
410.667	437.01
411.045	436.1
411.422	430
411.8	423
412.178	459.38
412.555	448.99
412.933	455.09
413.31	456.67
413.687	447.63
414.065	432.26
414.442	450.79
414.819	465.03
415.197	484.01
415.574	459.15
415.951	467.97
416.328	464.35
416.705	469.1
417.082	473.84
417.46	478.82
417.837	484.01
418.214	467.74
418.591	492.6
418.967	482.43
419.344	476.33
419.721	500.51
420.098	474.75
420.475	513.84
420.852	505.93
421.228	506.84
421.605	494.63
421.982	521.75
422.358	517.46
422.735	521.3
423.111	519.72
423.488	539.6
423.864	530.11
424.241	563.11
424.617	560.39
424.994	545.71
425.37	548.42
425.746	559.72
426.123	550.68
426.499	531.47
426.875	555.42
427.251	565.82
427.627	566.95
428.003	558.59
428.379	573.28
428.756	579.15
429.132	585.03
429.507	580.06
429.883	575.76
430.259	580.51
430.635	585.25
431.011	607.17
431.387	609.21
431.763	608.53
432.138	624.57
432.514	609.89
432.89	632.03
433.265	619.15
433.641	641.3
434.016	639.04
434.392	621.64
434.767	639.94
435.143	647.17
435.518	667.06
435.894	668.87
436.269	670.9
436.644	682.88
437.02	700.28
437.395	681.52
437.77	700.28
438.145	684.23
438.52	675.87
438.895	701.41
439.271	684.69
439.646	714.97
440.021	712.26
440.395	712.26
440.77	720.84
441.145	703.44
441.52	721.97
441.895	749.32
442.27	730.79
442.645	733.05
443.019	746.38
443.394	741.41
443.769	739.37
444.143	761.29
444.518	766.04
444.892	750.9
445.267	757.45
445.641	767.85
446.016	775.08
446.39	775.98
446.764	791.8
447.139	810.33
447.513	789.77
447.887	791.35
448.262	811.91
448.636	825.02
449.01	800.16
449.384	803.1
449.758	806.26
450.132	803.78
450.506	845.13
450.88	840.61
451.254	835.64
451.628	832.03
452.002	854.85
452.376	841.74
452.75	841.07
453.123	880.84
453.497	871.35
453.871	907.73
454.244	889.88
454.618	909.99
454.992	894.62
455.365	898.69
455.739	908.41
456.112	933.94
456.486	931.91
456.859	944.34
457.232	939.14
457.606	977.56
457.979	955.41
458.352	984.11
458.725	977.79
459.099	1011.68
459.472	1001.51
459.845	1023.89
460.218	1038.12
460.591	1031.34
460.964	1054.62
461.337	1043.55
461.71	1077.44
462.083	1067.95
462.456	1085.35
462.829	1095.52
463.201	1091.68
463.574	1113.15
463.947	1105.47
464.32	1104.79
464.692	1150.21
465.065	1146.59
465.438	1201.73
465.81	1174.39
466.183	1187.72
466.555	1216.65
466.928	1231.56
467.3	1219.36
467.672	1232.02
468.045	1251.68
468.417	1252.35
468.789	1279.25
469.161	1297.32
469.534	1282.41
469.906	1291.45
470.278	1325.12
470.65	1336.42
471.022	1323.99
471.394	1358.57
471.766	1403.31
472.138	1380.94
472.51	1441.5
472.882	1450.99
473.253	1450.99
473.625	1482.4
473.997	1508.62
474.369	1505.23
474.74	1498.45
475.112	1537.09
475.484	1556.3
475.855	1568.05
476.227	1583.19
476.598	1612.34
476.97	1650.54
477.341	1676.07
477.713	1679.91
478.084	1708.16
478.455	1713.81
478.827	1741.83
479.198	1779.12
479.569	1793.58
479.94	1858.21
480.311	1850.08
480.682	1881.94
481.053	1921.26
481.424	1941.83
481.795	1956.97
482.166	1960.58
482.537	2008.27
482.908	2037.87
483.279	2053.01
483.65	2093.69
484.021	2146.57
484.391	2109.51
484.762	2163.29
485.133	2186.57
485.503	2252.55
485.874	2242.16
486.244	2262.05
486.615	2315.83
486.985	2326.45
487.356	2320.57
487.726	2394.47
488.097	2451.87
488.467	2457.97
488.837	2499.78
489.207	2527.8
489.578	2548.37
489.948	2528.48
490.318	2547.01
490.688	2569.16
491.058	2626.56
491.428	2674.69
491.798	2688.47
492.168	2705.88
492.538	2774.8
492.908	2758.98
493.278	2765.53
493.648	2785.87
494.017	2841.46
494.387	2839.43
494.757	2888.7
495.126	2929.15
495.496	2873.1
495.866	2943.38
496.235	2919.2
496.605	2964.17
496.974	2994.91
497.344	3045.53
497.713	3016.15
498.082	3064.74
498.452	3101.8
498.821	3102.93
499.19	3097.5
499.559	3143.38
499.928	3183.38
500.298	3192.19
500.667	3222.02
501.036	3237.16
501.405	3241.23
501.774	3259.53
502.143	3296.59
502.512	3297.5
502.88	3335.92
503.249	3298.18
503.618	3380.66
503.987	3376.82
504.356	3392.64
504.724	3372.52
505.093	3401.68
505.462	3442.13
505.83	3493.43
506.199	3508.11
506.567	3532.52
506.936	3532.75
507.304	3607.55
507.672	3615
508.041	3602.35
508.409	3599.86
508.777	3626.3
509.145	3642.12
509.514	3702.01
509.882	3693.65
510.25	3707.43
510.618	3720.09
510.986	3737.94
511.354	3802.8
511.722	3792.17
512.09	3837.14
512.458	3878.5
512.826	3892.96
513.193	3902.91
513.561	3874.21
513.929	3938.84
514.297	3972.73
514.664	3979.74
515.032	3983.81
515.4	4033.98
515.767	4035.56
516.135	4069.68
516.502	4050.7
516.869	4134.76
517.237	4137.02
517.604	4162.79
517.972	4164.14
518.339	4206.4
518.706	4221.99
519.073	4208.43
519.44	4239.17
519.808	4280.52
520.175	4319.39
520.542	4423.8
520.909	4377.47
521.276	4454.53
521.643	4409.33
522.009	4474.42
522.376	4472.16
522.743	4481.65
523.11	4556.67
523.477	4628.54
523.843	4604.13
524.21	4668.08
524.577	4689.78
524.943	4732.94
525.31	4749.89
525.676	4789.21
526.043	4826.72
526.409	4801.64
526.776	4871.92
527.142	4881.41
527.508	4896.55
527.874	4990.11
528.241	5008.19
528.607	5022.2
528.973	5049.32
529.339	5018.81
529.705	5065.36
530.071	5140.16
530.437	5199.59
530.803	5192.36
531.169	5190.1
531.535	5198.69
531.901	5251.12
532.267	5318.24
532.632	5324.56
532.998	5319.37
533.364	5407.05
533.73	5402.08
534.095	5405.47
534.461	5431.23
534.826	5425.58
535.192	5464.45
535.557	5481.17
535.923	5536.54
536.288	5548.29
536.653	5582.41
537.019	5564.33
537.384	5582.18
537.749	5612.47
538.114	5656.53
538.479	5640.71
538.845	5703.08
539.21	5724.1
539.575	5710.77
539.94	5774.5
540.305	5753.93
540.67	5761.61
541.034	5808.84
541.399	5855.62
541.764	5821.27
542.129	5828.05
542.494	5924.32
542.858	5974.26
543.223	5988.95
543.587	5991.21
543.952	6034.15
544.316	6018.33
544.681	6062.85
545.045	6076.18
545.41	6066.01
545.774	6135.84
546.138	6112.57
546.503	6186.91
546.867	6189.63
547.231	6209.96
547.595	6293.35
547.959	6244.09
548.324	6254.48
548.688	6316.63
549.052	6321.83
549.416	6360.24
549.779	6364.76
550.143	6414.7
550.507	6459.22
550.871	6461.26
551.235	6412.67
551.599	6492.22
551.962	6520.46
552.326	6527.47
552.689	6601.37
553.053	6527.02
553.417	6575.15
553.78	6636.17
554.143	6625.32
554.507	6692.66
554.87	6722.72
555.234	6747.8
555.597	6693.57
555.96	6738.76
556.323	6786.67
556.686	6776.28
557.05	6870.96
557.413	6865.54
557.776	6873
558.139	6950.74
558.502	6956.38
558.865	6981.92
559.228	7038.87
559.59	7094.23
559.953	7054.01
560.316	7140.33
560.679	7161.8
561.041	7186.66
561.404	7238.64
561.767	7232.08
562.129	7265.3
562.492	7287.68
562.854	7336.71
563.217	7310.27
563.579	7366.77
563.941	7446.09
564.304	7444.06
564.666	7447.67
565.028	7473.66
565.39	7533.32
565.753	7527.67
566.115	7534.22
566.477	7589.14
566.839	7634.33
567.201	7706.65
567.563	7667.33
567.925	7787.32
568.287	7677.95
568.648	7793.65
569.01	7796.36
569.372	7870.49
569.734	7875
570.095	7856.7
570.457	7970.37
570.819	7912.07
571.18	7967.21
571.542	8027.09
571.903	8006.3
572.265	8033.42
572.626	8009.92
572.987	8005.85
573.349	8131.72
573.71	8157.26
574.071	8174.88
574.432	8187.76
574.794	8278.84
575.155	8284.03
575.516	8265.73
575.877	8250.59
576.238	8310.7
576.599	8343.24
576.96	8350.25
577.32	8371.94
577.681	8360.19
578.042	8355.9
578.403	8331.72
578.763	8442.9
579.124	8396.57
579.485	8442.67
579.845	8519.06
580.206	8436.35
580.566	8444.71
580.927	8481.32
581.287	8468.89
581.648	8505.27
582.008	8579.85
582.368	8532.39
582.728	8564.93
583.089	8514.54
583.449	8546.17
583.809	8562.44
584.169	8566.74
584.529	8595.89
584.889	8623.91
585.249	8578.26
585.609	8530.81
585.969	8613.97
586.329	8563.12
586.688	8554.99
587.048	8577.13
587.408	8521.77
587.768	8632.5
588.127	8558.6
588.487	8642.89
588.846	8620.75
589.206	8559.05
589.565	8591.14
589.925	8558.15
590.284	8579.62
590.643	8661.65
591.003	8650.58
591.362	8635.66
591.721	8593.18
592.08	8613.97
592.44	8669.79
592.799	8678.83
593.158	8656.45
593.517	8659.84
593.876	8655.78
594.235	8681.31
594.593	8605.83
594.952	8684.48
595.311	8632.5
595.67	8685.83
596.029	8713.17
596.387	8643.12
596.746	8713.63
597.104	8738.94
597.463	8722.44
597.822	8718.82
598.18	8694.42
598.538	8722.21
598.897	8721.08
599.255	8630.47
599.613	8810.57
599.972	8710.01
600.33	8793.85
600.688	8725.15
601.046	8696.45
601.404	8769.67
601.762	8802.66
602.12	8761.08
602.478	8771.25
602.836	8790.23
603.194	8767.86
603.552	8732.61
603.91	8795.66
604.268	8814.64
604.625	8717.47
604.983	8797.24
605.341	8825.49
605.698	8744.13
606.056	8875.2
606.413	8797.01
606.771	8825.26
607.128	8880.63
607.485	8835.43
607.843	8906.39
608.2	8871.59
608.557	8890.8
608.914	8889.89
609.272	8920.85
609.629	8914.98
609.986	8986.61
610.343	8892.38
610.7	8930.8
611.057	8939.16
611.414	8928.99
611.771	8934.64
612.127	8956.11
612.484	8944.36
612.841	8965.6
613.198	8939.16
613.554	8930.12
613.911	9052.37
614.267	8952.72
614.624	8959.72
614.98	9059.38
615.337	9101.41
615.693	9057.8
616.05	9057.57
616.406	9090.79
616.762	8988.65
617.118	9040.4
617.475	9065.93
617.831	9099.15
618.187	9085.59
618.543	9145.71
618.899	9116.33
619.255	9134.41
619.611	9163.56
619.967	9144.12
620.323	9167.4
620.678	9158.59
621.034	9165.37
621.39	9117.46
621.746	9097.8
622.101	9233.84
622.457	9178.93
622.812	9184.35
623.168	9194.52
623.523	9175.08
623.879	9179.15
624.234	9236.32
624.589	9234.29
624.945	9170.11
625.3	9218.02
625.655	9176.21
626.01	9200.39
626.365	9166.27
626.72	9250.56
627.075	9186.38
627.43	9171.69
627.785	9157.23
628.14	9166.5
628.495	9184.57
628.85	9154.29
629.205	9208.76
629.559	9218.7
629.914	9168.08
630.269	9168.76
630.623	9164.46
630.978	9116.78
631.332	9182.54
631.687	9182.09
632.041	9085.37
632.396	9137.12
632.75	9138.93
633.104	9157.23
633.459	9084.01
633.813	9142.99
634.167	9072.26
634.521	9058.25
634.875	9130.79
635.229	9103.67
635.583	9063.22
635.937	9038.59
636.291	9077.23
636.645	9007.18
636.999	9047.4
637.352	9088.53
637.706	8985.94
638.06	9036.56
638.413	9014.64
638.767	9049.21
639.121	9016.22
639.474	9054.41
639.828	9002.21
640.181	8995.43
640.534	8985.03
640.888	9005.6
641.241	8889.22
641.594	8893.96
641.947	8954.98
642.301	8903.9
642.654	8971.25
643.007	8950.23
643.36	8962.66
643.713	8931.93
644.066	8975.09
644.419	8976.22
644.771	8862.1
645.124	8812.16
645.477	8717.69
645.83	8700.97
646.182	8701.2
646.535	8697.36
646.888	8700.97
647.24	8677.02
647.593	8713.17
647.945	8659.39
648.298	8660.52
648.65	8643.35
649.002	8577.59
649.355	8638.83
649.707	8655.32
650.059	8649.67
650.411	8725.38
650.763	8851.25
651.115	8906.62
651.467	8905.26
651.819	8857.8
652.171	8825.71
652.523	8839.95
652.875	8861.65
653.227	8778.26
653.578	8883.79
653.93	8877.46
654.282	8870.91
654.633	8790.91
654.985	8825.94
655.337	8772.38
655.688	8867.75
656.039	8855.32
656.391	8811.93
656.742	8794.08
657.094	8808.09
657.445	8837.69
657.796	8801.99
658.147	8829.1
658.498	8736
658.849	8842.21
659.2	8829.33
659.551	8771.7
659.902	8848.76
660.253	8810.57
660.604	8829.1
660.955	8794.98
661.306	8838.37
661.656	8833.4
662.007	8807.18
662.358	8819.61
662.708	8807.64
663.059	8785.94
663.409	8797.69
663.76	8859.61
664.11	8795.21
664.461	8858.71
664.811	8836.34
665.161	8870.91
665.511	8775.32
665.862	8792.04
666.212	8864.58
666.562	8768.77
666.912	8820.06
667.262	8812.16
667.612	8821.87
667.962	8819.16
668.312	8734.42
668.662	8874.07
669.011	8822.32
669.361	8773.06
669.711	8813.96
670.06	8744.13
670.41	8785.94
670.76	8718.15
671.109	8815.09
671.459	8769.67
671.808	8749.11
672.157	8785.49
672.507	8727.86
672.856	8721.54
673.205	8715.21
673.554	8739.84
673.904	8746.62
674.253	8856.67
674.602	8729.45
674.951	8559.05
675.3	8571.48
675.649	8686.51
675.998	8670.24
676.346	8718.37
676.695	8691.93
677.044	8668.2
677.393	8710.92
677.741	8724.47
678.09	8655.55
678.438	8607.87
678.787	8698.71
679.135	8687.41
679.484	8647.87
679.832	8599.05
680.181	8581.88
680.529	8602.9
680.877	8533.97
681.225	8547.53
681.573	8557.02
681.922	8478.15
682.27	8528.77
682.618	8562.67
682.966	8563.12
683.314	8518.83
683.661	8459.17
684.009	8470.92
684.357	8438.38
684.705	8402
685.053	8430.92
685.4	8377.36
685.748	8351.6
686.095	8385.5
686.443	8307.31
686.79	8326.52
687.138	8315.22
687.485	8383.92
687.832	8262.34
688.18	8313.41
688.527	8261.66
688.874	8213.3
689.221	8227.54
689.568	8180.99
689.915	8113.64
690.262	8155.22
690.609	8154.09
690.956	8102.57
691.303	8078.62
691.65	8055.57
691.997	8094.43
692.344	8002.91
692.69	7997.49
693.037	8003.59
693.383	7978.5
693.73	7936.47
694.077	7896.93
694.423	7902.12
694.769	7830.26
695.116	7853.76
695.462	7788.91
695.808	7825.06
696.155	7813.99
696.501	7773.31
696.847	7794.33
697.193	7673.43
697.539	7729.02
697.885	7654.22
698.231	7626.88
698.577	7614.22
698.923	7616.93
699.269	7577.39
699.614	7589.59
699.96	7550.49
700.306	7535.13
700.651	7468.91
700.997	7468.01
701.342	7444.06
701.688	7435.92
702.033	7394.34
702.379	7374.9
702.724	7375.13
703.069	7399.09
703.415	7323.15
703.76	7295.36
704.105	7297.84
704.45	7228.92
704.795	7209.03
705.14	7180.56
705.485	7195.02
705.83	7139.43
706.175	7154.8
706.52	7161.8
706.865	7093.56
707.209	7090.84
707.554	7121.8
707.899	7096.72
708.243	6988.93
708.588	7059.21
708.932	7007.23
709.277	7016.95
709.621	6978.98
709.966	6915.71
710.31	6945.31
710.654	6886.1
710.998	6920
711.342	6937.63
711.687	6900.79
712.031	6874.81
712.375	6876.84
712.719	6840
713.063	6800.91
713.407	6906.22
713.75	6785.54
714.094	6804.3
714.438	6818.76
714.782	6765.43
715.125	6756.84
715.469	6775.6
715.812	6775.82
716.156	6713.91
716.499	6719.55
716.843	6736.28
717.186	6703.51
717.53	6688.14
717.873	6734.24
718.216	6666.9
718.559	6717.97
718.902	6661.25
719.246	6658.31
719.589	6655.83
719.932	6606.34
720.275	6624.87
720.617	6632.1
720.96	6641.82
721.303	6678.65
721.646	6621.7
721.989	6631.2
722.331	6587.81
722.674	6574.47
723.016	6580.58
723.359	6596.17
723.701	6574.02
724.044	6592.1
724.386	6553.91
724.729	6562.72
725.071	6534.93
725.413	6533.57
725.755	6591.2
726.097	6486.79
726.439	6543.51
726.782	6501.26
727.124	6568.82
727.465	6581.03
727.807	6531.09
728.149	6491.54
728.491	6563.85
728.833	6537.41
729.175	6506.23
729.516	6567.92
729.858	6513.46
730.199	6551.65
730.541	6492.22
730.882	6539.45
731.224	6502.61
731.565	6508.71
731.906	6496.96
732.248	6491.76
732.589	6568.37
732.93	6428.94
733.271	6449.73
733.612	6496.51
733.953	6483.18
734.294	6475.95
734.635	6475.72
734.976	6488.6
735.317	6425.33
735.658	6501.71
735.999	6453.35
736.339	6496.28
736.68	6458.09
737.021	6515.72
737.361	6482.27
737.702	6504.65
738.042	6450.86
738.383	6496.06
738.723	6473.91
739.063	6458.09
739.404	6439.34
739.744	6459.67
740.084	6465.55
740.424	6443.18
740.764	6480.01
741.104	6482.27
741.444	6470.52
741.784	6416.29
742.124	6444.31
742.464	6414.03
742.804	6446.57
743.143	6432.78
743.483	6451.09
743.823	6466.45
744.162	6449.51
744.502	6434.82
744.841	6451.99
745.181	6463.74
745.52	6369.06
745.86	6456.29
746.199	6409.96
746.538	6403.63
746.877	6423.74
747.216	6437.3
747.556	6484.31
747.895	6486.11
748.234	6408.6
748.573	6416.74
748.911	6435.49
749.25	6382.84
749.589	6394.14
749.928	6382.84
750.267	6423.97
750.605	6434.59
750.944	6393.69
751.283	6344.42
751.621	6404.08
751.96	6368.38
752.298	6350.75
752.636	6406.12
752.975	6341.94
753.313	6296.74
753.651	6343.52
753.989	6325.67
754.327	6284.31
754.666	6339.68
755.004	6353.24
755.342	6294.26
755.679	6322.05
756.017	6257.87
756.355	6266.69
756.693	6231.88
757.031	6291.54
757.368	6237.99
757.706	6252.22
758.044	6267.36
758.381	6188.04
758.719	6201.15
759.056	6205.44
759.394	6216.07
759.731	6132
760.068	6139.46
760.405	6147.14
760.743	6099.68
761.08	6104.2
761.417	6067.37
761.754	6094.71
762.091	6078.44
762.428	6024.88
762.765	6006.35
763.102	6004.09
763.438	6068.72
763.775	6024.88
764.112	5990.31
764.449	6002.96
764.785	5981.27
765.122	5949.86
765.458	5852.91
765.795	5912.12
766.131	5890.2
766.467	5860.82
766.804	5866.7
767.14	5793.03
767.476	5844.1
767.812	5790.54
768.148	5855.17
768.485	5781.27
768.821	5772.91
769.157	5716.64
769.492	5738.34
769.828	5708.96
770.164	5673.48
770.5	5673.93
770.836	5691.79
771.171	5632.13
771.507	5636.42
771.842	5598.45
772.178	5628.28
772.513	5576.76
772.849	5559.81
773.184	5510.1
773.519	5553.03
773.855	5505.8
774.19	5498.57
774.525	5435.52
774.86	5492.47
775.195	5491.79
775.53	5384.22
775.865	5397.1
776.2	5366.37
776.535	5311.91
776.87	5366.82
777.205	5337.67
777.539	5308.29
777.874	5338.12
778.209	5262.42
778.543	5241.4
778.878	5236.2
779.212	5203.44
779.547	5243.21
779.881	5244.34
780.215	5181.74
780.55	5204.34
780.884	5172.25
781.218	5095.87
781.552	5142.42
781.886	5095.19
782.22	5076.89
782.554	5027.4
782.888	4997.79
783.222	4989.43
783.556	4977
783.889	4966.83
784.223	4964.12
784.557	4937.23
784.89	4938.81
785.224	4922.31
785.557	4895.2
785.891	4862.43
786.224	4864.01
786.558	4844.12
786.891	4846.61
787.224	4782.88
787.557	4810
787.891	4835.76
788.224	4763.22
788.557	4807.74
788.89	4810.9
789.223	4786.27
789.556	4766.61
789.888	4729.78
790.221	4750.12
790.554	4674.19
790.887	4690.91
791.219	4628.99
791.552	4638.25
791.884	4656.78
792.217	4631.47
792.549	4594.64
792.882	4550.12
793.214	4586.28
793.546	4543.34
793.879	4536.56
794.211	4534.3
794.543	4518.71
794.875	4481.2
795.207	4529.78
795.539	4513.74
795.871	4437.13
796.203	4461.99
796.535	4456.56
796.867	4432.16
797.198	4391.71
797.53	4385.61
797.862	4351.48
798.193	4367.98
798.525	4360.75
798.856	4353.29
799.188	4321.2
799.519	4273.29
799.85	4314.42
800.182	4296.12
800.513	4285.27
800.844	4235.78
801.175	4250.47
801.506	4226.06
801.837	4208.21
802.168	4240.3
802.499	4194.88
802.83	4230.13
803.161	4180.64
803.491	4215.67
803.822	4144.03
804.153	4160.98
804.483	4124.59
804.814	4103.58
805.145	4092.96
805.475	4117.82
805.805	4071.94
806.136	4048.44
806.466	4145.39
806.796	4098.38
807.126	4055.67
807.457	4056.35
807.787	4069.46
808.117	4052.96
808.447	4003.69
808.777	4043.92
809.107	3993.75
809.436	4004.82
809.766	3964.37
810.096	4009.8
810.426	3958.05
810.755	3979.29
811.085	3961.89
811.414	3940.19
811.744	3890.93
812.073	3921.21
812.403	3921.66
812.732	3887.54
813.061	3845.05
813.39	3854.32
813.719	3851.38
814.049	3861.1
814.378	3869.46
814.707	3826.52
815.036	3814.77
815.365	3818.84
815.693	3788.78
816.022	3775.23
816.351	3792.17
816.68	3757.6
817.008	3793.08
817.337	3735.45
817.665	3734.55
817.994	3743.81
818.322	3737.03
818.651	3714.66
818.979	3720.54
819.307	3765.51
819.636	3707.2
819.964	3676.25
820.292	3724.15
820.62	3679.63
820.948	3694.1
821.276	3720.99
821.604	3710.59
821.932	3689.13
822.259	3683.93
822.587	3660.2
822.915	3641.9
823.243	3695.23
823.57	3645.29
823.898	3660.65
824.225	3702.91
824.553	3645.06
824.88	3667.88
825.207	3673.76
825.535	3647.77
825.862	3644.83
826.189	3685.28
826.516	3685.51
826.843	3716.47
827.17	3692.29
827.497	3647.32
827.824	3649.81
828.151	3702.91
828.478	3691.39
828.805	3679.41
829.131	3653.87
829.458	3676.47
829.785	3651.39
830.111	3639.64
830.438	3702.69
830.764	3665.17
831.09	3637.83
831.417	3676.02
831.743	3672.18
832.069	3631.27
832.395	3640.99
832.722	3713.53
833.048	3605.06
833.374	3654.1
833.7	3590.37
834.026	3635.57
834.351	3596.7
834.677	3643.25
835.003	3645.51
835.329	3590.82
835.654	3646.42
835.98	3598.06
836.306	3614.33
836.631	3584.27
836.956	3596.93
837.282	3655.91
837.607	3582.91
837.932	3595.34
838.258	3610.03
838.583	3588.34
838.908	3569.58
839.233	3596.25
839.558	3582.24
839.883	3549.24
840.208	3521.45
840.533	3549.02
840.858	3528.45
841.182	3532.97
841.507	3537.72
841.832	3538.62
842.156	3499.75
842.481	3497.49
842.805	3463.6
843.13	3488.91
843.454	3519.19
843.778	3490.04
844.103	3476.48
844.427	3500.66
844.751	3458.62
845.075	3462.47
845.399	3450.26
845.723	3438.29
846.047	3398.06
846.371	3400.55
846.695	3386.99
847.019	3378.17
847.343	3391.05
847.666	3342.69
847.99	3349.7
848.313	3344.5
848.637	3298.63
848.96	3291.62
849.284	3306.54
849.607	3299.08
849.931	3282.81
850.254	3221.79
850.577	3271.96
850.9	3230.61
851.223	3222.92
851.546	3208.23
851.869	3166.43
852.192	3207.33
852.515	3191.29
852.838	3140.44
853.161	3164.62
853.483	3137.73
853.806	3131.17
854.129	3149.03
854.451	3110.16
854.774	3116.94
855.096	3120.55
855.419	3104.28
855.741	3082.36
856.063	3054.34
856.385	3094.79
856.708	3092.08
857.03	3037.62
857.352	3055.7
857.674	3031.97
857.996	3059.76
858.318	3022.7
858.64	2982.25
858.961	3016.6
859.283	3010.95
859.605	3011.4
859.926	2976.15
860.248	2962.59
860.57	3002.82
860.891	2977.96
861.212	2981.12
861.534	2947
861.855	2957.62
862.176	2956.49
862.498	2927.56
862.819	2918.3
863.14	2935.93
863.461	2905.42
863.782	2911.07
864.103	2926.66
864.424	2919.2
864.745	2908.13
865.065	2881.92
865.386	2890.5
865.707	2914.91
866.027	2855.93
866.348	2925.76
866.668	2892.08
866.989	2881.24
867.309	2865.19
867.63	2848.47
867.95	2863.84
868.27	2862.48
868.59	2834.23
868.91	2844.85
869.23	2860
869.55	2835.82
869.87	2840.33
870.19	2848.24
870.51	2829.04
870.83	2787.91
871.15	2826.55
871.469	2811.18
871.789	2790.84
872.109	2821.35
872.428	2794.91
872.748	2780.68
873.067	2805.76
873.386	2789.26
873.706	2742.03
874.025	2763.95
874.344	2750.85
874.663	2775.48
874.982	2782.26
875.301	2752.65
875.62	2760.56
875.939	2750.85
876.258	2732.09
876.577	2733.9
876.896	2749.04
877.214	2711.07
877.533	2725.99
877.852	2740.9
878.17	2716.5
878.489	2721.69
878.807	2696.84
879.125	2734.35
879.444	2729.15
879.762	2705.88
880.08	2696.84
880.398	2658.87
880.716	2700.9
881.034	2675.14
881.352	2703.39
881.67	2693.9
881.988	2672.88
882.306	2681.7
882.624	2652.77
882.941	2643.05
883.259	2655.26
883.577	2656.84
883.894	2622.49
884.212	2621.81
884.529	2614.58
884.846	2661.36
885.164	2623.84
885.481	2612.32
885.798	2622.71
886.115	2651.19
886.432	2592.43
886.75	2586.78
887.067	2598.99
887.383	2581.13
887.7	2590.85
888.017	2572.77
888.334	2552.21
888.651	2550.85
888.967	2551.08
889.284	2551.53
889.6	2566.44
889.917	2495.94
890.233	2541.36
890.55	2537.97
890.866	2493
891.182	2519.44
891.498	2525.99
891.815	2475.15
892.131	2517.41
892.447	2469.27
892.763	2468.59
893.079	2460.46
893.395	2458.42
893.71	2488.48
894.026	2442.83
894.342	2464.3
894.657	2427.24
894.973	2401.02
895.289	2420.46
895.604	2436.96
895.92	2409.61
896.235	2408.48
896.55	2405.77
896.865	2406
897.181	2366.45
897.496	2376.62
897.811	2384.53
898.126	2362.83
898.441	2364.64
898.756	2357.41
899.071	2350.63
899.386	2342.95
899.7	2323.51
900.015	2329.16
900.33	2315.6
900.644	2299.33
900.959	2280.35
901.273	2317.86
901.588	2312.21
901.902	2257.98
902.216	2274.93
902.531	2282.38
902.845	2244.64
903.159	2259.33
903.473	2248.26
903.787	2261.37
904.101	2256.85
904.415	2244.87
904.729	2228.15
905.042	2201.71
905.356	2196.51
905.67	2198.09
905.984	2185.89
906.297	2187.24
906.611	2161.93
906.924	2168.04
907.237	2185.21
907.551	2154.03
907.864	2151.54
908.177	2141.6
908.491	2149.96
908.804	2141.37
909.117	2121.71
909.43	2096.85
909.743	2081.26
910.056	2121.03
910.368	2069.06
910.681	2082.39
910.994	2072.67
911.307	2050.98
911.619	2052.79
911.932	2045.78
912.244	1995.16
912.557	2036.97
912.869	2002.39
913.181	2001.71
913.494	2014.59
913.806	1994.03
914.118	1983.18
914.43	1989.51
914.742	1997.65
915.054	1978.66
915.366	1963.07
915.678	1958.78
915.99	1961.26
916.302	1938.44
916.613	1920.59
916.925	1943.86
917.236	1932.11
917.548	1942.96
917.859	1917.42
918.171	1917.42
918.482	1904.54
918.794	1889.17
919.105	1871.55
919.416	1860.47
919.727	1903.41
920.038	1894.15
920.349	1877.87
920.66	1843.98
920.971	1860.02
921.282	1866.12
921.593	1822.51
921.903	1819.8
922.214	1818.67
922.525	1775.96
922.835	1836.29
923.146	1801.94
923.456	1810.98
923.767	1808.27
924.077	1806.24
924.387	1759.01
924.697	1789.74
925.008	1777.54
925.318	1783.64
925.628	1739.57
925.938	1725.11
926.248	1712.91
926.558	1724.21
926.867	1744.77
927.177	1771.66
927.487	1737.77
927.796	1715.17
928.106	1707.71
928.416	1716.07
928.725	1719.01
929.034	1699.12
929.344	1705
929.653	1683.98
929.962	1655.73
930.271	1663.64
930.581	1659.35
930.89	1648.73
931.199	1637.65
931.508	1638.56
931.817	1636.07
932.125	1654.6
932.434	1620.48
932.743	1623.64
933.051	1600.37
933.36	1620.48
933.669	1594.49
933.977	1601.5
934.286	1563.08
934.594	1577.32
934.902	1565.11
935.21	1563.53
935.519	1552.91
935.827	1552.23
936.135	1545.68
936.443	1542.97
936.751	1552.23
937.059	1543.42
937.367	1537.09
937.674	1509.07
937.982	1529.41
938.29	1502.52
938.597	1528.28
938.905	1505.45
939.213	1499.81
939.52	1503.65
939.827	1475.85
940.135	1490.77
940.442	1461.61
940.749	1496.42
941.056	1502.97
941.363	1475.4
941.67	1435.4
941.977	1445.57
942.284	1460.03
942.591	1448.51
942.898	1436.3
943.205	1443.76
943.511	1432.46
943.818	1418.45
944.125	1439.24
944.431	1407.38
944.738	1427.04
945.044	1395.63
945.35	1409.64
945.657	1390.43
945.963	1387.27
946.269	1386.59
946.575	1378
946.881	1371.45
947.187	1401.28
947.493	1368.06
947.799	1359.24
948.105	1325.57
948.41	1328.96
948.716	1361.96
949.022	1319.92
949.327	1331.67
949.633	1363.99
949.938	1314.95
950.244	1345.46
950.549	1319.7
950.854	1320.37
951.16	1309.3
951.465	1319.92
951.77	1284.9
952.075	1300.49
952.38	1289.64
952.685	1300.26
952.99	1292.8
953.294	1297.1
953.599	1261.17
953.904	1238.34
954.209	1269.3
954.513	1301.39
954.818	1289.87
955.122	1241.51
955.426	1242.64
955.731	1272.24
956.035	1224.11
956.339	1205.35
956.643	1232.69
956.948	1237.44
957.252	1220.94
957.556	1192.47
957.86	1231.34
958.163	1191.34
958.467	1209.42
958.771	1226.59
959.075	1185.69
959.378	1182.07
959.682	1187.5
959.985	1180.49
960.289	1187.72
960.592	1197.67
960.896	1152.92
961.199	1196.54
961.502	1161.73
961.805	1152.02
962.108	1154.05
962.411	1162.64
962.714	1142.07
963.017	1155.18
963.32	1133.49
963.623	1165.58
963.926	1117.67
964.228	1132.36
964.531	1151.57
964.833	1142.53
965.136	1120.38
965.438	1095.52
965.741	1101.85
966.043	1122.64
966.345	1097.78
966.648	1096.88
966.95	1115.86
967.252	1085.58
967.554	1085.35
967.856	1081.06
968.158	1086.48
968.46	1069.99
968.761	1079.48
969.063	1087.61
969.365	1060.49
969.666	1045.35
969.968	1035.86
970.269	1061.4
970.571	1044.68
970.872	1023.66
971.174	1046.03
971.475	1030.21
971.776	1059.82
972.077	1024.34
972.378	1043.32
972.679	1059.59
972.98	1052.36
973.281	1026.15
973.582	1013.94
973.883	1031.12
974.183	1027.73
974.484	1034.28
974.785	1019.37
975.085	1020.27
975.386	1009.2
975.686	1008.29
975.986	998.58
976.287	1010.55
976.587	978.46
976.887	994.06
977.187	996.09
977.487	974.62
977.787	988.18
978.087	981.85
978.387	974.17
978.687	956.99
978.987	971.91
979.286	987.05
979.586	966.94
979.885	945.7
980.185	943.44
980.484	951.57
980.784	979.37
981.083	959.71
981.382	934.4
981.682	946.83
981.981	953.6
982.28	918.35
982.579	931.23
982.878	942.53
983.177	951.12
983.475	904.57
983.774	918.13
984.073	940.95
984.372	918.13
984.67	909.76
984.969	893.27
985.267	914.51
985.566	874.28
985.864	898.01
986.162	876.09
986.461	878.35
986.759	901.63
987.057	882.42
987.355	878.13
987.653	862.53
987.951	892.82
988.249	898.24
988.547	865.47
988.844	863.66
989.142	856.43
989.44	858.69
989.737	862.76
990.035	855.3
990.332	867.05
990.63	841.52
990.927	843.1
991.224	829.31
991.521	855.53
991.819	852.14
992.116	834.29
992.413	828.41
992.71	834.96
993.006	826.38
993.303	812.37
993.6	815.98
993.897	813.95
994.193	825.7
994.49	829.99
994.787	815.76
995.083	827.96
995.379	783.21
995.676	804.91
995.972	812.82
996.268	786.15
996.565	786.38
996.861	782.76
997.157	777.11
997.453	775.3
997.749	808.07
998.044	769.43
998.34	786.15
998.636	775.76
998.932	755.42
999.227	771.69
999.523	765.14
999.818	768.3
1000.114	745.93
1000.409	778.69
1000.704	757
1001	763.55
1001.295	741.41
1001.59	747.73
1001.885	750.22
1002.18	748.64
1002.475	735.31
1002.77	731.24
1003.065	731.92
1003.359	724.01
1003.654	728.3
1003.949	718.13
1004.243	729.66
1004.538	709.32
1004.832	704.35
1005.127	733.95
1005.421	722.42
1005.715	685.82
1006.009	717.23
1006.304	702.31
1006.598	712.48
1006.892	732.37
1007.186	684.01
1007.48	683.1
1007.773	682.43
1008.067	664.35
1008.361	700.05
1008.655	691.69
1008.948	667.06
1009.242	684.46
1009.535	678.13
1009.829	681.75
1010.122	670.22
1010.415	672.48
1010.708	658.92
1011.001	660.05
1011.295	673.39
1011.588	639.04
1011.881	645.59
1012.173	667.74
1012.466	662.31
1012.759	661.18
1013.052	653.73
1013.344	625.93
1013.637	642.65
1013.93	649.66
1014.222	642.2
1014.514	619.15
1014.807	607.85
1015.099	627.74
1015.391	625.25
1015.683	618.7
1015.976	630.22
1016.268	616.89
1016.56	621.86
1016.851	589.77
1017.143	605.59
1017.435	608.76
1017.727	612.6
1018.018	614.86
1018.31	616.21
1018.602	604.24
1018.893	599.26
1019.185	599.72
1019.476	608.53
1019.767	603.33
1020.058	590.9
1020.35	594.52
1020.641	596.33
1020.932	573.73
1021.223	603.78
1021.514	590
1021.804	577.12
1022.095	589.55
1022.386	570.79
1022.677	568.98
1022.967	587.29
1023.258	569.43
1023.548	568.76
1023.839	567.4
1024.129	566.27
1024.419	554.07
1024.709	556.78
1025	567.17
1025.29	529.66
1025.58	535.08
1025.87	537.8
1026.16	540.28
1026.449	548.64
1026.739	561.98
1027.029	536.89
1027.319	546.61
1027.608	529.21
1027.898	557.91
1028.187	523.79
1028.477	527.85
1028.766	534.18
1029.055	527.63
1029.344	532.15
1029.634	518.14
1029.923	530.11
1030.212	545.71
1030.501	526.27
1030.79	522.88
1031.078	510.23
1031.367	533.5
1031.656	505.48
1031.945	492.83
1032.233	494.63
1032.522	511.13
1032.81	510.9
1033.099	508.42
1033.387	494.86
1033.675	473.17
1033.963	491.24
1034.251	514.29
1034.54	490.34
1034.828	482.88
1035.116	482.2
1035.403	478.14
1035.691	481.3
1035.979	488.98
1036.267	486.27
1036.554	495.09
1036.842	461.64
1037.129	472.04
1037.417	478.14
1037.704	491.92
1037.992	487.63
1038.279	470.45
1038.566	484.69
1038.853	484.69
1039.14	484.69
