Data from mousepad_grey_FLMS001491_00034.txt Node
Date: Wed Feb 08 14:29:21 GMT 2017
User: dcchb
Spectrometer: FLMS00149
Trigger mode: 0
Integration Time (sec): 2.000000E-2
Scans to average: 10
Electric dark correction enabled: true
Nonlinearity correction enabled: false
Boxcar width: 0
XAxis mode: Wavelengths
Number of Pixels in Spectrum: 2048
>>>>>Begin Spectral Data<<<<<
341.393	-17.39
341.776	-17.39
342.16	-17.39
342.543	-63.71
342.927	-62.81
343.31	-65.97
343.693	-80.21
344.077	-61.45
344.46	-83.15
344.843	-32.75
345.226	-33.88
345.61	-17.84
345.993	-2.92
346.376	-4.05
346.759	10.86
347.142	23.97
347.525	43.18
347.908	37.75
348.291	78.2
348.674	88.37
349.057	99.9
349.44	139.67
349.823	144.19
350.206	144.87
350.588	196.62
350.971	197.98
351.354	206.34
351.737	215.6
352.119	222.83
352.502	235.26
352.884	240.23
353.267	266
353.65	277.75
354.032	272.1
354.414	300.35
354.797	281.36
355.179	304.19
355.562	310.06
355.944	325.88
356.326	320.01
356.709	333.34
357.091	302.15
357.473	318.65
357.855	338.31
358.238	333.11
358.62	318.65
359.002	340.57
359.384	322.04
359.766	318.88
360.148	340.12
360.53	313
360.912	315.71
361.294	310.51
361.676	304.19
362.057	322.49
362.439	319.55
362.821	314.81
363.203	334.69
363.584	294.47
363.966	309.16
364.348	315.49
364.729	301.7
365.111	281.59
365.493	293.34
365.874	289.05
366.256	308.93
366.637	286.56
367.019	309.38
367.4	289.05
367.781	301.48
368.163	304.64
368.544	323.85
368.925	302.15
369.306	290.85
369.688	292.89
370.069	317.75
370.45	274.58
370.831	305.77
371.212	302.83
371.593	298.54
371.974	287.92
372.355	311.42
372.736	310.97
373.117	306.22
373.498	291.31
373.879	295.83
374.26	295.83
374.641	312.32
375.021	280.91
375.402	304.41
375.783	303.51
376.163	307.12
376.544	303.28
376.925	308.48
377.305	297.41
377.686	302.38
378.066	320.01
378.447	312.77
378.827	293.57
379.208	298.76
379.588	311.64
379.968	315.26
380.349	316.84
380.729	322.49
381.109	311.42
381.489	307.8
381.87	326.79
382.25	308.71
382.63	321.59
383.01	306.9
383.39	315.26
383.77	317.07
384.15	320.01
384.53	338.31
384.91	321.36
385.29	325.2
385.67	331.3
386.049	301.7
386.429	335.82
386.809	313.9
387.189	318.2
387.568	319.78
387.948	338.99
388.328	342.38
388.707	339.67
389.087	345.54
389.466	340.8
389.846	338.76
390.225	345.32
390.605	336.95
390.984	341.7
391.363	350.51
391.743	351.64
392.122	352.77
392.501	361.81
392.881	340.57
393.26	373.34
393.639	373.79
394.018	349.38
394.397	366.11
394.776	336.73
395.155	349.38
395.534	346.67
395.913	344.86
396.292	370.17
396.671	343.96
397.05	361.36
397.429	361.59
397.808	357.97
398.186	360.46
398.565	352.55
398.944	378.76
399.323	394.13
399.701	360.68
400.08	365.65
400.458	362.94
400.837	369.95
401.215	390.06
401.594	370.17
401.972	381.02
402.351	386.44
402.729	388.48
403.107	395.26
403.486	388.93
403.864	407.01
404.242	406.11
404.62	407.01
404.999	414.24
405.377	383.28
405.755	409.72
406.133	419.66
406.511	427.35
406.889	414.69
407.267	413.79
407.645	407.69
408.023	424.18
408.401	446.33
408.779	405.2
409.156	433.45
409.534	420.57
409.912	441.36
410.29	405.88
410.667	442.26
411.045	442.49
411.422	438.87
411.8	442.94
412.178	439.1
412.555	458.53
412.933	459.89
413.31	490.17
413.687	461.02
414.065	472.09
414.442	466.67
414.819	475.03
415.197	473.45
415.574	481.13
415.951	463.28
416.328	478.87
416.705	476.16
417.082	492.66
417.46	500.34
417.837	491.53
418.214	491.53
418.591	508.25
418.967	505.54
419.344	509.83
419.721	505.09
420.098	504.86
420.475	489.94
420.852	483.17
421.228	512.99
421.605	491.98
421.982	503.05
422.358	538.08
422.735	528.14
423.111	526.78
423.488	502.83
423.864	515.48
424.241	524.97
424.617	542.6
424.994	540.34
425.37	539.89
425.746	522.03
426.123	546.67
426.499	545.99
426.875	559.55
427.251	574.24
427.627	584.41
428.003	574.69
428.379	592.99
428.756	565.2
429.132	593.44
429.507	596.38
429.883	601.13
430.259	580.11
430.635	613.78
431.011	591.41
431.387	630.05
431.763	614.01
432.138	625.76
432.514	612.65
432.89	635.25
433.265	648.81
433.641	619.88
434.016	634.12
434.392	642.94
434.767	685.65
435.143	668.25
435.518	666.89
435.894	670.5
436.269	703.72
436.644	685.65
437.02	681.13
437.395	682.93
437.77	691.07
438.145	692.88
438.52	717.28
438.895	728.13
439.271	726.77
439.646	734.91
440.021	734.91
440.395	718.41
440.77	720.9
441.145	716.61
441.52	757.28
441.895	716.61
442.27	730.84
442.645	756.38
443.019	773.78
443.394	778.75
443.769	765.42
444.143	760.67
444.518	790.5
444.892	778.3
445.267	783.72
445.641	800.67
446.016	783.5
446.39	809.71
446.764	802.93
447.139	793.44
447.513	819.2
447.887	845.42
448.262	828.24
448.636	834.79
449.01	839.54
449.384	842.48
449.758	830.5
450.132	844.74
450.506	863.72
450.88	853.1
451.254	849.26
451.628	863.95
452.002	904.17
452.376	890.16
452.75	903.72
453.123	904.85
453.497	943.04
453.871	912.98
454.244	908.01
454.618	933.77
454.992	919.54
455.365	929.93
455.739	971.06
456.112	970.16
456.486	934.45
456.859	975.81
457.232	981.91
457.606	984.85
457.979	1001.12
458.352	1000.21
458.725	1046.09
459.099	1041.57
459.472	1041.12
459.845	1063.49
460.218	1068.69
460.591	1054
460.964	1086.77
461.337	1080.66
461.71	1090.83
462.083	1130.83
462.456	1132.41
462.829	1124.5
463.201	1112.75
463.574	1151.17
463.947	1154.33
464.32	1178.97
464.692	1209.7
465.065	1185.97
465.438	1211.06
465.81	1232.98
466.183	1233.65
466.555	1249.7
466.928	1254.67
467.3	1236.59
467.672	1277.27
468.045	1323.37
468.417	1294.22
468.789	1327.89
469.161	1340.09
469.534	1340.54
469.906	1389.36
470.278	1386.19
470.65	1387.1
471.022	1408.34
471.394	1431.16
471.766	1434.55
472.138	1474.1
472.51	1444.5
472.882	1481.56
473.253	1519.3
473.625	1544.61
473.997	1562.01
474.369	1576.02
474.74	1581.89
475.112	1635.45
475.484	1605.4
475.855	1652.63
476.227	1652.63
476.598	1737.37
476.97	1729.01
477.341	1738.05
477.713	1753.19
478.084	1757.48
478.455	1820.31
478.827	1827.08
479.198	1899.4
479.569	1878.38
479.94	1936.46
480.311	1943.01
480.682	1971.94
481.053	2026.85
481.424	2052.16
481.795	2054.65
482.166	2074.31
482.537	2098.49
482.908	2142.78
483.279	2131.03
483.65	2187.75
484.021	2200.18
484.391	2258.71
484.762	2286.28
485.133	2311.59
485.503	2326.51
485.874	2367.64
486.244	2361.31
486.615	2419.16
486.985	2454.19
487.356	2500.06
487.726	2507.52
488.097	2529.44
488.467	2568.08
488.837	2588.65
489.207	2616.67
489.578	2675.2
489.948	2720.62
490.318	2727.85
490.688	2692.82
491.058	2783.9
491.428	2794.52
491.798	2829.32
492.168	2876.55
492.538	2910.22
492.908	2938.92
493.278	2938.69
493.648	2935.76
494.017	3033.83
494.387	2998.58
494.757	3057.79
495.126	3099.59
495.496	3102.98
495.866	3098.24
496.235	3121.29
496.605	3121.74
496.974	3142.98
497.344	3196.09
497.713	3222.3
498.082	3286.93
498.452	3309.98
498.821	3317.67
499.19	3319.47
499.559	3329.64
499.928	3359.25
500.298	3321.73
500.667	3385.01
501.036	3385.69
501.405	3460.71
501.774	3436.76
502.143	3503.88
502.512	3518.57
502.88	3517.89
503.249	3535.29
503.618	3555.85
503.987	3537.55
504.356	3634.49
504.724	3581.39
505.093	3635.85
505.462	3622.07
505.83	3728.28
506.199	3710.2
506.567	3721.27
506.936	3745.23
507.304	3776.86
507.672	3803.76
508.041	3843.3
508.409	3826.13
508.777	3915.39
509.145	3939.8
509.514	3930.31
509.882	3960.59
510.25	3989.51
510.618	4013.69
510.986	4005.33
511.354	4041.49
511.722	4057.31
512.09	4072.68
512.458	4125.1
512.826	4146.8
513.193	4154.48
513.561	4170.75
513.929	4219.79
514.297	4217.3
514.664	4259.79
515.032	4276.06
515.4	4297.3
515.767	4377.3
516.135	4368.49
516.502	4317.41
516.869	4465.21
517.237	4422.04
517.604	4461.37
517.972	4455.26
518.339	4498.2
518.706	4543.62
519.073	4570.52
519.44	4589.05
519.808	4623.17
520.175	4618.42
520.542	4673.11
520.909	4738.65
521.276	4688.48
521.643	4793.79
522.009	4785.43
522.376	4828.59
522.743	4885.99
523.11	4862.71
523.477	4934.35
523.843	5016.61
524.21	5024.06
524.577	5039.88
524.943	5006.89
525.31	5102.7
525.676	5111.29
526.043	5179.31
526.409	5222.48
526.776	5248.46
527.142	5234.9
527.508	5252.53
527.874	5293.66
528.241	5314.45
528.607	5365.07
528.973	5397.84
529.339	5416.14
529.705	5468.57
530.071	5518.97
530.437	5560.32
530.803	5571.17
531.169	5573.43
531.535	5574.33
531.901	5674.67
532.267	5640.32
532.632	5697.94
532.998	5708.34
533.364	5779.52
533.73	5803.93
534.095	5810.93
534.461	5840.99
534.826	5866.98
535.192	5857.26
535.557	5906.3
535.923	5915.11
536.288	5972.96
536.653	5947.2
537.019	6025.17
537.384	6033.53
537.749	6071.49
538.114	6075.11
538.479	6088.67
538.845	6135.67
539.21	6139.51
539.575	6190.81
539.94	6197.59
540.305	6257.7
540.67	6254.31
541.034	6274.65
541.399	6349
541.764	6301.32
542.129	6356.23
542.494	6371.15
542.858	6346.06
543.223	6422.44
543.587	6454.08
543.952	6490.24
544.316	6488.21
544.681	6530.92
545.045	6521.88
545.41	6569.11
545.774	6631.48
546.138	6632.61
546.503	6700.63
546.867	6681.19
547.231	6759.61
547.595	6759.38
547.959	6794.64
548.324	6803.9
548.688	6770.91
549.052	6828.31
549.416	6898.14
549.779	6880.06
550.143	6876.67
550.507	6919.83
550.871	6941.07
551.235	6951.24
551.599	7068.75
551.962	7049.55
552.326	7049.77
552.689	7132.26
553.053	7106.95
553.417	7089.32
553.78	7118.92
554.143	7153.05
554.507	7253.83
554.87	7222.65
555.234	7312.14
555.597	7322.08
555.96	7331.12
556.323	7367.28
556.686	7337.22
557.05	7457.9
557.413	7425.81
557.776	7469.65
558.139	7508.29
558.502	7516.88
558.865	7520.04
559.228	7611.34
559.59	7635.97
559.953	7684.11
560.316	7692.24
560.679	7654.95
561.041	7703.54
561.404	7856.53
561.767	7872.35
562.129	7844.1
562.492	7897.43
562.854	7918.45
563.217	7920.48
563.579	7953.48
563.941	8021.27
564.304	8014.04
564.666	8103.76
565.028	8148.05
565.39	8137.2
565.753	8172.23
566.115	8210.87
566.477	8246.58
566.839	8256.97
567.201	8246.35
567.563	8383.52
567.925	8353.92
568.287	8404.54
568.648	8370.64
569.01	8423.97
569.372	8527.25
569.734	8532.9
570.095	8536.06
570.457	8581.94
570.819	8628.71
571.18	8562.27
571.542	8657.64
571.903	8692.21
572.265	8721.82
572.626	8678.2
572.987	8731.54
573.349	8818.31
573.71	8809.27
574.071	8892.66
574.432	8898.99
574.794	8914.13
575.155	8925.43
575.516	8889.95
575.877	8901.47
576.238	9008.36
576.599	8975.15
576.96	9009.72
577.32	9034.35
577.681	9079.32
578.042	9081.13
578.403	9011.08
578.763	9026.9
579.124	9102.37
579.485	9159.1
579.845	9119.32
580.206	9115.03
580.566	9119.32
580.927	9191.86
581.287	9227.79
581.648	9207.23
582.008	9288.36
582.368	9178.98
582.728	9256.04
583.089	9238.19
583.449	9219.88
583.809	9289.04
584.169	9307.34
584.529	9299.66
584.889	9374.23
585.249	9245.87
585.609	9265.31
585.969	9359.09
586.329	9311.41
586.688	9345.98
587.048	9326.55
587.408	9283.84
587.768	9342.14
588.127	9350.5
588.487	9322.93
588.846	9379.65
589.206	9259.43
589.565	9242.71
589.925	9395.47
590.284	9295.81
590.643	9344.18
591.003	9379.88
591.362	9361.12
591.721	9374
592.08	9408.81
592.44	9446.09
592.799	9397.28
593.158	9464.85
593.517	9426.43
593.876	9411.74
594.235	9403.83
594.593	9456.94
594.952	9458.07
595.311	9359.54
595.67	9402.7
596.029	9502.36
596.387	9435.25
596.746	9540.33
597.104	9452.42
597.463	9483.61
597.822	9476.6
598.18	9498.07
598.538	9510.72
598.897	9480.89
599.255	9446.09
599.613	9540.78
599.972	9483.83
600.33	9520.89
600.688	9476.83
601.046	9527.22
601.404	9583.49
601.762	9598.18
602.12	9576.94
602.478	9577.16
602.836	9656.71
603.194	9528.58
603.552	9621.23
603.91	9544.4
604.268	9599.31
604.625	9538.29
604.983	9539.65
605.341	9534.45
605.698	9597.73
606.056	9722.92
606.413	9625.75
606.771	9626.43
607.128	9615.81
607.485	9605.64
607.843	9630.04
608.2	9707.78
608.557	9662.13
608.914	9663.71
609.272	9696.48
609.629	9751.17
609.986	9774.45
610.343	9715.69
610.7	9790.49
611.057	9797.95
611.414	9821.22
611.771	9769.25
612.127	9775.12
612.484	9856.03
612.841	9783.26
613.198	9754.79
613.554	9835.69
613.911	9855.12
614.267	9798.4
614.624	9814.9
614.98	9918.62
615.337	9873.2
615.693	9910.49
616.05	9894.44
616.406	9996.81
616.762	9969.47
617.118	9872.07
617.475	9891.05
617.831	9963.82
618.187	9920.66
618.543	10028
618.899	9992.75
619.255	10036.81
619.611	9955.68
619.967	10029.13
620.323	10074.1
620.678	10035.23
621.034	9993.2
621.39	9948.91
621.746	10021.67
622.101	10111.39
622.457	9982.35
622.812	10064.83
623.168	10084.72
623.523	10037.72
623.879	10073.87
624.234	10027.32
624.589	10055.34
624.945	10023.71
625.3	10081.78
625.655	10103.7
626.01	10063.03
626.365	10053.31
626.72	10154.1
627.075	10044.72
627.43	10091.27
627.785	10027.77
628.14	10087.43
628.495	10002.69
628.85	10047.66
629.205	10027.55
629.559	10060.99
629.914	9989.36
630.269	10017.15
630.623	10011.5
630.978	9982.35
631.332	10053.54
631.687	10105.29
632.041	10040.2
632.396	10038.39
632.75	9941.22
633.104	10038.62
633.459	9955.68
633.813	9955.68
634.167	10008.56
634.521	9992.52
634.875	10003.82
635.229	9986.42
635.583	9913.88
635.937	9954.55
636.291	9875.69
636.645	9818.29
636.999	9880.43
637.352	9865.74
637.706	9835.46
638.06	9868
638.413	9880.88
638.767	9844.28
639.121	9825.29
639.474	9808.12
639.828	9846.76
640.181	9815.35
640.534	9851.28
640.888	9764.28
641.241	9755.92
641.594	9829.13
641.947	9826.65
642.301	9799.53
642.654	9820.77
643.007	9837.72
643.36	9790.72
643.713	9737.39
644.066	9816.03
644.419	9759.31
644.771	9685.86
645.124	9594.56
645.477	9570.61
645.83	9576.71
646.182	9509.37
646.535	9516.15
646.888	9445.19
647.24	9482.48
647.593	9569.48
647.945	9519.99
648.298	9509.37
648.65	9436.6
649.002	9453.32
649.355	9442.25
649.707	9451.29
650.059	9489.03
650.411	9658.97
650.763	9648.12
651.115	9710.49
651.467	9687.89
651.819	9690.38
652.171	9722.7
652.523	9676.37
652.875	9723.83
653.227	9643.6
653.578	9780.55
653.93	9725.41
654.282	9695.58
654.633	9612.64
654.985	9636.82
655.337	9689.48
655.688	9706.43
656.039	9734
656.391	9629.37
656.742	9629.14
657.094	9632.3
657.445	9726.76
657.796	9598.18
658.147	9652.19
658.498	9665.3
658.849	9703.04
659.2	9705.3
659.551	9649.03
659.902	9610.38
660.253	9666.65
660.604	9660.1
660.955	9576.03
661.306	9672.08
661.656	9609.7
662.007	9685.86
662.358	9617.84
662.708	9590.5
663.059	9633.66
663.409	9596.6
663.76	9731.06
664.11	9641.12
664.461	9632.53
664.811	9674.56
665.161	9696.03
665.511	9624.62
665.862	9662.36
666.212	9684.05
666.562	9710.72
666.912	9649.03
667.262	9656.48
667.612	9613.55
667.962	9677.5
668.312	9606.54
668.662	9688.57
669.011	9705.75
669.361	9692.41
669.711	9623.94
670.06	9608.12
670.41	9645.86
670.76	9576.26
671.109	9632.08
671.459	9657.84
671.808	9635.47
672.157	9611.96
672.507	9576.49
672.856	9558.18
673.205	9574.9
673.554	9618.52
673.904	9536.03
674.253	9571.74
674.602	9543.72
674.951	9428.69
675.3	9385.3
675.649	9472.99
675.998	9537.84
676.346	9554.79
676.695	9574.45
677.044	9488.8
677.393	9459.88
677.741	9522.7
678.09	9465.3
678.438	9492.19
678.787	9480.22
679.135	9497.17
679.484	9419.65
679.832	9490.39
680.181	9396.15
680.529	9449.94
680.877	9374
681.225	9308.02
681.573	9399.77
681.922	9394.8
682.27	9292.88
682.618	9387.79
682.966	9339.88
683.314	9331.29
683.661	9310.05
684.009	9278.64
684.357	9195.7
684.705	9308.7
685.053	9196.83
685.4	9184.41
685.748	9142.6
686.095	9210.17
686.443	9169.26
686.79	9118.87
687.138	9094.46
687.485	9145.08
687.832	9094.92
688.18	9100.57
688.527	8986.9
688.874	9061.7
689.221	9033.67
689.568	8988.48
689.915	8921.81
690.262	9008.59
690.609	9012.66
690.956	8931.08
691.303	8945.54
691.65	8866.67
691.997	8857.41
692.344	8807.69
692.69	8771.99
693.037	8775.15
693.383	8734.7
693.73	8764.08
694.077	8723.4
694.423	8695.38
694.769	8654.93
695.116	8618.09
695.462	8664.87
695.808	8562.95
696.155	8638.66
696.501	8592.78
696.847	8570.41
697.193	8440.92
697.539	8441.37
697.885	8411.54
698.231	8392.11
698.577	8383.97
698.923	8376.29
699.269	8330.87
699.614	8338.1
699.96	8303.3
700.306	8317.54
700.651	8232.34
700.997	8199.12
701.342	8164.32
701.688	8169.74
702.033	8148.73
702.379	8134.94
702.724	8072.34
703.069	8134.04
703.415	8033.25
703.76	8006.58
704.105	8080.71
704.45	7958.67
704.795	7967.71
705.14	7932.23
705.485	7963.19
705.83	7917.32
706.175	7923.2
706.52	7921.39
706.865	7805.01
707.209	7760.26
707.554	7809.53
707.899	7789.19
708.243	7816.08
708.588	7768.4
708.932	7751.9
709.277	7724.1
709.621	7678
709.966	7683.65
710.31	7720.94
710.654	7622.41
710.998	7616.31
711.342	7642.3
711.687	7615.86
712.031	7584.67
712.375	7606.82
712.719	7544.22
713.063	7584.22
713.407	7547.84
713.75	7572.02
714.094	7548.29
714.438	7487.27
714.782	7503.55
715.125	7466.48
715.469	7487.95
715.812	7503.55
716.156	7391.68
716.499	7397.33
716.843	7388.29
717.186	7405.24
717.53	7433.72
717.873	7431.46
718.216	7389.88
718.559	7385.81
718.902	7343.32
719.246	7326.83
719.589	7348.75
719.932	7342.19
720.275	7303.32
720.617	7304.45
720.96	7310.1
721.303	7332.25
721.646	7291.57
721.989	7294.51
722.331	7288.41
722.674	7287.73
723.016	7239.15
723.359	7305.36
723.701	7287.51
724.044	7190.79
724.386	7215.87
724.729	7303.1
725.071	7195.76
725.413	7246.38
725.755	7202.31
726.097	7177.45
726.439	7158.02
726.782	7204.8
727.124	7211.8
727.465	7112.6
727.807	7190.11
728.149	7166.15
728.491	7164.8
728.833	7166.61
729.175	7144.23
729.516	7159.15
729.858	7146.72
730.199	7151.92
730.541	7204.8
730.882	7118.47
731.224	7159.15
731.565	7090.22
731.906	7165.7
732.248	7149.2
732.589	7115.53
732.93	7088.19
733.271	7085.25
733.612	7093.16
733.953	7074.18
734.294	7144.23
734.635	7033.73
734.976	7155.98
735.317	7074.18
735.658	7065.82
735.999	7049.32
736.339	7146.72
736.68	7102.2
737.021	7080.05
737.361	7086.16
737.702	7038.25
738.042	7103.33
738.383	7104.46
738.723	7084.35
739.063	7078.7
739.404	7078.25
739.744	7080.73
740.084	7087.06
740.424	7076.44
740.764	7041.64
741.104	7101.75
741.444	6982.2
741.784	7024.91
742.124	7071.47
742.464	7043.67
742.804	7055.87
743.143	6982.2
743.483	7067.17
743.823	6984.69
744.162	7045.7
744.502	7013.84
744.841	6997.12
745.181	7080.51
745.52	7039.83
745.86	7099.04
746.199	6984.92
746.538	7054.29
746.877	7052.26
747.216	7045.03
747.556	7054.74
747.895	7058.59
748.234	6988.76
748.573	6976.1
748.911	7062.43
749.25	6990.79
749.589	6945.14
749.928	6983.11
750.267	6990.11
750.605	6977.01
750.944	6988.08
751.283	6915.99
751.621	6989.66
751.96	6897.69
752.298	6980.62
752.636	6960.96
752.975	6933.17
753.313	6896.56
753.651	6982.88
753.989	6892.26
754.327	6856.33
754.666	6841.64
755.004	6874.64
755.342	6872.38
755.679	6854.07
756.017	6861.53
756.355	6826.5
756.693	6783.56
757.031	6864.47
757.368	6778.59
757.706	6765.94
758.044	6736.56
758.381	6748.99
758.719	6722.32
759.056	6763.45
759.394	6783.34
759.731	6671.25
760.068	6660.63
760.405	6672.83
760.743	6634.19
761.08	6664.25
761.417	6667.86
761.754	6691.14
762.091	6624.92
762.428	6589.9
762.765	6589.22
763.102	6600.52
763.438	6532.5
763.775	6551.25
764.112	6487.3
764.449	6555.32
764.785	6455.21
765.122	6437.58
765.458	6476.91
765.795	6404.82
766.131	6419.28
766.467	6443.69
766.804	6443.01
767.14	6344.48
767.476	6369.56
767.812	6318.04
768.148	6340.86
768.485	6236.01
768.821	6212.05
769.157	6240.98
769.492	6221.09
769.828	6265.16
770.164	6206.4
770.5	6222.9
770.836	6197.14
771.171	6174.99
771.507	6146.75
771.842	6075.79
772.178	6109.23
772.513	6074.66
772.849	6034.21
773.184	6080.31
773.519	5970.48
773.855	5977.26
774.19	5966.86
774.525	5878.28
774.86	5928.67
775.195	5948.33
775.53	5910.14
775.865	5899.07
776.2	5819.52
776.535	5845.51
776.87	5839.18
777.205	5779.75
777.539	5765.29
777.874	5707.66
778.209	5720.09
778.543	5733.2
778.878	5680.32
779.212	5689.36
779.547	5655.46
779.881	5710.6
780.215	5599.19
780.55	5616.36
780.884	5595.35
781.218	5588.79
781.552	5551.73
781.886	5548.57
782.22	5518.06
782.554	5535.91
782.888	5477.84
783.222	5432.19
783.556	5408.91
783.889	5406.65
784.223	5383.83
784.557	5384.05
784.89	5386.99
785.224	5413.43
785.557	5323.94
785.891	5290.95
786.224	5310.61
786.558	5329.82
786.891	5287.33
787.224	5257.05
787.557	5175.47
787.891	5233.32
788.224	5230.84
788.557	5200.56
788.89	5205.98
789.223	5200.33
789.556	5132.99
789.888	5129.6
790.221	5038.98
790.554	5004.85
790.887	5089.82
791.219	5078.3
791.552	5049.15
791.884	5028.36
792.217	5074.23
792.549	5003.27
792.882	5003.95
793.214	4962.6
793.546	4999.66
793.879	4945.65
794.211	4902.26
794.543	4912.43
794.875	4900.22
795.207	4919.21
795.539	4906.78
795.871	4852.77
796.203	4875.37
796.535	4806.67
796.867	4826.55
797.198	4813.22
797.53	4777.52
797.862	4769.15
798.193	4784.3
798.525	4750.4
798.856	4722.83
799.188	4701.59
799.519	4646.45
799.85	4681.47
800.182	4649.61
800.513	4707.91
800.844	4623.4
801.175	4647.35
801.506	4638.99
801.837	4589.5
802.168	4581.59
802.499	4604.19
802.83	4539.56
803.161	4544.75
803.491	4553.79
803.822	4544.98
804.153	4476.51
804.483	4488.94
804.814	4480.35
805.145	4453.91
805.475	4442.16
805.805	4461.59
806.136	4462.72
806.466	4461.14
806.796	4482.83
807.126	4432.44
807.457	4408.71
807.787	4400.12
808.117	4375.04
808.447	4390.63
808.777	4413.91
809.107	4335.49
809.436	4330.75
809.766	4335.49
810.096	4348.83
810.426	4304.53
810.755	4319
811.085	4334.14
811.414	4319.22
811.744	4249.85
812.073	4255.04
812.403	4293.46
812.732	4223.63
813.061	4254.82
813.39	4196.51
813.719	4189.06
814.049	4204.42
814.378	4197.19
814.707	4183.18
815.036	4199
815.365	4159.68
815.693	4106.8
816.022	4143.63
816.351	4089.85
816.68	4114.26
817.008	4108.38
817.337	4092.56
817.665	4079.68
817.994	4061.83
818.322	4017.08
818.651	4056.86
818.979	4021.83
819.307	4068.38
819.636	4033.13
819.964	4040.36
820.292	4073.13
820.62	4052.79
820.948	4049.63
821.276	4020.7
821.604	3994.49
821.932	4045.78
822.259	4022.73
822.587	4049.4
822.915	4016.41
823.243	4018.44
823.57	4011.66
823.898	4020.25
824.225	3982.51
824.553	3998.33
824.88	3993.13
825.207	4015.95
825.535	3989.29
825.862	4017.54
826.189	3999.01
826.516	4007.59
826.843	4002.17
827.17	3980.7
827.497	3970.53
827.824	3979.12
828.151	4013.47
828.478	3990.19
828.805	4031.32
829.131	4038.33
829.458	3978.21
829.785	3979.12
830.111	3958.55
830.438	4017.99
830.764	4004.43
831.09	4010.76
831.417	3967.82
831.743	3977.76
832.069	3980.7
832.395	3941.38
832.722	4010.98
833.048	3944.09
833.374	3998.55
833.7	3980.47
834.026	3974.82
834.351	3986.8
834.677	3958.55
835.003	4003.75
835.329	4012.11
835.654	3980.02
835.98	3958.33
836.306	3959.01
836.631	3933.92
836.956	3971.44
837.282	3959.68
837.607	3924.66
837.932	3923.3
838.258	3928.05
838.583	3946.8
838.908	3876.75
839.233	3907.26
839.558	3919.91
839.883	3890.53
840.208	3861.38
840.533	3892.79
840.858	3888.73
841.182	3869.06
841.507	3838.33
841.832	3861.16
842.156	3863.19
842.481	3830.65
842.805	3829.07
843.13	3828.16
843.454	3822.29
843.778	3776.86
844.103	3802.17
844.427	3787.03
844.751	3749.07
845.075	3740.03
845.399	3740.25
845.723	3760.59
846.047	3756.98
846.371	3719.46
846.695	3716.07
847.019	3702.97
847.343	3683.53
847.666	3679.24
847.99	3657.09
848.313	3630.43
848.637	3614.38
848.96	3608.73
849.284	3601.05
849.607	3619.13
849.931	3608.28
850.254	3589.52
850.577	3560.15
850.9	3519.02
851.223	3526.7
851.546	3543.65
851.869	3476.98
852.192	3546.14
852.515	3493.71
852.838	3448.51
853.161	3468.85
853.483	3444.67
853.806	3434.05
854.129	3441.28
854.451	3430.88
854.774	3412.35
855.096	3406.93
855.419	3428.62
855.741	3414.16
856.063	3394.95
856.385	3365.58
856.708	3358.12
857.03	3364.67
857.352	3354.05
857.674	3345.91
857.996	3355.86
858.318	3289.19
858.64	3267.72
858.961	3273.83
859.283	3262.98
859.605	3291.23
859.926	3262.98
860.248	3246.26
860.57	3207.16
860.891	3235.86
861.212	3217.33
861.534	3187.73
861.855	3203.77
862.176	3217.78
862.498	3240.83
862.819	3240.38
863.14	3214.84
863.461	3228.4
863.782	3185.69
864.103	3178.46
864.424	3206.26
864.745	3202.42
865.065	3168.29
865.386	3189.99
865.707	3169.42
866.027	3157.9
866.348	3158.58
866.668	3151.8
866.989	3181.63
867.309	3126.94
867.63	3195.18
867.95	3096.2
868.27	3125.13
868.59	3133.27
868.91	3117.9
869.23	3118.35
869.55	3096.43
869.87	3111.12
870.19	3125.36
870.51	3095.07
870.83	3131.01
871.15	3059.37
871.469	3080.84
871.789	3099.82
872.109	3074.74
872.428	3062.31
872.748	3058.69
873.067	3084.45
873.386	3047.62
873.706	3094.85
874.025	3079.71
874.344	3041.06
874.663	3073.61
874.982	3035.19
875.301	3006.71
875.62	3017.11
875.939	2955.64
876.258	2998.13
876.577	3011.91
876.896	3041.52
877.214	2988.86
877.533	3016.21
877.852	3035.64
878.17	3008.07
878.489	2996.55
878.807	2992.25
879.125	3004
879.444	2979.14
879.762	2985.47
880.08	2968.07
880.398	2933.72
880.716	2961.52
881.034	2946.38
881.352	2951.8
881.67	2939.37
881.988	2899.37
882.306	2941.18
882.624	2929.88
882.941	2930.78
883.259	2896.89
883.577	2930.11
883.894	2890.11
884.212	2874.51
884.529	2881.29
884.846	2872.03
885.164	2889.43
885.481	2852.82
885.798	2879.71
886.115	2833.61
886.432	2873.16
886.75	2866.15
887.067	2857.79
887.383	2823.44
887.7	2810.56
888.017	2824.12
888.334	2803.33
888.651	2843.1
888.967	2829.09
889.284	2794.97
889.6	2779.83
889.917	2759.72
890.233	2774.86
890.55	2759.26
890.866	2764.46
891.182	2793.61
891.498	2760.85
891.815	2767.17
892.131	2708.87
892.447	2725.14
892.763	2711.13
893.079	2730.34
893.395	2717.91
893.71	2721.07
894.026	2745.25
894.342	2705.25
894.657	2648.76
894.973	2658.02
895.289	2646.72
895.604	2670.45
895.92	2643.33
896.235	2648.53
896.55	2634.75
896.865	2641.3
897.181	2628.19
897.496	2583.9
897.811	2614.63
898.126	2592.49
898.441	2588.87
898.756	2612.6
899.071	2568.53
899.386	2555.2
899.7	2574.18
900.015	2567.63
900.33	2542.09
900.644	2561.08
900.959	2539.38
901.273	2501.42
901.588	2486.95
901.902	2507.29
902.216	2493.06
902.531	2505.94
902.845	2482.66
903.159	2466.62
903.473	2453.06
903.787	2448.31
904.101	2439.05
904.415	2417.13
904.729	2420.97
905.042	2428.65
905.356	2444.47
905.67	2417.13
905.984	2395.66
906.297	2399.05
906.611	2390.23
906.924	2400.63
907.237	2362.66
907.551	2369.44
907.864	2348.43
908.177	2391.59
908.491	2358.14
908.804	2363.57
909.117	2323.57
909.43	2312.5
909.743	2286.96
910.056	2296
910.368	2305.72
910.681	2263.23
910.994	2275.89
911.307	2282.89
911.619	2245.38
911.932	2218.94
912.244	2235.89
912.557	2252.61
912.869	2236.11
913.181	2235.44
913.494	2233.63
913.806	2218.94
914.118	2215.55
914.43	2193.18
914.742	2218.26
915.054	2134.87
915.366	2165.61
915.678	2187.53
915.99	2168.54
916.302	2131.71
916.613	2133.74
916.925	2122.22
917.236	2147.08
917.548	2119.28
917.859	2098.49
918.171	2099.85
918.482	2088.55
918.794	2114.08
919.105	2095.55
919.416	2073.86
919.727	2062.56
920.038	2087.42
920.349	2066.17
920.66	2007.87
920.971	2052.16
921.282	2037.93
921.593	1994.54
921.903	1995.89
922.214	2027.76
922.525	2020.07
922.835	1998.61
923.146	1980.75
923.456	1977.59
923.767	1976.91
924.077	1950.02
924.387	1960.41
924.697	1965.16
925.008	1936.69
925.318	1936.46
925.628	1951.15
925.938	1927.2
926.248	1911.38
926.558	1919.74
926.867	1901.66
927.177	1907.99
927.487	1878.61
927.796	1888.1
928.106	1838.16
928.416	1846.75
928.725	1863.47
929.034	1852.17
929.344	1830.93
929.653	1851.49
929.962	1815.33
930.271	1832.06
930.581	1869.57
930.89	1839.29
931.199	1792.74
931.508	1826.63
931.817	1794.32
932.125	1784.15
932.434	1768.33
932.743	1781.44
933.051	1761.32
933.36	1779.4
933.669	1745.05
933.977	1757.71
934.286	1737.6
934.594	1732.62
934.902	1718.84
935.21	1698.95
935.519	1734.21
935.827	1724.94
936.135	1715.45
936.443	1703.92
936.751	1688.11
937.059	1691.27
937.367	1694.66
937.674	1696.47
937.982	1670.7
938.29	1668.44
938.597	1654.66
938.905	1692.4
939.213	1662.57
939.52	1626.64
939.827	1632.06
940.135	1628.9
940.442	1623.93
940.749	1612.85
941.056	1609.01
941.363	1597.26
941.67	1597.94
941.977	1604.49
942.284	1561.1
942.591	1580.09
942.898	1568.79
943.205	1579.41
943.511	1566.98
943.818	1570.59
944.125	1543.48
944.431	1537.15
944.738	1536.7
945.044	1542.8
945.35	1534.89
945.657	1544.15
945.963	1501.67
946.269	1500.77
946.575	1530.82
946.881	1517.71
947.187	1498.05
947.493	1488.34
947.799	1479.52
948.105	1488.56
948.41	1486.75
948.716	1468.22
949.022	1493.08
949.327	1461.22
949.633	1480.88
949.938	1454.89
950.244	1465.06
950.549	1462.8
950.854	1455.8
951.16	1445.63
951.465	1416.7
951.77	1444.04
952.075	1452.41
952.38	1423.25
952.685	1425.29
952.99	1399.3
953.294	1391.16
953.599	1415.57
953.904	1412.63
954.209	1389.58
954.513	1362.24
954.818	1376.02
955.122	1368.11
955.426	1364.72
955.731	1359.3
956.035	1371.28
956.339	1368.34
956.643	1355.46
956.948	1363.14
957.252	1317.72
957.556	1356.14
957.86	1314.56
958.163	1310.49
958.467	1330.83
958.771	1307.32
959.075	1329.7
959.378	1296.25
959.682	1314.33
959.985	1315.46
960.289	1278.17
960.592	1290.38
960.896	1284.95
961.199	1274.78
961.502	1293.31
961.805	1275.46
962.108	1296.7
962.411	1272.52
962.714	1261.68
963.017	1264.39
963.32	1254.22
963.623	1227.33
963.926	1245.41
964.228	1235.69
964.531	1236.14
964.833	1251.28
965.136	1237.27
965.438	1202.47
965.741	1216.71
966.043	1203.6
966.345	1225.29
966.648	1218.51
966.95	1192.98
967.252	1192.98
967.554	1204.95
967.856	1184.16
968.158	1189.14
968.46	1175.8
968.761	1190.94
969.063	1168.57
969.365	1187.33
969.666	1169.7
969.968	1147.55
970.269	1162.24
970.571	1138.74
970.872	1139.19
971.174	1157.05
971.475	1137.84
971.776	1151.62
972.077	1148.01
972.378	1107.78
972.679	1120.89
972.98	1111.85
973.281	1108.91
973.582	1149.81
973.883	1146.2
974.183	1127.89
974.484	1103.71
974.785	1108.69
975.085	1122.7
975.386	1111.17
975.686	1084.73
975.986	1085.18
976.287	1079.53
976.587	1068.91
976.887	1086.54
977.187	1084.73
977.487	1066.65
977.787	1055.81
978.087	1051.06
978.387	1042.7
978.687	1048.8
978.987	1072.53
979.286	1023.04
979.586	1079.08
979.885	1030.95
980.185	1045.64
980.484	1049.25
980.784	1042.47
981.083	1009.48
981.382	1012.64
981.682	1028.24
981.981	1006.99
982.28	1001.34
982.579	1007.22
982.878	987.78
983.177	1007.22
983.475	984.17
983.774	1014.22
984.073	998.63
984.372	987.33
984.67	976.71
984.969	970.61
985.267	978.07
985.566	969.93
985.864	963.15
986.162	968.8
986.461	981.01
986.759	952.53
987.057	948.92
987.355	967.67
987.653	956.15
987.951	969.25
988.249	925.64
988.547	948.24
988.844	932.64
989.142	931.06
989.44	937.39
989.737	915.47
990.035	914.11
990.332	931.52
990.63	895.58
990.927	936.71
991.224	915.47
991.521	898.3
991.819	903.49
992.116	897.39
992.413	896.26
992.71	887.22
993.006	902.59
993.303	875.02
993.6	867.11
993.897	900.78
994.193	886.09
994.49	868.47
994.787	862.59
995.083	879.99
995.379	872.53
995.676	880.67
995.972	854
996.268	864.85
996.565	841.57
996.861	852.2
997.157	836.83
997.453	872.99
997.749	849.71
998.044	825.08
998.34	855.13
998.636	834.12
998.932	841.12
999.227	825.98
999.523	814.91
999.818	840.44
1000.114	809.03
1000.409	796.15
1000.704	814.46
1001	832.31
1001.295	823.95
1001.59	795.93
1001.885	809.71
1002.18	799.77
1002.475	790.05
1002.77	802.03
1003.065	800.45
1003.359	817.85
1003.654	789.37
1003.949	771.97
1004.243	780.11
1004.538	778.52
1004.832	766.55
1005.127	771.97
1005.421	776.04
1005.715	761.58
1006.009	768.36
1006.304	759.32
1006.598	754.8
1006.892	748.47
1007.186	736.27
1007.48	732.65
1007.773	744.4
1008.067	723.38
1008.361	739.66
1008.655	743.95
1008.948	726.1
1009.242	732.88
1009.535	735.81
1009.829	733.1
1010.122	730.62
1010.415	692.65
1010.708	699.66
1011.001	735.14
1011.295	724.74
1011.588	712.99
1011.881	693.33
1012.173	707.11
1012.466	694.01
1012.759	692.65
1013.052	709.37
1013.344	707.11
1013.637	694.01
1013.93	715.25
1014.222	667.34
1014.514	671.18
1014.807	698.3
1015.099	686.32
1015.391	672.76
1015.683	661.47
1015.976	671.41
1016.268	654.91
1016.56	655.14
1016.851	658.53
1017.143	654.23
1017.435	628.02
1017.727	651.97
1018.018	643.61
1018.31	658.08
1018.602	621.69
1018.893	644.29
1019.185	652.65
1019.476	622.14
1019.767	656.04
1020.058	617.63
1020.35	646.55
1020.641	624.4
1020.932	629.15
1021.223	637.29
1021.514	625.31
1021.804	608.36
1022.095	594.35
1022.386	585.99
1022.677	612.88
1022.967	589.15
1023.258	599.77
1023.548	605.65
1023.839	606.33
1024.129	583.05
1024.419	574.91
1024.709	602.03
1025	579.66
1025.29	594.35
1025.58	585.99
1025.87	582.37
1026.16	590.51
1026.449	579.43
1026.739	570.62
1027.029	568.36
1027.319	582.15
1027.608	582.6
1027.898	538.53
1028.187	570.62
1028.477	569.72
1028.766	560.68
1029.055	562.49
1029.344	570.85
1029.634	557.74
1029.923	562.94
1030.212	550.73
1030.501	532.66
1030.79	563.84
1031.078	528.36
1031.367	543.73
1031.656	555.25
1031.945	548.25
1032.233	564.29
1032.522	530.17
1032.81	554.12
1033.099	521.81
1033.387	538.53
1033.675	526.78
1033.963	533.33
1034.251	545.31
1034.54	523.39
1034.828	535.59
1035.116	526.78
1035.403	514.12
1035.691	521.13
1035.979	498.08
1036.267	508.25
1036.554	508.93
1036.842	500.34
1037.129	513.67
1037.417	509.38
1037.704	475.48
1037.992	529.94
1038.279	502.83
1038.566	513.9
1038.853	513.9
1039.14	513.9
