Data from mousepad_grey_FLMS001491_00080.txt Node
Date: Wed Feb 08 14:29:56 GMT 2017
User: dcchb
Spectrometer: FLMS00149
Trigger mode: 0
Integration Time (sec): 2.000000E-2
Scans to average: 10
Electric dark correction enabled: true
Nonlinearity correction enabled: false
Boxcar width: 0
XAxis mode: Wavelengths
Number of Pixels in Spectrum: 2048
>>>>>Begin Spectral Data<<<<<
341.393	-23.38
341.776	-23.38
342.16	-23.38
342.543	-53.88
342.927	-83.49
343.31	-61.57
343.693	-86.65
344.077	-54.56
344.46	-64.5
344.843	-46.88
345.226	-27.22
345.61	-60.66
345.993	-15.92
346.376	-1
346.759	-6.43
347.142	32.22
347.525	52.33
347.908	57.3
348.291	55.72
348.674	106.56
349.057	121.25
349.44	135.49
349.823	146.56
350.206	141.14
350.588	172.33
350.971	196.73
351.354	188.6
351.737	211.87
352.119	228.37
352.502	221.36
352.884	255.04
353.267	285.54
353.65	288.03
354.032	286.67
354.414	285.32
354.797	300.91
355.179	305.88
355.562	308.82
355.944	305.43
356.326	305.88
356.709	309.5
357.091	318.08
357.473	338.65
357.855	320.12
358.238	324.19
358.62	333.45
359.002	309.27
359.384	318.08
359.766	329.84
360.148	304.3
360.53	332.55
360.912	320.57
361.294	315.6
361.676	318.76
362.057	323.73
362.439	309.95
362.821	323.73
363.203	309.27
363.584	320.57
363.966	309.5
364.348	321.7
364.729	304.98
365.111	295.71
365.493	292.77
365.874	297.07
366.256	303.4
366.637	290.74
367.019	304.3
367.4	301.81
367.781	307.46
368.163	283.28
368.544	299.1
368.925	289.16
369.306	310.63
369.688	302.72
370.069	290.74
370.45	322.15
370.831	298.88
371.212	309.95
371.593	309.95
371.974	294.81
372.355	280.8
372.736	313.79
373.117	291.19
373.498	282.61
373.879	309.05
374.26	297.97
374.641	303.17
375.021	299.33
375.402	303.62
375.783	317.86
376.163	309.95
376.544	303.85
376.925	300.46
377.305	293.9
377.686	314.7
378.066	305.43
378.447	307.92
378.827	321.02
379.208	321.47
379.588	318.31
379.968	338.88
380.349	311.76
380.729	308.82
381.109	311.08
381.489	308.59
381.87	303.17
382.25	324.64
382.63	328.03
383.01	315.15
383.39	317.41
383.77	304.3
384.15	324.19
384.53	347.69
384.91	340.91
385.29	344.98
385.67	348.59
386.049	342.04
386.429	330.29
386.809	352.89
387.189	337.52
387.568	355.82
387.948	333.9
388.328	354.47
388.707	334.13
389.087	337.97
389.466	336.84
389.846	347.01
390.225	338.65
390.605	342.94
390.984	334.36
391.363	350.4
391.743	356.05
392.122	337.75
392.501	354.69
392.881	362.38
393.26	336.16
393.639	367.8
394.018	341.14
394.397	350.4
394.776	352.66
395.155	379.33
395.534	362.83
395.913	363.06
396.292	365.99
396.671	367.12
397.05	372.32
397.429	363.73
397.808	368.7
398.186	378.42
398.565	387.46
398.944	382.94
399.323	384.98
399.701	367.8
400.08	396.27
400.458	380.23
400.837	387.91
401.215	381.36
401.594	396.05
401.972	388.59
402.351	396.27
402.729	435.82
403.107	381.59
403.486	400.57
403.864	403.73
404.242	405.77
404.62	408.25
404.999	404.64
405.377	430.4
405.755	404.41
406.133	410.96
406.511	436.27
406.889	429.95
407.267	432.66
407.645	427.69
408.023	424.97
408.401	429.95
408.779	445.31
409.156	456.16
409.534	445.99
409.912	436.95
410.29	437.63
410.667	450.51
411.045	464.97
411.422	466.56
411.8	475.59
412.178	465.43
412.555	472.88
412.933	483.05
413.31	501.58
413.687	463.84
414.065	497.74
414.442	497.97
414.819	497.52
415.197	463.39
415.574	511.53
415.951	483.5
416.328	500.23
416.705	507.46
417.082	508.81
417.46	500.23
417.837	514.46
418.214	518.08
418.591	530.06
418.967	515.59
419.344	530.06
419.721	532.32
420.098	513.11
420.475	512.43
420.852	554.01
421.228	560.11
421.605	529.6
421.982	547.23
422.358	570.51
422.735	559.89
423.111	552.43
423.488	553.11
423.864	565.31
424.241	555.37
424.617	589.49
424.994	582.94
425.37	578.42
425.746	594.69
426.123	588.13
426.499	562.82
426.875	593.78
427.251	594.91
427.627	611.18
428.003	591.98
428.379	604.41
428.756	626.78
429.132	638.98
429.507	633.56
429.883	634.46
430.259	650.28
430.635	642.14
431.011	660.22
431.387	649.6
431.763	636.04
432.138	672.88
432.514	678.08
432.89	699.32
433.265	693.67
433.641	699.54
434.016	682.14
434.392	709.26
434.767	722.82
435.143	724.4
435.518	712.65
435.894	740.22
436.269	739.32
436.644	746.55
437.02	734.12
437.395	722.14
437.77	778.41
438.145	762.82
438.52	773.21
438.895	795.81
439.271	783.16
439.646	790.61
440.021	791.07
440.395	791.29
440.77	791.74
441.145	802.14
441.52	796.72
441.895	785.64
442.27	804.85
442.645	805.53
443.019	821.35
443.394	835.81
443.769	818.18
444.143	828.58
444.518	818.41
444.892	839.2
445.267	852.53
445.641	874.91
446.016	853.89
446.39	840.33
446.764	888.92
447.139	868.8
447.513	871.29
447.887	864.74
448.262	874.23
448.636	881.23
449.01	885.98
449.384	914.91
449.758	918.75
450.132	907.67
450.506	935.92
450.88	934.34
451.254	908.8
451.628	941.57
452.002	949.03
452.376	936.37
452.75	966.88
453.123	982.25
453.497	981.12
453.871	960.78
454.244	989.48
454.618	1004.62
454.992	1020.89
455.365	1022.7
455.739	1027.9
456.112	1080.78
456.486	1030.83
456.859	1054.79
457.232	1071.06
457.606	1085.07
457.979	1090.95
458.352	1106.31
458.725	1132.3
459.099	1122.81
459.472	1136.37
459.845	1128.23
460.218	1138.18
460.591	1149.7
460.964	1170.04
461.337	1200.55
461.71	1198.51
462.083	1203.26
462.456	1217.95
462.829	1226.08
463.201	1268.57
463.574	1257.5
463.947	1288.68
464.32	1279.19
464.692	1290.26
465.065	1288.68
465.438	1320.32
465.81	1343.59
466.183	1326.87
466.555	1368
466.928	1370.49
467.3	1382.69
467.672	1389.92
468.045	1434.44
468.417	1405.97
468.789	1437.38
469.161	1450.48
469.534	1481.9
469.906	1502.23
470.278	1509.69
470.65	1550.37
471.022	1533.42
471.394	1596.92
471.766	1560.31
472.138	1600.09
472.51	1612.29
472.882	1635.34
473.253	1645.96
473.625	1665.39
473.997	1688.9
474.369	1707.65
474.74	1744.71
475.112	1756.01
475.484	1801.21
475.855	1814.77
476.227	1824.26
476.598	1850.47
476.97	1851.15
477.341	1896.57
477.713	1934.77
478.084	1963.47
478.455	1960.53
478.827	2002.79
479.198	2044.14
479.569	2071.71
479.94	2120.98
480.311	2121.65
480.682	2172.95
481.053	2195.55
481.424	2239.16
481.795	2273.51
482.166	2267.19
482.537	2302.44
482.908	2324.59
483.279	2400.97
483.65	2396.22
484.021	2453.17
484.391	2487.07
484.762	2462.66
485.133	2505.82
485.503	2575.65
485.874	2607.97
486.244	2674.41
486.615	2644.13
486.985	2684.8
487.356	2727.74
487.726	2745.59
488.097	2826.72
488.467	2823.1
488.837	2832.37
489.207	2889.77
489.578	2933.16
489.948	2950.56
490.318	3002.99
490.688	2995.98
491.058	3035.3
491.428	3098.12
491.798	3078.92
492.168	3178.35
492.538	3157.11
492.908	3194.39
493.278	3222.19
493.648	3249.99
494.017	3304.9
494.387	3292.02
494.757	3355.97
495.126	3372.92
495.496	3415.4
495.866	3384.9
496.235	3468.74
496.605	3484.1
496.974	3485.46
497.344	3506.02
497.713	3549.86
498.082	3576.98
498.452	3603.2
498.821	3611.11
499.19	3647.49
499.559	3659.24
499.928	3680.03
500.298	3692.23
500.667	3726.13
501.036	3740.14
501.405	3774.27
501.774	3733.81
502.143	3831.89
502.512	3818.33
502.88	3892.91
503.249	3842.74
503.618	3932
503.987	3898.1
504.356	3943.75
504.724	3996.18
505.093	3972.9
505.462	3961.6
505.83	4037.08
506.199	4054.26
506.567	4085.22
506.936	4099
507.304	4133.58
507.672	4171.99
508.041	4157.31
508.409	4249.73
508.777	4224.42
509.145	4270.98
509.514	4283.86
509.882	4331.09
510.25	4339.22
510.618	4342.61
510.986	4372.22
511.354	4423.29
511.722	4442.04
512.09	4484.08
512.458	4438.43
512.826	4562.94
513.193	4532.44
513.561	4594.36
513.929	4602.94
514.297	4622.15
514.664	4680.23
515.032	4667.8
515.4	4704.64
515.767	4733.79
516.135	4738.76
516.502	4741.47
516.869	4823.28
517.237	4872.32
517.604	4879.55
517.972	4920
518.339	4920.9
518.706	4908.7
519.073	4947.12
519.44	4967.91
519.808	5026.21
520.175	5032.31
520.542	5077.51
520.909	5157.96
521.276	5101.69
521.643	5157.73
522.009	5218.07
522.376	5252.87
522.743	5283.83
523.11	5307.56
523.477	5392.53
523.843	5431.85
524.21	5473.66
524.577	5514.56
524.943	5515.24
525.31	5609.92
525.676	5589.58
526.043	5605.18
526.409	5654.67
526.776	5680.43
527.142	5736.7
527.508	5738.51
527.874	5815.34
528.241	5850.82
528.607	5863.48
528.973	5947.09
529.339	5921.78
529.705	5990.03
530.071	6038.61
530.437	6021.66
530.803	6102.34
531.169	6113.64
531.535	6117.71
531.901	6185.28
532.267	6153.19
532.632	6197.25
532.998	6253.97
533.364	6350.24
533.73	6357.25
534.095	6324.71
534.461	6360.86
534.826	6403.35
535.192	6458.04
535.557	6476.79
535.923	6514.76
536.288	6481.76
536.653	6489.45
537.019	6561.31
537.384	6576
537.749	6604.47
538.114	6667.97
538.479	6650.57
538.845	6695.54
539.21	6704.36
539.575	6749.78
539.94	6743.9
540.305	6880.4
540.67	6787.97
541.034	6850.79
541.399	6850.34
541.764	6918.14
542.129	6922.88
542.494	6959.49
542.858	7030.22
543.223	7038.81
543.587	7028.19
543.952	7062.09
544.316	7100.51
544.681	7075.42
545.045	7137.79
545.41	7164.23
545.774	7218.92
546.138	7239.94
546.503	7242.65
546.867	7275.87
547.231	7356.32
547.595	7401.06
547.959	7402.64
548.324	7427.28
548.688	7390.22
549.052	7422.76
549.416	7435.86
549.779	7426.15
550.143	7493.72
550.507	7568.29
550.871	7589.76
551.235	7679.02
551.599	7680.15
551.962	7640.6
552.326	7714.73
552.689	7748.62
553.053	7730.09
553.417	7768.74
553.78	7821.39
554.143	7795.85
554.507	7910.88
554.87	7889.41
555.234	7979.13
555.597	7995.85
555.96	7970.09
556.323	8046.24
556.686	8056.19
557.05	8060.48
557.413	8056.64
557.776	8140.48
558.139	8233.81
558.502	8187.71
558.865	8218.44
559.228	8285.33
559.59	8316.29
559.953	8324.43
560.316	8447.59
560.679	8337.54
561.041	8470.64
561.404	8455.5
561.767	8584.08
562.129	8517.87
562.492	8626.34
562.854	8596.96
563.217	8614.14
563.579	8665.89
563.941	8786.34
564.304	8816.62
564.666	8849.61
565.028	8913.11
565.39	8810.52
565.753	8950.85
566.115	8929.61
566.477	8995.82
566.839	9007.8
567.201	9053.67
567.563	9094.58
567.925	9125.31
568.287	9102.49
568.648	9158.08
569.01	9224.74
569.372	9283.95
569.734	9223.39
570.095	9359.43
570.457	9358.3
570.819	9392.42
571.18	9324.4
571.542	9390.61
571.903	9389.94
572.265	9469.48
572.626	9501.8
572.987	9527.11
573.349	9611.17
573.71	9662.47
574.071	9636.48
574.432	9630.38
574.794	9730.72
575.155	9704.73
575.516	9655.47
575.877	9775.92
576.238	9716.71
576.599	9801.45
576.96	9875.35
577.32	9845.74
577.681	9872.86
578.042	9886.65
578.403	9865.63
578.763	9935.91
579.124	9924.84
579.485	9964.61
579.845	10017.04
580.206	9973.88
580.566	9993.76
580.927	9960.54
581.287	10004.38
581.648	9978.62
582.008	10071.5
582.368	10073.99
582.728	10047.55
583.089	10063.37
583.449	10053.65
583.809	10034.44
584.169	10083.03
584.529	10109.01
584.889	10182.23
585.249	10060.43
585.609	10043.03
585.969	10165.51
586.329	10144.72
586.688	10153.08
587.048	10064.04
587.408	10122.57
587.768	10117.83
588.127	10107.43
588.487	10118.28
588.846	10153.76
589.206	10157.15
589.565	10125.51
589.925	10223.59
590.284	10112.18
590.643	10142.23
591.003	10164.15
591.362	10223.36
591.721	10156.92
592.08	10165.74
592.44	10156.7
592.799	10226.52
593.158	10171.84
593.517	10159.63
593.876	10204.38
594.235	10202.8
594.593	10247.99
594.952	10211.84
595.311	10184.94
595.67	10243.25
596.029	10203.47
596.387	10290.48
596.746	10292.74
597.104	10211.61
597.463	10283.47
597.822	10306.75
598.18	10158.05
598.538	10217.03
598.897	10345.17
599.255	10177.71
599.613	10379.97
599.972	10250.25
600.33	10362.34
600.688	10255.9
601.046	10261.55
601.404	10307.2
601.762	10324.15
602.12	10328.9
602.478	10310.82
602.836	10411.15
603.194	10300.42
603.552	10356.01
603.91	10300.87
604.268	10370.48
604.625	10351.95
604.983	10420.87
605.341	10370.48
605.698	10426.75
606.056	10352.85
606.413	10415.45
606.771	10362.57
607.128	10412.96
607.485	10397.59
607.843	10459.29
608.2	10467.65
608.557	10558.04
608.914	10401.89
609.272	10529.34
609.629	10538.83
609.986	10569.11
610.343	10470.59
610.7	10525.05
611.057	10591.26
611.414	10540.19
611.771	10501.77
612.127	10592.16
612.484	10600.3
612.841	10592.39
613.198	10544.26
613.554	10613.18
613.911	10612.28
614.267	10619.06
614.624	10607.98
614.98	10700.18
615.337	10650.69
615.693	10667.64
616.05	10697.02
616.406	10777.92
616.762	10614.31
617.118	10745.61
617.475	10741.09
617.831	10675.78
618.187	10795.55
618.543	10663.35
618.899	10709.22
619.255	10743.57
619.611	10726.17
619.967	10787.41
620.323	10797.81
620.678	10863.12
621.034	10797.36
621.39	10777.7
621.746	10749
622.101	10934.98
622.457	10753.29
622.812	10826.51
623.168	10816.79
623.523	10862.89
623.879	10897.24
624.234	10816.57
624.589	10817.7
624.945	10898.82
625.3	10828.32
625.655	10851.59
626.01	10828.77
626.365	10849.79
626.72	10852.5
627.075	10806.4
627.43	10851.59
627.785	10842.1
628.14	10872.38
628.495	10878.26
628.85	10800.97
629.205	10822.89
629.559	10866.73
629.914	10745.16
630.269	10843.01
630.623	10807.98
630.978	10857.69
631.332	10770.01
631.687	10785.38
632.041	10798.94
632.396	10815.44
632.75	10819.28
633.104	10777.92
633.459	10725.04
633.813	10725.95
634.167	10688.66
634.521	10680.3
634.875	10743.8
635.229	10690.24
635.583	10670.36
635.937	10693.41
636.291	10723.23
636.645	10664.93
636.999	10637.59
637.352	10725.27
637.706	10537.25
638.06	10633.07
638.413	10698.38
638.767	10540.19
639.121	10605.05
639.474	10551.94
639.828	10517.14
640.181	10614.09
640.534	10521.66
640.888	10573.86
641.241	10532.05
641.594	10535.9
641.947	10517.82
642.301	10468.78
642.654	10560.3
643.007	10563.01
643.36	10494.09
643.713	10498.38
644.066	10589.91
644.419	10496.35
644.771	10433.3
645.124	10287.31
645.477	10217.26
645.83	10228.33
646.182	10238.05
646.535	10242.12
646.888	10291.16
647.24	10149.24
647.593	10224.27
647.945	10213.42
648.298	10179.52
648.65	10090.26
649.002	10118.73
649.355	10226.3
649.707	10110.82
650.059	10176.81
650.411	10321.44
650.763	10295.22
651.115	10476.01
651.467	10457.48
651.819	10422.9
652.171	10406.86
652.523	10370.7
652.875	10374.09
653.227	10307.2
653.578	10391.72
653.93	10411.38
654.282	10363.92
654.633	10363.47
654.985	10363.24
655.337	10358.27
655.688	10356.69
656.039	10361.66
656.391	10294.09
656.742	10328.44
657.094	10368.22
657.445	10378.16
657.796	10324.38
658.147	10317.6
658.498	10332.28
658.849	10403.7
659.2	10293.87
659.551	10295.9
659.902	10367.99
660.253	10314.21
660.604	10296.13
660.955	10329.35
661.306	10309.91
661.656	10338.84
662.007	10308.1
662.358	10301.78
662.708	10323.02
663.059	10362.34
663.409	10245.51
663.76	10309.91
664.11	10345.39
664.461	10360.53
664.811	10322.57
665.161	10350.82
665.511	10356.24
665.862	10325.05
666.212	10387.2
666.562	10343.81
666.912	10270.14
667.262	10336.58
667.612	10273.08
667.962	10267.65
668.312	10308.56
668.662	10390.36
669.011	10345.17
669.361	10287.31
669.711	10275.79
670.06	10246.41
670.41	10241.44
670.76	10247.77
671.109	10277.37
671.459	10240.99
671.808	10207.77
672.157	10236.69
672.507	10233.3
672.856	10225.62
673.205	10283.25
673.554	10245.28
673.904	10228.56
674.253	10247.09
674.602	10239.41
674.951	10081.9
675.3	9992.63
675.649	10143.59
675.998	10187.66
676.346	10142.69
676.695	10188.33
677.044	10033.54
677.393	10171.61
677.741	10151.27
678.09	10106.08
678.438	10058.39
678.787	10098.39
679.135	10095.45
679.484	9985.4
679.832	10108.11
680.181	10046.19
680.529	10057.72
680.877	10024.5
681.225	9993.08
681.573	10091.61
681.922	9940.43
682.27	9998.73
682.618	9899.08
682.966	9926.42
683.314	9921.45
683.661	9924.61
684.009	9857.27
684.357	9775.01
684.705	9857.72
685.053	9832.86
685.4	9793.09
685.748	9751.74
686.095	9804.62
686.443	9670.16
686.79	9642.81
687.138	9787.89
687.485	9714.22
687.832	9647.11
688.18	9690.49
688.527	9592.87
688.874	9602.13
689.221	9626.77
689.568	9527.33
689.915	9497.28
690.262	9535.92
690.609	9531.4
690.956	9456.38
691.303	9479.2
691.65	9380.9
691.997	9397.17
692.344	9352.88
692.69	9346.55
693.037	9313.55
693.383	9271.75
693.73	9314.23
694.077	9190.62
694.423	9236.27
694.769	9184.29
695.116	9169.6
695.462	9103.62
695.808	9081.47
696.155	9102.26
696.501	9054.35
696.847	9086.22
697.193	9004.41
697.539	9002.15
697.885	8965.54
698.231	8897.75
698.577	8931.42
698.923	8837.86
699.269	8762.61
699.614	8756.28
699.96	8757.86
700.306	8735.94
700.651	8681.25
700.997	8678.77
701.342	8679.22
701.688	8660.01
702.033	8676.06
702.379	8665.66
702.724	8574.36
703.069	8572.11
703.415	8497.53
703.76	8493.69
704.105	8480.13
704.45	8447.36
704.795	8447.36
705.14	8461.83
705.485	8446.23
705.83	8387.48
706.175	8379.57
706.52	8373.24
706.865	8269.97
707.209	8362.85
707.554	8200.36
707.899	8260.93
708.243	8200.82
708.588	8178.67
708.932	8133.25
709.277	8189.52
709.621	8197.2
709.966	8162.4
710.31	8099.8
710.654	8044.89
710.998	8061.16
711.342	8028.84
711.687	8116.52
712.031	8035.4
712.375	7953.82
712.719	8008.96
713.063	7975.96
713.407	8047.37
713.75	7954.49
714.094	7916.76
714.438	7898
714.782	7929.64
715.125	7890.54
715.469	7927.38
715.812	7930.31
716.156	7882.18
716.499	7897.77
716.843	7847.38
717.186	7799.92
717.53	7860.26
717.873	7856.64
718.216	7818.45
718.559	7820.26
718.902	7820.71
719.246	7770.77
719.589	7787.72
719.932	7756.99
720.275	7740.26
720.617	7729.64
720.96	7732.58
721.303	7749.53
721.646	7745.23
721.989	7756.76
722.331	7687.38
722.674	7724.9
723.016	7706.82
723.359	7699.36
723.701	7759.02
724.044	7673.6
724.386	7607.61
724.729	7658.91
725.071	7616.42
725.413	7694.84
725.755	7654.39
726.097	7582.3
726.439	7647.84
726.782	7547.95
727.124	7637.67
727.465	7612.81
727.807	7550.66
728.149	7585.92
728.491	7556.76
728.833	7632.02
729.175	7571.45
729.516	7644.22
729.858	7528.97
730.199	7545.92
730.541	7543.43
730.882	7537.56
731.224	7558.35
731.565	7497.33
731.906	7531
732.248	7562.41
732.589	7547.5
732.93	7467.28
733.271	7538.23
733.612	7494.17
733.953	7497.56
734.294	7458.46
734.635	7519.48
734.976	7482.42
735.317	7489.87
735.658	7543.43
735.999	7494.39
736.339	7493.04
736.68	7482.64
737.021	7484.68
737.361	7443.77
737.702	7482.42
738.042	7466.37
738.383	7514.28
738.723	7496.88
739.063	7511.57
739.404	7540.27
739.744	7464.11
740.084	7457.78
740.424	7435.19
740.764	7459.37
741.104	7507.05
741.444	7385.92
741.784	7399.71
742.124	7433.38
742.464	7445.36
742.804	7436.77
743.143	7428.41
743.483	7452.59
743.823	7408.52
744.162	7403.77
744.502	7354.06
744.841	7402.64
745.181	7418.24
745.52	7379.37
745.86	7377.33
746.199	7406.71
746.538	7371.01
746.877	7442.19
747.216	7432.7
747.556	7401.74
747.895	7363.1
748.234	7351.8
748.573	7412.14
748.911	7322.65
749.25	7350.22
749.589	7376.43
749.928	7330.56
750.267	7352.02
750.605	7333.95
750.944	7372.81
751.283	7276.77
751.621	7371.23
751.96	7367.84
752.298	7362.42
752.636	7297.79
752.975	7362.42
753.313	7211.01
753.651	7275.42
753.989	7231.58
754.327	7288.07
754.666	7198.13
755.004	7240.39
755.342	7264.79
755.679	7179.83
756.017	7225.93
756.355	7191.8
756.693	7150.67
757.031	7205.14
757.368	7136.66
757.706	7150.45
758.044	7117
758.381	7172.37
758.719	7150.22
759.056	7096.89
759.394	7068.19
759.731	7115.42
760.068	7035.42
760.405	6936.67
760.743	7085.82
761.08	7009.21
761.417	7009.21
761.754	6935.54
762.091	7023.45
762.428	6926.05
762.765	6897.57
763.102	6954.52
763.438	6884.24
763.775	6873.17
764.112	6877.69
764.449	6815.09
764.785	6840.4
765.122	6837.46
765.458	6768.99
765.795	6798.37
766.131	6765.15
766.467	6743.9
766.804	6701.42
767.14	6677.24
767.476	6715.2
767.812	6678.6
768.148	6611.03
768.485	6577.36
768.821	6537.36
769.157	6508.43
769.492	6571.71
769.828	6503.68
770.164	6523.12
770.5	6436.12
770.836	6465.04
771.171	6408.32
771.507	6410.58
771.842	6367.19
772.178	6372.84
772.513	6335.1
772.849	6355.44
773.184	6339.62
773.519	6292.17
773.855	6267.98
774.19	6262.11
774.525	6207.87
774.86	6286.06
775.195	6184.37
775.53	6247.65
775.865	6191.38
776.2	6116.12
776.535	6106.41
776.87	6119.74
777.205	6091.72
777.539	6038.84
777.874	6003.81
778.209	5946.64
778.543	6000.65
778.878	5952.96
779.212	5944.38
779.547	5879.75
779.881	5959.07
780.215	5862.35
780.55	5892.4
780.884	5832.97
781.218	5846.3
781.552	5820.99
781.886	5807.88
782.22	5803.59
782.554	5778.73
782.888	5711.39
783.222	5706.19
783.556	5677.49
783.889	5643.37
784.223	5616.25
784.557	5604.73
784.89	5622.13
785.224	5597.27
785.557	5609.7
785.891	5541.68
786.224	5538.06
786.558	5534.22
786.891	5489.25
787.224	5453.54
787.557	5508.68
787.891	5487.21
788.224	5433.88
788.557	5447.67
788.89	5416.71
789.223	5406.99
789.556	5372.64
789.888	5377.61
790.221	5335.58
790.554	5328.35
790.887	5313.21
791.219	5291.74
791.552	5268.46
791.884	5263.04
792.217	5287.45
792.549	5222.81
792.882	5235.47
793.214	5150.5
793.546	5201.12
793.879	5197.96
794.211	5099.43
794.543	5134.23
794.875	5088.35
795.207	5085.19
795.539	5057.62
795.871	5057.85
796.203	4999.54
796.535	5035.47
796.867	4995.02
797.198	5043.16
797.53	5005.87
797.862	4966.55
798.193	4976.27
798.525	4936.27
798.856	4950.96
799.188	4891.07
799.519	4869.6
799.85	4875.25
800.182	4840
800.513	4856.72
800.844	4821.92
801.175	4857.63
801.506	4820.11
801.837	4822.37
802.168	4775.14
802.499	4767.91
802.83	4790.51
803.161	4780.11
803.491	4740.34
803.822	4757.29
804.153	4687.24
804.483	4667.58
804.814	4690.63
805.145	4681.36
805.475	4652.89
805.805	4661.47
806.136	4613.34
806.466	4615.6
806.796	4606.56
807.126	4616.05
807.457	4573.34
807.787	4616.95
808.117	4566.56
808.447	4601.81
808.777	4599.55
809.107	4530.4
809.436	4531.99
809.766	4543.74
810.096	4476.85
810.426	4464.87
810.755	4471.2
811.085	4438.88
811.414	4463.74
811.744	4449.05
812.073	4427.58
812.403	4428.71
812.732	4421.25
813.061	4383.74
813.39	4397.75
813.719	4394.59
814.049	4421.71
814.378	4375.38
814.707	4362.05
815.036	4293.12
815.365	4313.69
815.693	4331.99
816.022	4291.54
816.351	4266.91
816.68	4244.54
817.008	4275.27
817.337	4230.52
817.665	4210.64
817.994	4249.05
818.322	4248.38
818.651	4266.68
818.979	4195.95
819.307	4217.64
819.636	4187.14
819.964	4185.33
820.292	4189.62
820.62	4171.77
820.948	4175.61
821.276	4178.32
821.604	4189.85
821.932	4180.13
822.259	4161.83
822.587	4208.83
822.915	4186.68
823.243	4194.37
823.57	4188.49
823.898	4159.11
824.225	4100.13
824.553	4175.84
824.88	4171.99
825.207	4187.36
825.535	4168.15
825.862	4115.5
826.189	4133.8
826.516	4171.54
826.843	4209.06
827.17	4133.35
827.497	4165.22
827.824	4185.1
828.151	4143.75
828.478	4160.24
828.805	4153.92
829.131	4124.09
829.458	4141.04
829.785	4164.76
830.111	4125.22
830.438	4115.5
830.764	4169.73
831.09	4154.37
831.417	4117.98
831.743	4123.63
832.069	4132.45
832.395	4108.27
832.722	4125.44
833.048	4080.25
833.374	4120.7
833.7	4132.45
834.026	4117.76
834.351	4103.75
834.677	4120.02
835.003	4148.94
835.329	4118.66
835.654	4146.68
835.98	4091.09
836.306	4085.44
836.631	4066.46
836.956	4051.77
837.282	4102.62
837.607	4052.9
837.932	4043.18
838.258	4000.47
838.583	4071.88
838.908	4069.85
839.233	3998.67
839.558	3996.86
839.883	4013.81
840.208	4012.68
840.533	4008.16
840.858	3985.56
841.182	3994.37
841.507	4033.92
841.832	4007.25
842.156	3980.36
842.481	4009.29
842.805	3999.34
843.13	3925.22
843.454	3971.55
843.778	3953.92
844.103	3900.82
844.427	3888.61
844.751	3889.97
845.075	3868.73
845.399	3921.61
845.723	3921.61
846.047	3856.52
846.371	3855.62
846.695	3856.97
847.019	3810.87
847.343	3792.8
847.666	3796.86
847.99	3787.15
848.313	3768.16
848.637	3779.24
848.96	3720.03
849.284	3772.01
849.607	3706.7
849.931	3757.32
850.254	3668.05
850.577	3657.88
850.9	3658.34
851.223	3632.35
851.546	3601.39
851.869	3592.8
852.192	3648.17
852.515	3616.98
852.838	3542.41
853.161	3592.58
853.483	3566.36
853.806	3544.21
854.129	3545.12
854.451	3503.99
854.774	3500.83
855.096	3473.93
855.419	3496.08
855.741	3486.82
856.063	3463.99
856.385	3487.04
856.708	3479.36
857.03	3438.23
857.352	3452.92
857.674	3455.63
857.996	3417.66
858.318	3407.72
858.64	3377.89
858.961	3357.1
859.283	3366.59
859.605	3365.01
859.926	3419.7
860.248	3359.36
860.57	3371.11
860.891	3320.04
861.212	3346.71
861.534	3304.67
861.855	3316.88
862.176	3313.94
862.498	3332.02
862.819	3334.95
863.14	3292.92
863.461	3290.21
863.782	3291.79
864.103	3293.37
864.424	3271.45
864.745	3255.18
865.065	3279.59
865.386	3272.13
865.707	3256.31
866.027	3227.84
866.348	3265.8
866.668	3237.56
866.989	3224.45
867.309	3234.62
867.63	3229.87
867.95	3220.83
868.27	3178.12
868.59	3210.21
868.91	3210.66
869.23	3192.81
869.55	3184.68
869.87	3205.69
870.19	3201.4
870.51	3228.97
870.83	3193.26
871.15	3171.8
871.469	3205.01
871.789	3156.88
872.109	3123.66
872.428	3130.44
872.748	3145.81
873.067	3129.99
873.386	3135.64
873.706	3166.6
874.025	3134.96
874.344	3122.98
874.663	3136.54
874.982	3122.08
875.301	3119.37
875.62	3120.95
875.939	3093.38
876.258	3131.34
876.577	3077.11
876.896	3103.1
877.214	3099.48
877.533	3067.84
877.852	3085.7
878.17	3067.17
878.489	3069.65
878.807	3078.46
879.125	3081.18
879.444	3067.39
879.762	3063.55
880.08	3045.24
880.398	3040.95
880.716	3038.92
881.034	3007.73
881.352	3011.8
881.67	3004.79
881.988	3018.8
882.306	3006.38
882.624	2995.3
882.941	3024.23
883.259	2966.83
883.577	2998.24
883.894	2987.62
884.212	2992.14
884.529	2962.31
884.846	2947.85
885.164	2944.68
885.481	2904.23
885.798	2943.1
886.115	2922.31
886.432	2951.69
886.75	2923.67
887.067	2896.77
887.383	2932.93
887.7	2890.45
888.017	2878.92
888.334	2847.96
888.651	2883.67
888.967	2871.92
889.284	2882.99
889.6	2878.92
889.917	2824.23
890.233	2819.04
890.55	2816.78
890.866	2832.82
891.182	2841.41
891.498	2768.87
891.815	2796.21
892.131	2802.09
892.447	2783.33
892.763	2795.53
893.079	2789.21
893.395	2770.45
893.71	2765.03
894.026	2786.49
894.342	2747.63
894.657	2763.9
894.973	2694.29
895.289	2690.9
895.604	2708.53
895.92	2692.94
896.235	2719.15
896.55	2699.72
896.865	2712.82
897.181	2651.36
897.496	2703.78
897.811	2690
898.126	2654.97
898.441	2645.71
898.756	2624.92
899.071	2638.93
899.386	2638.93
899.7	2619.72
900.015	2575.88
900.33	2553.73
900.644	2594.86
900.959	2605.93
901.273	2566.84
901.588	2558.7
901.902	2522.32
902.216	2518.48
902.531	2537.91
902.845	2517.8
903.159	2536.11
903.473	2518.48
903.787	2530
904.101	2503.34
904.415	2492.49
904.729	2467.41
905.042	2453.17
905.356	2462.44
905.67	2461.76
905.984	2462.89
906.297	2442.77
906.611	2439.39
906.924	2443.9
907.237	2446.16
907.551	2402.55
907.864	2390.57
908.177	2377.69
908.491	2398.93
908.804	2387.18
909.117	2374.08
909.43	2376.79
909.743	2333.85
910.056	2339.73
910.368	2360.52
910.681	2311.25
910.994	2323.68
911.307	2344.47
911.619	2281.2
911.932	2280.97
912.244	2311.48
912.557	2270.8
912.869	2283.91
913.181	2268.99
913.494	2269.9
913.806	2243.46
914.118	2227.87
914.43	2220.18
914.742	2242.55
915.054	2192.16
915.366	2196.45
915.678	2213.4
915.99	2152.16
916.302	2154.87
916.613	2169.79
916.925	2158.04
917.236	2166.62
917.548	2116.46
917.859	2159.17
918.171	2125.72
918.482	2108.09
918.794	2128.43
919.105	2110.58
919.416	2107.87
919.727	2102.67
920.038	2092.5
920.349	2108.77
920.66	2062.45
920.971	2068.55
921.282	2092.5
921.593	2040.07
921.903	2057.25
922.214	2049.79
922.525	2028.55
922.835	2019.06
923.146	2000.75
923.456	2009.11
923.767	2004.37
924.077	1984.03
924.387	2010.24
924.697	1962.11
925.008	1991.04
925.318	1969.79
925.628	1951.94
925.938	1978.83
926.248	1949.91
926.558	1938.38
926.867	1956.01
927.177	1951.49
927.487	1909.46
927.796	1890.02
928.106	1905.84
928.416	1899.29
928.725	1909.91
929.034	1858.61
929.344	1886.18
929.653	1884.37
929.962	1867.65
930.271	1866.52
930.581	1822.45
930.89	1820.87
931.199	1854.99
931.508	1839.17
931.817	1837.37
932.125	1810.25
932.434	1802.57
932.743	1806.86
933.051	1784.71
933.36	1802.34
933.669	1793.53
933.977	1771.38
934.286	1767.99
934.594	1732.28
934.902	1739.52
935.21	1716.24
935.519	1766.18
935.827	1727.99
936.135	1736.8
936.443	1739.74
936.751	1735.45
937.059	1715.34
937.367	1671.27
937.674	1676.92
937.982	1697.26
938.29	1677.15
938.597	1685.05
938.905	1672.17
939.213	1666.3
939.52	1670.59
939.827	1649.8
940.135	1657.94
940.442	1619.07
940.749	1657.03
941.056	1628.78
941.363	1638.5
941.67	1636.69
941.977	1623.14
942.284	1606.19
942.591	1625.85
942.898	1605.06
943.205	1594.21
943.511	1609.58
943.818	1587.43
944.125	1564.83
944.431	1573.87
944.738	1574.1
945.044	1551.5
945.35	1573.19
945.657	1567.54
945.963	1541.1
946.269	1519.86
946.575	1539.52
946.881	1510.14
947.187	1549.69
947.493	1490.94
947.799	1516.47
948.105	1507.21
948.41	1538.84
948.716	1501.1
949.022	1465.85
949.327	1465.17
949.633	1499.07
949.938	1473.53
950.244	1490.48
950.549	1452.97
950.854	1472.86
951.16	1459.3
951.465	1407.1
951.77	1447.77
952.075	1434.67
952.38	1422.91
952.685	1448
952.99	1414.55
953.294	1412.75
953.599	1421.56
953.904	1400.09
954.209	1391.73
954.513	1395.57
954.818	1398.28
955.122	1399.19
955.426	1388.34
955.731	1395.8
956.035	1365.74
956.339	1354.67
956.643	1377.49
956.948	1363.03
957.252	1349.92
957.556	1363.71
957.86	1347.21
958.163	1322.58
958.467	1330.26
958.771	1333.43
959.075	1311.51
959.378	1318.51
959.682	1307.21
959.985	1323.93
960.289	1320.77
960.592	1331.84
960.896	1297.72
961.199	1309.92
961.502	1287.55
961.805	1290.94
962.108	1268.57
962.411	1304.95
962.714	1267.21
963.017	1258.4
963.32	1257.04
963.623	1272.18
963.926	1278.29
964.228	1254.78
964.531	1233.32
964.833	1235.8
965.136	1232.86
965.438	1219.08
965.741	1232.64
966.043	1203.03
966.345	1214.78
966.648	1227.21
966.95	1227.44
967.252	1218.63
967.554	1207.1
967.856	1175.01
968.158	1182.69
968.46	1183.6
968.761	1178.4
969.063	1198.74
969.365	1204.62
969.666	1178.4
969.968	1141.57
970.269	1154.22
970.571	1164.62
970.872	1178.63
971.174	1144.73
971.475	1151.06
971.776	1130.49
972.077	1154.9
972.378	1132.07
972.679	1127.56
972.98	1126.43
973.281	1131.17
973.582	1135.24
973.883	1114.67
974.183	1123.71
974.484	1092.3
974.785	1120.1
975.085	1091.4
975.386	1082.58
975.686	1078.06
975.986	1065.86
976.287	1080.55
976.587	1058.18
976.887	1076.26
977.187	1066.31
977.487	1078.29
977.787	1078.29
978.087	1045.3
978.387	1060.44
978.687	1067.22
978.987	1069.7
979.286	1060.89
979.586	1052.08
979.885	1033.09
980.185	1083.26
980.484	1037.16
980.784	1006.2
981.083	1019.54
981.382	1019.99
981.682	1012.98
981.981	1014.79
982.28	987.45
982.579	1040.1
982.878	1003.94
983.177	982.93
983.475	1002.36
983.774	1003.49
984.073	1015.24
984.372	977.73
984.67	992.64
984.969	994.45
985.267	977.73
985.566	987.9
985.864	986.54
986.162	970.95
986.461	959.88
986.759	951.97
987.057	951.74
987.355	955.13
987.653	948.12
987.951	959.42
988.249	953.1
988.547	913.1
988.844	957.62
989.142	935.02
989.44	932.76
989.737	941.8
990.035	928.92
990.332	925.07
990.63	919.88
990.927	899.99
991.224	872.19
991.521	921.46
991.819	912.87
992.116	922.59
992.413	919.42
992.71	892.53
993.006	892.98
993.303	883.72
993.6	906.77
993.897	879.2
994.193	888.69
994.49	910.61
994.787	887.79
995.083	880.1
995.379	854.12
995.676	863.16
995.972	878.75
996.268	836.94
996.565	871.52
996.861	850.95
997.157	838.07
997.453	855.02
997.749	822.03
998.044	850.27
998.34	849.37
998.636	828.58
998.932	852.08
999.227	815.7
999.523	825.87
999.818	858.64
1000.114	806.89
1000.409	848.01
1000.704	805.76
1001	823.16
1001.295	816.6
1001.59	819.77
1001.885	805.3
1002.18	812.76
1002.475	777.28
1002.77	797.17
1003.065	807.79
1003.359	790.61
1003.654	784.74
1003.949	809.15
1004.243	784.51
1004.538	777.73
1004.832	799.65
1005.127	774.8
1005.421	751.97
1005.715	757.62
1006.009	760.11
1006.304	773.89
1006.598	753.1
1006.892	759.66
1007.186	761.46
1007.48	747.45
1007.773	741.8
1008.067	767.34
1008.361	738.19
1008.655	725.08
1008.948	719.43
1009.242	723.5
1009.535	716.27
1009.829	714.23
1010.122	720.11
1010.415	715.81
1010.708	730.5
1011.001	713.33
1011.295	707.68
1011.588	706.55
1011.881	707.23
1012.173	701.8
1012.466	709.26
1012.759	719.2
1013.052	699.54
1013.344	697.74
1013.637	699.32
1013.93	669.49
1014.222	673.56
1014.514	676.49
1014.807	689.83
1015.099	700
1015.391	659.77
1015.683	673.56
1015.976	657.74
1016.268	654.57
1016.56	648.7
1016.851	649.38
1017.143	666.55
1017.435	667.91
1017.727	672.43
1018.018	661.13
1018.31	642.37
1018.602	631.75
1018.893	636.72
1019.185	632.88
1019.476	652.09
1019.767	635.59
1020.058	648.92
1020.35	622.94
1020.641	617.06
1020.932	634.69
1021.223	595.14
1021.514	623.39
1021.804	634.91
1022.095	604.63
1022.386	612.54
1022.677	620.22
1022.967	611.41
1023.258	599.43
1023.548	584.07
1023.839	597.17
1024.129	585.65
1024.419	594.24
1024.709	584.07
1025	600.56
1025.29	579.32
1025.58	601.47
1025.87	594.69
1026.16	582.26
1026.449	565.99
1026.739	564.63
1027.029	572.54
1027.319	568.7
1027.608	564.63
1027.898	561.69
1028.187	558.3
1028.477	548.14
1028.766	542.26
1029.055	574.12
1029.344	547.23
1029.634	535.48
1029.923	542.26
1030.212	548.81
1030.501	543.84
1030.79	539.77
1031.078	513.33
1031.367	533.22
1031.656	531.86
1031.945	518.08
1032.233	537.74
1032.522	511.3
1032.81	526.67
1033.099	541.13
1033.387	544.29
1033.675	527.8
1033.963	521.02
1034.251	536.84
1034.54	521.02
1034.828	528.93
1035.116	539.1
1035.403	535.93
1035.691	521.02
1035.979	507.01
1036.267	520.79
1036.554	500
1036.842	542.49
1037.129	504.97
1037.417	501.36
1037.704	503.16
1037.992	487.8
1038.279	499.55
1038.566	489.83
1038.853	489.83
1039.14	489.83
