Data from mousepad_grey_FLMS001491_00029.txt Node
Date: Wed Feb 08 14:29:13 GMT 2017
User: dcchb
Spectrometer: FLMS00149
Trigger mode: 0
Integration Time (sec): 2.000000E-2
Scans to average: 10
Electric dark correction enabled: true
Nonlinearity correction enabled: false
Boxcar width: 0
XAxis mode: Wavelengths
Number of Pixels in Spectrum: 2048
>>>>>Begin Spectral Data<<<<<
341.393	-12.8
341.776	-12.8
342.16	-12.8
342.543	-79.69
342.927	-59.8
343.31	-76.07
343.693	-63.42
344.077	-61.16
344.46	-60.25
344.843	-73.59
345.226	-47.15
345.61	-29.97
345.993	7.09
346.376	-28.16
346.759	25.17
347.142	31.95
347.525	40.99
347.908	62.68
348.291	86.86
348.674	88.67
349.057	96.35
349.44	110.82
349.823	129.8
350.206	145.62
350.588	186.75
350.971	200.53
351.354	217.71
351.737	224.71
352.119	218.61
352.502	255.22
352.884	254.32
353.267	283.92
353.65	276.91
354.032	294.54
354.414	276.24
354.797	310.81
355.179	291.38
355.562	285.05
355.944	304.48
356.326	304.94
356.709	297.03
357.091	303.81
357.473	321.43
357.855	330.25
358.238	314.43
358.62	315.78
359.002	326.18
359.384	342.22
359.766	324.6
360.148	301.32
360.53	325.27
360.912	318.95
361.294	326.4
361.676	303.81
362.057	315.33
362.439	320.3
362.821	318.95
363.203	305.84
363.584	309.46
363.966	302.45
364.348	298.16
364.729	311.71
365.111	316.91
365.493	292.96
365.874	336.35
366.256	270.81
366.637	297.48
367.019	302.9
367.4	285.95
367.781	309.23
368.163	304.71
368.544	266.07
368.925	307.87
369.306	282.11
369.688	291.15
370.069	293.41
370.45	301.32
370.831	285.73
371.212	297.03
371.593	309.91
371.974	301.77
372.355	303.35
372.736	286.86
373.117	299.96
373.498	308.1
373.879	294.77
374.26	282.11
374.641	297.7
375.021	296.35
375.402	304.48
375.783	324.6
376.163	317.59
376.544	294.09
376.925	321.66
377.305	292.73
377.686	305.39
378.066	312.39
378.447	303.58
378.827	317.82
379.208	313.07
379.588	300.42
379.968	280.98
380.349	297.93
380.729	326.63
381.109	326.63
381.489	307.2
381.87	335.44
382.25	321.88
382.63	304.71
383.01	331.15
383.39	319.17
383.77	303.81
384.15	310.13
384.53	304.48
384.91	317.14
385.29	326.86
385.67	332.96
386.049	300.42
386.429	317.82
386.809	330.25
387.189	327.76
387.568	348.55
387.948	339.74
388.328	353.52
388.707	342.67
389.087	326.18
389.466	363.69
389.846	323.24
390.225	353.52
390.605	363.47
390.984	326.4
391.363	351.71
391.743	313.07
392.122	365.5
392.501	358.49
392.881	359.85
393.26	331.83
393.639	365.05
394.018	355.1
394.397	361.43
394.776	344.26
395.155	349.68
395.534	334.99
395.913	364.59
396.292	370.47
396.671	358.72
397.05	355.56
397.429	389.91
397.808	356.23
398.186	364.14
398.565	384.26
398.944	360.3
399.323	369.57
399.701	366.4
400.08	377.93
400.458	377.48
400.837	380.87
401.215	386.97
401.594	375.67
401.972	379.28
402.351	404.59
402.729	391.94
403.107	382.22
403.486	408.44
403.864	394.65
404.242	397.59
404.62	389.91
404.999	408.66
405.377	411.6
405.755	405.72
406.133	424.48
406.511	393.07
406.889	404.59
407.267	417.02
407.645	407.98
408.023	401.43
408.401	412.96
408.779	443.46
409.156	424.25
409.534	412.96
409.912	434.2
410.29	426.29
410.667	421.09
411.045	439.17
411.422	406.85
411.8	463.35
412.178	456.8
412.555	469.9
412.933	453.63
413.31	462.67
413.687	459.06
414.065	460.86
414.442	466.74
414.819	445.95
415.197	473.74
415.574	468.77
415.951	458.15
416.328	460.41
416.705	474.42
417.082	486.85
417.46	477.36
417.837	492.5
418.214	480.98
418.591	486.4
418.967	497.92
419.344	498.83
419.721	496.12
420.098	485.5
420.475	489.34
420.852	494.08
421.228	501.77
421.605	519.17
421.982	509.68
422.358	528.21
422.735	523.69
423.111	525.95
423.488	529.34
423.864	540.64
424.241	532.27
424.617	558.26
424.994	530.69
425.37	550.13
425.746	541.54
426.123	534.99
426.499	555.78
426.875	563.46
427.251	566.62
427.627	564.14
428.003	564.14
428.379	584.48
428.756	566.17
429.132	598.49
429.507	571.6
429.883	565.27
430.259	587.19
430.635	581.31
431.011	600.52
431.387	619.5
431.763	618.83
432.138	633.74
432.514	598.71
432.89	623.12
433.265	624.02
433.641	621.54
434.016	634.42
434.392	640.97
434.767	683.91
435.143	657.24
435.518	685.94
435.894	686.62
436.269	672.16
436.644	672.16
437.02	702.44
437.395	685.04
437.77	683.46
438.145	728.43
438.52	688.65
438.895	689.78
439.271	705.38
439.646	718.71
440.021	727.52
440.395	732.27
440.77	708.99
441.145	742.66
441.52	739.95
441.895	744.47
442.27	751.03
442.645	742.66
443.019	743.79
443.394	747.18
443.769	760.74
444.143	788.99
444.518	765.04
444.892	800.06
445.267	784.47
445.641	797.35
446.016	786.73
446.39	787.86
446.764	789.89
447.139	792.61
447.513	801.65
447.887	795.54
448.262	815.88
448.636	808.65
449.01	820.4
449.384	817.69
449.758	825.6
450.132	850.68
450.506	828.54
450.88	845.94
451.254	835.77
451.628	863.34
452.002	858.59
452.376	843.68
452.75	860.63
453.123	865.82
453.497	888.42
453.871	910.8
454.244	905.82
454.618	895.43
454.992	926.61
455.365	897.46
455.739	932.94
456.112	939.27
456.486	946.5
456.859	951.92
457.232	965.26
457.606	962.55
457.979	984.47
458.352	996.44
458.725	995.99
459.099	1005.48
459.472	996.89
459.845	1021.3
460.218	1037.12
460.591	1054.97
460.964	1055.65
461.337	1067.4
461.71	1077.34
462.083	1065.59
462.456	1087.06
462.829	1066.72
463.201	1112.15
463.574	1104.24
463.947	1104.46
464.32	1129.77
464.692	1137.23
465.065	1156.89
465.438	1174.74
465.81	1165.25
466.183	1204.8
466.555	1212.93
466.928	1203.89
467.3	1229.88
467.672	1226.04
468.045	1298.81
468.417	1246.83
468.789	1279.15
469.161	1321.41
469.534	1306.94
469.906	1306.27
470.278	1329.09
470.65	1361.86
471.022	1384
471.394	1374.29
471.766	1383.78
472.138	1405.7
472.51	1402.76
472.882	1449.31
473.253	1432.14
473.625	1476.2
473.997	1463.78
474.369	1502.19
474.74	1528.63
475.112	1567.5
475.484	1562.98
475.855	1612.92
476.227	1600.72
476.598	1652.02
476.97	1669.19
477.341	1677.1
477.713	1688.4
478.084	1688.4
478.455	1750.32
478.827	1810.66
479.198	1779.25
479.569	1798.23
479.94	1805.69
480.311	1860.15
480.682	1907.15
481.053	1959.58
481.424	1967.49
481.795	1958.9
482.166	1982.63
482.537	2026.02
482.908	2037.77
483.279	2055.62
483.65	2094.94
484.021	2143.31
484.391	2146.02
484.762	2172.01
485.133	2203.42
485.503	2237.99
485.874	2236.86
486.244	2259.91
486.615	2298.1
486.985	2333.13
487.356	2355.05
487.726	2387.14
488.097	2430.08
488.467	2408.83
488.837	2486.57
489.207	2540.13
489.578	2528.83
489.948	2550.07
490.318	2566.12
490.688	2591.66
491.058	2634.14
491.428	2632.78
491.798	2676.17
492.168	2732.22
492.538	2765.44
492.908	2771.54
493.278	2791.2
493.648	2804.53
494.017	2866
494.387	2837.75
494.757	2851.31
495.126	2919.56
495.496	2920.23
495.866	2939.44
496.235	2976.28
496.605	3028.48
496.974	3050.63
497.344	3051.3
497.713	3072.55
498.082	3054.02
498.452	3156.16
498.821	3131.98
499.19	3103.96
499.559	3132.66
499.928	3172.2
500.298	3187.57
500.667	3190.06
501.036	3247.68
501.405	3264.18
501.774	3247.01
502.143	3273.45
502.512	3299.66
502.88	3342.82
503.249	3309.83
503.618	3334.23
503.987	3368.36
504.356	3409.71
504.724	3397.51
505.093	3430.28
505.462	3398.19
505.83	3457.62
506.199	3497.39
506.567	3529.26
506.936	3562.48
507.304	3610.39
507.672	3616.94
508.041	3596.6
508.409	3633.21
508.777	3638.18
509.145	3630.95
509.514	3661.01
509.882	3710.95
510.25	3692.87
510.618	3758.63
510.986	3759.31
511.354	3776.26
511.722	3814.22
512.09	3840.89
512.458	3864.16
512.826	3898.97
513.193	3916.14
513.561	3924.95
513.929	3935.12
514.297	3978.74
514.664	3997.49
515.032	3998.85
515.4	4079.75
515.767	4062.58
516.135	4097.15
516.502	4052.86
516.869	4133.99
517.237	4137.15
517.604	4110.26
517.972	4178.28
518.339	4230.71
518.706	4232.06
519.073	4254.21
519.44	4302.34
519.808	4316.13
520.175	4300.08
520.542	4345.28
520.909	4420.76
521.276	4420.76
521.643	4450.59
522.009	4454.43
522.376	4493.98
522.743	4535.56
523.11	4553.41
523.477	4583.92
523.843	4665.05
524.21	4664.82
524.577	4732.16
524.943	4735.55
525.31	4730.81
525.676	4767.64
526.043	4863.46
526.409	4854.87
526.776	4885.38
527.142	4886.96
527.508	4935.55
527.874	4971.03
528.241	4967.64
528.607	5000.86
528.973	5039.05
529.339	5044.7
529.705	5114.75
530.071	5136.22
530.437	5161.76
530.803	5170.8
531.169	5208.31
531.535	5261.19
531.901	5283.11
532.267	5264.13
532.632	5370.11
532.998	5283.34
533.364	5359.72
533.73	5337.8
534.095	5411.69
534.461	5423.67
534.826	5445.82
535.192	5510.22
535.557	5495.08
535.923	5510.9
536.288	5530.79
536.653	5565.59
537.019	5513.61
537.384	5576.44
537.749	5617.79
538.114	5691.01
538.479	5664.34
538.845	5766.03
539.21	5734.62
539.575	5751.57
539.94	5759.93
540.305	5765.36
540.67	5778.69
541.034	5840.84
541.399	5900.49
541.764	5878.8
542.129	5838.35
542.494	5913.15
542.858	6000.6
543.223	5965.8
543.587	6028.17
543.952	6008.74
544.316	6036.08
544.681	6009.19
545.045	6047.16
545.41	6081.05
545.774	6106.14
546.138	6166.25
546.503	6160.37
546.867	6198.11
547.231	6197.89
547.595	6242.86
547.959	6271.56
548.324	6303.42
548.688	6324.21
549.052	6336.87
549.416	6322.4
549.779	6388.17
550.143	6391.33
550.507	6433.14
550.871	6433.81
551.235	6423.19
551.599	6468.62
551.962	6553.36
552.326	6496.64
552.689	6539.8
553.053	6582.28
553.417	6609.18
553.78	6709.51
554.143	6601.04
554.507	6657.99
554.87	6762.84
555.234	6772.11
555.597	6695.5
555.96	6774.6
556.323	6813.01
556.686	6736.4
557.05	6921.94
557.413	6854.82
557.776	6884.42
558.139	6935.5
558.502	6994.48
558.865	7017.53
559.228	7068.83
559.59	7080.12
559.953	7005.1
560.316	7115.83
560.679	7134.36
561.041	7148.6
561.404	7199.67
561.767	7217.07
562.129	7182.72
562.492	7277.86
562.854	7316.73
563.217	7270.4
563.579	7278.76
563.941	7343.39
564.304	7413.68
564.666	7490.96
565.028	7502.94
565.39	7545.65
565.753	7515.82
566.115	7558.08
566.477	7617.29
566.839	7650.05
567.201	7649.83
567.563	7693.89
567.925	7712.88
568.287	7716.27
568.648	7752.42
569.01	7795.13
569.372	7834
569.734	7820.67
570.095	7902.7
570.457	7900.22
570.819	7951.51
571.18	7925.98
571.542	7996.03
571.903	8034.9
572.265	8068.35
572.626	8091.17
572.987	8089.59
573.349	8109.48
573.71	8140.21
574.071	8159.19
574.432	8217.72
574.794	8211.62
575.155	8230.15
575.516	8251.17
575.877	8235.57
576.238	8253.65
576.599	8335.68
576.96	8314.67
577.32	8320.32
577.681	8358.06
578.042	8401.9
578.403	8392.63
578.763	8362.35
579.124	8460.43
579.485	8444.38
579.845	8470.82
580.206	8433.99
580.566	8428.79
580.927	8460.65
581.287	8489.13
581.648	8485.29
582.008	8559.63
582.368	8560.76
582.728	8520.76
583.089	8479.64
583.449	8505.85
583.809	8563.7
584.169	8586.3
584.529	8575.45
584.889	8611.16
585.249	8601.44
585.609	8525.96
585.969	8600.76
586.329	8562.8
586.688	8591.5
587.048	8529.58
587.408	8556.24
587.768	8599.41
588.127	8598.28
588.487	8608.67
588.846	8590.59
589.206	8577.71
589.565	8605.73
589.925	8636.02
590.284	8632.63
590.643	8631.27
591.003	8645.96
591.362	8664.26
591.721	8711.49
592.08	8636.47
592.44	8646.86
592.799	8686.18
593.158	8594.66
593.517	8611.84
593.876	8683.47
594.235	8620.88
594.593	8610.25
594.952	8750.14
595.311	8679.18
595.67	8676.01
596.029	8767.09
596.387	8734.54
596.746	8749.23
597.104	8678.27
597.463	8670.59
597.822	8763.7
598.18	8640.76
598.538	8703.13
598.897	8775.67
599.255	8713.3
599.613	8788.1
599.972	8744.04
600.33	8757.37
600.688	8714.66
601.046	8759.18
601.404	8814.32
601.762	8791.49
602.12	8841.66
602.478	8762.79
602.836	8791.27
603.194	8751.27
603.552	8762.79
603.91	8784.94
604.268	8772.28
604.625	8761.66
604.983	8817.03
605.341	8861.32
605.698	8798.27
606.056	8827.65
606.413	8790.59
606.771	8862.68
607.128	8869
607.485	8834.43
607.843	8815.45
608.2	8898.83
608.557	8896.57
608.914	8836.91
609.272	8888.66
609.629	8906.74
609.986	8993.75
610.343	8852.96
610.7	9000.98
611.057	8931.6
611.414	8945.16
611.771	8972.73
612.127	8978.38
612.484	9012.73
612.841	8971.37
613.198	8965.5
613.554	8992.16
613.911	9022.22
614.267	9014.54
614.624	9016.8
614.98	8988.77
615.337	9061.77
615.693	9110.81
616.05	9050.47
616.406	9081.88
616.762	9074.2
617.118	9104.03
617.475	9098.6
617.831	9088.43
618.187	9108.32
618.543	9048.43
618.899	9187.19
619.255	9200.97
619.611	9093.18
619.967	9160.52
620.323	9184.02
620.678	9173.85
621.034	9216.11
621.39	9175.89
621.746	9072.84
622.101	9262.67
622.457	9110.81
622.812	9238.03
623.168	9145.16
623.523	9191.48
623.879	9207.53
624.234	9210.69
624.589	9169.34
624.945	9214.31
625.3	9192.84
625.655	9190.35
626.01	9186.74
626.365	9199.62
626.72	9180.86
627.075	9151.71
627.43	9213.18
627.785	9233.51
628.14	9221.09
628.495	9217.47
628.85	9185.61
629.205	9156.68
629.559	9208.43
629.914	9153.97
630.269	9209.56
630.623	9189.45
630.978	9149.45
631.332	9211.14
631.687	9212.05
632.041	9120.97
632.396	9175.21
632.75	9164.82
633.104	9138.38
633.459	9106.29
633.813	9075.78
634.167	9084.82
634.521	9115.1
634.875	9080.07
635.229	9052.28
635.583	9120.75
635.937	9110.35
636.291	9083.24
636.645	9036.91
636.999	9076.46
637.352	9015.67
637.706	9033.75
638.06	9059.51
638.413	9018.83
638.767	9053.63
639.121	9045.72
639.474	8933.86
639.828	9033.29
640.181	9016.34
640.534	8991.03
640.888	8958.95
641.241	8926.86
641.594	8984.48
641.947	9003.24
642.301	8989.23
642.654	8978.83
643.007	8972.28
643.36	8944.03
643.713	8957.36
644.066	8956.69
644.419	8940.41
644.771	8892.28
645.124	8799.85
645.477	8772.96
645.83	8732.96
646.182	8738.16
646.535	8719.18
646.888	8679.18
647.24	8681.66
647.593	8800.98
647.945	8664.04
648.298	8686.41
648.65	8678.73
649.002	8607.09
649.355	8727.99
649.707	8670.37
650.059	8694.32
650.411	8760.53
650.763	8807.54
651.115	8874.65
651.467	8897.03
651.819	8873.07
652.171	8852.96
652.523	8847.54
652.875	8822.23
653.227	8847.76
653.578	8850.02
653.93	8897.93
654.282	8816.8
654.633	8829.01
654.985	8800.98
655.337	8829.46
655.688	8806.18
656.039	8883.47
656.391	8756.92
656.742	8854.32
657.094	8886.86
657.445	8892.51
657.796	8858.83
658.147	8793.3
658.498	8789.91
658.849	8824.03
659.2	8827.2
659.551	8766.63
659.902	8862
660.253	8840.08
660.604	8868.1
660.955	8768.67
661.306	8866.29
661.656	8823.36
662.007	8846.41
662.358	8846.86
662.708	8802.57
663.059	8844.82
663.409	8822.9
663.76	8812.51
664.11	8862.68
664.461	8850.47
664.811	8820.64
665.161	8842.11
665.511	8794.2
665.862	8804.6
666.212	8805.95
666.562	8837.14
666.912	8833.98
667.262	8803.02
667.612	8841.66
667.962	8864.48
668.312	8864.03
668.662	8840.98
669.011	8843.92
669.361	8733.19
669.711	8779.74
670.06	8820.87
670.41	8747.65
670.76	8820.64
671.109	8793.75
671.459	8790.59
671.808	8753.3
672.157	8818.61
672.507	8744.04
672.856	8666.52
673.205	8699.52
673.554	8779.97
673.904	8774.32
674.253	8749.46
674.602	8750.82
674.951	8605.96
675.3	8579.97
675.649	8707.2
675.998	8729.57
676.346	8754.66
676.695	8756.92
677.044	8657.94
677.393	8706.3
677.741	8690.7
678.09	8679.86
678.438	8640.76
678.787	8697.94
679.135	8659.97
679.484	8629.24
679.832	8639.63
680.181	8602.12
680.529	8580.42
680.877	8583.81
681.225	8526.87
681.573	8611.84
681.922	8581.55
682.27	8455.91
682.618	8529.13
682.966	8507.21
683.314	8561.67
683.661	8498.84
684.009	8485.29
684.357	8462.91
684.705	8407.55
685.053	8465.17
685.4	8431.05
685.748	8464.04
686.095	8386.53
686.443	8357.15
686.79	8315.57
687.138	8379.98
687.485	8391.95
687.832	8222.47
688.18	8295.69
688.527	8204.16
688.874	8267.89
689.221	8189.25
689.568	8193.99
689.915	8186.76
690.262	8224.73
690.609	8129.14
690.956	8145.18
691.303	8092.75
691.65	8074
691.997	8097.5
692.344	8070.61
692.69	8082.13
693.037	7983.15
693.383	7992.42
693.73	7994.22
694.077	7937.5
694.423	7937.5
694.769	7907.67
695.116	7860.9
695.462	7866.32
695.808	7800.11
696.155	7865.19
696.501	7781.12
696.847	7784.74
697.193	7755.81
697.539	7728.24
697.885	7672.65
698.231	7647.79
698.577	7583.39
698.923	7670.17
699.269	7542.71
699.614	7514.46
699.96	7498.42
700.306	7549.04
700.651	7540.45
700.997	7411.64
701.342	7388.82
701.688	7439.21
702.033	7419.55
702.379	7379.33
702.724	7306.11
703.069	7388.37
703.415	7269.27
703.76	7315.15
704.105	7275.37
704.45	7256.62
704.795	7173.46
705.14	7230.4
705.485	7179.33
705.83	7183.4
706.175	7199.44
706.52	7113.12
706.865	7130.29
707.209	7096.4
707.554	7115.15
707.899	7127.35
708.243	7023.63
708.588	7097.53
708.932	6940.02
709.277	6999.9
709.621	7043.97
709.966	6917.64
710.31	6970.3
710.654	6853.46
710.998	6909.28
711.342	6941.15
711.687	6877.42
712.031	6891.88
712.375	6817.53
712.719	6869.06
713.063	6889.17
713.407	6841.71
713.75	6872.67
714.094	6835.61
714.438	6766.46
714.782	6794.26
715.125	6755.61
715.469	6797.19
715.812	6734.14
716.156	6711.09
716.499	6780.02
716.843	6741.15
717.186	6680.14
717.53	6760.58
717.873	6727.14
718.216	6700.93
718.559	6669.29
718.902	6627.71
719.246	6669.51
719.589	6653.92
719.932	6559.01
720.275	6596.97
720.617	6682.62
720.96	6667.03
721.303	6609.4
721.646	6645.79
721.989	6569.4
722.331	6641.72
722.674	6664.54
723.016	6577.31
723.359	6590.87
723.701	6667.93
724.044	6629.29
724.386	6604.66
724.729	6622.28
725.071	6592.23
725.413	6594.04
725.755	6569.18
726.097	6550.2
726.439	6537.09
726.782	6578.44
727.124	6561.49
727.465	6575.05
727.807	6535.96
728.149	6574.38
728.491	6533.02
728.833	6532.79
729.175	6520.59
729.516	6578.22
729.858	6526.92
730.199	6538.67
730.541	6510.2
730.882	6479.46
731.224	6493.93
731.565	6459.8
731.906	6514.26
732.248	6514.94
732.589	6499.57
732.93	6449.18
733.271	6450.08
733.612	6531.66
733.953	6537.09
734.294	6480.37
734.635	6501.38
734.976	6481.5
735.317	6460.25
735.658	6467.71
735.999	6420.03
736.339	6483.76
736.68	6500.48
737.021	6476.52
737.361	6476.98
737.702	6508.61
738.042	6524.66
738.383	6475.62
738.723	6451.21
739.063	6480.37
739.404	6484.21
739.744	6492.12
740.084	6402.85
740.424	6481.95
740.764	6468.16
741.104	6502.29
741.444	6435.62
741.784	6454.38
742.124	6450.31
742.464	6463.87
742.804	6456.41
743.143	6485.34
743.483	6453.47
743.823	6401.95
744.162	6392.23
744.502	6457.54
744.841	6435.85
745.181	6460.25
745.52	6394.49
745.86	6428.62
746.199	6381.61
746.538	6462.06
746.877	6517.65
747.216	6446.92
747.556	6439.69
747.895	6441.72
748.234	6405.57
748.573	6380.71
748.911	6383.65
749.25	6416.64
749.589	6419.13
749.928	6441.05
750.267	6429.75
750.605	6402.63
750.944	6376.64
751.283	6350.2
751.621	6421.84
751.96	6320.6
752.298	6340.93
752.636	6391.33
752.975	6385.45
753.313	6301.16
753.651	6336.87
753.989	6344.32
754.327	6326.02
754.666	6323.99
755.004	6335.74
755.342	6307.49
755.679	6370.54
756.017	6273.82
756.355	6259.36
756.693	6298.22
757.031	6276.3
757.368	6252.35
757.706	6228.85
758.044	6224.55
758.381	6236.76
758.719	6215.74
759.056	6209.19
759.394	6192.24
759.731	6164.44
760.068	6138.23
760.405	6118.79
760.743	6152.92
761.08	6116.99
761.417	6078.79
761.754	6054.84
762.091	6102.98
762.428	6033.15
762.765	6042.64
763.102	6053.03
763.438	6048.97
763.775	5992.24
764.112	6010.55
764.449	5974.62
764.785	5975.52
765.122	5918.12
765.458	5927.16
765.795	5919.93
766.131	5942.75
766.467	5908.86
766.804	5881.06
767.14	5822.3
767.476	5813.04
767.812	5823.66
768.148	5807.39
768.485	5763.32
768.821	5713.38
769.157	5795.86
769.492	5705.02
769.828	5728.52
770.164	5688.3
770.5	5666.38
770.836	5714.06
771.171	5637
771.507	5653.95
771.842	5606.27
772.178	5614.63
772.513	5567.4
772.849	5547.74
773.184	5517
773.519	5540.73
773.855	5505.48
774.19	5494.4
774.525	5501.41
774.86	5459.6
775.195	5527.4
775.53	5458.7
775.865	5425.25
776.2	5350.68
776.535	5350.45
776.87	5357.01
777.205	5281.75
777.539	5259.83
777.874	5270.91
778.209	5305.93
778.543	5284.92
778.878	5220.74
779.212	5265.93
779.547	5200.85
779.881	5234.75
780.215	5149.33
780.55	5180.74
780.884	5094.41
781.218	5105.49
781.552	5112.94
781.886	5109.78
782.22	5072.49
782.554	5060.52
782.888	5003.34
783.222	5037.92
783.556	5006.28
783.889	4982.55
784.223	4926.28
784.557	4965.83
784.89	4931.93
785.224	4954.53
785.557	4924.7
785.891	4912.5
786.224	4895.1
786.558	4902.1
786.891	4847.64
787.224	4846.29
787.557	4827.3
787.891	4811.71
788.224	4808.09
788.557	4792.95
788.89	4797.02
789.223	4785.27
789.556	4726.06
789.888	4740.53
790.221	4737.14
790.554	4676.12
790.887	4690.36
791.219	4686.74
791.552	4667.76
791.884	4654.43
792.217	4601.32
792.549	4591.15
792.882	4580.98
793.214	4549.34
793.546	4588.89
793.879	4516.8
794.211	4475.9
794.543	4562.45
794.875	4521.1
795.207	4530.59
795.539	4465.05
795.871	4525.39
796.203	4471.83
796.535	4431.61
796.867	4453.53
797.198	4424.15
797.53	4433.87
797.862	4368.78
798.193	4422.79
798.525	4362.46
798.856	4374.66
799.188	4326.75
799.519	4301.67
799.85	4303.25
800.182	4263.02
800.513	4279.07
800.844	4237.94
801.175	4303.47
801.506	4275.23
801.837	4251.27
802.168	4216.47
802.499	4257.37
802.83	4204.72
803.161	4197.04
803.491	4218.05
803.822	4195
804.153	4156.13
804.483	4120.2
804.814	4105.06
805.145	4141.9
805.475	4121.78
805.805	4153.87
806.136	4085.63
806.466	4088.56
806.796	4082.24
807.126	4062.58
807.457	4058.51
807.787	4063.48
808.117	4009.92
808.447	3998.17
808.777	4024.39
809.107	3986.42
809.436	4005.4
809.766	4007.66
810.096	3973.99
810.426	3982.13
810.755	3936.93
811.085	3915.46
811.414	3952.52
811.744	3918.63
812.073	3878.63
812.403	3919.53
812.732	3895.58
813.061	3892.19
813.39	3883.82
813.719	3858.51
814.049	3852.19
814.378	3838.4
814.707	3846.76
815.036	3850.38
815.365	3813.77
815.693	3804.28
816.022	3795.69
816.351	3765.18
816.68	3755.24
817.008	3799.53
817.337	3733.32
817.665	3738.29
817.994	3767.67
818.322	3743.72
818.651	3735.13
818.979	3730.61
819.307	3778.06
819.636	3751.17
819.964	3702.36
820.292	3690.61
820.62	3714.56
820.948	3699.65
821.276	3719.31
821.604	3706.2
821.932	3701.91
822.259	3710.04
822.587	3704.39
822.915	3649.93
823.243	3678.41
823.57	3685.86
823.898	3688.12
824.225	3692.19
824.553	3637.05
824.88	3649.71
825.207	3675.02
825.535	3627.79
825.862	3671.17
826.189	3672.53
826.516	3717.73
826.843	3723.83
827.17	3661.46
827.497	3738.74
827.824	3686.09
828.151	3690.61
828.478	3685.86
828.805	3709.82
829.131	3712.3
829.458	3656.94
829.785	3663.04
830.111	3626.88
830.438	3661.23
830.764	3675.24
831.09	3665.98
831.417	3655.58
831.743	3675.24
832.069	3659.42
832.395	3667.56
832.722	3657.39
833.048	3627.11
833.374	3670.04
833.7	3655.36
834.026	3666.88
834.351	3658.29
834.677	3607.67
835.003	3669.59
835.329	3641.57
835.654	3611.97
835.98	3647.45
836.306	3592.98
836.631	3609.71
836.956	3587.34
837.282	3576.71
837.607	3590.05
837.932	3578.52
838.258	3592.76
838.583	3576.49
838.908	3600.22
839.233	3609.93
839.558	3574.23
839.883	3552.08
840.208	3524.51
840.533	3532.65
840.858	3517.28
841.182	3515.25
841.507	3547.34
841.832	3522.25
842.156	3523.38
842.481	3499.88
842.805	3515.02
843.13	3509.37
843.454	3514.57
843.778	3545.08
844.103	3529.26
844.427	3461.01
844.751	3504.63
845.075	3441.35
845.399	3425.53
845.723	3423.5
846.047	3388.7
846.371	3409.94
846.695	3407.23
847.019	3368.13
847.343	3360.22
847.666	3358.41
847.99	3375.59
848.313	3336.04
848.637	3332.43
848.96	3313.67
849.284	3352.54
849.607	3305.08
849.931	3272.09
850.254	3220.57
850.577	3247.91
850.9	3214.46
851.223	3225.99
851.546	3198.19
851.869	3219.44
852.192	3209.49
852.515	3170.17
852.838	3157.97
853.161	3153.45
853.483	3149.83
853.806	3163.62
854.129	3122.26
854.451	3112.55
854.774	3152.77
855.096	3100.57
855.419	3101.02
855.741	3090.17
856.063	3083.17
856.385	3069.83
856.708	3031.87
857.03	3103.05
857.352	3086.33
857.674	3073.45
857.996	3014.69
858.318	3010.85
858.64	3026.67
858.961	2985.54
859.283	3002.94
859.605	2997.75
859.926	3019.44
860.248	3019.44
860.57	2967.46
860.891	3010.18
861.212	2963.85
861.534	2937.86
861.855	2943.96
862.176	2957.07
862.498	2944.19
862.819	2917.52
863.14	2954.58
863.461	2940.8
863.782	2901.03
864.103	2903.74
864.424	2941.48
864.745	2865.32
865.065	2874.13
865.386	2882.49
865.707	2898.09
866.027	2884.53
866.348	2862.38
866.668	2873.91
866.989	2873.46
867.309	2861.93
867.63	2828.71
867.95	2850.63
868.27	2860.35
868.59	2849.73
868.91	2844.3
869.23	2828.26
869.55	2816.96
869.87	2835.72
870.19	2835.26
870.51	2826.68
870.83	2833.46
871.15	2815.38
871.469	2809.05
871.789	2852.21
872.109	2816.28
872.428	2747.13
872.748	2809.5
873.067	2807.47
873.386	2785.55
873.706	2805.89
874.025	2786.45
874.344	2747.36
874.663	2776.28
874.982	2779.67
875.301	2777.41
875.62	2786
875.939	2744.19
876.258	2749.62
876.577	2765.66
876.896	2758.2
877.214	2719.11
877.533	2729.96
877.852	2734.25
878.17	2771.76
878.489	2753.68
878.807	2691.99
879.125	2717.98
879.444	2686.79
879.762	2709.62
880.08	2685.21
880.398	2680.01
880.716	2675.49
881.034	2683.86
881.352	2669.39
881.67	2684.31
881.988	2651.99
882.306	2671.2
882.624	2697.41
882.941	2648.6
883.259	2651.77
883.577	2696.74
883.894	2637.53
884.212	2649.05
884.529	2649.73
884.846	2624.42
885.164	2640.47
885.481	2604.31
885.798	2631.88
886.115	2633.01
886.432	2634.82
886.75	2602.28
887.067	2587.14
887.383	2581.94
887.7	2588.49
888.017	2540.36
888.334	2582.62
888.651	2548.27
888.967	2566.34
889.284	2524.99
889.6	2541.71
889.917	2538.32
890.233	2557.08
890.55	2550.53
890.866	2527.93
891.182	2479.79
891.498	2511.43
891.815	2505.56
892.131	2487.48
892.447	2465.56
892.763	2512.11
893.079	2504.43
893.395	2479.12
893.71	2456.52
894.026	2474.6
894.342	2467.59
894.657	2448.83
894.973	2435.73
895.289	2447.48
895.604	2451.32
895.92	2397.31
896.235	2431.21
896.55	2401.83
896.865	2391.21
897.181	2347.82
897.496	2385.56
897.811	2355.96
898.126	2373.13
898.441	2365.22
898.756	2346.69
899.071	2348.72
899.386	2312.34
899.7	2324.54
900.015	2343.98
900.33	2303.08
900.644	2303.98
900.959	2332.9
901.273	2297.43
901.588	2296.75
901.902	2277.76
902.216	2306.92
902.531	2274.38
902.845	2275.51
903.159	2243.87
903.473	2248.61
903.787	2252.68
904.101	2254.94
904.415	2234.38
904.729	2220.37
905.042	2241.16
905.356	2207.26
905.67	2191.21
905.984	2191.44
906.297	2172.01
906.611	2205.9
906.924	2177.65
907.237	2163.64
907.551	2169.97
907.864	2151.89
908.177	2153.7
908.491	2157.54
908.804	2114.61
909.117	2098.79
909.43	2115.74
909.743	2102.4
910.056	2088.17
910.368	2049.07
910.681	2089.52
910.994	2077.77
911.307	2064.66
911.619	2045.23
911.932	2075.06
912.244	2039.58
912.557	2038
912.869	2016.53
913.181	1994.38
913.494	2046.13
913.806	2019.01
914.118	1990.99
914.43	1986.02
914.742	1983.08
915.054	1972.69
915.366	2018.11
915.678	1982.41
915.99	1975.17
916.302	1924.55
916.613	1963.65
916.925	1944.44
917.236	1931.79
917.548	1908.28
917.859	1940.6
918.171	1898.34
918.482	1911.22
918.794	1879.58
919.105	1890.66
919.416	1885.46
919.727	1872.13
920.038	1887.27
920.349	1860.6
920.66	1836.87
920.971	1853.14
921.282	1850.66
921.593	1837.78
921.903	1822.41
922.214	1822.64
922.525	1806.59
922.835	1793.03
923.146	1793.71
923.456	1803.43
923.767	1798.68
924.077	1770.66
924.387	1795.29
924.697	1785.8
925.008	1773.37
925.318	1763.65
925.628	1750.77
925.938	1749.42
926.248	1715.07
926.558	1742.86
926.867	1723.88
927.177	1726.82
927.487	1696.99
927.796	1684.11
928.106	1701.06
928.416	1734.5
928.725	1708.74
929.034	1694.28
929.344	1718.68
929.653	1676.2
929.962	1679.36
930.271	1685.69
930.581	1666.93
930.89	1668.52
931.199	1640.49
931.508	1638.01
931.817	1660.83
932.125	1615.64
932.434	1633.49
932.743	1622.87
933.051	1635.75
933.36	1609.99
933.669	1590.1
933.977	1569.99
934.286	1591.46
934.594	1588.97
934.902	1564.11
935.21	1545.58
935.519	1567.05
935.827	1587.61
936.135	1551
936.443	1541.97
936.751	1552.81
937.059	1536.99
937.367	1540.84
937.674	1500.84
937.982	1539.25
938.29	1476.88
938.597	1508.52
938.905	1523.89
939.213	1513.49
939.52	1495.41
939.827	1519.59
940.135	1524.79
940.442	1506.03
940.749	1475.3
941.056	1479.14
941.363	1483.89
941.67	1441.63
941.977	1438.24
942.284	1455.41
942.591	1437.11
942.898	1460.61
943.205	1438.24
943.511	1438.92
943.818	1408.64
944.125	1412.93
944.431	1433.04
944.738	1425.81
945.044	1418.35
945.35	1400.05
945.657	1391.46
945.963	1374.29
946.269	1421.29
946.575	1422.42
946.881	1371.57
947.187	1391.23
947.493	1364.34
947.799	1361.63
948.105	1354.85
948.41	1363.66
948.716	1367.73
949.022	1368.86
949.327	1309.65
949.633	1322.99
949.938	1345.81
950.244	1345.81
950.549	1328.64
950.854	1305.14
951.16	1311.91
951.465	1317.34
951.77	1321.86
952.075	1319.15
952.38	1310.11
952.685	1279.6
952.99	1284.34
953.294	1291.35
953.599	1285.25
953.904	1273.72
954.209	1265.59
954.513	1290.22
954.818	1260.16
955.122	1256.55
955.426	1256.1
955.731	1264.91
956.035	1240.73
956.339	1242.31
956.643	1229.2
956.948	1220.62
957.252	1220.84
957.556	1229.66
957.86	1214.29
958.163	1220.17
958.467	1192.14
958.771	1198.47
959.075	1202.99
959.378	1205.48
959.682	1188.98
959.985	1198.7
960.289	1164.8
960.592	1194.63
960.896	1147.85
961.199	1173.16
961.502	1176.78
961.805	1165.48
962.108	1142.65
962.411	1168.42
962.714	1138.81
963.017	1164.8
963.32	1159.15
963.623	1144.46
963.926	1160.28
964.228	1112.6
964.531	1115.31
964.833	1131.35
965.136	1116.21
965.438	1128.42
965.741	1104.46
966.043	1102.43
966.345	1101.75
966.648	1106.95
966.95	1111.69
967.252	1080.73
967.554	1086.61
967.856	1079.38
968.158	1101.07
968.46	1076.89
968.761	1071.24
969.063	1062.2
969.365	1058.81
969.666	1064.69
969.968	1064.46
970.269	1048.19
970.571	1059.72
970.872	1071.92
971.174	1060.4
971.475	1041.64
971.776	1064.69
972.077	1045.71
972.378	1045.93
972.679	1035.99
972.98	1039.38
973.281	1037.8
973.582	1055.88
973.883	1035.09
974.183	1021.75
974.484	1010.23
974.785	1031.24
975.085	1009.32
975.386	1014.07
975.686	996.44
975.986	998.25
976.287	1003.45
976.587	991.92
976.887	984.47
977.187	942.66
977.487	1010.68
977.787	984.24
978.087	963.9
978.387	941.75
978.687	989.89
978.987	988.53
979.286	952.83
979.586	963
979.885	953.05
980.185	961.64
980.484	952.83
980.784	947.4
981.083	946.27
981.382	957.35
981.682	952.83
981.981	949.66
982.28	905.6
982.579	933.39
982.878	938.82
983.177	930
983.475	922.55
983.774	931.13
984.073	906.73
984.372	922.55
984.67	918.25
984.969	895.43
985.267	914.86
985.566	906.73
985.864	905.37
986.162	907.63
986.461	877.8
986.759	903.11
987.057	885.49
987.355	879.61
987.653	872.15
987.951	877.12
988.249	868.99
988.547	873.28
988.844	872.83
989.142	877.58
989.44	839.61
989.737	863.11
990.035	875.32
990.332	842.77
990.63	854.75
990.927	861.76
991.224	855.2
991.521	834.19
991.819	846.84
992.116	851.14
992.413	834.64
992.71	857.69
993.006	813.4
993.303	827.86
993.6	815.2
993.897	827.41
994.193	817.24
994.49	814.53
994.787	816.79
995.083	788.31
995.379	812.72
995.676	826.5
995.972	814.07
996.268	809.55
996.565	812.49
996.861	785.83
997.157	769.78
997.453	776.79
997.749	794.19
998.044	796
998.34	787.18
998.636	783.57
998.932	791.7
999.227	770.46
999.523	763
999.818	758.26
1000.114	797.13
1000.409	745.15
1000.704	741.76
1001	756.22
1001.295	744.47
1001.59	737.01
1001.885	750.57
1002.18	755.32
1002.475	740.63
1002.77	718.48
1003.065	721.2
1003.359	739.95
1003.654	741.53
1003.949	725.72
1004.243	718.71
1004.538	721.2
1004.832	731.14
1005.127	728.2
1005.421	734.08
1005.715	720.74
1006.009	697.02
1006.304	704.92
1006.598	723.46
1006.892	719.16
1007.186	699.73
1007.48	701.08
1007.773	691.14
1008.067	690.69
1008.361	701.99
1008.655	700.86
1008.948	676.45
1009.242	671.03
1009.535	705.15
1009.829	671.25
1010.122	690.46
1010.415	664.7
1010.708	657.47
1011.001	666.51
1011.295	694.08
1011.588	663.34
1011.881	652.27
1012.173	652.05
1012.466	664.25
1012.759	656.79
1013.052	648.43
1013.344	642.55
1013.637	645.49
1013.93	637.36
1014.222	652.05
1014.514	649.33
1014.807	647.98
1015.099	628.77
1015.391	647.75
1015.683	649.56
1015.976	648.66
1016.268	631.93
1016.56	631.25
1016.851	614.76
1017.143	637.36
1017.435	618.6
1017.727	619.96
1018.018	598.26
1018.31	609.33
1018.602	581.09
1018.893	585.61
1019.185	604.14
1019.476	605.49
1019.767	610.01
1020.058	588.77
1020.35	595.78
1020.641	590.13
1020.932	593.06
1021.223	586.74
1021.514	583.12
1021.804	595.78
1022.095	571.37
1022.386	615.44
1022.677	553.97
1022.967	559.17
1023.258	583.35
1023.548	560.3
1023.839	559.84
1024.129	562.78
1024.419	559.17
1024.709	554.65
1025	555.32
1025.29	569.34
1025.58	564.59
1025.87	558.49
1026.16	528.66
1026.449	561.65
1026.739	556
1027.029	533.18
1027.319	546.51
1027.608	540.41
1027.898	548.77
1028.187	547.19
1028.477	522.33
1028.766	515.78
1029.055	531.6
1029.344	545.83
1029.634	536.79
1029.923	523.23
1030.212	516.23
1030.501	541.09
1030.79	521.2
1031.078	499.05
1031.367	541.09
1031.656	533.86
1031.945	494.31
1032.233	533.18
1032.522	494.31
1032.81	496.79
1033.099	518.94
1033.387	507.42
1033.675	494.08
1033.963	494.54
1034.251	488.21
1034.54	499.05
1034.828	479.85
1035.116	508.77
1035.403	496.34
1035.691	497.47
1035.979	487.76
1036.267	517.59
1036.554	490.02
1036.842	497.25
1037.129	499.51
1037.417	498.83
1037.704	467.19
1037.992	473.52
1038.279	486.85
1038.566	458.83
1038.853	458.83
1039.14	458.83
