Data from mousepad_grey_FLMS001491_00042.txt Node
Date: Wed Feb 08 14:29:29 GMT 2017
User: dcchb
Spectrometer: FLMS00149
Trigger mode: 0
Integration Time (sec): 2.000000E-2
Scans to average: 10
Electric dark correction enabled: true
Nonlinearity correction enabled: false
Boxcar width: 0
XAxis mode: Wavelengths
Number of Pixels in Spectrum: 2048
>>>>>Begin Spectral Data<<<<<
341.393	-11.5
341.776	-11.5
342.16	-11.5
342.543	-59.86
342.927	-45.62
343.31	-43.59
343.693	-59.18
344.077	-71.61
344.46	-48.33
344.843	-53.98
345.226	-30.48
345.61	-40.42
345.993	-40.42
346.376	-3.59
346.759	-3.36
347.142	10.2
347.525	45.9
347.908	60.37
348.291	86.81
348.674	88.61
349.057	103.08
349.44	139.46
349.823	163.19
350.206	168.61
350.588	183.07
350.971	182.85
351.354	201.83
351.737	205.22
352.119	236.41
352.502	260.81
352.884	253.58
353.267	273.02
353.65	292.68
354.032	292
354.414	310.75
354.797	308.27
355.179	313.92
355.562	318.89
355.944	305.56
356.326	306.23
356.709	312.34
357.091	336.29
357.473	340.81
357.855	342.17
358.238	306.69
358.62	342.39
359.002	339.45
359.384	336.74
359.766	307.36
360.148	326.57
360.53	328.61
360.912	326.35
361.294	328.38
361.676	316.63
362.057	315.5
362.439	330.64
362.821	317.76
363.203	311.43
363.584	312.79
363.966	319.34
364.348	309.4
364.729	301.72
365.111	309.17
365.493	314.37
365.874	311.43
366.256	288.16
366.637	278.44
367.019	296.52
367.4	309.4
367.781	321.83
368.163	295.16
368.544	299.23
368.925	295.84
369.306	297.65
369.688	315.73
370.069	298.33
370.45	324.31
370.831	286.35
371.212	275.73
371.593	294.48
371.974	298.78
372.355	298.33
372.736	293.81
373.117	307.82
373.498	310.53
373.879	281.38
374.26	291.55
374.641	310.53
375.021	302.85
375.402	318.44
375.783	289.51
376.163	317.53
376.544	324.31
376.925	309.17
377.305	300.13
377.686	294.71
378.066	305.56
378.447	313.24
378.827	338.32
379.208	320.7
379.588	308.04
379.968	318.89
380.349	334.03
380.729	341.04
381.109	320.47
381.489	335.16
381.87	320.7
382.25	322.73
382.63	327.03
383.01	318.44
383.39	329.96
383.77	324.54
384.15	324.54
384.53	327.7
384.91	335.16
385.29	322.28
385.67	334.03
386.049	319.57
386.429	334.71
386.809	354.6
387.189	342.17
387.568	338.55
387.948	349.85
388.328	340.13
388.707	343.07
389.087	343.75
389.466	352.56
389.846	362.05
390.225	355.05
390.605	343.3
390.984	359.57
391.363	351.43
391.743	342.39
392.122	357.08
392.501	340.81
392.881	364.54
393.26	362.05
393.639	347.82
394.018	360.02
394.397	353.92
394.776	367.02
395.155	366.57
395.534	381.26
395.913	357.53
396.292	365.67
396.671	394.59
397.05	385.78
397.429	372.9
397.808	371.54
398.186	369.96
398.565	379.91
398.944	373.8
399.323	380.58
399.701	380.36
400.08	381.26
400.458	387.81
400.837	388.27
401.215	395.27
401.594	408.83
401.972	395.95
402.351	383.97
402.729	377.19
403.107	390.53
403.486	409.96
403.864	387.81
404.242	403.41
404.62	407.02
404.999	411.77
405.377	416.74
405.755	419.23
406.133	429.62
406.511	425.1
406.889	411.77
407.267	445.89
407.645	408.15
408.023	417.87
408.401	422.16
408.779	442.28
409.156	421.71
409.534	448.15
409.912	457.42
410.29	449.06
410.667	467.59
411.045	446.34
411.422	440.47
411.8	469.62
412.178	457.42
412.555	449.73
412.933	469.62
413.31	473.91
413.687	491.77
414.065	456.29
414.442	461.49
414.819	479.11
415.197	503.52
415.574	479.34
415.951	499.9
416.328	499.45
416.705	513.46
417.082	505.78
417.46	503.97
417.837	513.91
418.214	515.27
418.591	503.97
418.967	511.43
419.344	526.12
419.721	527.7
420.098	528.38
420.475	516.62
420.852	520.69
421.228	538.55
421.605	551.88
421.982	528.6
422.358	527.47
422.735	548.71
423.111	527.25
423.488	554.14
423.864	550.52
424.241	545.32
424.617	563.4
424.994	583.97
425.37	572.89
425.746	580.13
426.123	568.37
426.499	572.89
426.875	585.1
427.251	588.49
427.627	583.74
428.003	598.43
428.379	610.63
428.756	593.68
429.132	605.21
429.507	614.7
429.883	612.67
430.259	634.14
430.635	644.98
431.011	648.37
431.387	625.32
431.763	630.75
432.138	650.18
432.514	665.55
432.89	700.12
433.265	684.98
433.641	690.41
434.016	675.04
434.392	687.92
434.767	688.15
435.143	708.94
435.518	692.44
435.894	716.62
436.269	712.78
436.644	699.44
437.02	723.4
437.395	718.88
437.77	742.83
438.145	748.71
438.52	737.41
438.895	742.83
439.271	741.93
439.646	753
440.021	763.4
440.395	766.79
440.77	764.08
441.145	763.4
441.52	777.63
441.895	783.51
442.27	791.42
442.645	798.2
443.019	809.72
443.394	795.71
443.769	801.59
444.143	808.37
444.518	819.44
444.892	818.99
445.267	830.06
445.641	848.82
446.016	849.05
446.39	828.26
446.764	837.75
447.139	857.18
447.513	854.92
447.887	852.44
448.262	879.1
448.636	875.26
449.01	843.4
449.384	861.7
449.758	878.42
450.132	901.02
450.506	883.85
450.88	879.55
451.254	891.08
451.628	892.66
452.002	924.75
452.376	931.3
452.75	929.27
453.123	946.9
453.497	939.89
453.871	944.86
454.244	960.91
454.618	964.3
454.992	966.33
455.365	958.42
455.739	1001.36
456.112	992.09
456.486	1006.56
456.859	1023.05
457.232	1027.12
457.606	1040.45
457.979	1035.71
458.352	1086.1
458.725	1079.55
459.099	1073.9
459.472	1089.49
459.845	1091.98
460.218	1095.82
460.591	1095.37
460.964	1112.09
461.337	1128.36
461.71	1159.09
462.083	1158.42
462.456	1160
462.829	1179.43
463.201	1190.96
463.574	1201.35
463.947	1201.13
464.32	1248.13
464.692	1240.67
465.065	1224.63
465.438	1270.5
465.81	1263.5
466.183	1292.42
466.555	1294.01
466.928	1326.1
467.3	1300.79
467.672	1331.52
468.045	1341.46
468.417	1378.07
468.789	1373.33
469.161	1378.52
469.534	1404.51
469.906	1427.56
470.278	1421.46
470.65	1464.17
471.022	1460.55
471.394	1483.61
471.766	1518.18
472.138	1539.65
472.51	1538.07
472.882	1583.04
473.253	1572.19
473.625	1619.42
473.997	1624.84
474.369	1647.22
474.74	1642.24
475.112	1695.35
475.484	1713.88
475.855	1743.94
476.227	1719.08
476.598	1777.38
476.97	1789.81
477.341	1830.71
477.713	1848.57
478.084	1875.91
478.455	1922.46
478.827	1897.61
479.198	1955.46
479.569	1975.12
479.94	2007.21
480.311	2028.22
480.682	2058.28
481.053	2098.5
481.424	2122.68
481.795	2157.49
482.166	2145.96
482.537	2193.19
482.908	2238.61
483.279	2271.83
483.65	2270.25
484.021	2321.1
484.391	2338.95
484.762	2376.91
485.133	2399.97
485.503	2397.93
485.874	2466.86
486.244	2465.5
486.615	2550.24
486.985	2550.02
487.356	2574.2
487.726	2619.17
488.097	2667.98
488.467	2678.6
488.837	2716.57
489.207	2782.55
489.578	2799.73
489.948	2809.45
490.318	2872.5
490.688	2821.42
491.058	2857.81
491.428	2902.1
491.798	2939.16
492.168	2988.88
492.538	3013.73
492.908	3050.57
493.278	3068.42
493.648	3082.89
494.017	3101.19
494.387	3107.97
494.757	3162.66
495.126	3201.53
495.496	3199.04
495.866	3227.51
496.235	3225.03
496.605	3271.13
496.974	3275.42
497.344	3276.33
497.713	3397.23
498.082	3399.26
498.452	3427.06
498.821	3413.95
499.19	3432.03
499.559	3464.8
499.928	3490.56
500.298	3495.76
500.667	3524.23
501.036	3566.04
501.405	3611.01
501.774	3574.4
502.143	3598.8
502.512	3605.81
502.88	3627.05
503.249	3660.27
503.618	3667.28
503.987	3725.58
504.356	3756.99
504.724	3751.79
505.093	3771.91
505.462	3781.17
505.83	3785.01
506.199	3832.47
506.567	3899.59
506.936	3910.21
507.304	3914.5
507.672	3970.55
508.041	3965.12
508.409	4016.42
508.777	4005.8
509.145	4090.54
509.514	4055.74
509.882	4073.37
510.25	4089.41
510.618	4119.24
510.986	4140.48
511.354	4217.09
511.722	4255.06
512.09	4238.33
512.458	4236.08
512.826	4276.3
513.193	4299.12
513.561	4269.75
513.929	4286.92
514.297	4351.78
514.664	4430.87
515.032	4458.89
515.4	4425.22
515.767	4500.47
516.135	4513.81
516.502	4492.57
516.869	4569.17
517.237	4606.46
517.604	4548.38
517.972	4610.53
518.339	4699.57
518.706	4691.88
519.073	4657.53
519.44	4688.72
519.808	4766
520.175	4762.84
520.542	4846.68
520.909	4885.1
521.276	4834.25
521.643	4884.42
522.009	4925.1
522.376	4969.39
522.743	4988.82
523.11	5066.56
523.477	5040.35
523.843	5143.62
524.21	5136.16
524.577	5162.15
524.943	5232.66
525.31	5211.42
525.676	5222.04
526.043	5324.18
526.409	5334.8
526.776	5381.58
527.142	5394.01
527.508	5443.73
527.874	5514.23
528.241	5497.06
528.607	5542.03
528.973	5608.47
529.339	5590.16
529.705	5666.77
530.071	5701.12
530.437	5644.85
530.803	5694.12
531.169	5750.61
531.535	5799.88
531.901	5745.41
532.267	5891.62
532.632	5839.42
532.998	5838.74
533.364	5905.41
533.73	5943.37
534.095	6001.23
534.461	5970.27
534.826	6063.37
535.192	6129.13
535.557	6079.64
535.923	6128.23
536.288	6154.22
536.653	6169.81
537.019	6140.43
537.384	6194.44
537.749	6284.38
538.114	6244.61
538.479	6306.98
538.845	6309.01
539.21	6343.82
539.575	6323.25
539.94	6393.08
540.305	6434.44
540.67	6423.36
541.034	6469.01
541.399	6486.64
541.764	6503.59
542.129	6534.09
542.494	6568.44
542.858	6533.64
543.223	6585.39
543.587	6694.77
543.952	6642.57
544.316	6681.43
544.681	6686.86
545.045	6762.56
545.41	6740.87
545.774	6762.79
546.138	6733.86
546.503	6847.98
546.867	6852.28
547.231	6914.65
547.595	6899.51
547.959	6899.06
548.324	7003.23
548.688	6946.29
549.052	7000.75
549.416	7052.5
549.779	7021.76
550.143	7105.6
550.507	7103.34
550.871	7163.68
551.235	7117.58
551.599	7218.37
551.962	7252.94
552.326	7300.63
552.689	7262.21
553.053	7274.41
553.417	7312.83
553.78	7394.86
554.143	7328.65
554.507	7424.24
554.87	7480.28
555.234	7511.92
555.597	7495.2
555.96	7554.18
556.323	7511.47
556.686	7546.04
557.05	7637.57
557.413	7688.64
557.776	7640.28
558.139	7670.11
558.502	7763.44
558.865	7771.35
559.228	7814.51
559.59	7825.36
559.953	7814.96
560.316	7945.81
560.679	7855.41
561.041	7977.22
561.404	8019.93
561.767	8076.2
562.129	8003.66
562.492	8101.51
562.854	8140.61
563.217	8109.19
563.579	8209.76
563.941	8181.51
564.304	8228.74
564.666	8305.35
565.028	8298.57
565.39	8285.69
565.753	8392.58
566.115	8406.36
566.477	8516.87
566.839	8476.87
567.201	8531.33
567.563	8537.88
567.925	8506.92
568.287	8634.83
568.648	8587.37
569.01	8693.36
569.372	8688.84
569.734	8680.48
570.095	8753.24
570.457	8783.07
570.819	8843.64
571.18	8846.35
571.542	8879.79
571.903	8935.84
572.265	8948.49
572.626	8967.48
572.987	8986.23
573.349	8955.5
573.71	9051.77
574.071	9061.94
574.432	9116.62
574.794	9170.86
575.155	9112.11
575.516	9122.05
575.877	9185.32
576.238	9201.82
576.599	9250.41
576.96	9214.25
577.32	9232.33
577.681	9233.91
578.042	9309.16
578.403	9280.24
578.763	9306.22
579.124	9304.87
579.485	9333.34
579.845	9390.74
580.206	9307.58
580.566	9355.49
580.927	9374.7
581.287	9445.66
581.648	9359.33
582.008	9505.32
582.368	9489.5
582.728	9521.13
583.089	9464.41
583.449	9467.12
583.809	9444.98
584.169	9416.28
584.529	9508.25
584.889	9583.73
585.249	9548.25
585.609	9477.29
585.969	9518.65
586.329	9546.22
586.688	9567.01
587.048	9547.8
587.408	9508.03
587.768	9596.84
588.127	9582.83
588.487	9585.54
588.846	9644.97
589.206	9530.17
589.565	9541.92
589.925	9574.69
590.284	9516.39
590.643	9585.09
591.003	9583.96
591.362	9593
591.721	9576.27
592.08	9595.26
592.44	9651.07
592.799	9609.04
593.158	9537.18
593.517	9599.78
593.876	9577.86
594.235	9629.15
594.593	9550.96
594.952	9643.16
595.311	9606.56
595.67	9643.39
596.029	9674.8
596.387	9661.7
596.746	9681.58
597.104	9615.59
597.463	9612.88
597.822	9655.37
598.18	9618.31
598.538	9621.47
598.897	9724.52
599.255	9634.58
599.613	9691.07
599.972	9662.83
600.33	9729.94
600.688	9621.47
601.046	9691.52
601.404	9682.49
601.762	9696.27
602.12	9779.21
602.478	9792.54
602.836	9760.68
603.194	9676.38
603.552	9736.27
603.91	9657.85
604.268	9805.19
604.625	9749.83
604.983	9778.08
605.341	9782.6
605.698	9745.53
606.056	9716.61
606.413	9771.75
606.771	9793.9
607.128	9826.89
607.485	9826.89
607.843	9787.34
608.2	9812.43
608.557	9876.15
608.914	9828.02
609.272	9835.48
609.629	9889.94
609.986	9948.92
610.343	9863.72
610.7	9884.51
611.057	9876.38
611.414	9943.72
611.771	9895.81
612.127	9960.22
612.484	9928.58
612.841	9985.98
613.198	9895.59
613.554	9961.35
613.911	9951.63
614.267	9997.73
614.624	10059.65
614.98	10049.71
615.337	10007.67
615.693	10076.15
616.05	10019.43
616.406	10110.27
616.762	10073.66
617.118	9993.66
617.475	10025.98
617.831	10103.72
618.187	10077.05
618.543	10145.52
618.899	10138.97
619.255	10189.82
619.611	10130.61
619.967	10153.43
620.323	10198.18
620.678	10124.51
621.034	10143.26
621.39	10126.77
621.746	10154.56
622.101	10228.69
622.457	10293.99
622.812	10141.91
623.168	10172.64
623.523	10172.42
623.879	10231.85
624.234	10213.77
624.589	10209.93
624.945	10221.45
625.3	10174.68
625.655	10193.21
626.01	10193.21
626.365	10224.84
626.72	10218.74
627.075	10227.1
627.43	10257.61
627.785	10178.97
628.14	10173.77
628.495	10253.77
628.85	10171.06
629.205	10126.09
629.559	10215.8
629.914	10172.64
630.269	10165.86
630.623	10117.5
630.978	10134.68
631.332	10211.51
631.687	10185.3
632.041	10102.14
632.396	10230.49
632.75	10136.94
633.104	10158.86
633.459	10192.08
633.813	10172.87
634.167	10056.94
634.521	10087.9
634.875	10121.57
635.229	10050.84
635.583	10032.08
635.937	9994.12
636.291	10007
636.645	10094.23
636.999	10086.54
637.352	10105.75
637.706	10041.35
638.06	10047.9
638.413	9952.31
638.767	10075.02
639.121	9974.68
639.474	10020.78
639.828	10005.87
640.181	9986.43
640.534	9961.57
640.888	9927
641.241	9931.74
641.594	9980.78
641.947	9942.82
642.301	9912.08
642.654	9871.41
643.007	9968.58
643.36	9992.53
643.713	9904.63
644.066	9918.64
644.419	9872.76
644.771	9815.82
645.124	9791.86
645.477	9750.96
645.83	9728.13
646.182	9663.05
646.535	9618.31
646.888	9665.54
647.24	9640.9
647.593	9671.41
647.945	9631.19
648.298	9577.4
648.65	9563.17
649.002	9531.76
649.355	9570.85
649.707	9565.2
650.059	9644.07
650.411	9788.02
650.763	9782.6
651.115	9836.83
651.467	9818.08
651.819	9827.57
652.171	9830.5
652.523	9710.96
652.875	9801.35
653.227	9757.96
653.578	9851.29
653.93	9815.59
654.282	9735.82
654.633	9814.46
654.985	9777.17
655.337	9803.61
655.688	9825.08
656.039	9870.05
656.391	9715.03
656.742	9698.08
657.094	9757.06
657.445	9797.28
657.796	9773.78
658.147	9765.65
658.498	9763.16
658.849	9788.7
659.2	9743.95
659.551	9727.23
659.902	9840
660.253	9786.66
660.604	9775.82
660.955	9751.18
661.306	9739.43
661.656	9770.17
662.007	9761.81
662.358	9705.08
662.708	9750.51
663.059	9737.4
663.409	9700.11
663.76	9823.05
664.11	9881.58
664.461	9753.67
664.811	9778.98
665.161	9727.91
665.511	9748.47
665.862	9750.05
666.212	9757.51
666.562	9788.47
666.912	9760.9
667.262	9810.84
667.612	9680.23
667.962	9709.15
668.312	9729.04
668.662	9754.35
669.011	9710.06
669.361	9734.01
669.711	9663.95
670.06	9710.73
670.41	9729.94
670.76	9711.19
671.109	9722.94
671.459	9696.04
671.808	9701.24
672.157	9720.9
672.507	9610.17
672.856	9635.71
673.205	9716.83
673.554	9642.94
673.904	9624.18
674.253	9679.77
674.602	9651.53
674.951	9512.77
675.3	9523.85
675.649	9654.92
675.998	9614.01
676.346	9604.52
676.695	9617.18
677.044	9553
677.393	9593.22
677.741	9578.99
678.09	9561.13
678.438	9502.15
678.787	9574.24
679.135	9547.12
679.484	9531.76
679.832	9522.04
680.181	9482.49
680.529	9453.11
680.877	9514.13
681.225	9453.79
681.573	9500.8
681.922	9349.61
682.27	9357.75
682.618	9430.29
682.966	9460.34
683.314	9467.35
683.661	9435.94
684.009	9326.79
684.357	9281.59
684.705	9338.31
685.053	9304.42
685.4	9267.58
685.748	9203.18
686.095	9215.15
686.443	9242.72
686.79	9217.19
687.138	9226.45
687.485	9193.91
687.832	9188.26
688.18	9114.59
688.527	9126.57
688.874	9075.95
689.221	9047.47
689.568	8976.29
689.915	9066.46
690.262	8993.46
690.609	9011.09
690.956	8936.29
691.303	8984.65
691.65	8875.73
691.997	8917.53
692.344	8874.6
692.69	8836.86
693.037	8812.68
693.383	8739.01
693.73	8753.7
694.077	8730.87
694.423	8739.91
694.769	8729.52
695.116	8668.5
695.462	8657.65
695.808	8622.17
696.155	8629.18
696.501	8558
696.847	8525
697.193	8508.73
697.539	8485.45
697.885	8486.58
698.231	8443.42
698.577	8387.38
698.923	8405.68
699.269	8369.53
699.614	8312.13
699.96	8312.58
700.306	8304.22
700.651	8253.6
700.997	8224.67
701.342	8179.02
701.688	8216.54
702.033	8184.9
702.379	8248.85
702.724	8129.31
703.069	8135.18
703.415	8036.88
703.76	8098.57
704.105	8060.83
704.45	8077.33
704.795	7944.23
705.14	7954.62
705.485	7928.18
705.83	7921.63
706.175	7951.23
706.52	7877.11
706.865	7892.7
707.209	7852.03
707.554	7885.24
707.899	7857.45
708.243	7818.58
708.588	7753.95
708.932	7797.11
709.277	7694.52
709.621	7699.03
709.966	7611.58
710.31	7733.38
710.654	7595.53
710.998	7595.08
711.342	7631.69
711.687	7609.32
712.031	7635.08
712.375	7569.55
712.719	7580.62
713.063	7557.12
713.407	7575.65
713.75	7545.59
714.094	7545.37
714.438	7434.64
714.782	7471.02
715.125	7489.77
715.469	7483.9
715.812	7408.87
716.156	7433.51
716.499	7429.44
716.843	7386.05
717.186	7402.32
717.53	7423.56
717.873	7400.74
718.216	7427.4
718.559	7407.29
718.902	7292.72
719.246	7354.86
719.589	7344.47
719.932	7287.07
720.275	7294.3
720.617	7314.19
720.96	7366.61
721.303	7318.25
721.646	7285.03
721.989	7287.29
722.331	7271.02
722.674	7306.73
723.016	7283.23
723.359	7228.31
723.701	7257.24
724.044	7257.69
724.386	7235.09
724.729	7235.32
725.071	7224.92
725.413	7231.93
725.755	7258.14
726.097	7224.47
726.439	7168.88
726.782	7190.8
727.124	7224.92
727.465	7201.19
727.807	7169.33
728.149	7122.78
728.491	7117.36
728.833	7139.5
729.175	7184.92
729.516	7132.5
729.858	7150.12
730.199	7157.13
730.541	7177.92
730.882	7159.16
731.224	7145.15
731.565	7140.63
731.906	7136.79
732.248	7138.82
732.589	7073.29
732.93	7094.3
733.271	7116.23
733.612	7171.14
733.953	7126.17
734.294	7112.38
734.635	7106.51
734.976	7118.94
735.317	7118.94
735.658	7155.32
735.999	7111.71
736.339	7114.64
736.68	7141.54
737.021	7119.39
737.361	7123
737.702	7118.03
738.042	7118.49
738.383	7111.93
738.723	7075.55
739.063	7133.85
739.404	7092.27
739.744	7060.41
740.084	7082.55
740.424	7099.73
740.764	7061.31
741.104	7109.9
741.444	7027.64
741.784	7020.41
742.124	7068.54
742.464	7079.84
742.804	7043.91
743.143	7053.63
743.483	7037.81
743.823	7065.61
744.162	7014.99
744.502	7039.62
744.841	7010.01
745.181	7082.1
745.52	7049.56
745.86	6997.36
746.199	6974.53
746.538	7050.92
746.877	7056.11
747.216	7032.16
747.556	7059.73
747.895	7002.78
748.234	7012.95
748.573	6935.44
748.911	7003.69
749.25	7011.82
749.589	6984.25
749.928	6991.03
750.267	7081.2
750.605	6971.37
750.944	6963.23
751.283	6946.06
751.621	6957.13
751.96	6941.99
752.298	6966.85
752.636	6928.66
752.975	6936.57
753.313	6948.32
753.651	6925.27
753.989	6857.93
754.327	6885.04
754.666	6854.99
755.004	6913.74
755.342	6836.68
755.679	6907.87
756.017	6885.5
756.355	6908.55
756.693	6869.45
757.031	6799.62
757.368	6850.24
757.706	6773.64
758.044	6784.48
758.381	6778.61
758.719	6759.85
759.056	6760.53
759.394	6714.2
759.731	6660.42
760.068	6697.48
760.405	6624.26
760.743	6644.6
761.08	6690.93
761.417	6641.44
761.754	6642.34
762.091	6602.34
762.428	6610.48
762.765	6603.02
763.102	6589.46
763.438	6525.05
763.775	6573.64
764.112	6525.28
764.449	6556.47
764.785	6491.38
765.122	6443.02
765.458	6481.21
765.795	6405.74
766.131	6433.76
766.467	6425.85
766.804	6373.19
767.14	6353.53
767.476	6348.34
767.812	6288.9
768.148	6323.7
768.485	6304.04
768.821	6242.35
769.157	6233.76
769.492	6204.84
769.828	6188.34
770.164	6162.8
770.5	6174.78
770.836	6155.57
771.171	6131.17
771.507	6141.11
771.842	6110.15
772.178	6078.29
772.513	6042.13
772.849	6041.45
773.184	6027.89
773.519	6009.36
773.855	5985.41
774.19	5952.19
774.525	5955.58
774.86	5902.7
775.195	5912.19
775.53	5874.45
775.865	5865.86
776.2	5839.65
776.535	5818.41
776.87	5810.95
777.205	5767.56
777.539	5736.6
777.874	5731.4
778.209	5657.73
778.543	5674.23
778.878	5629.71
779.212	5669.94
779.547	5696.83
779.881	5665.64
780.215	5588.81
780.55	5648.69
780.884	5565.08
781.218	5561.24
781.552	5600.33
781.886	5572.99
782.22	5502.48
782.554	5492.31
782.888	5452.54
783.222	5478.75
783.556	5365.31
783.889	5386.78
784.223	5368.47
784.557	5380.68
784.89	5423.84
785.224	5335.71
785.557	5329.38
785.891	5303.17
786.224	5257.97
786.558	5279.21
786.891	5262.04
787.224	5211.64
787.557	5190.4
787.891	5193.56
788.224	5208.48
788.557	5183.85
788.89	5108.37
789.223	5137.07
789.556	5170.29
789.888	5098.43
790.221	5076.96
790.554	5035.38
790.887	5091.65
791.219	5044.42
791.552	4982.27
791.884	5028.37
792.217	4977.3
792.549	4975.72
792.882	4984.76
793.214	4964.19
793.546	4918.99
793.879	4917.64
794.211	4867.47
794.543	4880.8
794.875	4903.4
795.207	4907.02
795.539	4857.53
795.871	4850.97
796.203	4799
796.535	4786.57
796.867	4830.86
797.198	4764.87
797.53	4763.52
797.862	4718.1
798.193	4728.72
798.525	4730.07
798.856	4726.23
799.188	4649.62
799.519	4680.58
799.85	4637.65
800.182	4672
800.513	4656.85
800.844	4624.99
801.175	4625.44
801.506	4620.7
801.837	4590.64
802.168	4548.61
802.499	4549.51
802.83	4551.77
803.161	4555.16
803.491	4519.01
803.822	4592.22
804.153	4483.53
804.483	4442.4
804.814	4453.02
805.145	4460.02
805.475	4469.74
805.805	4429.52
806.136	4422.74
806.466	4443.98
806.796	4382.29
807.126	4390.65
807.457	4399.46
807.787	4407.6
808.117	4341.38
808.447	4340.93
808.777	4368.5
809.107	4365.34
809.436	4316.07
809.766	4319.01
810.096	4316.52
810.426	4297.77
810.755	4301.84
811.085	4277.43
811.414	4256.64
811.744	4257.54
812.073	4277.66
812.403	4229.75
812.732	4238.56
813.061	4271.33
813.39	4150.88
813.719	4193.59
814.049	4215.06
814.378	4184.1
814.707	4188.84
815.036	4163.76
815.365	4122.63
815.693	4088.51
816.022	4100.71
816.351	4117.66
816.68	4106.36
817.008	4099.36
817.337	4034.5
817.665	4032.46
817.994	4066.59
818.322	3994.95
818.651	3989.75
818.979	4038.11
819.307	4012.13
819.636	4015.74
819.964	3975.74
820.292	3969.87
820.62	4022.97
820.948	4014.84
821.276	3991.34
821.604	3964.22
821.932	3949.75
822.259	3984.1
822.587	3990.66
822.915	3981.17
823.243	4019.81
823.57	3980.71
823.898	4005.35
824.225	3937.33
824.553	3964.9
824.88	3984.1
825.207	3996.76
825.535	3978.68
825.862	4007.61
826.189	3986.14
826.516	4028.62
826.843	3988.62
827.17	4013.71
827.497	3947.04
827.824	3992.92
828.151	3977.78
828.478	3983.65
828.805	4008.28
829.131	3975.29
829.458	3957.21
829.785	3970.55
830.111	3987.72
830.438	3973.03
830.764	3954.5
831.09	3984.1
831.417	3936.2
831.743	3995.18
832.069	3980.26
832.395	3946.59
832.722	3933.03
833.048	3961.28
833.374	3930.77
833.7	3909.53
834.026	3956.76
834.351	3950.88
834.677	3917.21
835.003	3962.41
835.329	3949.75
835.654	3902.07
835.98	3904.33
836.306	3905.01
836.631	3917.67
836.956	3923.54
837.282	3917.67
837.607	3875.41
837.932	3837.22
838.258	3858.23
838.583	3906.37
838.908	3853.71
839.233	3845.8
839.558	3847.84
839.883	3801.96
840.208	3842.41
840.533	3809.42
840.858	3820.72
841.182	3839.7
841.507	3794.28
841.832	3806.71
842.156	3840.83
842.481	3772.58
842.805	3803.77
843.13	3766.71
843.454	3749.76
843.778	3742.75
844.103	3792.92
844.427	3769.65
844.751	3745.47
845.075	3767.39
845.399	3699.37
845.723	3732.81
846.047	3712.92
846.371	3672.25
846.695	3668.18
847.019	3705.24
847.343	3642.87
847.666	3622.31
847.99	3634.28
848.313	3602.42
848.637	3599.48
848.96	3547.73
849.284	3606.26
849.607	3581.63
849.931	3560.16
850.254	3543.21
850.577	3506.83
850.9	3481.29
851.223	3473.16
851.546	3454.17
851.869	3467.28
852.192	3454.85
852.515	3435.42
852.838	3433.84
853.161	3427.28
853.483	3398.13
853.806	3381.86
854.129	3375.08
854.451	3383.22
854.774	3338.25
855.096	3350.22
855.419	3348.64
855.741	3347.28
856.063	3338.7
856.385	3316.1
856.708	3318.36
857.03	3324.69
857.352	3282.2
857.674	3238.81
857.996	3249.21
858.318	3229.55
858.64	3248.76
858.961	3256.67
859.283	3235.2
859.605	3244.24
859.926	3222.32
860.248	3225.48
860.57	3227.51
860.891	3206.5
861.212	3171.02
861.534	3183.9
861.855	3172.37
862.176	3174.86
862.498	3206.27
862.819	3180.28
863.14	3159.72
863.461	3177.12
863.782	3133.73
864.103	3174.41
864.424	3149.55
864.745	3145.48
865.065	3134.64
865.386	3114.97
865.707	3091.7
866.027	3105.94
866.348	3129.89
866.668	3123.79
866.989	3126.95
867.309	3096.44
867.63	3109.33
867.95	3096.22
868.27	3084.24
868.59	3052.6
868.91	3033.17
869.23	3073.39
869.55	3044.47
869.87	3062.55
870.19	3080.63
870.51	3066.16
870.83	3055.99
871.15	3039.95
871.469	3030.68
871.789	3045.6
872.109	3017.12
872.428	3023.68
872.748	3007.63
873.067	2997.01
873.386	3027.52
873.706	3009.44
874.025	2992.49
874.344	2996.79
874.663	2998.14
874.982	3017.58
875.301	2966.5
875.62	2984.36
875.939	2989.78
876.258	2971.02
876.577	2963.79
876.896	2987.29
877.214	2980.51
877.533	2924.92
877.852	2953.17
878.17	2974.19
878.489	2926.5
878.807	2918.14
879.125	2917.92
879.444	2929.22
879.762	2910.91
880.08	2907.97
880.398	2898.03
880.716	2932.61
881.034	2900.97
881.352	2905.49
881.67	2880.18
881.988	2908.43
882.306	2863
882.624	2856.9
882.941	2859.16
883.259	2836.34
883.577	2830.24
883.894	2871.82
884.212	2844.93
884.529	2827.75
884.846	2833.4
885.164	2864.81
885.481	2783.68
885.798	2819.84
886.115	2797.69
886.432	2773.06
886.75	2801.99
887.067	2792.95
887.383	2757.24
887.7	2779.39
888.017	2730.35
888.334	2785.04
888.651	2745.49
888.967	2793.18
889.284	2701.2
889.6	2718.15
889.917	2756.34
890.233	2728.32
890.55	2674.08
890.866	2727.41
891.182	2727.41
891.498	2710.92
891.815	2694.87
892.131	2717.92
892.447	2697.81
892.763	2702.1
893.079	2655.78
893.395	2675.66
893.71	2631.82
894.026	2654.42
894.342	2624.37
894.657	2607.64
894.973	2600.19
895.289	2609.23
895.604	2609
895.92	2605.38
896.235	2578.94
896.55	2581.2
896.865	2582.11
897.181	2581.88
897.496	2571.71
897.811	2563.35
898.126	2536.23
898.441	2533.75
898.756	2534.42
899.071	2538.04
899.386	2513.63
899.7	2482.9
900.015	2528.32
900.33	2491.94
900.644	2456.46
900.959	2501.43
901.273	2475.9
901.588	2435.22
901.902	2445.84
902.216	2471.83
902.531	2445.39
902.845	2426.63
903.159	2443.58
903.473	2429.34
903.787	2424.82
904.101	2387.31
904.415	2380.3
904.729	2383.24
905.042	2395.22
905.356	2393.86
905.67	2373.53
905.984	2350.93
906.297	2373.3
906.611	2305.28
906.924	2364.26
907.237	2300.76
907.551	2317.26
907.864	2328.1
908.177	2292.4
908.491	2316.13
908.804	2266.41
909.117	2251.04
909.43	2279.29
909.743	2253.53
910.056	2265.73
910.368	2211.5
910.681	2241.1
910.994	2230.48
911.307	2188.45
911.619	2175.56
911.932	2204.72
912.244	2207.2
912.557	2208.78
912.869	2194.09
913.181	2172.63
913.494	2150.71
913.806	2153.64
914.118	2157.26
914.43	2155.9
914.742	2131.27
915.054	2132.85
915.366	2114.77
915.678	2103.48
915.99	2107.54
916.302	2097.15
916.613	2102.57
916.925	2106.19
917.236	2102.8
917.548	2051.5
917.859	2064.38
918.171	2074.78
918.482	2058.51
918.794	2014.21
919.105	2023.03
919.416	2013.99
919.727	1998.62
920.038	2006.76
920.349	2004.04
920.66	2010.82
920.971	1992.97
921.282	1980.54
921.593	1962.01
921.903	1961.33
922.214	1981.22
922.525	1974.67
922.835	1928.79
923.146	1928.34
923.456	1943.25
923.767	1945.51
924.077	1908.68
924.387	1915.68
924.697	1899.19
925.008	1904.84
925.318	1877.49
925.628	1904.84
925.938	1892.41
926.248	1876.59
926.558	1864.39
926.867	1852.86
927.177	1839.75
927.487	1837.95
927.796	1824.61
928.106	1816.25
928.416	1845.63
928.725	1809.47
929.034	1818.74
929.344	1825.74
929.653	1799.08
929.962	1799.98
930.271	1802.92
930.581	1789.59
930.89	1772.19
931.199	1747.1
931.508	1755.01
931.817	1777.16
932.125	1773.09
932.434	1740.55
932.743	1731.06
933.051	1746.2
933.36	1716.14
933.669	1720.66
933.977	1695.8
934.286	1715.69
934.594	1707.55
934.902	1674.33
935.21	1680.66
935.519	1675.92
935.827	1695.35
936.135	1686.54
936.443	1665.75
936.751	1666.88
937.059	1627.1
937.367	1628.23
937.674	1629.36
937.982	1626.65
938.29	1603.15
938.597	1654
938.905	1623.94
939.213	1603.38
939.52	1628.23
939.827	1603.6
940.135	1609.25
940.442	1597.5
940.749	1600.44
941.056	1598.86
941.363	1552.76
941.67	1576.48
941.977	1544.85
942.284	1521.12
942.591	1549.82
942.898	1556.82
943.205	1547.56
943.511	1550.5
943.818	1520.44
944.125	1550.5
944.431	1516.6
944.738	1487.22
945.044	1519.08
945.35	1508.69
945.657	1489.03
945.963	1515.02
946.269	1465.98
946.575	1496.71
946.881	1471.4
947.187	1467.33
947.493	1457.39
947.799	1479.09
948.105	1468.69
948.41	1429.82
948.716	1433.21
949.022	1438.86
949.327	1431.18
949.633	1437.28
949.938	1426.88
950.244	1459.88
950.549	1415.13
950.854	1418.75
951.16	1372.87
951.465	1388.47
951.77	1352.76
952.075	1407
952.38	1383.72
952.685	1410.39
952.99	1356.38
953.294	1390.5
953.599	1383.04
953.904	1341.69
954.209	1349.82
954.513	1375.59
954.818	1344.4
955.122	1340.78
955.426	1366.32
955.731	1340.78
956.035	1307.34
956.339	1337.62
956.643	1302.59
956.948	1319.32
957.252	1315.02
957.556	1267.11
957.86	1288.58
958.163	1292.88
958.467	1310.05
958.771	1278.64
959.075	1292.65
959.378	1256.04
959.682	1272.54
959.985	1259.88
960.289	1284.06
960.592	1262.82
960.896	1239.09
961.199	1260.56
961.502	1262.59
961.805	1239.54
962.108	1256.94
962.411	1260.79
962.714	1206.55
963.017	1220.34
963.32	1217.62
963.623	1216.72
963.926	1235.48
964.228	1213.1
964.531	1243.61
964.833	1221.47
965.136	1190.73
965.438	1198.41
965.741	1205.42
966.043	1162.03
966.345	1187.79
966.648	1177.4
966.95	1172.65
967.252	1157.06
967.554	1156.38
967.856	1161.81
968.158	1140.34
968.46	1155.48
968.761	1141.02
969.063	1148.7
969.365	1162.71
969.666	1136.95
969.968	1142.6
970.269	1114.12
970.571	1170.62
970.872	1137.4
971.174	1115.93
971.475	1121.13
971.776	1123.16
972.077	1108.47
972.378	1087.01
972.679	1086.1
972.98	1132.2
973.281	1068.25
973.582	1096.04
973.883	1079.55
974.183	1093.33
974.484	1068.7
974.785	1080.45
975.085	1059.21
975.386	1060.57
975.686	1074.35
975.986	1035.71
976.287	1068.25
976.587	1067.12
976.887	1045.88
977.187	1040
977.487	1042.71
977.787	1036.16
978.087	1034.58
978.387	1047.23
978.687	1025.09
978.987	998.42
979.286	1033
979.586	1011.53
979.885	1011.08
980.185	1023.05
980.484	1014.24
980.784	1006.56
981.083	997.97
981.382	1024.86
981.682	1007.01
981.981	994.13
982.28	996.61
982.579	985.99
982.878	976.5
983.177	993.67
983.475	969.95
983.774	974.92
984.073	958.87
984.372	961.36
984.67	959.33
984.969	971.53
985.267	943.28
985.566	960.23
985.864	932.89
986.162	940.79
986.461	949.83
986.759	926.78
987.057	917.29
987.355	960.23
987.653	951.87
987.951	956.39
988.249	935.82
988.547	941.02
988.844	909.38
989.142	932.43
989.44	918.2
989.737	924.3
990.035	894.92
990.332	901.25
990.63	919.1
990.927	921.36
991.224	898.99
991.521	902.83
991.819	879.78
992.116	872.1
992.413	903.96
992.71	892.21
993.006	894.69
993.303	866.9
993.6	889.72
993.897	868.03
994.193	838.88
994.49	847.92
994.787	848.14
995.083	840.46
995.379	868.03
995.676	862.38
995.972	853.79
996.268	869.84
996.565	841.36
996.861	833.9
997.157	842.94
997.453	842.94
997.749	830.51
998.044	845.88
998.34	827.8
998.636	814.02
998.932	837.97
999.227	839.33
999.523	835.03
999.818	815.6
1000.114	805.88
1000.409	801.59
1000.704	802.04
1001	804.98
1001.295	778.99
1001.59	808.59
1001.885	788.26
1002.18	800.01
1002.475	782.83
1002.77	785.77
1003.065	759.78
1003.359	785.77
1003.654	772.89
1003.949	771.53
1004.243	781.02
1004.538	782.38
1004.832	758.88
1005.127	760.23
1005.421	760.23
1005.715	731.76
1006.009	750.29
1006.304	771.08
1006.598	738.77
1006.892	759.56
1007.186	755.04
1007.48	767.24
1007.773	725.66
1008.067	739.9
1008.361	717.52
1008.655	729.05
1008.948	713.91
1009.242	716.85
1009.535	707.13
1009.829	708.71
1010.122	707.81
1010.415	696.73
1010.708	711.87
1011.001	709.84
1011.295	691.31
1011.588	705.32
1011.881	711.65
1012.173	677.3
1012.466	691.76
1012.759	698.54
1013.052	682.04
1013.344	682.5
1013.637	690.63
1013.93	680.01
1014.222	678.2
1014.514	682.5
1014.807	676.39
1015.099	660.35
1015.391	668.03
1015.683	664.42
1015.976	646.34
1016.268	649.05
1016.56	662.84
1016.851	664.64
1017.143	637.53
1017.435	643.18
1017.727	638.43
1018.018	644.98
1018.31	628.49
1018.602	621.71
1018.893	643.4
1019.185	631.2
1019.476	621.48
1019.767	623.29
1020.058	613.35
1020.35	636.4
1020.641	616.06
1020.932	609.05
1021.223	610.86
1021.514	617.41
1021.804	602.72
1022.095	618.32
1022.386	593.23
1022.677	597.75
1022.967	583.06
1023.258	565.89
1023.548	606.11
1023.839	596.17
1024.129	598.66
1024.419	587.13
1024.709	593.46
1025	578.32
1025.29	559.56
1025.58	561.6
1025.87	569.05
1026.16	595.27
1026.449	567.24
1026.739	569.73
1027.029	570.18
1027.319	586.23
1027.608	564.08
1027.898	576.51
1028.187	553.01
1028.477	550.97
1028.766	554.14
1029.055	554.82
1029.344	545.32
1029.634	541.03
1029.923	538.77
1030.212	538.09
1030.501	553.23
1030.79	562.05
1031.078	543.52
1031.367	540.8
1031.656	536.29
1031.945	533.35
1032.233	522.95
1032.522	535.83
1032.81	522.5
1033.099	526.57
1033.387	543.74
1033.675	494.25
1033.963	521.14
1034.251	515.95
1034.54	508.49
1034.828	511.43
1035.116	513.91
1035.403	526.34
1035.691	510.3
1035.979	499.22
1036.267	513.46
1036.554	513.24
1036.842	493.35
1037.129	486.8
1037.417	493.8
1037.704	514.37
1037.992	505.1
1038.279	484.08
1038.566	506.23
1038.853	506.23
1039.14	506.23
