Data from mousepad_grey_FLMS001491_00010.txt Node
Date: Wed Feb 08 14:28:55 GMT 2017
User: dcchb
Spectrometer: FLMS00149
Trigger mode: 0
Integration Time (sec): 2.000000E-2
Scans to average: 10
Electric dark correction enabled: true
Nonlinearity correction enabled: false
Boxcar width: 0
XAxis mode: Wavelengths
Number of Pixels in Spectrum: 2048
>>>>>Begin Spectral Data<<<<<
341.393	-18.7
341.776	-18.7
342.16	-18.7
342.543	-57.12
342.927	-64.8
343.31	-82.65
343.693	-75.2
344.077	-68.19
344.46	-53.5
344.843	-34.52
345.226	-29.32
345.61	-25.48
345.993	-18.47
346.376	5.25
346.759	1.64
347.142	26.95
347.525	44.58
347.908	62.88
348.291	74.18
348.674	74.4
349.057	97.46
349.44	111.01
349.823	132.93
350.206	158.02
350.588	186.72
350.971	172.71
351.354	207.28
351.737	214.51
352.119	215.19
352.502	220.84
352.884	234.4
353.267	254.06
353.65	258.13
354.032	280.28
354.414	284.12
354.797	292.25
355.179	288.86
355.562	318.92
355.944	304.68
356.326	290.44
356.709	305.81
357.091	320.5
357.473	330.67
357.855	313.49
358.238	312.14
358.62	308.75
359.002	308.97
359.384	320.05
359.766	319.6
360.148	299.03
360.53	320.5
360.912	329.54
361.294	321.4
361.676	314.62
362.057	313.95
362.439	318.47
362.821	304
363.203	294.51
363.584	306.49
363.966	306.94
364.348	294.06
364.729	304.91
365.111	303.78
365.493	301.97
365.874	297.9
366.256	314.17
366.637	306.72
367.019	302.65
367.4	292.48
367.781	305.36
368.163	285.7
368.544	291.57
368.925	289.31
369.306	301.52
369.688	308.52
370.069	290.22
370.45	303.55
370.831	277.34
371.212	288.18
371.593	295.19
371.974	292.7
372.355	276.43
372.736	292.03
373.117	289.99
373.498	293.83
373.879	299.48
374.26	312.59
374.641	309.65
375.021	288.64
375.402	308.97
375.783	300.16
376.163	287.51
376.544	289.09
376.925	314.17
377.305	313.04
377.686	301.07
378.066	301.29
378.447	326.83
378.827	310.33
379.208	291.57
379.588	299.94
379.968	304
380.349	321.86
380.729	306.94
381.109	311.91
381.489	297.9
381.87	307.17
382.25	317.11
382.63	287.51
383.01	321.86
383.39	318.69
383.77	294.74
384.15	320.05
384.53	305.81
384.91	321.4
385.29	329.54
385.67	320.73
386.049	339.71
386.429	318.92
386.809	292.7
387.189	336.54
387.568	323.89
387.948	344.23
388.328	308.75
388.707	317.34
389.087	325.25
389.466	341.06
389.846	337.67
390.225	347.84
390.605	334.28
390.984	331.35
391.363	337.9
391.743	367.73
392.122	339.03
392.501	340.84
392.881	344.23
393.26	344
393.639	344.45
394.018	338.13
394.397	341.52
394.776	341.52
395.155	337.22
395.534	358.01
395.913	333.16
396.292	360.72
396.671	354.17
397.05	352.36
397.429	367.96
397.808	351.91
398.186	357.56
398.565	380.61
398.944	361.18
399.323	346.26
399.701	354.85
400.08	371.12
400.458	390.1
400.837	360.95
401.215	359.37
401.594	372.48
401.972	370.67
402.351	372.25
402.729	369.99
403.107	375.41
403.486	385.13
403.864	374.51
404.242	380.39
404.62	410.44
404.999	389.42
405.377	402.98
405.755	394.62
406.133	384.68
406.511	408.86
406.889	397.33
407.267	398.92
407.645	412.7
408.023	422.19
408.401	420.84
408.779	404.57
409.156	410.67
409.534	398.24
409.912	422.19
410.29	434.62
410.667	412.02
411.045	431.91
411.422	425.13
411.8	438.69
412.178	419.03
412.555	458.8
412.933	439.37
413.31	456.09
413.687	452.02
414.065	454.28
414.442	438.24
414.819	469.2
415.197	439.82
415.574	458.12
415.951	474.39
416.328	447.05
416.705	468.07
417.082	465.13
417.46	481.63
417.837	488.18
418.214	468.29
418.591	461.97
418.967	462.64
419.344	487.95
419.721	475.98
420.098	482.3
420.475	490.67
420.852	497.44
421.228	492.47
421.605	491.79
421.982	494.96
422.358	495.86
422.735	483.89
423.111	525.69
423.488	513.94
423.864	510.78
424.241	528.63
424.617	526.14
424.994	498.57
425.37	521.85
425.746	541.74
426.123	522.3
426.499	544.67
426.875	543.09
427.251	548.06
427.627	568.4
428.003	565.01
428.379	561.17
428.756	579.02
429.132	561.17
429.507	569.76
429.883	562.98
430.259	560.72
430.635	577.89
431.011	588.29
431.387	591.23
431.763	590.32
432.138	603.2
432.514	594.62
432.89	631.9
433.265	611.11
433.641	620.61
434.016	640.27
434.392	647.95
434.767	655.18
435.143	643.66
435.518	659.02
435.894	650.66
436.269	641.62
436.644	649.08
437.02	649.76
437.395	670.1
437.77	678
438.145	691.34
438.52	698.34
438.895	704.22
439.271	717.33
439.646	706.25
440.021	711.68
440.395	696.99
440.77	716.2
441.145	739.47
441.52	751.45
441.895	729.3
442.27	728.85
442.645	727.04
443.019	746.48
443.394	728.4
443.769	756.87
444.143	734.05
444.518	732.47
444.892	757.1
445.267	744.44
445.641	777.44
446.016	797.32
446.39	772.47
446.764	759.58
447.139	791
447.513	757.78
447.887	764.1
448.262	780.37
448.636	798.68
449.01	821.73
449.384	794.39
449.758	788.06
450.132	822.63
450.506	823.31
450.88	820.83
451.254	843.88
451.628	809.98
452.002	841.62
452.376	852.69
452.75	833.93
453.123	857.21
453.497	853.37
453.871	877.1
454.244	888.17
454.618	865.12
454.992	892.01
455.365	919.81
455.739	930.88
456.112	917.55
456.486	922.29
456.859	947.6
457.232	935.4
457.606	965
457.979	938.56
458.352	961.39
458.725	1005.68
459.099	973.82
459.472	985.79
459.845	1014.04
460.218	1030.09
460.591	1039.8
460.964	1039.13
461.337	1039.8
461.71	1057.88
462.083	1085
462.456	1062.4
462.829	1086.58
463.201	1099.69
463.574	1054.04
463.947	1090.42
464.32	1127.03
464.692	1126.13
465.065	1148.95
465.438	1162.29
465.81	1139.24
466.183	1171.1
466.555	1197.99
466.928	1191.44
467.3	1177.43
467.672	1223.53
468.045	1254.03
468.417	1248.61
468.789	1268.95
469.161	1260.81
469.534	1292.45
469.906	1292.23
470.278	1286.12
470.65	1310.3
471.022	1363.86
471.394	1370.64
471.766	1376.97
472.138	1397.31
472.51	1413.13
472.882	1451.09
473.253	1470.98
473.625	1452.67
473.997	1477.98
474.369	1470.3
474.74	1506.01
475.112	1522.5
475.484	1544.87
475.855	1594.36
476.227	1572.67
476.598	1603.4
476.97	1617.87
477.341	1651.09
477.713	1680.01
478.084	1706
478.455	1713.01
478.827	1722.72
479.198	1799.56
479.569	1763.63
479.94	1790.07
480.311	1825.55
480.682	1888.82
481.053	1891.98
481.424	1921.36
481.795	1926.56
482.166	1972.66
482.537	1996.61
482.908	2027.57
483.279	2074.8
483.65	2065.99
484.021	2105.09
484.391	2151.41
484.762	2148.93
485.133	2140.57
485.503	2218.53
485.874	2239.77
486.244	2244.52
486.615	2273.9
486.985	2310.73
487.356	2338.53
487.726	2372.42
488.097	2386.43
488.467	2406.55
488.837	2452.42
489.207	2473.44
489.578	2517.5
489.948	2531.29
490.318	2593.66
490.688	2574.23
491.058	2602.7
491.428	2607.9
491.798	2662.81
492.168	2710.72
492.538	2687.22
492.908	2770.38
493.278	2798.4
493.648	2788.46
494.017	2786.88
494.387	2826.2
494.757	2871.17
495.126	2905.74
495.496	2884.95
495.866	2921.11
496.235	2948.45
496.605	2979.64
496.974	2980.32
497.344	2985.97
497.713	3040.2
498.082	3054.67
498.452	3094.66
498.821	3101.67
499.19	3098.28
499.559	3127.88
499.928	3150.71
500.298	3180.99
500.667	3212.4
501.036	3207.2
501.405	3207.66
501.774	3244.26
502.143	3267.54
502.512	3277.94
502.88	3297.6
503.249	3352.74
503.618	3375.79
503.987	3361.1
504.356	3409.91
504.724	3439.74
505.093	3416.01
505.462	3479.74
505.83	3456.69
506.199	3520.19
506.567	3531.04
506.936	3546.63
507.304	3591.6
507.672	3553.18
508.041	3614.2
508.409	3571.94
508.777	3649.23
509.145	3670.92
509.514	3706.63
509.882	3724.03
510.25	3731.71
510.618	3738.49
510.986	3786.62
511.354	3829.33
511.722	3845.15
512.09	3831.59
512.458	3818.49
512.826	3858.71
513.193	3876.34
513.561	3957.24
513.929	3935.55
514.297	3978.48
514.664	4027.3
515.032	4008.09
515.4	4056.9
515.767	4093.51
516.135	4105.94
516.502	4068.88
516.869	4131.25
517.237	4158.82
517.604	4152.72
517.972	4186.84
518.339	4227.52
518.706	4247.4
519.073	4240.17
519.44	4320.39
519.808	4304.58
520.175	4337.34
520.542	4378.7
520.909	4392.71
521.276	4459.6
521.643	4485.81
522.009	4484.46
522.376	4529.2
522.743	4559.48
523.11	4557
523.477	4597.68
523.843	4643.32
524.21	4707.5
524.577	4673.61
524.943	4753.15
525.31	4777.78
525.676	4775.3
526.043	4838.8
526.409	4839.7
526.776	4962.86
527.142	4907.5
527.508	4966.03
527.874	4979.13
528.241	4957.21
528.607	5047.61
528.973	5093.71
529.339	5078.12
529.705	5124.89
530.071	5200.37
530.437	5182.29
530.803	5213.48
531.169	5287.83
531.535	5249.86
531.901	5255.29
532.267	5314.27
532.632	5309.75
532.998	5376.64
533.364	5384.1
533.73	5402.85
534.095	5436.52
534.461	5475.17
534.826	5519.01
535.192	5495.96
535.557	5570.76
535.923	5585.45
536.288	5577.31
536.653	5587.03
537.019	5598.78
537.384	5626.35
537.749	5700.7
538.114	5683.52
538.479	5697.31
538.845	5720.13
539.21	5756.06
539.575	5753.35
539.94	5817.98
540.305	5846.46
540.67	5834.25
541.034	5855.04
541.399	5940.47
541.764	5908.6
542.129	5919.22
542.494	6006.9
542.858	5952.44
543.223	5997.86
543.587	6044.42
543.952	6063.63
544.316	6085.77
544.681	6115.6
545.045	6215.26
545.41	6130.74
545.774	6119.9
546.138	6216.62
546.503	6282.38
546.867	6183.85
547.231	6302.04
547.595	6302.26
547.959	6362.6
548.324	6339.78
548.688	6337.97
549.052	6420.68
549.416	6410.28
549.779	6415.93
550.143	6471.75
550.507	6513.33
550.871	6483.05
551.235	6497.06
551.599	6521.01
551.962	6586.55
552.326	6608.47
552.689	6690.28
553.053	6633.78
553.417	6641.92
553.78	6702.03
554.143	6703.61
554.507	6742.7
554.87	6778.86
555.234	6885.75
555.597	6808.47
555.96	6865.19
556.323	6937.5
556.686	6897.05
557.05	6928.91
557.413	7025.86
557.776	6997.61
558.139	6997.39
558.502	7006.88
558.865	7111.06
559.228	7116.71
559.59	7121.68
559.953	7167.78
560.316	7163.03
560.679	7230.83
561.041	7316.25
561.404	7248.23
561.767	7368.9
562.129	7326.64
562.492	7386.53
562.854	7376.59
563.217	7432.63
563.579	7452.74
563.941	7507.66
564.304	7498.84
564.666	7559.18
565.028	7626.97
565.39	7629.01
565.753	7701.32
566.115	7700.87
566.477	7711.04
566.839	7682.57
567.201	7756.24
567.563	7790.59
567.925	7840.53
568.287	7892.05
568.648	7910.13
569.01	7934.09
569.372	7972.95
569.734	7915.1
570.095	8007.98
570.457	8082.1
570.819	8043.23
571.18	8106.28
571.542	8105.83
571.903	8112.39
572.265	8130.24
572.626	8180.86
572.987	8205.04
573.349	8244.36
573.71	8270.8
574.071	8275.32
574.432	8301.08
574.794	8413.17
575.155	8314.19
575.516	8322.55
575.877	8385.15
576.238	8395.54
576.599	8417.69
576.96	8437.8
577.32	8459.04
577.681	8469.44
578.042	8487.29
578.403	8503.56
578.763	8462.88
579.124	8519.38
579.485	8570.9
579.845	8596.44
580.206	8570.68
580.566	8604.58
580.927	8622.2
581.287	8630.56
581.648	8571.58
582.008	8647.74
582.368	8612.03
582.728	8693.61
583.089	8690.9
583.449	8697.45
583.809	8682.77
584.169	8698.58
584.529	8635.54
584.889	8763.44
585.249	8733.61
585.609	8743.1
585.969	8738.13
586.329	8656.33
586.688	8735.87
587.048	8736.1
587.408	8694.07
587.768	8743.56
588.127	8715.53
588.487	8698.81
588.846	8813.38
589.206	8698.36
589.565	8742.43
589.925	8802.76
590.284	8738.36
590.643	8761.86
591.003	8739.94
591.362	8765.48
591.721	8784.46
592.08	8770.45
592.44	8905.13
592.799	8815.87
593.158	8828.52
593.517	8766.38
593.876	8744.69
594.235	8812.03
594.593	8792.14
594.952	8834.4
595.311	8773.84
595.67	8864.91
596.029	8871.01
596.387	8891.35
596.746	8857
597.104	8835.98
597.463	8829.88
597.822	8822.65
598.18	8789.2
598.538	8876.66
598.897	8919.14
599.255	8798.47
599.613	8906.94
599.972	8940.16
600.33	8872.14
600.688	8894.96
601.046	8900.39
601.404	8990.55
601.762	8882.76
602.12	9018.8
602.478	8934.96
602.836	8948.3
603.194	8861.52
603.552	8929.09
603.91	8885.7
604.268	8944
604.625	8915.3
604.983	8962.76
605.341	8967.96
605.698	9028.52
606.056	8969.54
606.413	9010.67
606.771	9025.58
607.128	9087.95
607.485	9034.4
607.843	9024.68
608.2	9048.86
608.557	9076.2
608.914	9052.93
609.272	9131.57
609.629	9168.63
609.986	9104
610.343	9115.3
610.7	9181.28
611.057	9114.39
611.414	9118.01
611.771	9138.12
612.127	9098.35
612.484	9139.93
612.841	9158.01
613.198	9169.08
613.554	9200.04
613.911	9248.17
614.267	9201.4
614.624	9191
614.98	9247.27
615.337	9260.6
615.693	9208.85
616.05	9249.3
616.406	9341.05
616.762	9306.7
617.118	9296.54
617.475	9301.28
617.831	9349.42
618.187	9282.07
618.543	9314.16
618.899	9350.32
619.255	9368.4
619.611	9385.8
619.967	9369.53
620.323	9332.47
620.678	9374.73
621.034	9299.02
621.39	9253.6
621.746	9348.29
622.101	9423.76
622.457	9380.15
622.812	9359.36
623.168	9419.47
623.523	9422.41
623.879	9405.23
624.234	9357.1
624.589	9463.99
624.945	9388.96
625.3	9377.44
625.655	9435.51
626.01	9419.02
626.365	9426.48
626.72	9465.12
627.075	9370.21
627.43	9445.01
627.785	9394.84
628.14	9435.06
628.495	9435.97
628.85	9445.68
629.205	9321.62
629.559	9369.08
629.914	9346.25
630.269	9416.76
630.623	9326.14
630.978	9354.61
631.332	9383.54
631.687	9357.78
632.041	9319.13
632.396	9331.34
632.75	9382.41
633.104	9377.44
633.459	9343.54
633.813	9303.54
634.167	9350.55
634.521	9312.58
634.875	9368.85
635.229	9308.74
635.583	9276.87
635.937	9310.32
636.291	9277.1
636.645	9261.51
636.999	9277.1
637.352	9294.28
637.706	9220.61
638.06	9305.8
638.413	9314.16
638.767	9232.58
639.121	9211.79
639.474	9175.86
639.828	9199.59
640.181	9201.4
640.534	9230.32
640.888	9167.73
641.241	9089.54
641.594	9130.44
641.947	9208.63
642.301	9185.58
642.654	9181.96
643.007	9179.7
643.36	9125.24
643.713	9141.29
644.066	9232.36
644.419	9167.27
644.771	9106.03
645.124	9018.58
645.477	9027.39
645.83	8924.34
646.182	8929.99
646.535	8918.92
646.888	8966.15
647.24	8906.49
647.593	8921.86
647.945	8911.91
648.298	8814.51
648.65	8885.02
649.002	8805.02
649.355	8896.09
649.707	8894.51
650.059	8924.34
650.411	9028.07
650.763	9022.64
651.115	9127.73
651.467	9076.43
651.819	9095.18
652.171	9035.75
652.523	9121.17
652.875	9146.48
653.227	8998.92
653.578	9094.05
653.93	9094.05
654.282	9009.54
654.633	9011.12
654.985	9071
655.337	9094.28
655.688	9077.33
656.039	9021.97
656.391	8944.23
656.742	9031.01
657.094	9002.53
657.445	9108.07
657.796	9039.82
658.147	9035.75
658.498	8980.39
658.849	9044.79
659.2	9026.71
659.551	9080.72
659.902	9068.07
660.253	9054.73
660.604	9128.18
660.955	9058.58
661.306	9067.39
661.656	9029.88
662.007	9056.32
662.358	9055.41
662.708	9024.45
663.059	9087.95
663.409	9034.62
663.76	9101.06
664.11	9025.36
664.461	9061.74
664.811	9018.58
665.161	9035.53
665.511	9054.96
665.862	8994.85
666.212	9044.11
666.562	9083.21
666.912	9052.02
667.262	8972.48
667.612	9013.83
667.962	9104.45
668.312	8986.49
668.662	9104.9
669.011	9094.05
669.361	9081.63
669.711	9000.5
670.06	8992.59
670.41	8993.72
670.76	9000.5
671.109	9045.24
671.459	9005.24
671.808	9012.47
672.157	8970.22
672.507	8923.89
672.856	8902.65
673.205	8967.96
673.554	9011.57
673.904	8938.13
674.253	8928.86
674.602	8993.04
674.951	8843.89
675.3	8751.69
675.649	8951.23
675.998	8919.14
676.346	8926.15
676.695	9001.85
677.044	8899.48
677.393	8840.05
677.741	8918.47
678.09	8912.14
678.438	8867.62
678.787	8905.36
679.135	8906.26
679.484	8770.67
679.832	8861.74
680.181	8845.93
680.529	8893.38
680.877	8776.77
681.225	8790.33
681.573	8849.77
681.922	8757.57
682.27	8758.24
682.618	8756.21
682.966	8726.61
683.314	8798.24
683.661	8749.43
684.009	8666.5
684.357	8699.04
684.705	8654.07
685.053	8664.91
685.4	8654.97
685.748	8545.37
686.095	8609.55
686.443	8592.37
686.79	8546.72
687.138	8541.07
687.485	8531.13
687.832	8531.58
688.18	8473.73
688.527	8467.18
688.874	8420.17
689.221	8489.1
689.568	8491.36
689.915	8325.26
690.262	8369.1
690.609	8394.19
690.956	8352.15
691.303	8402.55
691.65	8285.04
691.997	8315.54
692.344	8261.53
692.69	8216.56
693.037	8209.78
693.383	8151.93
693.73	8231.03
694.077	8132.05
694.423	8162.55
694.769	8144.7
695.116	8076.45
695.462	8090.92
695.808	8127.3
696.155	8052.5
696.501	8000.07
696.847	8030.58
697.193	7942.22
697.539	7979.96
697.885	7877.59
698.231	7854.77
698.577	7907.42
698.923	7799.63
699.269	7869.45
699.614	7765.28
699.96	7688.89
700.306	7771.83
700.651	7754.88
700.997	7684.15
701.342	7714.66
701.688	7654.54
702.033	7720.31
702.379	7628.33
702.724	7593.53
703.069	7631.72
703.415	7511.05
703.76	7516.7
704.105	7516.24
704.45	7518.05
704.795	7444.83
705.14	7395.79
705.485	7401.67
705.83	7435.12
706.175	7401.22
706.52	7307.21
706.865	7377.72
707.209	7360.99
707.554	7271.28
707.899	7364.38
708.243	7255.46
708.588	7277.83
708.932	7233.09
709.277	7254.56
709.621	7227.44
709.966	7129.81
710.31	7219.3
710.654	7126.65
710.998	7182.01
711.342	7110.38
711.687	7116.93
712.031	7095.69
712.375	7114.9
712.719	7066.76
713.063	7077.61
713.407	7077.16
713.75	7074.67
714.094	7034.9
714.438	7076.03
714.782	7003.26
715.125	7003.94
715.469	6957.39
715.812	6987.22
716.156	6946.09
716.499	6958.29
716.843	6985.64
717.186	6937.5
717.53	6985.86
717.873	6907.45
718.216	6936.37
718.559	6902.25
718.902	6855.92
719.246	6903.6
719.589	6890.72
719.932	6876.26
720.275	6844.62
720.617	6855.02
720.96	6814.57
721.303	6791.52
721.646	6843.04
721.989	6837.16
722.331	6842.36
722.674	6816.37
723.016	6816.83
723.359	6866.54
723.701	6818.86
724.044	6803.49
724.386	6737.73
724.729	6786.77
725.071	6771.4
725.413	6720.33
725.755	6808.69
726.097	6760.56
726.439	6711.29
726.782	6724.63
727.124	6744.06
727.465	6702.71
727.807	6710.16
728.149	6736.6
728.491	6688.92
728.833	6755.81
729.175	6739.54
729.516	6714
729.858	6694.8
730.199	6707.68
730.541	6747.45
730.882	6692.54
731.224	6713.78
731.565	6665.42
731.906	6703.61
732.248	6656.6
732.589	6666.1
732.93	6626.1
733.271	6664.06
733.612	6655.7
733.953	6728.92
734.294	6636.72
734.635	6645.98
734.976	6686.89
735.317	6679.65
735.658	6616.15
735.999	6680.78
736.339	6689.15
736.68	6691.63
737.021	6689.37
737.361	6654.8
737.702	6645.08
738.042	6689.15
738.383	6633.55
738.723	6678.07
739.063	6663.61
739.404	6629.26
739.744	6647.79
740.084	6619.77
740.424	6683.95
740.764	6671.29
741.104	6633.1
741.444	6609.83
741.784	6588.58
742.124	6553.78
742.464	6612.76
742.804	6596.04
743.143	6583.39
743.483	6637.4
743.823	6639.43
744.162	6587.45
744.502	6648.92
744.841	6568.47
745.181	6641.69
745.52	6614.8
745.86	6652.54
746.199	6627.68
746.538	6584.06
746.877	6629.71
747.216	6600.11
747.556	6558.98
747.895	6548.58
748.234	6606.89
748.573	6571.86
748.911	6580.67
749.25	6577.51
749.589	6569.15
749.928	6618.87
750.267	6584.52
750.605	6597.62
750.944	6593.1
751.283	6491.64
751.621	6524.63
751.96	6490.96
752.298	6495.25
752.636	6535.03
752.975	6513.11
753.313	6494.8
753.651	6478.53
753.989	6467.68
754.327	6468.36
754.666	6500.68
755.004	6501.81
755.342	6426.78
755.679	6454.58
756.017	6428.14
756.355	6483.95
756.693	6436.5
757.031	6425.2
757.368	6425.88
757.706	6401.47
758.044	6344.75
758.381	6404.86
758.719	6369.38
759.056	6381.13
759.394	6314.01
759.731	6349.72
760.068	6318.08
760.405	6303.17
760.743	6245.32
761.08	6225.88
761.417	6249.16
761.754	6196.73
762.091	6248.48
762.428	6239.21
762.765	6185.2
763.102	6222.27
763.438	6178.43
763.775	6174.58
764.112	6139.56
764.449	6189.95
764.785	6104.53
765.122	6103.62
765.458	6086.22
765.795	6053.46
766.131	6062.27
766.467	6076.05
766.804	6005.77
767.14	5957.64
767.476	5987.92
767.812	5975.04
768.148	6001.25
768.485	5910.41
768.821	5935.04
769.157	5848.26
769.492	5911.31
769.828	5881.48
770.164	5879.9
770.5	5778.89
770.836	5814.37
771.171	5759.23
771.507	5754.03
771.842	5727.59
772.178	5740.47
772.513	5746.12
772.849	5707.7
773.184	5689.85
773.519	5655.28
773.855	5605.56
774.19	5607.37
774.525	5646.69
774.86	5623.41
775.195	5576.41
775.53	5583.41
775.865	5569.4
776.2	5472.23
776.535	5476.3
776.87	5483.3
777.205	5497.99
777.539	5433.59
777.874	5456.64
778.209	5417.99
778.543	5466.13
778.878	5308.84
779.212	5319.24
779.547	5335.28
779.881	5330.76
780.215	5327.83
780.55	5320.59
780.884	5251.9
781.218	5309.3
781.552	5296.41
781.886	5256.42
782.22	5209.19
782.554	5157.21
782.888	5109.98
783.222	5129.64
783.556	5137.77
783.889	5082.41
784.223	5115.63
784.557	5076.99
784.89	5059.13
785.224	5015.97
785.557	5007.83
785.891	5015.52
786.224	4983.88
786.558	5020.72
786.891	4972.81
787.224	4946.59
787.557	4927.38
787.891	4937.55
788.224	4920.83
788.557	4894.39
788.89	4909.08
789.223	4861.4
789.556	4854.84
789.888	4849.65
790.221	4838.35
790.554	4804.45
790.887	4802.19
791.219	4818.46
791.552	4785.47
791.884	4759.48
792.217	4739.14
792.549	4710.67
792.882	4720.38
793.214	4644.23
793.546	4699.59
793.879	4663.66
794.211	4590.44
794.543	4635.19
794.875	4593.16
795.207	4628.64
795.539	4610.56
795.871	4632.25
796.203	4566.72
796.535	4536.21
796.867	4564.23
797.198	4497.34
797.53	4506.6
797.862	4521.75
798.193	4494.4
798.525	4499.37
798.856	4461.86
799.188	4470.22
799.519	4425.02
799.85	4390.68
800.182	4425.48
800.513	4436.55
800.844	4349.55
801.175	4335.08
801.506	4363.78
801.837	4387.51
802.168	4323.11
802.499	4337.34
802.83	4276.33
803.161	4284.01
803.491	4319.94
803.822	4321.98
804.153	4289.44
804.483	4229.32
804.814	4225.26
805.145	4246.27
805.475	4251.47
805.805	4187.07
806.136	4166.5
806.466	4195.43
806.796	4210.79
807.126	4168.31
807.457	4132.83
807.787	4164.24
808.117	4128.31
808.447	4114.75
808.777	4150
809.107	4086.73
809.436	4127.18
809.766	4075.66
810.096	4060.51
810.426	4044.47
810.755	4069.33
811.085	4074.98
811.414	4070.91
811.744	4003.79
812.073	4067.75
812.403	3945.94
812.732	4006.28
813.061	4044.02
813.39	3955.43
813.719	3965.15
814.049	3973.96
814.378	3999.05
814.707	3936
815.036	3961.08
815.365	3930.57
815.693	3893.74
816.022	3891.71
816.351	3901.87
816.68	3874.53
817.008	3924.25
817.337	3861.65
817.665	3828.66
817.994	3853.97
818.322	3863.91
818.651	3841.99
818.979	3806.96
819.307	3814.19
819.636	3805.38
819.964	3832.5
820.292	3787.3
820.62	3802.44
820.948	3803.8
821.276	3781.2
821.604	3848.77
821.932	3814.42
822.259	3782.33
822.587	3805.38
822.915	3769.67
823.243	3781.88
823.57	3770.58
823.898	3798.6
824.225	3780.3
824.553	3778.94
824.88	3805.38
825.207	3800.41
825.535	3786.17
825.862	3792.73
826.189	3761.31
826.516	3802.89
826.843	3775.78
827.17	3745.72
827.497	3795.44
827.824	3787.75
828.151	3854.19
828.478	3790.92
828.805	3799.5
829.131	3749.34
829.458	3796.79
829.785	3797.47
830.111	3809.67
830.438	3822.78
830.764	3774.42
831.09	3790.69
831.417	3798.15
831.743	3762.44
832.069	3775.32
832.395	3736.23
832.722	3784.36
833.048	3775.32
833.374	3769.67
833.7	3753.18
834.026	3794.98
834.351	3758.38
834.677	3743.91
835.003	3765.16
835.329	3723.8
835.654	3710.24
835.98	3739.62
836.306	3721.09
836.631	3696.23
836.956	3736.23
837.282	3742.1
837.607	3713.18
837.932	3675.89
838.258	3664.59
838.583	3632.28
838.908	3668.89
839.233	3693.97
839.558	3704.82
839.883	3675.21
840.208	3669.11
840.533	3641.54
840.858	3648.32
841.182	3650.36
841.507	3637.47
841.832	3658.94
842.156	3662.79
842.481	3618.27
842.805	3620.53
843.13	3613.29
843.454	3608.55
843.778	3565.16
844.103	3575.33
844.427	3594.31
844.751	3611.49
845.075	3584.82
845.399	3521.55
845.723	3543.47
846.047	3567.65
846.371	3495.56
846.695	3499.4
847.019	3472.06
847.343	3497.37
847.666	3488.33
847.99	3454.65
848.313	3471.38
848.637	3457.14
848.96	3455.56
849.284	3395.45
849.607	3361.1
849.931	3393.87
850.254	3349.8
850.577	3321.78
850.9	3338.5
851.223	3334.21
851.546	3327.65
851.869	3333.53
852.192	3320.2
852.515	3314.77
852.838	3292.85
853.161	3281.78
853.483	3262.12
853.806	3237.71
854.129	3249.91
854.451	3221.21
854.774	3218.73
855.096	3196.13
855.419	3218.73
855.741	3212.63
856.063	3160.65
856.385	3185.96
856.708	3129.24
857.03	3152.74
857.352	3155.23
857.674	3148
857.996	3151.39
858.318	3090.82
858.64	3141.22
858.961	3109.13
859.283	3042.24
859.605	3107.09
859.926	3056.25
860.248	3075.68
860.57	3075.46
860.891	3045.85
861.212	3065.51
861.534	3084.5
861.855	3042.69
862.176	3072.97
862.498	3053.31
862.819	3053.31
863.14	3034.33
863.461	3068.68
863.782	3021.22
864.103	3007.21
864.424	2987.55
864.745	3011.28
865.065	2983.48
865.386	3003.59
865.707	2988.9
866.027	2995.91
866.348	2992.29
866.668	3007.66
866.989	2968.11
867.309	2958.17
867.63	2949.58
867.95	2958.17
868.27	2901
868.59	2939.64
868.91	2923.37
869.23	2950.26
869.55	2918.4
869.87	2922.69
870.19	2928.12
870.51	2905.29
870.83	2912.52
871.15	2918.4
871.469	2917.72
871.789	2918.4
872.109	2893.31
872.428	2886.99
872.748	2916.82
873.067	2908.68
873.386	2889.02
873.706	2903.26
874.025	2856.7
874.344	2857.61
874.663	2866.65
874.982	2891.73
875.301	2890.15
875.62	2850.6
875.939	2849.7
876.258	2843.37
876.577	2861.9
876.896	2840.43
877.214	2812.19
877.533	2835.24
877.852	2825.97
878.17	2821.9
878.489	2843.15
878.807	2804.05
879.125	2830.04
879.444	2800.89
879.762	2812.86
880.08	2772.86
880.398	2766.31
880.716	2766.54
881.034	2792.3
881.352	2829.59
881.67	2790.49
881.988	2778.06
882.306	2768.8
882.624	2755.46
882.941	2750.72
883.259	2751.85
883.577	2760.21
883.894	2739.19
884.212	2756.59
884.529	2722.7
884.846	2733.09
885.164	2713.43
885.481	2701.68
885.798	2695.8
886.115	2686.09
886.432	2709.82
886.75	2668.23
887.067	2706.2
887.383	2702.13
887.7	2691.29
888.017	2680.21
888.334	2657.61
888.651	2609.71
888.967	2632.08
889.284	2637.05
889.6	2620.33
889.917	2618.97
890.233	2630.72
890.55	2593.66
890.866	2635.69
891.182	2628.46
891.498	2631.4
891.815	2603.15
892.131	2574.23
892.447	2574.68
892.763	2534
893.079	2580.55
893.395	2547.79
893.71	2550.5
894.026	2556.6
894.342	2523.38
894.657	2528.35
894.973	2537.16
895.289	2541.23
895.604	2525.41
895.92	2486.09
896.235	2477.51
896.55	2519.09
896.865	2478.64
897.181	2487.67
897.496	2483.16
897.811	2485.87
898.126	2473.66
898.441	2461.69
898.756	2435.7
899.071	2421.69
899.386	2449.94
899.7	2410.84
900.015	2398.64
900.33	2407
900.644	2387.11
900.959	2390.05
901.273	2388.69
901.588	2365.64
901.902	2381.91
902.216	2369.49
902.531	2327.9
902.845	2350.28
903.159	2369.71
903.473	2356.15
903.787	2332.88
904.101	2338.75
904.415	2317.96
904.729	2332.2
905.042	2291.97
905.356	2256.49
905.67	2332.2
905.984	2263.05
906.297	2282.93
906.611	2273.44
906.924	2264.86
907.237	2260.34
907.551	2254.69
907.864	2230.51
908.177	2192.77
908.491	2247
908.804	2174.01
909.117	2193.22
909.43	2190.96
909.743	2177.17
910.056	2194.58
910.368	2173.33
910.681	2145.31
910.994	2160.23
911.307	2164.29
911.619	2154.35
911.932	2148.93
912.244	2118.42
912.557	2109.38
912.869	2122.03
913.181	2076.16
913.494	2094.01
913.806	2086.78
914.118	2060.57
914.43	2062.15
914.742	2060.12
915.054	2087.01
915.366	2054.24
915.678	2037.52
915.99	2040.68
916.302	2009.5
916.613	1993.22
916.925	2029.83
917.236	1998.65
917.548	1993.45
917.859	2002.72
918.171	2003.62
918.482	1978.76
918.794	1989.16
919.105	1969.5
919.416	1936.5
919.727	1970.85
920.038	1962.26
920.349	1915.03
920.66	1941.25
920.971	1929.72
921.282	1934.69
921.593	1921.81
921.903	1887.69
922.214	1941.93
922.525	1928.59
922.835	1904.41
923.146	1906.45
923.456	1863.51
923.767	1877.07
924.077	1881.59
924.387	1843.85
924.697	1854.47
925.008	1840.91
925.318	1812.21
925.628	1825.55
925.938	1809.5
926.248	1787.81
926.558	1790.07
926.867	1796.62
927.177	1796.85
927.487	1807.69
927.796	1768.6
928.106	1792.33
928.416	1792.1
928.725	1751.42
929.034	1750.97
929.344	1762.72
929.653	1752.33
929.962	1763.4
930.271	1721.59
930.581	1748.94
930.89	1698.54
931.199	1718.2
931.508	1708.49
931.817	1708.03
932.125	1683.18
932.434	1680.46
932.743	1682.95
933.051	1658.77
933.36	1659
933.669	1654.02
933.977	1680.01
934.286	1661.03
934.594	1625.78
934.902	1638.88
935.21	1643.18
935.519	1657.87
935.827	1646.34
936.135	1614.93
936.443	1629.84
936.751	1611.99
937.059	1636.17
937.367	1589.39
937.674	1580.35
937.982	1575.83
938.29	1574.93
938.597	1590.52
938.905	1579
939.213	1602.73
939.52	1589.39
939.827	1552.11
940.135	1567.25
940.442	1534.93
940.749	1529.96
941.056	1568.6
941.363	1538.77
941.67	1519.56
941.977	1529.28
942.284	1533.58
942.591	1496.29
942.898	1503.97
943.205	1511.88
943.511	1487.02
943.818	1477.98
944.125	1478.21
944.431	1475.72
944.738	1476.4
945.044	1497.42
945.35	1463.29
945.657	1438.66
945.963	1458.32
946.269	1442.96
946.575	1441.15
946.881	1447.93
947.187	1452.45
947.493	1407.48
947.799	1416.52
948.105	1409.06
948.41	1407.03
948.716	1419.23
949.022	1389.17
949.327	1393.24
949.633	1380.81
949.938	1380.81
950.244	1384.65
950.549	1362.96
950.854	1381.94
951.16	1357.76
951.465	1345.78
951.77	1356.63
952.075	1350.3
952.38	1352.56
952.685	1351.66
952.99	1347.37
953.294	1328.16
953.599	1328.38
953.904	1335.61
954.209	1340.36
954.513	1331.32
954.818	1332
955.122	1303.98
955.426	1301.72
955.731	1299.91
956.035	1296.97
956.339	1286.35
956.643	1286.58
956.948	1284.09
957.252	1284.32
957.556	1263.53
957.86	1302.85
958.163	1294.94
958.467	1247.93
958.771	1274.83
959.075	1252
959.378	1264.66
959.682	1252.68
959.985	1219.46
960.289	1237.31
960.592	1228.5
960.896	1224.43
961.199	1249.06
961.502	1226.24
961.805	1212
962.108	1201.61
962.411	1209.06
962.714	1202.51
963.017	1190.53
963.32	1202.51
963.623	1199.8
963.926	1193.92
964.228	1193.7
964.531	1160.03
964.833	1152.79
965.136	1164.09
965.438	1167.48
965.741	1177.88
966.043	1145.79
966.345	1160.25
966.648	1164.32
966.95	1139.69
967.252	1152.34
967.554	1112.8
967.856	1141.72
968.158	1130.87
968.46	1130.2
968.761	1120.03
969.063	1134.04
969.365	1113.25
969.666	1136.98
969.968	1100.82
970.269	1102.4
970.571	1103.53
970.872	1084.1
971.174	1121.38
971.475	1105.11
971.776	1091.78
972.077	1081.38
972.378	1086.36
972.679	1094.04
972.98	1085.68
973.281	1070.31
973.582	1050.65
973.883	1051.1
974.183	1070.31
974.484	1052.01
974.785	1042.51
975.085	1060.14
975.386	1060.82
975.686	1043.19
975.986	1046.58
976.287	1017.66
976.587	1030.31
976.887	1037.32
977.187	1026.92
977.487	1008.84
977.787	992.12
978.087	1025.34
978.387	1017.43
978.687	1031.22
978.987	1005
979.286	991.22
979.586	996.87
979.885	998.67
980.185	980.37
980.484	991.89
980.784	1004.32
981.083	968.62
981.382	968.17
981.682	966.58
981.981	962.52
982.28	981.5
982.579	972.69
982.878	976.53
983.177	943.99
983.475	972.91
983.774	934.95
984.073	939.92
984.372	944.21
984.67	942.18
984.969	938.79
985.267	928.17
985.566	928.85
985.864	924.33
986.162	935.63
986.461	907.6
986.759	935.63
987.057	925.23
987.355	910.09
987.653	904.44
987.951	915.51
988.249	905.12
988.547	917.77
988.844	920.48
989.142	885.23
989.44	908.96
989.737	869.64
990.035	885.68
990.332	873.71
990.63	883.2
990.927	887.49
991.224	886.81
991.521	861.73
991.819	862.63
992.116	874.38
992.413	869.19
992.71	856.31
993.006	856.53
993.303	834.38
993.6	848.4
993.897	859.02
994.193	843.42
994.49	868.96
994.787	844.33
995.083	845.01
995.379	849.75
995.676	838.9
995.972	815.63
996.268	826.02
996.565	823.99
996.861	831.22
997.157	812.24
997.453	800.04
997.749	819.92
998.044	793.03
998.34	789.19
998.636	800.26
998.932	809.75
999.227	786.48
999.523	803.88
999.818	791.45
1000.114	795.74
1000.409	802.52
1000.704	786.93
1001	778.57
1001.295	785.35
1001.59	780.83
1001.885	780.37
1002.18	772.47
1002.475	767.49
1002.77	732.01
1003.065	772.01
1003.359	756.87
1003.654	733.37
1003.949	734.05
1004.243	769.3
1004.538	751.45
1004.832	734.05
1005.127	749.64
1005.421	751.68
1005.715	718.23
1006.009	753.03
1006.304	736.53
1006.598	743.77
1006.892	720.49
1007.186	727.27
1007.48	719.59
1007.773	717.33
1008.067	699.93
1008.361	716.87
1008.655	706.7
1008.948	701.73
1009.242	709.64
1009.535	701.51
1009.829	679.13
1010.122	713.71
1010.415	678.91
1010.708	666.93
1011.001	688.85
1011.295	683.43
1011.588	661.96
1011.881	684.11
1012.173	679.36
1012.466	682.3
1012.759	675.07
1013.052	653.37
1013.344	679.36
1013.637	651.56
1013.93	669.64
1014.222	659.93
1014.514	647.5
1014.807	660.38
1015.099	641.17
1015.391	647.27
1015.683	651.34
1015.976	649.76
1016.268	644.11
1016.56	635.97
1016.851	659.93
1017.143	635.07
1017.435	623.32
1017.727	612.92
1018.018	623.32
1018.31	639.81
1018.602	624.67
1018.893	602.07
1019.185	622.41
1019.476	634.84
1019.767	626.71
1020.058	616.09
1020.35	615.18
1020.641	628.29
1020.932	603.88
1021.223	611.34
1021.514	615.86
1021.804	588.29
1022.095	598.46
1022.386	607.5
1022.677	577.67
1022.967	574.96
1023.258	568.4
1023.548	588.06
1023.839	603.43
1024.129	586.71
1024.419	577.67
1024.709	551.68
1025	565.01
1025.29	570.89
1025.58	597.78
1025.87	579.25
1026.16	563.88
1026.449	560.04
1026.739	569.31
1027.029	549.42
1027.319	555.52
1027.608	556.65
1027.898	544.9
1028.187	542.64
1028.477	552.58
1028.766	548.97
1029.055	557.1
1029.344	535.18
1029.634	552.58
1029.923	536.54
1030.212	547.39
1030.501	548.52
1030.79	555.97
1031.078	517.33
1031.367	536.54
1031.656	541.06
1031.945	500.83
1032.233	534.96
1032.522	523.21
1032.81	530.44
1033.099	513.04
1033.387	513.49
1033.675	507.16
1033.963	497.22
1034.251	500.83
1034.54	511.46
1034.828	498.12
1035.116	499.93
1035.403	497.22
1035.691	513.26
1035.979	495.41
1036.267	479.82
1036.554	508.52
1036.842	512.13
1037.129	502.64
1037.417	476.2
1037.704	481.63
1037.992	480.04
1038.279	496.54
1038.566	501.51
1038.853	501.51
1039.14	501.51
