Data from mousepad_grey_FLMS001491_00062.txt Node
Date: Wed Feb 08 14:29:45 GMT 2017
User: dcchb
Spectrometer: FLMS00149
Trigger mode: 0
Integration Time (sec): 2.000000E-2
Scans to average: 10
Electric dark correction enabled: true
Nonlinearity correction enabled: false
Boxcar width: 0
XAxis mode: Wavelengths
Number of Pixels in Spectrum: 2048
>>>>>Begin Spectral Data<<<<<
341.393	-17.08
341.776	-17.08
342.16	-17.08
342.543	-78.09
342.927	-82.38
343.31	-69.96
343.693	-52.56
344.077	-48.26
344.46	-56.62
344.843	-64.31
345.226	-43.74
345.61	-40.8
345.993	-18.88
346.376	-0.81
346.759	26.31
347.142	22.92
347.525	40.78
347.908	54.79
348.291	64.05
348.674	84.62
349.057	102.47
349.44	113.09
349.823	138.85
350.206	141.79
350.588	190.15
350.971	184.05
351.354	204.16
351.737	214.33
352.119	238.51
352.502	244.84
352.884	246.19
353.267	254.1
353.65	254.1
354.032	273.99
354.414	273.76
354.797	276.25
355.179	293.2
355.562	318.06
355.944	309.24
356.326	320.09
356.709	308.79
357.091	304.27
357.473	317.6
357.855	337.94
358.238	329.58
358.62	313.31
359.002	298.17
359.384	306.53
359.766	311.05
360.148	302.24
360.53	332.97
360.912	335.01
361.294	309.02
361.676	304.5
362.057	313.08
362.439	313.54
362.821	303.59
363.203	314.67
363.584	291.39
363.966	296.14
364.348	291.62
364.729	315.8
365.111	312.63
365.493	311.05
365.874	311.28
366.256	301.79
366.637	305.18
367.019	301.33
367.4	303.82
367.781	290.26
368.163	276.25
368.544	289.36
368.925	269.7
369.306	290.26
369.688	312.41
370.069	294.78
370.45	277.83
370.831	292.97
371.212	279.87
371.593	299.98
371.974	288
372.355	292.75
372.736	312.86
373.117	288
373.498	294.1
373.879	292.07
374.26	296.14
374.641	297.04
375.021	294.78
375.402	305.63
375.783	310.37
376.163	318.73
376.544	297.72
376.925	294.33
377.305	309.02
377.686	288.9
378.066	308.34
378.447	303.59
378.827	291.39
379.208	316.02
379.588	307.44
379.968	310.15
380.349	298.85
380.729	288.23
381.109	316.25
381.489	310.6
381.87	322.8
382.25	302.92
382.63	332.29
383.01	309.92
383.39	337.27
383.77	320.09
384.15	310.37
384.53	312.86
384.91	339.3
385.29	305.85
385.67	328
386.049	338.4
386.429	315.12
386.809	341.33
387.189	336.59
387.568	328.23
387.948	330.26
388.328	330.26
388.707	336.81
389.087	366.87
389.466	385.4
389.846	328.68
390.225	336.59
390.605	337.04
390.984	351.73
391.363	326.19
391.743	339.98
392.122	351.28
392.501	349.47
392.881	354.89
393.26	372.29
393.639	374.78
394.018	376.36
394.397	344.95
394.776	372.74
395.155	375
395.534	386.08
395.913	346.76
396.292	355.12
396.671	376.13
397.05	368
397.429	372.07
397.808	365.74
398.186	377.94
398.565	383.37
398.944	376.59
399.323	379.3
399.701	377.04
400.08	377.26
400.458	391.5
400.837	375
401.215	386.98
401.594	418.84
401.972	377.04
402.351	400.77
402.729	410.71
403.107	403.03
403.486	393.76
403.864	401.9
404.242	409.35
404.62	399.18
404.999	414.55
405.377	402.8
405.755	409.81
406.133	424.04
406.511	414.1
406.889	409.13
407.267	422.23
407.645	433.99
408.023	417.72
408.401	428.79
408.779	410.48
409.156	445.06
409.534	452.29
409.912	435.57
410.29	446.41
410.667	461.33
411.045	452.97
411.422	463.14
411.8	444.15
412.178	477.6
412.555	454.32
412.933	459.75
413.31	473.31
413.687	492.97
414.065	477.6
414.442	480.09
414.819	493.19
415.197	486.64
415.574	495
415.951	510.82
416.328	490.03
416.705	502.46
417.082	514.89
417.46	484.83
417.837	518.96
418.214	528.67
418.591	499.07
418.967	515.79
419.344	533.64
419.721	542.46
420.098	515.34
420.475	536.36
420.852	526.86
421.228	532.29
421.605	539.97
421.982	549.46
422.358	544.04
422.735	536.58
423.111	571.61
423.488	544.72
423.864	562.34
424.241	546.07
424.617	561.67
424.994	578.39
425.37	556.47
425.746	582.91
426.123	580.65
426.499	593.76
426.875	602.79
427.251	585.39
427.627	596.69
428.003	602.12
428.379	608.44
428.756	611.16
429.132	614.09
429.507	632.62
429.883	609.8
430.259	627.88
430.635	637.37
431.011	655.67
431.387	647.77
431.763	652.06
432.138	660.42
432.514	671.95
432.89	688.67
433.265	689.12
433.641	706.97
434.016	683.02
434.392	682.11
434.767	707.65
435.143	709.68
435.518	685.05
435.894	748.78
436.269	713.98
436.644	738.61
437.02	754.88
437.395	758.27
437.77	762.79
438.145	742.23
438.52	798.95
438.895	764.15
439.271	764.6
439.646	773.41
440.021	782.23
440.395	794.88
440.77	800.3
441.145	792.39
441.52	808.89
441.895	798.5
442.27	821.55
442.645	831.94
443.019	843.24
443.394	838.49
443.769	841.43
444.143	848.89
444.518	837.36
444.892	826.52
445.267	835.56
445.641	857.48
446.016	870.81
446.39	854.31
446.764	885.5
447.139	887.76
447.513	863.58
447.887	905.16
448.262	903.58
448.636	906.74
449.01	899.74
449.384	902.9
449.758	926.18
450.132	932.96
450.506	926.85
450.88	938.83
451.254	916.23
451.628	927.76
452.002	947.87
452.376	931.83
452.75	965.27
453.123	957.81
453.497	993.75
453.871	996.46
454.244	979.96
454.618	1003.69
454.992	1012.95
455.365	1001.43
455.739	1045.72
456.112	1039.39
456.486	1036.91
456.859	1070.13
457.232	1091.14
457.606	1079.17
457.979	1100.18
458.352	1100.86
458.725	1125.04
459.099	1134.98
459.472	1167.98
459.845	1174.76
460.218	1183.8
460.591	1160.97
460.964	1177.02
461.337	1189.22
461.71	1206.39
462.083	1225.38
462.456	1235.77
462.829	1200.52
463.201	1259.05
463.574	1255.43
463.947	1271.93
464.32	1270.35
464.692	1316.9
465.065	1330.69
465.438	1325.04
465.81	1326.84
466.183	1353.96
466.555	1394.64
466.928	1357.13
467.3	1384.02
467.672	1405.03
468.045	1424.69
468.417	1421.08
468.789	1438.48
469.161	1459.5
469.534	1492.49
469.906	1501.75
470.278	1504.69
470.65	1528.65
471.022	1550.79
471.394	1580.4
471.766	1579.49
472.138	1628.98
472.51	1620.85
472.882	1652.48
473.253	1650.68
473.625	1672.37
473.997	1745.59
474.369	1737.68
474.74	1763.22
475.112	1776.32
475.484	1797.34
475.855	1811.58
476.227	1832.14
476.598	1896.55
476.97	1882.99
477.341	1940.84
477.713	1946.71
478.084	1977.45
478.455	2024.9
478.827	2046.6
479.198	2082.98
479.569	2093.83
479.94	2124.56
480.311	2167.73
480.682	2171.57
481.053	2224.9
481.424	2273.94
481.795	2278.01
482.166	2336.31
482.537	2336.99
482.908	2376.08
483.279	2397.78
483.65	2461.5
484.021	2475.51
484.391	2508.73
484.762	2522.29
485.133	2529.75
485.503	2562.52
485.874	2608.39
486.244	2669.41
486.615	2678.45
486.985	2737.2
487.356	2784.43
487.726	2808.39
488.097	2826.01
488.467	2818.33
488.837	2915.73
489.207	2931.55
489.578	2952.34
489.948	2992.79
490.318	3043.41
490.688	3055.16
491.058	3095.16
491.428	3100.13
491.798	3200.69
492.168	3182.84
492.538	3229.17
492.908	3244.53
493.278	3337.86
493.648	3312.55
494.017	3354.36
494.387	3367.24
494.757	3404.08
495.126	3433.68
495.496	3468.26
495.866	3475.04
496.235	3488.14
496.605	3504.64
496.974	3532.44
497.344	3606.56
497.713	3654.92
498.082	3598.87
498.452	3649.04
498.821	3713.67
499.19	3707.35
499.559	3752.54
499.928	3745.54
500.298	3786.21
500.667	3831.18
501.036	3791.19
501.405	3816.95
501.774	3874.57
502.143	3897.85
502.512	3931.29
502.88	3930.17
503.249	3933.33
503.618	3980.33
503.987	4015.36
504.356	4021.91
504.724	4070.73
505.093	4096.71
505.462	4130.16
505.83	4087
506.199	4189.82
506.567	4210.61
506.936	4189.82
507.304	4226.88
507.672	4236.37
508.041	4274.56
508.409	4299.42
508.777	4341.68
509.145	4436.14
509.514	4391.4
509.882	4423.49
510.25	4436.14
510.618	4426.2
510.986	4490.38
511.354	4533.54
511.722	4551.62
512.09	4576.48
512.458	4555.91
512.826	4648.11
513.193	4677.94
513.561	4683.59
513.929	4719.97
514.297	4782.8
514.664	4796.81
515.032	4788
515.4	4853.76
515.767	4883.59
516.135	4897.82
516.502	4896.47
516.869	4983.47
517.237	4999.52
517.604	4985.96
517.972	5045.39
518.339	5089.68
518.706	5064.82
519.073	5108.67
519.44	5175.78
519.808	5184.37
520.175	5172.17
520.542	5225.5
520.909	5297.36
521.276	5301.43
521.643	5364.7
522.009	5401.54
522.376	5419.17
522.743	5475.44
523.11	5539.61
523.477	5537.58
523.843	5573.29
524.21	5674.07
524.577	5694.19
524.943	5698.93
525.31	5722.89
525.676	5780.29
526.043	5779.83
526.409	5836.1
526.776	5908.42
527.142	5924.91
527.508	5943.67
527.874	5982.09
528.241	6039.04
528.607	6049.66
528.973	6112.48
529.339	6116.55
529.705	6164
530.071	6210.78
530.437	6225.25
530.803	6297.79
531.169	6383.89
531.535	6331.23
531.901	6331.46
532.267	6343.21
532.632	6463.88
532.998	6467.73
533.364	6488.97
533.73	6486.48
534.095	6601.51
534.461	6593.6
534.826	6635.18
535.192	6664.78
535.557	6694.61
535.923	6697.78
536.288	6746.81
536.653	6821.84
537.019	6810.99
537.384	6848.96
537.749	6821.61
538.114	6877.43
538.479	6910.88
538.845	6948.62
539.21	6962.63
539.575	7005.79
539.94	7029.74
540.305	7063.87
540.67	7088.05
541.034	7064.55
541.399	7103.41
541.764	7167.82
542.129	7153.36
542.494	7187.03
542.858	7194.94
543.223	7241.94
543.587	7287.82
543.952	7298.21
544.316	7369.62
544.681	7331.21
545.045	7387.7
545.41	7384.76
545.774	7456.85
546.138	7549.28
546.503	7468.38
546.867	7500.92
547.231	7598.32
547.595	7620.69
547.959	7703.17
548.324	7664.53
548.688	7627.02
549.052	7745.43
549.416	7754.7
549.779	7778.2
550.143	7821.14
550.507	7833.11
550.871	7901.81
551.235	7923.96
551.599	7935.71
551.962	7936.39
552.326	8027.23
552.689	8041.02
553.053	7987.23
553.417	8045.76
553.78	8147.68
554.143	8152.88
554.507	8209.6
554.87	8248.24
555.234	8298.86
555.597	8262.48
555.96	8296.15
556.323	8345.42
556.686	8362.36
557.05	8418.63
557.413	8462.02
557.776	8514
558.139	8566.88
558.502	8514.45
558.865	8559.65
559.228	8574.56
559.59	8620.89
559.953	8676.71
560.316	8742.24
560.679	8733.88
561.041	8850.71
561.404	8853.2
561.767	8897.04
562.129	8865.18
562.492	8973.2
562.854	8923.93
563.217	8923.25
563.579	9025.4
563.941	9082.35
564.304	9094.1
564.666	9155.11
565.028	9203.47
565.39	9171.84
565.753	9297.26
566.115	9350.81
566.477	9327.76
566.839	9351.27
567.201	9373.86
567.563	9430.13
567.925	9569.56
568.287	9548.32
568.648	9493.63
569.01	9660.41
569.372	9703.12
569.734	9690.24
570.095	9682.1
570.457	9720.75
570.819	9802.1
571.18	9776.34
571.542	9873.51
571.903	9842.33
572.265	9805.94
572.626	9889.1
572.987	9948.76
573.349	9961.42
573.71	10020.4
574.071	9999.84
574.432	10096.1
574.794	10129.78
575.155	10144.92
575.516	10089.1
575.877	10134.07
576.238	10181.53
576.599	10130.23
576.96	10265.59
577.32	10298.81
577.681	10304.46
578.042	10283.22
578.403	10300.39
578.763	10319.6
579.124	10422.65
579.485	10419.71
579.845	10406.6
580.206	10391.46
580.566	10455.64
580.927	10442.99
581.287	10488.41
581.648	10502.65
582.008	10495.64
582.368	10535.42
582.728	10542.19
583.089	10501.52
583.449	10499.03
583.809	10558.24
584.169	10610.44
584.529	10507.39
584.889	10609.54
585.249	10547.39
585.609	10522.53
585.969	10600.05
586.329	10550.1
586.688	10573.15
587.048	10644.56
587.408	10606.83
587.768	10563.66
588.127	10562.53
588.487	10548.75
588.846	10645.02
589.206	10625.13
589.565	10584.68
589.925	10711.46
590.284	10564.79
590.643	10659.03
591.003	10624.45
591.362	10742.64
591.721	10587.62
592.08	10595.07
592.44	10711.91
592.799	10675.75
593.158	10689.76
593.517	10612.93
593.876	10722.53
594.235	10668.29
594.593	10712.13
594.952	10698.35
595.311	10640.05
595.67	10706.71
596.029	10728.18
596.387	10722.3
596.746	10796.65
597.104	10750.32
597.463	10668.07
597.822	10767.73
598.18	10720.04
598.538	10696.99
598.897	10758.46
599.255	10698.35
599.613	10854.5
599.972	10790.32
600.33	10827.38
600.688	10786.71
601.046	10798.68
601.404	10893.37
601.762	10888.17
602.12	10884.56
602.478	10906.25
602.836	10829.42
603.194	10838.46
603.552	10832.81
603.91	10776.31
604.268	10822.41
604.625	10840.49
604.983	10884.33
605.341	10798.91
605.698	10874.84
606.056	10991.9
606.413	10849.53
606.771	10931.11
607.128	10958.45
607.485	10899.02
607.843	10875.07
608.2	11000.71
608.557	11045.23
608.914	10986.25
609.272	11118
609.629	11063.08
609.986	11116.64
610.343	11007.95
610.7	11088.62
611.057	11081.39
611.414	11040.49
611.771	11098.79
612.127	11111.45
612.484	11145.12
612.841	11156.42
613.198	11132.46
613.554	11157.32
613.911	11196.19
614.267	11149.18
614.624	11181.5
614.98	11244.55
615.337	11242.06
615.693	11205.23
616.05	11190.09
616.406	11256.53
616.762	11329.07
617.118	11232.57
617.475	11320.71
617.831	11309.41
618.187	11266.02
618.543	11330.65
618.899	11345.79
619.255	11305.11
619.611	11327.48
619.967	11297.65
620.323	11410.19
620.678	11232.12
621.034	11366.81
621.39	11352.57
621.746	11288.84
622.101	11472.34
622.457	11370.42
622.812	11340.82
623.168	11422.4
623.523	11421.49
623.879	11413.81
624.234	11381.49
624.589	11386.92
624.945	11353.02
625.3	11524.77
625.655	11451.32
626.01	11436.63
626.365	11422.62
626.72	11420.14
627.075	11468.05
627.43	11480.47
627.785	11361.38
628.14	11403.41
628.495	11446.13
628.85	11410.42
629.205	11326.58
629.559	11485.22
629.914	11367.26
630.269	11415.62
630.623	11413.58
630.978	11344.21
631.332	11387.82
631.687	11442.74
632.041	11369.97
632.396	11396.18
632.75	11244.77
633.104	11292.01
633.459	11316.19
633.813	11276.19
634.167	11279.35
634.521	11232.8
634.875	11373.59
635.229	11316.41
635.583	11227.83
635.937	11245
636.291	11243.19
636.645	11182.4
636.999	11252.23
637.352	11256.53
637.706	11168.39
638.06	11252.23
638.413	11177.43
638.767	11207.49
639.121	11155.74
639.474	11120.03
639.828	11141.5
640.181	11192.35
640.534	11204.78
640.888	11107.83
641.241	11101.73
641.594	11049.98
641.947	11115.29
642.301	11117.32
642.654	11070.77
643.007	11062.86
643.36	11022.18
643.713	11083.42
644.066	11095.4
644.419	11078.9
644.771	10997.32
645.124	10879.13
645.477	10810.66
645.83	10798.01
646.182	10729.31
646.535	10755.75
646.888	10751.23
647.24	10696.31
647.593	10730.66
647.945	10745.58
648.298	10707.84
648.65	10682.53
649.002	10682.98
649.355	10680.27
649.707	10709.65
650.059	10831.23
650.411	10888.85
650.763	10828.74
651.115	10943.31
651.467	10942.18
651.819	10911.9
652.171	11004.33
652.523	10898.57
652.875	10963.65
653.227	10918.46
653.578	11021.73
653.93	10882.3
654.282	10901.73
654.633	10885.01
654.985	10960.26
655.337	10851.56
655.688	10874.16
656.039	10930.21
656.391	10834.84
656.742	10883.2
657.094	10890.66
657.445	10909.64
657.796	10897.89
658.147	10932.92
658.498	10913.94
658.849	10862.64
659.2	10831.45
659.551	10865.35
659.902	10901.06
660.253	10831.23
660.604	10892.24
660.955	10819.25
661.306	10921.62
661.656	10889.76
662.007	10849.53
662.358	10847.5
662.708	10906.7
663.059	10898.34
663.409	10802.98
663.76	10914.84
664.11	10925.91
664.461	10896.54
664.811	10871.9
665.161	10816.31
665.511	10853.82
665.862	10890.43
666.212	10907.16
666.562	10917.78
666.912	10872.36
667.262	10897.21
667.612	10816.09
667.962	10936.53
668.312	10973.14
668.662	10835.52
669.011	10866.25
669.361	10869.64
669.711	10831.45
670.06	10762.3
670.41	10815.86
670.76	10806.14
671.109	10866.93
671.459	10820.15
671.808	10742.87
672.157	10817.89
672.507	10774.96
672.856	10755.3
673.205	10758.46
673.554	10729.76
673.904	10709.42
674.253	10784.67
674.602	10809.31
674.951	10594.17
675.3	10568.41
675.649	10707.16
675.998	10716.65
676.346	10694.05
676.695	10770.66
677.044	10609.99
677.393	10672.36
677.741	10763.21
678.09	10628.52
678.438	10680.5
678.787	10673.04
679.135	10612.48
679.484	10554.85
679.832	10658.12
680.181	10564.34
680.529	10537.9
680.877	10593.94
681.225	10492.48
681.573	10678.01
681.922	10464
682.27	10554.4
682.618	10530.44
682.966	10432.14
683.314	10512.82
683.661	10428.75
684.009	10426.94
684.357	10360.28
684.705	10344.69
685.053	10309.43
685.4	10336.78
685.748	10357.34
686.095	10281.86
686.443	10319.15
686.79	10273.95
687.138	10283.22
687.485	10269.21
687.832	10165.93
688.18	10208.87
688.527	10158.93
688.874	10200.96
689.221	10112.83
689.568	10164.58
689.915	10076.67
690.262	10028.08
690.609	9997.35
690.956	10023.79
691.303	9971.36
691.65	9966.62
691.997	9954.41
692.344	9914.87
692.69	9878.26
693.037	9874.19
693.383	9800.07
693.73	9809.56
694.077	9811.37
694.423	9744.25
694.769	9735.44
695.116	9660.64
695.462	9750.8
695.808	9634.42
696.155	9700.63
696.501	9630.81
696.847	9605.5
697.193	9509.23
697.539	9538.38
697.885	9400.3
698.231	9460.19
698.577	9452.96
698.923	9367.76
699.269	9370.7
699.614	9266.97
699.96	9330.48
700.306	9356.91
700.651	9301.78
700.997	9221.55
701.342	9201.66
701.688	9109.01
702.033	9175.68
702.379	9186.3
702.724	9158.5
703.069	9122.8
703.415	9023.36
703.76	9049.13
704.105	9069.46
704.45	9042.12
704.795	8973.2
705.14	8932.97
705.485	8948.11
705.83	8918.51
706.175	8897.49
706.52	8859.07
706.865	8812.52
707.209	8836.25
707.554	8823.14
707.899	8816.82
708.243	8769.59
708.588	8743.82
708.932	8664.96
709.277	8672.64
709.621	8709.7
709.966	8581.12
710.31	8646.43
710.654	8618.63
710.998	8571.85
711.342	8578.86
711.687	8528.69
712.031	8476.49
712.375	8542.7
712.719	8502.47
713.063	8486.2
713.407	8563.49
713.75	8443.04
714.094	8527.78
714.438	8425.41
714.782	8439.88
715.125	8453.89
715.469	8466.54
715.812	8407.79
716.156	8361.69
716.499	8348.81
716.843	8368.01
717.186	8299.32
717.53	8292.99
717.873	8372.76
718.216	8354
718.559	8274.91
718.902	8221.58
719.246	8257.06
719.589	8225.87
719.932	8271.52
720.275	8241.24
720.617	8256.38
720.96	8197.4
721.303	8215.25
721.646	8249.83
721.989	8157.4
722.331	8156.72
722.674	8079.66
723.016	8234.91
723.359	8215.93
723.701	8186.1
724.044	8151.97
724.386	8064.07
724.729	8158.98
725.071	8188.58
725.413	8114.46
725.755	8165.76
726.097	8096.16
726.439	8043.05
726.782	8143.39
727.124	8102.26
727.465	8102.71
727.807	8070.85
728.149	8012.77
728.491	8060.9
728.833	8042.15
729.175	7999.21
729.516	8006.89
729.858	8050.73
730.199	8012.32
730.541	8010.51
730.882	8077.17
731.224	8062.94
731.565	8002.37
731.906	8045.54
732.248	8027.46
732.589	7952.43
732.93	7941.36
733.271	7986.78
733.612	7933.22
733.953	7933.45
734.294	7912.43
734.635	7913.34
734.976	8004.86
735.317	7971.64
735.658	7943.84
735.999	7973
736.339	7902.04
736.68	7926.67
737.021	7989.72
737.361	7887.35
737.702	7958.31
738.042	7934.35
738.383	7906.11
738.723	7902.26
739.063	7921.7
739.404	7923.05
739.744	7892.55
740.084	7916.05
740.424	7903.85
740.764	7844.86
741.104	7925.99
741.444	7878.99
741.784	7863.62
742.124	7888.25
742.464	7876.05
742.804	7839.89
743.143	7806.67
743.483	7862.27
743.823	7821.81
744.162	7850.29
744.502	7839.89
744.841	7815.26
745.181	7867.46
745.52	7817.07
745.86	7838.31
746.199	7782.95
746.538	7800.12
746.877	7872.66
747.216	7855.03
747.556	7833.34
747.895	7794.47
748.234	7807.13
748.573	7775.71
748.911	7814.13
749.25	7741.14
749.589	7790.85
749.928	7798.54
750.267	7791.31
750.605	7712.66
750.944	7776.84
751.283	7712.44
751.621	7780.01
751.96	7710.4
752.298	7700.91
752.636	7683.96
752.975	7712.66
753.313	7646
753.651	7711.99
753.989	7622.27
754.327	7646.9
754.666	7621.37
755.004	7614.59
755.342	7629.73
755.679	7667.69
756.017	7513.35
756.355	7570.75
756.693	7566
757.031	7626.79
757.368	7517.87
757.706	7500.01
758.044	7493.24
758.381	7463.86
758.719	7460.02
759.056	7425.89
759.394	7453.91
759.731	7441.49
760.068	7418.89
760.405	7407.81
760.743	7290.53
761.08	7366.23
761.417	7329.62
761.754	7303.41
762.091	7350.19
762.428	7301.15
762.765	7260.47
763.102	7312.22
763.438	7241.94
763.775	7175.28
764.112	7253.69
764.449	7218.89
764.785	7152
765.122	7096.41
765.458	7119.23
765.795	7100.7
766.131	7159.01
766.467	7073.36
766.804	7019.12
767.14	6991.55
767.476	6970.99
767.812	7027.71
768.148	6955.4
768.485	6984.55
768.821	6922.4
769.157	6883.76
769.492	6865.23
769.828	6883.08
770.164	6842.86
770.5	6848.73
770.836	6873.59
771.171	6783.42
771.507	6741.39
771.842	6749.3
772.178	6737.32
772.513	6739.36
772.849	6704.33
773.184	6693.93
773.519	6648.29
773.855	6621.62
774.19	6591.34
774.525	6552.92
774.86	6552.92
775.195	6549.08
775.53	6531.45
775.865	6504.79
776.2	6428.86
776.535	6456.65
776.87	6372.81
777.205	6403.55
777.539	6319.71
777.874	6392.02
778.209	6346.6
778.543	6265.47
778.878	6265.02
779.212	6300.5
779.547	6203.33
779.881	6267.28
780.215	6205.81
780.55	6187.05
780.884	6142.08
781.218	6132.37
781.552	6183.44
781.886	6088.07
782.22	6080.84
782.554	6059.83
782.888	6012.37
783.222	6030.45
783.556	5984.57
783.889	5979.38
784.223	5922.2
784.557	5945.71
784.89	5977.34
785.224	5905.25
785.557	5873.84
785.891	5882.43
786.224	5814.64
786.558	5896.89
786.891	5794.97
787.224	5765.37
787.557	5778.25
787.891	5745.03
788.224	5760.4
788.557	5734.86
788.89	5709.33
789.223	5714.07
789.556	5598.14
789.888	5634.53
790.221	5631.36
790.554	5637.69
790.887	5580.29
791.219	5585.04
791.552	5546.39
791.884	5533.96
792.217	5521.99
792.549	5513.4
792.882	5441.31
793.214	5490.58
793.546	5504.81
793.879	5460.75
794.211	5437.02
794.543	5407.41
794.875	5365.61
795.207	5364.25
795.539	5343.69
795.871	5397.02
796.203	5317.47
796.535	5285.61
796.867	5331.26
797.198	5257.14
797.53	5266.85
797.862	5264.37
798.193	5249.68
798.525	5212.39
798.856	5210.81
799.188	5182.11
799.519	5156.35
799.85	5082
800.182	5163.8
800.513	5163.58
800.844	5072.96
801.175	5078.38
801.506	5083.13
801.837	5049.23
802.168	5101.66
802.499	5039.51
802.83	5044.03
803.161	5008.1
803.491	4985.05
803.822	5002.23
804.153	4978.73
804.483	4917.26
804.814	4941.21
805.145	4886.75
805.475	4923.59
805.805	4882.46
806.136	4879.74
806.466	4880.65
806.796	4846.98
807.126	4838.39
807.457	4823.7
807.787	4820.31
808.117	4863.7
808.447	4846.98
808.777	4815.34
809.107	4807.43
809.436	4767.66
809.766	4798.84
810.096	4752.29
810.426	4734.44
810.755	4722.46
811.085	4712.97
811.414	4705.96
811.744	4678.85
812.073	4686.08
812.403	4693.08
812.732	4681.11
813.061	4654.44
813.39	4658.73
813.719	4598.85
814.049	4626.19
814.378	4609.92
814.707	4590.71
815.036	4614.67
815.365	4568.57
815.693	4498.74
816.022	4508.45
816.351	4548.45
816.68	4527.21
817.008	4488.34
817.337	4498.51
817.665	4475.69
817.994	4498.06
818.322	4494.9
818.651	4462.81
818.979	4444.5
819.307	4449.93
819.636	4464.39
819.964	4426.2
820.292	4428.01
820.62	4435.69
820.948	4498.06
821.276	4429.59
821.604	4378.74
821.932	4417.61
822.259	4370.83
822.587	4412.86
822.915	4444.95
823.243	4409.93
823.57	4393.88
823.898	4423.03
824.225	4382.13
824.553	4373.09
824.88	4331.28
825.207	4417.84
825.535	4374.67
825.862	4405.63
826.189	4396.14
826.516	4406.54
826.843	4407.89
827.17	4383.03
827.497	4354.56
827.824	4366.76
828.151	4395.46
828.478	4427.33
828.805	4386.88
829.131	4415.35
829.458	4374.22
829.785	4390.72
830.111	4389.36
830.438	4383.03
830.764	4434.33
831.09	4411.96
831.417	4365.86
831.743	4353.43
832.069	4356.14
832.395	4363.83
832.722	4341
833.048	4343.26
833.374	4417.16
833.7	4370.38
834.026	4340.32
834.351	4379.19
834.677	4338.06
835.003	4339.42
835.329	4313.88
835.654	4323.15
835.98	4351.4
836.306	4341.68
836.631	4306.2
836.956	4322.02
837.282	4284.05
837.607	4280.44
837.932	4250.61
838.258	4273.43
838.583	4281.57
838.908	4254.45
839.233	4283.6
839.558	4239.76
839.883	4251.96
840.208	4254.68
840.533	4223.26
840.858	4218.75
841.182	4195.02
841.507	4195.24
841.832	4232.53
842.156	4186.2
842.481	4208.58
842.805	4182.14
843.13	4145.75
843.454	4152.08
843.778	4142.14
844.103	4136.49
844.427	4152.98
844.751	4177.16
845.075	4142.36
845.399	4105.08
845.723	4071.63
846.047	4124.51
846.371	4071.18
846.695	4082.03
847.019	4026.43
847.343	4046.55
847.666	4026.89
847.99	3993.89
848.313	3990.5
848.637	3958.86
848.96	3958.64
849.284	3945.98
849.607	3956.83
849.931	3943.27
850.254	3868.25
850.577	3877.06
850.9	3884.97
851.223	3826.21
851.546	3855.36
851.869	3815.37
852.192	3853.1
852.515	3799.32
852.838	3802.26
853.161	3766.55
853.483	3751.41
853.806	3788.93
854.129	3757.74
854.451	3716.39
854.774	3694.92
855.096	3709.38
855.419	3690.85
855.741	3673.45
856.063	3659.21
856.385	3666.22
856.708	3676.16
857.03	3633.45
857.352	3646.56
857.674	3632.32
857.996	3601.81
858.318	3634.35
858.64	3598.65
858.961	3574.69
859.283	3548.25
859.605	3577.41
859.926	3577.86
860.248	3543.28
860.57	3556.16
860.891	3546.45
861.212	3568.59
861.534	3518.42
861.855	3510.06
862.176	3520.01
862.498	3522.04
862.819	3544.19
863.14	3515.03
863.461	3506.22
863.782	3494.7
864.103	3486.11
864.424	3448.37
864.745	3477.52
865.065	3450.86
865.386	3435.04
865.707	3448.37
866.027	3398.43
866.348	3430.74
866.668	3444.53
866.989	3447.69
867.309	3423.29
867.63	3441.36
867.95	3382.38
868.27	3393.46
868.59	3390.07
868.91	3402.27
869.23	3373.8
869.55	3382.16
869.87	3418.54
870.19	3380.35
870.51	3394.81
870.83	3379.22
871.15	3365.89
871.469	3386.22
871.789	3359.11
872.109	3357.75
872.428	3332.67
872.748	3355.26
873.067	3322.5
873.386	3368.37
873.706	3342.16
874.025	3295.38
874.344	3278.88
874.663	3346.45
874.982	3314.14
875.301	3309.84
875.62	3288.83
875.939	3264.65
876.258	3272.1
876.577	3272.1
876.896	3256.06
877.214	3238.66
877.533	3266.91
877.852	3256.96
878.17	3251.54
878.489	3222.61
878.807	3256.28
879.125	3223.52
879.444	3230.52
879.762	3238.66
880.08	3229.84
880.398	3204.08
880.716	3172.44
881.034	3199.11
881.352	3182.39
881.67	3216.51
881.988	3196.17
882.306	3186.23
882.624	3176.29
882.941	3174.03
883.259	3183.97
883.577	3165.21
883.894	3143.97
884.212	3119.11
884.529	3138.32
884.846	3140.81
885.164	3157.3
885.481	3142.16
885.798	3131.09
886.115	3071.2
886.432	3127.02
886.75	3089.28
887.067	3087.02
887.383	3106.23
887.7	3095.84
888.017	3074.82
888.334	3051.77
888.651	3096.29
888.967	3038.89
889.284	3023.52
889.6	3012.45
889.917	3047.25
890.233	3013.35
890.55	3014.48
890.866	3018.55
891.182	3001.38
891.498	2992.79
891.815	2975.84
892.131	2975.61
892.447	2962.51
892.763	2956.18
893.079	2954.37
893.395	2942.17
893.71	2954.82
894.026	2921.15
894.342	2946.91
894.657	2908.27
894.973	2908.95
895.289	2923.19
895.604	2921.6
895.92	2852.23
896.235	2860.81
896.55	2878.89
896.865	2879.8
897.181	2865.79
897.496	2833.24
897.811	2831.89
898.126	2814.71
898.441	2833.02
898.756	2816.07
899.071	2792.34
899.386	2797.77
899.7	2815.62
900.015	2758.9
900.33	2778.33
900.644	2758.44
900.959	2721.61
901.273	2713.02
901.588	2716.86
901.902	2697.43
902.216	2697.66
902.531	2699.46
902.845	2685.9
903.159	2670.31
903.473	2672.34
903.787	2679.8
904.101	2659.46
904.415	2633.7
904.729	2659.92
905.042	2642.74
905.356	2647.49
905.67	2578.11
905.984	2626.7
906.297	2617.43
906.611	2610.65
906.924	2616.53
907.237	2624.66
907.551	2620.37
907.864	2559.35
908.177	2528.62
908.491	2540.6
908.804	2573.36
909.117	2495.4
909.43	2485.23
909.743	2540.82
910.056	2472.58
910.368	2463.31
910.681	2473.03
910.994	2504.44
911.307	2442.75
911.619	2448.85
911.932	2408.62
912.244	2427.38
912.557	2426.7
912.869	2409.3
913.181	2372.24
913.494	2398.23
913.806	2391.67
914.118	2411.79
914.43	2373.6
914.742	2376.31
915.054	2365.91
915.366	2320.26
915.678	2301.51
915.99	2326.59
916.302	2308.51
916.613	2341.73
916.925	2318.91
917.236	2322.52
917.548	2307.83
917.859	2278.68
918.171	2301.73
918.482	2279.13
918.794	2250.44
919.105	2248.18
919.416	2239.59
919.727	2220.83
920.038	2227.38
920.349	2233.71
920.66	2189.42
920.971	2179.7
921.282	2185.13
921.593	2188.52
921.903	2191.91
922.214	2194.84
922.525	2188.74
922.835	2141.96
923.146	2162.3
923.456	2153.26
923.767	2128.86
924.077	2125.69
924.387	2131.12
924.697	2081.4
925.008	2090.89
925.318	2081.17
925.628	2104.22
925.938	2063.1
926.248	2063.1
926.558	2041.85
926.867	2058.35
927.177	2055.19
927.487	2032.36
927.796	2010.22
928.106	2014.28
928.416	2014.51
928.725	2020.84
929.034	2006.15
929.344	2023.32
929.653	1982.65
929.962	2002.31
930.271	1993.94
930.581	1980.16
930.89	1955.75
931.199	1947.62
931.508	1967.5
931.817	1970.22
932.125	1948.3
932.434	1926.15
932.743	1913.49
933.051	1913.27
933.36	1875.76
933.669	1866.04
933.977	1896.77
934.286	1880.28
934.594	1864.68
934.902	1829.88
935.21	1875.53
935.519	1857
935.827	1845.93
936.135	1855.64
936.443	1803.67
936.751	1806.38
937.059	1825.59
937.367	1778.81
937.674	1812.03
937.982	1801.86
938.29	1801.18
938.597	1807.96
938.905	1768.87
939.213	1774.29
939.52	1758.47
939.827	1768.87
940.135	1748.98
940.442	1777.68
940.749	1752.6
941.056	1722.54
941.363	1701.3
941.67	1714.4
941.977	1719.6
942.284	1729.77
942.591	1706.95
942.898	1690.9
943.205	1680.96
943.511	1663.56
943.818	1659.94
944.125	1658.36
944.431	1676.66
944.738	1658.59
945.044	1665.37
945.35	1657
945.657	1666.04
945.963	1655.87
946.269	1670.34
946.575	1646.16
946.881	1638.02
947.187	1602.54
947.493	1613.16
947.799	1590.34
948.105	1585.14
948.41	1579.94
948.716	1599.83
949.022	1598.25
949.327	1596.22
949.633	1579.49
949.938	1563.45
950.244	1560.74
950.549	1570.45
950.854	1555.76
951.16	1569.32
951.465	1523.67
951.77	1539.27
952.075	1539.27
952.38	1537.46
952.685	1530
952.99	1529.32
953.294	1521.41
953.599	1500.4
953.904	1503.79
954.209	1497.01
954.513	1481.87
954.818	1464.24
955.122	1471.02
955.426	1468.53
955.731	1430.12
956.035	1445.48
956.339	1461.3
956.643	1460.4
956.948	1437.12
957.252	1421.08
957.556	1422.43
957.86	1421.53
958.163	1447.07
958.467	1410.46
958.771	1410.91
959.075	1434.86
959.378	1420.4
959.682	1431.47
959.985	1400.51
960.289	1380.18
960.592	1372.49
960.896	1380.85
961.199	1350.12
961.502	1366.62
961.805	1377.01
962.108	1367.07
962.411	1338.59
962.714	1323.68
963.017	1322.55
963.32	1324.81
963.623	1334.53
963.926	1335.21
964.228	1324.81
964.531	1305.6
964.833	1321.42
965.136	1292.95
965.438	1320.97
965.741	1319.39
966.043	1318.48
966.345	1298.82
966.648	1305.38
966.95	1287.75
967.252	1270.8
967.554	1287.97
967.856	1268.99
968.158	1281.87
968.46	1243.23
968.761	1231.03
969.063	1241.65
969.365	1243
969.666	1249.11
969.968	1227.86
970.269	1232.61
970.571	1222.67
970.872	1225.38
971.174	1225.38
971.475	1220.18
971.776	1192.61
972.077	1200.97
972.378	1212.95
972.679	1206.17
972.98	1191.93
973.281	1190.12
973.582	1187.86
973.883	1196
974.183	1177.24
974.484	1188.99
974.785	1158.26
975.085	1161.65
975.386	1160.75
975.686	1158.49
975.986	1141.99
976.287	1168.43
976.587	1150.58
976.887	1152.16
977.187	1167.75
977.487	1151.03
977.787	1133.18
978.087	1137.47
978.387	1127.53
978.687	1110.58
978.987	1134.08
979.286	1106.06
979.586	1104.7
979.885	1092.73
980.185	1123.91
980.484	1110.13
980.784	1082.33
981.083	1083.23
981.382	1112.61
981.682	1113.97
981.981	1098.15
982.28	1072.39
982.579	1039.85
982.878	1070.81
983.177	1062.9
983.475	1033.07
983.774	1063.35
984.073	1052.73
984.372	1053.18
984.67	1050.92
984.969	1049.56
985.267	1029.22
985.566	1046.63
985.864	1028.55
986.162	1013.86
986.461	1046.63
986.759	1007.76
987.057	1022.44
987.355	1017.02
987.653	1007.53
987.951	994.2
988.249	1012.5
988.547	1007.08
988.844	993.07
989.142	988.55
989.44	977.02
989.737	997.13
990.035	956.46
990.332	971.6
990.63	962.56
990.927	966.63
991.224	944.03
991.521	958.27
991.819	965.05
992.116	958.94
992.413	965.27
992.71	960.53
993.006	948.77
993.303	931.15
993.6	927.98
993.897	959.85
994.193	926.85
994.49	948.55
994.787	942.9
995.083	919.4
995.379	936.35
995.676	891.37
995.972	932.28
996.268	918.49
996.565	894.99
996.861	900.41
997.157	897.93
997.453	888.44
997.749	909.45
998.044	874.43
998.34	887.99
998.636	871.49
998.932	875.78
999.227	868.78
999.523	863.58
999.818	869
1000.114	857.03
1000.409	875.78
1000.704	866.29
1001	881.66
1001.295	842.79
1001.59	851.83
1001.885	853.41
1002.18	847.08
1002.475	826.97
1002.77	818.83
1003.065	824.48
1003.359	815.22
1003.654	814.77
1003.949	823.35
1004.243	832.62
1004.538	800.98
1004.832	826.29
1005.127	823.13
1005.421	832.62
1005.715	805.73
1006.009	800.76
1006.304	805.5
1006.598	786.52
1006.892	798.27
1007.186	777.03
1007.48	783.58
1007.773	776.58
1008.067	757.59
1008.361	757.82
1008.655	766.86
1008.948	757.59
1009.242	773.64
1009.535	763.92
1009.829	776.12
1010.122	765.73
1010.415	764.15
1010.708	742.9
1011.001	743.81
1011.295	744.71
1011.588	762.11
1011.881	749.01
1012.173	739.29
1012.466	739.74
1012.759	725.5
1013.052	746.52
1013.344	720.76
1013.637	735.45
1013.93	751.04
1014.222	719.63
1014.514	714.2
1014.807	714.66
1015.099	700.42
1015.391	712.4
1015.683	704.71
1015.976	717.59
1016.268	668.56
1016.56	703.13
1016.851	698.16
1017.143	690.48
1017.435	696.8
1017.727	689.35
1018.018	691.38
1018.31	666.97
1018.602	683.92
1018.893	647.09
1019.185	668.1
1019.476	672.62
1019.767	693.87
1020.058	654.09
1020.35	667.65
1020.641	654.32
1020.932	658.61
1021.223	657.48
1021.514	643.02
1021.804	642.34
1022.095	631.95
1022.386	611.61
1022.677	645.51
1022.967	638.5
1023.258	644.15
1023.548	601.44
1023.839	625.62
1024.129	642.12
1024.419	619.74
1024.709	632.85
1025	625.62
1025.29	608.9
1025.58	589.24
1025.87	584.49
1026.16	583.36
1026.449	615.68
1026.739	582.23
1027.029	602.34
1027.319	589.91
1027.608	596.92
1027.898	583.13
1028.187	580.42
1028.477	577.03
1028.766	590.14
1029.055	570.48
1029.344	554.89
1029.634	573.64
1029.923	547.2
1030.212	553.98
1030.501	576.58
1030.79	560.76
1031.078	567.77
1031.367	545.4
1031.656	562.34
1031.945	560.31
1032.233	545.17
1032.522	536.81
1032.81	544.04
1033.099	551.5
1033.387	551.5
1033.675	533.42
1033.963	546.75
1034.251	538.62
1034.54	529.8
1034.828	540.2
1035.116	538.62
1035.403	530.71
1035.691	535.68
1035.979	527.32
1036.267	517.37
1036.554	528.45
1036.842	512.4
1037.129	519.41
1037.417	499.29
1037.704	524.38
1037.992	492.06
1038.279	505.62
1038.566	493.87
1038.853	493.87
1039.14	493.87
