Data from mousepad_grey_FLMS001491_00039.txt Node
Date: Wed Feb 08 14:29:22 GMT 2017
User: dcchb
Spectrometer: FLMS00149
Trigger mode: 0
Integration Time (sec): 2.000000E-2
Scans to average: 10
Electric dark correction enabled: true
Nonlinearity correction enabled: false
Boxcar width: 0
XAxis mode: Wavelengths
Number of Pixels in Spectrum: 2048
>>>>>Begin Spectral Data<<<<<
341.393	-15.14
341.776	-15.14
342.16	-15.14
342.543	-58.98
342.927	-92.88
343.31	-59.21
343.693	-53.56
344.077	-68.02
344.46	-59.21
344.843	-42.94
345.226	-42.03
345.61	-43.16
345.993	-24.63
346.376	11.98
346.759	5.2
347.142	4.97
347.525	40.22
347.908	46.33
348.291	87.68
348.674	96.27
349.057	100.11
349.44	98.3
349.823	143.73
350.206	158.19
350.588	178.07
350.971	189.6
351.354	230.5
351.737	214.23
352.119	256.49
352.502	258.3
352.884	270.05
353.267	246.77
353.65	263.5
354.032	294.23
354.414	273.89
354.797	291.52
355.179	306.21
355.562	313.66
355.944	319.09
356.326	313.89
356.709	324.74
357.091	315.7
357.473	327.9
357.855	317.73
358.238	293.55
358.62	340.78
359.002	309.6
359.384	320.44
359.766	314.79
360.148	294.91
360.53	316.6
360.912	326.32
361.294	301.91
361.676	323.16
362.057	307.79
362.439	320.44
362.821	303.49
363.203	302.59
363.584	305.08
363.966	286.77
364.348	301.69
364.729	308.92
365.111	286.55
365.493	335.36
365.874	297.17
366.256	295.13
366.637	295.36
367.019	312.31
367.4	297.62
367.781	301.01
368.163	272.54
368.544	289.71
368.925	286.55
369.306	297.39
369.688	296.04
370.069	292.42
370.45	282.7
370.831	292.65
371.212	304.62
371.593	305.98
371.974	301.24
372.355	296.72
372.736	295.36
373.117	287
373.498	286.09
373.879	315.47
374.26	280.44
374.641	298.52
375.021	286.55
375.402	280.67
375.783	303.27
376.163	294.23
376.544	306.21
376.925	302.82
377.305	283.61
377.686	291.29
378.066	323.38
378.447	308.47
378.827	327.22
379.208	307.79
379.588	297.62
379.968	311.86
380.349	298.07
380.729	305.08
381.109	315.02
381.489	305.53
381.87	319.54
382.25	303.27
382.63	321.8
383.01	325.42
383.39	302.14
383.77	316.83
384.15	320.44
384.53	332.42
384.91	315.47
385.29	303.49
385.67	307.79
386.049	306.66
386.429	295.59
386.809	317.05
387.189	324.96
387.568	334
387.948	315.7
388.328	314.34
388.707	343.49
389.087	313.66
389.466	331.52
389.846	316.83
390.225	337.84
390.605	310.27
390.984	331.97
391.363	329.71
391.743	347.11
392.122	353.66
392.501	334.23
392.881	340.56
393.26	343.72
393.639	354.34
394.018	357.96
394.397	367.9
394.776	362.93
395.155	355.7
395.534	347.56
395.913	358.18
396.292	368.13
396.671	350.27
397.05	358.18
397.429	350.27
397.808	341.91
398.186	358.18
398.565	366.09
398.944	375.36
399.323	369.26
399.701	372.65
400.08	375.13
400.458	371.74
400.837	381.68
401.215	379.65
401.594	383.04
401.972	362.93
402.351	406.77
402.729	367.45
403.107	378.97
403.486	394.34
403.864	376.26
404.242	379.2
404.62	390.05
404.999	396.6
405.377	403.83
405.755	388.69
406.133	419.42
406.511	384.85
406.889	400.67
407.267	411.06
407.645	415.81
408.023	409.93
408.401	430.27
408.779	413.55
409.156	402.48
409.534	414.23
409.912	429.14
410.29	414
410.667	432.31
411.045	442.02
411.422	453.32
411.8	443.83
412.178	442.93
412.555	449.71
412.933	452.42
413.31	463.04
413.687	435.24
414.065	463.49
414.442	456.49
414.819	455.36
415.197	469.14
415.574	479.54
415.951	449.71
416.328	460.55
416.705	484.51
417.082	496.48
417.46	478.63
417.837	484.51
418.214	496.26
418.591	501.68
418.967	481.57
419.344	479.08
419.721	515.92
420.098	484.06
420.475	488.35
420.852	505.07
421.228	517.73
421.605	501.23
421.982	525.41
422.358	519.31
422.735	513.43
423.111	533.32
423.488	523.38
423.864	529.03
424.241	547.33
424.617	576.48
424.994	539.42
425.37	550.04
425.746	533.55
426.123	567.44
426.499	545.52
426.875	560.66
427.251	552.3
427.627	562.92
428.003	585.3
428.379	569.02
428.756	569.02
429.132	582.36
429.507	597.5
429.883	612.87
430.259	599.98
430.635	595.24
431.011	640.66
431.387	593.88
431.763	637.5
432.138	621.45
432.514	654.67
432.89	634.56
433.265	634.33
433.641	645.18
434.016	644.73
434.392	685.86
434.767	663.26
435.143	667.33
435.518	644.5
435.894	661.68
436.269	694.22
436.644	701.68
437.02	685.63
437.395	687.44
437.77	693.09
438.145	697.61
438.52	716.59
438.895	710.26
439.271	721.34
439.646	729.47
440.021	724.95
440.395	732.18
440.77	741.22
441.145	733.54
441.52	745.29
441.895	747.78
442.27	777.83
442.645	755.91
443.019	774.44
443.394	782.58
443.769	766.53
444.143	781.9
444.518	762.92
444.892	765.18
445.267	779.87
445.641	807.44
446.016	773.99
446.39	808.11
446.764	817.15
447.139	816.48
447.513	816.25
447.887	790.49
448.262	813.09
448.636	828.23
449.01	823.71
449.384	830.49
449.758	838.62
450.132	847.44
450.506	838.62
450.88	839.3
451.254	842.24
451.628	879.98
452.002	885.4
452.376	889.02
452.75	908
453.123	902.8
453.497	916.13
453.871	908.9
454.244	931.95
454.618	918.39
454.992	945.06
455.365	936.7
455.739	945.29
456.112	924.04
456.486	948.68
456.859	955
457.232	984.38
457.606	1007.43
457.979	999.97
458.352	1018.73
458.725	1020.76
459.099	1044.04
459.472	1053.98
459.845	1063.93
460.218	1072.29
460.591	1067.99
460.964	1075
461.337	1102.34
461.71	1125.17
462.083	1107.54
462.456	1127.2
462.829	1085.4
463.201	1125.17
463.574	1138.5
463.947	1152.06
464.32	1177.82
464.692	1177.37
465.065	1195.9
465.438	1200.42
465.81	1228.67
466.183	1240.19
466.555	1242.23
466.928	1241.55
467.3	1235.67
467.672	1277.03
468.045	1305.73
468.417	1328.33
468.789	1300.53
469.161	1322.45
469.534	1351.83
469.906	1338.72
470.278	1382.79
470.65	1371.49
471.022	1406.29
471.394	1433.41
471.766	1416.69
472.138	1430.47
472.51	1463.92
472.882	1481.32
473.253	1492.62
473.625	1536
473.997	1549.34
474.369	1576.68
474.74	1587.3
475.112	1624.82
475.484	1633.63
475.855	1634.99
476.227	1664.36
476.598	1673.85
476.97	1707.75
477.341	1718.15
477.713	1780.97
478.084	1765.83
478.455	1812.83
478.827	1834.08
479.198	1910.91
479.569	1892.61
479.94	1936.9
480.311	1910.91
480.682	1973.73
481.053	1996.56
481.424	2023
481.795	2038.36
482.166	2082.21
482.537	2126.27
482.908	2136.44
483.279	2167.4
483.65	2165.59
484.021	2216.89
484.391	2217.79
484.762	2250.56
485.133	2273.61
485.503	2350.45
485.874	2402.42
486.244	2414.4
486.615	2398.13
486.985	2441.07
487.356	2493.27
487.726	2522.42
488.097	2548.63
488.467	2541.63
488.837	2568.97
489.207	2612.13
489.578	2667.27
489.948	2680.83
490.318	2711.79
490.688	2729.87
491.058	2777.1
491.428	2785.01
491.798	2835.86
492.168	2853.48
492.538	2910.21
492.908	2878.79
493.278	2973.48
493.648	3000.6
494.017	2975.97
494.387	2985.68
494.757	3009.64
495.126	3079.69
495.496	3095.06
495.866	3091.67
496.235	3135.06
496.605	3154.95
496.974	3194.27
497.344	3220.71
497.713	3215.51
498.082	3272.68
498.452	3295.73
498.821	3275.39
499.19	3300.03
499.559	3290.08
499.928	3321.04
500.298	3357.43
500.667	3385.9
501.036	3428.84
501.405	3439.46
501.774	3412.11
502.143	3459.12
502.512	3488.04
502.88	3508.38
503.249	3541.6
503.618	3549.06
503.987	3547.93
504.356	3572.79
504.724	3637.87
505.093	3602.39
505.462	3670.41
505.83	3681.94
506.199	3689.39
506.567	3794.93
506.936	3756.29
507.304	3809.62
507.672	3801.93
508.041	3827.92
508.409	3805.78
508.777	3881.25
509.145	3911.31
509.514	3925.32
509.882	3990.18
510.25	3922.83
510.618	3940.24
510.986	3994.7
511.354	4001.7
511.722	4054.81
512.09	4118.31
512.458	4117.18
512.826	4101.59
513.193	4138.2
513.561	4214.8
513.929	4183.84
514.297	4216.39
514.664	4291.41
515.032	4264.29
515.4	4305.2
515.767	4329.83
516.135	4306.78
516.502	4353.33
516.869	4394.91
517.237	4409.83
517.604	4438.75
517.972	4490.96
518.339	4488.47
518.706	4551.97
519.073	4532.54
519.44	4531.41
519.808	4671.06
520.175	4603.27
520.542	4692.76
520.909	4714.45
521.276	4672.19
521.643	4752.19
522.009	4799.65
522.376	4855.24
522.743	4862.7
523.11	4941.11
523.477	4936.37
523.843	4932.53
524.21	4998.06
524.577	5029.02
524.943	5021.11
525.31	5108.79
525.676	5157.15
526.043	5161.9
526.409	5149.92
526.776	5246.42
527.142	5248
527.508	5313.53
527.874	5342.68
528.241	5367.54
528.607	5403.02
528.973	5395.79
529.339	5397.82
529.705	5468.33
530.071	5537.48
530.437	5526.41
530.803	5558.27
531.169	5610.02
531.535	5603.92
531.901	5615.22
532.267	5636.69
532.632	5715.78
532.998	5658.83
533.364	5708.1
533.73	5761.2
534.095	5775.67
534.461	5827.42
534.826	5889.11
535.192	5830.36
535.557	5928.21
535.923	5892.95
536.288	5978.6
536.653	6033.06
537.019	6012.05
537.384	6027.19
537.749	6072.16
538.114	6097.92
538.479	6110.57
538.845	6179.95
539.21	6093.85
539.575	6174.3
539.94	6191.25
540.305	6210.23
540.67	6252.49
541.034	6286.84
541.399	6308.76
541.764	6304.47
542.129	6372.71
542.494	6349.89
542.858	6389.21
543.223	6411.81
543.587	6491.81
543.952	6442.32
544.316	6502.2
544.681	6527.51
545.045	6568.41
545.41	6564.35
545.774	6626.27
546.138	6645.47
546.503	6645.25
546.867	6661.52
547.231	6700.61
547.595	6735.42
547.959	6780.61
548.324	6727.05
548.688	6790.56
549.052	6849.99
549.416	6865.13
549.779	6918.46
550.143	6870.1
550.507	6902.64
550.871	6964.34
551.235	6945.35
551.599	6966.82
551.962	7015.86
552.326	7078.91
552.689	7113.71
553.053	7082.98
553.417	7077.33
553.78	7235.06
554.143	7203.43
554.507	7227.61
554.87	7227.15
555.234	7288.62
555.597	7257.21
555.96	7305.57
556.323	7362.52
556.686	7411.56
557.05	7401.84
557.413	7452.46
557.776	7502.85
558.139	7572.23
558.502	7513.25
558.865	7557.77
559.228	7625.11
559.59	7629.4
559.953	7642.51
560.316	7711.89
560.679	7775.39
561.041	7806.35
561.404	7762.06
561.767	7878.66
562.129	7859.68
562.492	7922.5
562.854	7844.77
563.217	7930.64
563.579	7962.28
563.941	7999.34
564.304	8049.51
564.666	8110.07
565.028	8057.87
565.39	8115.72
565.753	8181.71
566.115	8220.57
566.477	8263.29
566.839	8257.41
567.201	8352.1
567.563	8360.68
567.925	8351.42
568.287	8425.77
568.648	8384.19
569.01	8401.59
569.372	8497.18
569.734	8467.57
570.095	8545.99
570.457	8603.84
570.819	8619.66
571.18	8607.01
571.542	8680.68
571.903	8665.31
572.265	8725.87
572.626	8792.76
572.987	8758.64
573.349	8804.74
573.71	8841.8
574.071	8820.79
574.432	8855.36
574.794	8924.96
575.155	8925.64
575.516	8958.41
575.877	8980.33
576.238	8956.37
576.599	9007.9
576.96	8980.78
577.32	8994.34
577.681	9095.81
578.042	9102.59
578.403	9071.63
578.763	9079.54
579.124	9129.93
579.485	9105.52
579.845	9190.49
580.206	9220.32
580.566	9150.72
580.927	9268.91
581.287	9221.45
581.648	9190.27
582.008	9263.94
582.368	9176.03
582.728	9286.76
583.089	9248.8
583.449	9172.87
583.809	9323.6
584.169	9240.21
584.529	9216.48
584.889	9346.42
585.249	9238.85
585.609	9240.89
585.969	9331.73
586.329	9332.41
586.688	9282.24
587.048	9276.14
587.408	9303.03
587.768	9344.39
588.127	9300.32
588.487	9292.19
588.846	9376.48
589.206	9337.16
589.565	9366.53
589.925	9343.71
590.284	9326.76
590.643	9372.41
591.003	9335.35
591.362	9389.36
591.721	9377.83
592.08	9389.36
592.44	9411.28
592.799	9396.36
593.158	9357.27
593.517	9389.36
593.876	9415.35
594.235	9393.88
594.593	9433.88
594.952	9373.09
595.311	9384.84
595.67	9399.07
596.029	9486.76
596.387	9492.41
596.746	9522.24
597.104	9440.2
597.463	9439.3
597.822	9479.07
598.18	9438.17
598.538	9429.13
598.897	9512.97
599.255	9391.84
599.613	9602.23
599.972	9484.95
600.33	9465.51
600.688	9445.85
601.046	9509.13
601.404	9548.22
601.762	9572.86
602.12	9613.53
602.478	9578.05
602.836	9596.58
603.194	9543.93
603.552	9566.08
603.91	9507.55
604.268	9595
604.625	9545.96
604.983	9600.88
605.341	9537.83
605.698	9553.65
606.056	9557.26
606.413	9586.19
606.771	9639.29
607.128	9713.64
607.485	9645.17
607.843	9621.22
608.2	9685.4
608.557	9788.9
608.914	9656.24
609.272	9731.5
609.629	9763.13
609.986	9775.79
610.343	9737.82
610.7	9752.06
611.057	9731.04
611.414	9744.83
611.771	9819.63
612.127	9820.98
612.484	9812.62
612.841	9832.06
613.198	9907.99
613.554	9762.23
613.911	9843.36
614.267	9791.61
614.624	9816.69
614.98	9842.23
615.337	9953.64
615.693	9883.81
616.05	9897.59
616.406	9942.11
616.762	9911.15
617.118	9830.48
617.475	9937.59
617.831	9939.63
618.187	9942.56
618.543	9969.91
618.899	9951.6
619.255	10001.09
619.611	9967.2
619.967	9994.54
620.323	10103.01
620.678	9975.33
621.034	10015.56
621.39	9989.79
621.746	9938.04
622.101	10187.3
622.457	10096.91
622.812	9977.59
623.168	10105.5
623.523	10079.28
623.879	10077.48
624.234	9996.57
624.589	10078.38
624.945	10084.71
625.3	10023.92
625.655	10042
626.01	10016.23
626.365	10113.18
626.72	10050.81
627.075	10126.74
627.43	10029.79
627.785	10092.62
628.14	10055.33
628.495	10133.74
628.85	10057.59
629.205	10025.5
629.559	10083.35
629.914	9992.28
630.269	10080.86
630.623	10086.06
630.978	10032.5
631.332	10000.42
631.687	10070.02
632.041	10043.8
632.396	10056.91
632.75	9992.28
633.104	9959.96
633.459	9917.48
633.813	9973.52
634.167	10022.79
634.521	9954.54
634.875	10002
635.229	9941.89
635.583	9945.5
635.937	9917.71
636.291	9898.72
636.645	9947.76
636.999	9862.57
637.352	9948.21
637.706	9818.05
638.06	9972.17
638.413	9867.09
638.767	9879.74
639.121	9845.39
639.474	9842.45
639.828	9818.27
640.181	9851.27
640.534	9851.27
640.888	9767.88
641.241	9818.95
641.594	9819.4
641.947	9858.5
642.301	9810.14
642.654	9790.25
643.007	9828.22
643.36	9837.71
643.713	9847.42
644.066	9815.34
644.419	9776.69
644.771	9777.6
645.124	9632.74
645.477	9645.17
645.83	9565.85
646.182	9504.38
646.535	9525.63
646.888	9520.2
647.24	9539.64
647.593	9534.44
647.945	9424.61
648.298	9448.34
648.65	9413.54
649.002	9399.98
649.355	9465.97
649.707	9405.4
650.059	9581.67
650.411	9639.97
650.763	9584.15
651.115	9699.41
651.467	9702.8
651.819	9701.89
652.171	9655.57
652.523	9693.3
652.875	9744.15
653.227	9638.39
653.578	9684.27
653.93	9707.99
654.282	9638.16
654.633	9623.93
654.985	9635.68
655.337	9660.76
655.688	9671.61
656.039	9710.25
656.391	9624.61
656.742	9670.25
657.094	9684.49
657.445	9707.09
657.796	9706.64
658.147	9630.26
658.498	9583.02
658.849	9644.94
659.2	9659.18
659.551	9606.53
659.902	9652.85
660.253	9637.94
660.604	9708.67
660.955	9684.49
661.306	9633.87
661.656	9636.13
662.007	9738.05
662.358	9637.71
662.708	9689.91
663.059	9672.29
663.409	9589.8
663.76	9653.31
664.11	9681.78
664.461	9679.52
664.811	9656.47
665.161	9654.89
665.511	9621.44
665.862	9670.93
666.212	9716.81
666.562	9685.62
666.912	9670.03
667.262	9666.41
667.612	9660.76
667.962	9607.66
668.312	9652.4
668.662	9728.33
669.011	9666.41
669.361	9586.64
669.711	9595.68
670.06	9682.01
670.41	9635.23
670.76	9604.27
671.109	9649.69
671.459	9661.44
671.808	9602.23
672.157	9656.24
672.507	9571.95
672.856	9544.16
673.205	9559.52
673.554	9645.17
673.904	9585.96
674.253	9594.55
674.602	9604.04
674.951	9476.36
675.3	9335.57
675.649	9551.61
675.998	9485.17
676.346	9586.64
676.695	9547.09
677.044	9508.9
677.393	9498.06
677.741	9535.12
678.09	9487.66
678.438	9449.02
678.787	9526.98
679.135	9430.03
679.484	9364.27
679.832	9442.46
680.181	9393.88
680.529	9428
680.877	9386.65
681.225	9421.9
681.573	9413.54
681.922	9349.36
682.27	9346.42
682.618	9375.57
682.966	9308.46
683.314	9313.88
683.661	9313.2
684.009	9276.59
684.357	9264.16
684.705	9187.56
685.053	9249.7
685.4	9244.5
685.748	9138.06
686.095	9162.24
686.443	9136.26
686.79	9160.89
687.138	9118.86
687.485	9203.15
687.832	9115.47
688.18	9114.11
688.527	8964.74
688.874	8971.29
689.221	8995.24
689.568	9041.57
689.915	8941.46
690.262	8975.81
690.609	8907.79
690.956	8964.96
691.303	8961.35
691.65	8863.5
691.997	8855.13
692.344	8814.46
692.69	8831.41
693.037	8806.55
693.383	8696.72
693.73	8768.13
694.077	8675.48
694.423	8702.14
694.769	8669.38
695.116	8638.19
695.462	8687.23
695.808	8578.31
696.155	8671.41
696.501	8588.93
696.847	8502.15
697.193	8555.03
697.539	8515.71
697.885	8416.73
698.231	8394.13
698.577	8367.01
698.923	8369.27
699.269	8430.74
699.614	8379.67
699.96	8277.52
700.306	8241.82
700.651	8259.67
700.997	8175.15
701.342	8224.19
701.688	8193
702.033	8146.45
702.379	8166.56
702.724	8122.27
703.069	8098.09
703.415	8029.62
703.76	8050.86
704.105	8092.89
704.45	8084.31
704.795	7967.25
705.14	7968.38
705.485	7934.03
705.83	7869.4
706.175	7895.16
706.52	7890.19
706.865	7881.6
707.209	7887.02
707.554	7845.9
707.899	7829.17
708.243	7746.69
708.588	7758.44
708.932	7724.77
709.277	7720.02
709.621	7668.95
709.966	7677.99
710.31	7619.23
710.654	7655.17
710.998	7593.25
711.342	7617.65
711.687	7634.15
712.031	7619.91
712.375	7510.99
712.719	7556.86
713.063	7554.6
713.407	7562.29
713.75	7524.55
714.094	7526.81
714.438	7544.89
714.782	7453.14
715.125	7460.37
715.469	7463.53
715.812	7412.23
716.156	7452.01
716.499	7450.88
716.843	7409.3
717.186	7367.72
717.53	7410.88
717.873	7427.38
718.216	7389.18
718.559	7456.98
718.902	7355.74
719.246	7357.09
719.589	7322.52
719.932	7391.67
720.275	7335.17
720.617	7368.85
720.96	7322.75
721.303	7328.62
721.646	7291.56
721.989	7275.29
722.331	7312.58
722.674	7205.91
723.016	7312.58
723.359	7324.1
723.701	7268.96
724.044	7224.44
724.386	7260.83
724.729	7247.27
725.071	7221.96
725.413	7258.34
725.755	7249.98
726.097	7139.02
726.439	7243.2
726.782	7139.47
727.124	7240.94
727.465	7202.97
727.807	7200.26
728.149	7193.48
728.491	7181.28
728.833	7154.61
729.175	7176.53
729.516	7186.48
729.858	7175.86
730.199	7166.82
730.541	7202.52
730.882	7118.91
731.224	7152.35
731.565	7104.67
731.906	7204.56
732.248	7114.16
732.589	7117.1
732.93	7107.16
733.271	7088.4
733.612	7087.72
733.953	7123.88
734.294	7101.28
734.635	7040.27
734.976	7181.51
735.317	7134.28
735.658	7030.1
735.999	7072.13
736.339	7083.43
736.68	7130.66
737.021	7050.21
737.361	7017.89
737.702	7064.67
738.042	7132.02
738.383	7078.46
738.723	7127.27
739.063	7113.49
739.404	7090.89
739.744	7078.68
740.084	7103.54
740.424	7069.64
740.764	7002.98
741.104	6999.82
741.444	7079.36
741.784	7007.27
742.124	7044.56
742.464	7074.16
742.804	7069.87
743.143	7018.12
743.483	7007.95
743.823	6995.07
744.162	7034.84
744.502	7033.94
744.841	7014.73
745.181	7060.83
745.52	6986.71
745.86	7024.22
746.199	6986.93
746.538	7049.53
746.877	6991.45
747.216	7042.98
747.556	7047.27
747.895	6994.39
748.234	7011.79
748.573	7006.37
748.911	6972.92
749.25	7010.44
749.589	7048.63
749.928	6958.91
750.267	6972.47
750.605	6984.68
750.944	6927.28
751.283	6955.75
751.621	6997.56
751.96	6917.78
752.298	6927.73
752.636	6971.57
752.975	6917.78
753.313	6901.29
753.651	6928.63
753.989	6880.05
754.327	6851.35
754.666	6879.14
755.004	6894.51
755.342	6848.63
755.679	6849.76
756.017	6852.25
756.355	6833.27
756.693	6820.39
757.031	6821.52
757.368	6799.14
757.706	6784.68
758.044	6789.88
758.381	6691.12
758.719	6786.04
759.056	6743.33
759.394	6763.89
759.731	6663.1
760.068	6708.98
760.405	6655.42
760.743	6660.16
761.08	6697.9
761.417	6604.57
761.754	6599.15
762.091	6609.09
762.428	6573.16
762.765	6561.41
763.102	6539.72
763.438	6534.52
763.775	6522.54
764.112	6482.77
764.449	6574.52
764.785	6531.35
765.122	6415.42
765.458	6413.62
765.795	6391.92
766.131	6440.28
766.467	6342.66
766.804	6362.54
767.14	6308.76
767.476	6262.66
767.812	6319.16
768.148	6305.37
768.485	6258.82
768.821	6271.47
769.157	6235.54
769.492	6234.86
769.828	6268.31
770.164	6196.9
770.5	6145.38
770.836	6150.8
771.171	6153.28
771.507	6130.23
771.842	6056.34
772.178	6092.04
772.513	6023.57
772.849	6053.85
773.184	6038.71
773.519	6061.54
773.855	5972.5
774.19	5986.06
774.525	5956.23
774.86	5937.25
775.195	5881.2
775.53	5892.27
775.865	5852.05
776.2	5817.25
776.535	5779.74
776.87	5842.78
777.205	5805.72
777.539	5759.85
777.874	5741.54
778.209	5741.54
778.543	5702.9
778.878	5649.57
779.212	5723.47
779.547	5695.67
779.881	5627.2
780.215	5655.44
780.55	5622.68
780.884	5625.39
781.218	5589.68
781.552	5603.92
781.886	5537.26
782.22	5499.29
782.554	5492.51
782.888	5467.43
783.222	5415.45
783.556	5423.13
783.889	5381.78
784.223	5369.35
784.557	5378.39
784.89	5388.11
785.224	5385.85
785.557	5352.85
785.891	5351.5
786.224	5311.5
786.558	5274.66
786.891	5255.68
787.224	5228.34
787.557	5231.5
787.891	5231.95
788.224	5213.2
788.557	5210.26
788.89	5197.15
789.223	5147.66
789.556	5171.16
789.888	5110.83
790.221	5077.83
790.554	5095.91
790.887	5082.8
791.219	5049.36
791.552	5115.12
791.884	5025.63
792.217	4961.9
792.549	5010.49
792.882	5002.35
793.214	4994.44
793.546	4967.1
793.879	4929.81
794.211	4906.76
794.543	4929.36
794.875	4874
795.207	4925.97
795.539	4870.83
795.871	4897.27
796.203	4792.42
796.535	4830.83
796.867	4758.29
797.198	4805.98
797.53	4783.6
797.862	4741.57
798.193	4730.05
798.525	4749.03
798.856	4765.52
799.188	4687.79
799.519	4722.14
799.85	4648.47
800.182	4675.58
800.513	4664.51
800.844	4633.78
801.175	4643.49
801.506	4640.56
801.837	4628.13
802.168	4639.43
802.499	4569.82
802.83	4563.5
803.161	4562.14
803.491	4506.55
803.822	4548.13
804.153	4494.8
804.483	4503.16
804.814	4485.76
805.145	4457.96
805.475	4455.7
805.805	4436.95
806.136	4417.74
806.466	4415.7
806.796	4433.78
807.126	4436.27
807.457	4421.8
807.787	4379.55
808.117	4371.41
808.447	4358.08
808.777	4423.61
809.107	4354.24
809.436	4347.23
809.766	4376.83
810.096	4300.68
810.426	4294.35
810.755	4336.38
811.085	4334.58
811.414	4291.64
811.744	4235.82
812.073	4262.26
812.403	4242.6
812.732	4183.62
813.061	4223.39
813.39	4227.01
813.719	4202.38
814.049	4223.39
814.378	4219.78
814.707	4198.76
815.036	4158.31
815.365	4127.8
815.693	4133.9
816.022	4127.35
816.351	4099.1
816.68	4067.01
817.008	4117.41
817.337	4102.04
817.665	4052.1
817.994	4056.39
818.322	4076.05
818.651	4054.81
818.979	4067.69
819.307	4101.36
819.636	4038.76
819.964	4041.02
820.292	4034.92
820.62	4051.42
820.948	4000.8
821.276	4023.17
821.604	4029.95
821.932	4020.46
822.259	4059.33
822.587	4002.61
822.915	4021.14
823.243	4097.52
823.57	3986.34
823.898	3985.66
824.225	3979.78
824.553	3994.02
824.88	3973.45
825.207	4048.03
825.535	4023.4
825.862	4075.15
826.189	4009.16
826.516	4025.88
826.843	4048.71
827.17	4001.93
827.497	3989.73
827.824	4055.26
828.151	4044.41
828.478	4004.19
828.805	3991.31
829.131	3990.4
829.458	3966.22
829.785	3971.42
830.111	4006.22
830.438	4006.67
830.764	4004.64
831.09	4003.96
831.417	3948.82
831.743	3979.78
832.069	3983.85
832.395	3936.39
832.722	3981.14
833.048	3983.85
833.374	3996.96
833.7	3966.9
834.026	3968.26
834.351	3958.99
834.677	4007.8
835.003	3984.08
835.329	3982.49
835.654	3956.28
835.98	3940.69
836.306	3947.01
836.631	3915.6
836.956	3936.39
837.282	3965.77
837.607	3907.24
837.932	3933
838.258	3968.94
838.583	3925.55
838.908	3885.77
839.233	3917.19
839.558	3916.73
839.883	3862.72
840.208	3894.81
840.533	3849.62
840.858	3847.58
841.182	3862.05
841.507	3860.01
841.832	3807.36
842.156	3821.59
842.481	3851.42
842.805	3786.79
843.13	3788.15
843.454	3841.71
843.778	3758.32
844.103	3794.25
844.427	3817.75
844.751	3764.87
845.075	3801.48
845.399	3804.42
845.723	3781.6
846.047	3750.41
846.371	3714.25
846.695	3761.71
847.019	3700.92
847.343	3689.39
847.666	3673.58
847.99	3611.2
848.313	3614.37
848.637	3643.52
848.96	3588.38
849.284	3623.41
849.607	3615.5
849.931	3589.96
850.254	3578.44
850.577	3519.91
850.9	3507.48
851.223	3558.32
851.546	3518.78
851.869	3488.27
852.192	3529.62
852.515	3502.73
852.838	3467.25
853.161	3475.39
853.483	3457.08
853.806	3423.41
854.129	3432.68
854.451	3398.1
854.774	3413.47
855.096	3377.09
855.419	3396.29
855.741	3374.83
856.063	3348.16
856.385	3327.14
856.708	3372.34
857.03	3317.43
857.352	3330.53
857.674	3353.13
857.996	3297.99
858.318	3307.03
858.64	3264.09
858.961	3297.09
859.283	3298.44
859.605	3302.51
859.926	3297.99
860.248	3266.58
860.57	3270.2
860.891	3228.16
861.212	3272.23
861.534	3279.01
861.855	3231.78
862.176	3249.86
862.498	3211.44
862.819	3267.26
863.14	3215.51
863.461	3230.88
863.782	3213.02
864.103	3208.73
864.424	3203.98
864.745	3189.07
865.065	3183.87
865.386	3160.37
865.707	3174.83
866.027	3116.53
866.348	3169.86
866.668	3176.19
866.989	3093.48
867.309	3142.52
867.63	3105
867.95	3114.04
868.27	3108.62
868.59	3126.25
868.91	3142.29
869.23	3108.62
869.55	3125.79
869.87	3071.11
870.19	3116.53
870.51	3097.09
870.83	3114.27
871.15	3093.03
871.469	3097.77
871.789	3087.6
872.109	3048.73
872.428	3035.4
872.748	3102.74
873.067	3055.96
873.386	3056.87
873.706	3076.76
874.025	3034.72
874.344	3047.15
874.663	3039.92
874.982	3026.81
875.301	3013.03
875.62	3070.88
875.939	3017.77
876.258	3030.2
876.577	2970.09
876.896	3043.99
877.214	2971.67
877.533	3000.15
877.852	2992.92
878.17	2990.43
878.489	3006.47
878.807	3030.65
879.125	3006.25
879.444	2990.88
879.762	2950.88
880.08	2962.41
880.398	2950.43
880.716	2995.63
881.034	2955.18
881.352	2970.32
881.67	2911.56
881.988	2955.85
882.306	2926.93
882.624	2911.11
882.941	2924.44
883.259	2917.66
883.577	2888.29
883.894	2900.49
884.212	2898.91
884.529	2864.11
884.846	2911.34
885.164	2896.65
885.481	2880.6
885.798	2897.55
886.115	2835.41
886.432	2833.37
886.75	2856.87
887.067	2834.05
887.383	2798.57
887.7	2840.83
888.017	2871.11
888.334	2812.81
888.651	2771.68
888.967	2804.9
889.284	2780.27
889.6	2776.2
889.917	2773.71
890.233	2772.81
890.55	2767.38
890.866	2752.24
891.182	2753.37
891.498	2736.2
891.815	2718.35
892.131	2753.15
892.447	2738.46
892.763	2733.49
893.079	2696.43
893.395	2723.54
893.71	2726.03
894.026	2697.56
894.342	2760.38
894.657	2654.39
894.973	2671.79
895.289	2674.73
895.604	2678.57
895.92	2613.72
896.235	2655.52
896.55	2639.7
896.865	2598.58
897.181	2624.11
897.496	2618.24
897.811	2620.04
898.126	2587.28
898.441	2589.99
898.756	2571.46
899.071	2560.84
899.386	2555.64
899.7	2539.14
900.015	2552.25
900.33	2541.18
900.644	2553.61
900.959	2541.4
901.273	2508.41
901.588	2562.19
901.902	2489.65
902.216	2513.83
902.531	2512.93
902.845	2455.98
903.159	2456.88
903.473	2456.66
903.787	2450.11
904.101	2431.12
904.415	2471.8
904.729	2472.25
905.042	2391.8
905.356	2441.52
905.67	2425.25
905.984	2388.64
906.297	2414.17
906.611	2393.16
906.924	2384.8
907.237	2338.7
907.551	2364.01
907.864	2339.15
908.177	2360.16
908.491	2371.24
908.804	2359.71
909.117	2311.58
909.43	2320.16
909.743	2317.68
910.056	2307.96
910.368	2298.24
910.681	2310.67
910.994	2296.66
911.307	2283.78
911.619	2237.46
911.932	2265.93
912.244	2230.68
912.557	2239.26
912.869	2232.94
913.181	2211.92
913.494	2208.53
913.806	2199.72
914.118	2171.02
914.43	2186.61
914.742	2176.89
915.054	2169.43
915.366	2149.77
915.678	2163.56
915.99	2151.81
916.302	2128.98
916.613	2147.97
916.925	2125.82
917.236	2152.71
917.548	2121.07
917.859	2100.06
918.171	2112.26
918.482	2068.87
918.794	2052.6
919.105	2107.52
919.416	2054.41
919.727	2047.18
920.038	2078.59
920.349	2038.59
920.66	2044.24
920.971	2041.98
921.282	2038.82
921.593	2022.55
921.903	2002.66
922.214	1994.07
922.525	1971.02
922.835	2032.26
923.146	1984.35
923.456	1967.86
923.767	1962.43
924.077	1953.39
924.387	1983.68
924.697	1934.19
925.008	1927.63
925.318	1941.64
925.628	1960.4
925.938	1926.73
926.248	1918.82
926.558	1903
926.867	1875.88
927.177	1902.1
927.487	1882.44
927.796	1885.37
928.106	1865.71
928.416	1868.65
928.725	1869.1
929.034	1830.23
929.344	1863.23
929.653	1828.65
929.962	1859.39
930.271	1831.14
930.581	1813.29
930.89	1838.14
931.199	1806.28
931.508	1832.27
931.817	1824.36
932.125	1783.23
932.434	1782.33
932.743	1773.74
933.051	1797.47
933.36	1755.21
933.669	1750.01
933.977	1738.03
934.286	1743.68
934.594	1736.23
934.902	1706.17
935.21	1714.31
935.519	1713.63
935.827	1721.08
936.135	1671.14
936.443	1681.76
936.751	1689.9
937.059	1663.01
937.367	1696.45
937.674	1677.47
937.982	1670.24
938.29	1671.14
938.597	1649.67
938.905	1625.04
939.213	1623.91
939.52	1640.41
939.827	1621.65
940.135	1611.03
940.442	1611.26
940.749	1600.86
941.056	1617.58
941.363	1566.06
941.67	1595.44
941.977	1585.72
942.284	1614.19
942.591	1580.3
942.898	1566.96
943.205	1561.99
943.511	1582.56
943.818	1566.29
944.125	1558.38
944.431	1542.56
944.738	1558.6
945.044	1530.58
945.35	1505.05
945.657	1519.28
945.963	1525.38
946.269	1519.96
946.575	1543.01
946.881	1516.8
947.187	1529.45
947.493	1512.5
947.799	1496.91
948.105	1491.71
948.41	1459.62
948.716	1492.39
949.022	1487.42
949.327	1439.96
949.633	1463.46
949.938	1449.45
950.244	1444.26
950.549	1463.92
950.854	1439.28
951.16	1429.11
951.465	1449.23
951.77	1453.07
952.075	1421.66
952.38	1420.75
952.685	1443.58
952.99	1388.21
953.294	1412.84
953.599	1369.23
953.904	1396.35
954.209	1403.35
954.513	1374.65
954.818	1368.55
955.122	1389.12
955.426	1362.9
955.731	1353.64
956.035	1334.2
956.339	1331.26
956.643	1354.77
956.948	1331.49
957.252	1333.07
957.556	1357.7
957.86	1329.23
958.163	1327.87
958.467	1326.52
958.771	1298.5
959.075	1339.85
959.378	1326.29
959.682	1290.14
959.985	1305.73
960.289	1284.94
960.592	1283.81
960.896	1284.71
961.199	1272.96
961.502	1270.02
961.805	1263.7
962.108	1236.8
962.411	1239.06
962.714	1252.85
963.017	1283.36
963.32	1256.46
963.623	1257.14
963.926	1243.13
964.228	1207.2
964.531	1217.82
964.833	1205.84
965.136	1221.89
965.438	1241.32
965.741	1215.34
966.043	1219.85
966.345	1193.64
966.648	1209.91
966.95	1199.97
967.252	1198.39
967.554	1204.04
967.856	1178.73
968.158	1187.77
968.46	1195.9
968.761	1184.38
969.063	1152.96
969.365	1159.07
969.666	1146.41
969.968	1149.35
970.269	1167.43
970.571	1163.13
970.872	1144.6
971.174	1143.25
971.475	1131.72
971.776	1147.09
972.077	1122.46
972.378	1128.78
972.679	1121.78
972.98	1127.65
973.281	1134.66
973.582	1091.72
973.883	1127.65
974.183	1115.22
974.484	1081.78
974.785	1077.03
975.085	1106.19
975.386	1085.17
975.686	1063.25
975.986	1082.01
976.287	1103.02
976.587	1079.52
976.887	1082.46
977.187	1078.16
977.487	1067.99
977.787	1077.49
978.087	1077.94
978.387	1058.96
978.687	1066.41
978.987	1052.63
979.286	1056.92
979.586	1048.56
979.885	1034.32
980.185	1026.41
980.484	1049.69
980.784	1023.93
981.083	1033.87
981.382	1038.84
981.682	1022.12
981.981	1019.18
982.28	985.74
982.579	1003.36
982.878	1002.46
983.177	982.8
983.475	975.12
983.774	976.02
984.073	1003.82
984.372	973.31
984.67	997.04
984.969	987.77
985.267	971.27
985.566	974.66
985.864	967.21
986.162	967.66
986.461	949.58
986.759	985.74
987.057	954.1
987.355	956.59
987.653	964.49
987.951	944.83
988.249	951.61
988.547	940.09
988.844	896.7
989.142	922.46
989.44	910.03
989.737	917.94
990.035	919.3
990.332	914.78
990.63	934.66
990.927	907.77
991.224	928.34
991.521	918.85
991.819	930.15
992.116	910.26
992.413	901.67
992.71	897.38
993.006	873.2
993.303	896.93
993.6	895.12
993.897	885.85
994.193	855.8
994.49	875.91
994.787	879.75
995.083	877.94
995.379	902.58
995.676	861.9
995.972	881.33
996.268	866.19
996.565	874.33
996.861	807.21
997.157	839.07
997.453	833.88
997.749	857.6
998.044	866.19
998.34	846.08
998.636	823.71
998.932	844.95
999.227	844.72
999.523	835.46
999.818	825.74
1000.114	818.28
1000.409	814.67
1000.704	815.57
1001	823.03
1001.295	802.24
1001.59	819.64
1001.885	802.92
1002.18	798.17
1002.475	810.83
1002.77	827.55
1003.065	785.06
1003.359	776.7
1003.654	792.97
1003.949	777.83
1004.243	752.07
1004.538	792.97
1004.832	763.14
1005.127	758.62
1005.421	764.05
1005.715	756.36
1006.009	755.91
1006.304	766.53
1006.598	735.8
1006.892	764.5
1007.186	762.01
1007.48	755.69
1007.773	718.17
1008.067	736.93
1008.361	741.68
1008.655	753.2
1008.948	749.36
1009.242	723.6
1009.535	736.48
1009.829	740.32
1010.122	688.34
1010.415	722.47
1010.708	724.5
1011.001	705.74
1011.295	686.08
1011.588	710.04
1011.881	705.29
1012.173	700.77
1012.466	674.56
1012.759	703.71
1013.052	690.6
1013.344	688.57
1013.637	682.24
1013.93	698.06
1014.222	677.04
1014.514	660.77
1014.807	692.19
1015.099	663.94
1015.391	669.36
1015.683	665.97
1015.976	656.48
1016.268	670.94
1016.56	664.62
1016.851	650.6
1017.143	640.21
1017.435	662.13
1017.727	636.82
1018.018	639.76
1018.31	645.63
1018.602	652.19
1018.893	628.23
1019.185	655.35
1019.476	639.98
1019.767	630.72
1020.058	642.24
1020.35	625.52
1020.641	635.46
1020.932	622.36
1021.223	613.54
1021.514	642.47
1021.804	612.19
1022.095	616.25
1022.386	603.83
1022.677	606.09
1022.967	618.97
1023.258	595.01
1023.548	603.15
1023.839	599.31
1024.129	605.18
1024.419	589.59
1024.709	584.39
1025	586.88
1025.29	602.92
1025.58	571.28
1025.87	572.41
1026.16	563.6
1026.449	581.45
1026.739	585.97
1027.029	564.96
1027.319	565.18
1027.608	569.93
1027.898	583.94
1028.187	570.38
1028.477	551.17
1028.766	552.75
1029.055	562.7
1029.344	557.95
1029.634	528.8
1029.923	548.69
1030.212	553.66
1030.501	555.92
1030.79	516.37
1031.078	543.49
1031.367	524.28
1031.656	532.42
1031.945	533.09
1032.233	537.61
1032.522	534.45
1032.81	521.57
1033.099	521.34
1033.387	528.12
1033.675	529.03
1033.963	501.68
1034.251	544.84
1034.54	516.6
1034.828	532.87
1035.116	486.54
1035.403	509.14
1035.691	518.63
1035.979	541.23
1036.267	503.26
1036.554	491.74
1036.842	491.51
1037.129	479.08
1037.417	507.56
1037.704	519.99
1037.992	516.6
1038.279	486.54
1038.566	489.93
1038.853	489.93
1039.14	489.93
