Data from mousepad_grey_FLMS001491_00100.txt Node
Date: Wed Feb 08 14:30:14 GMT 2017
User: dcchb
Spectrometer: FLMS00149
Trigger mode: 0
Integration Time (sec): 2.000000E-2
Scans to average: 10
Electric dark correction enabled: true
Nonlinearity correction enabled: false
Boxcar width: 0
XAxis mode: Wavelengths
Number of Pixels in Spectrum: 2048
>>>>>Begin Spectral Data<<<<<
341.393	0.64
341.776	0.64
342.16	0.64
342.543	-59.25
342.927	-49.76
343.31	-54.5
343.693	-64
344.077	-74.16
344.46	-67.16
344.843	-49.98
345.226	-49.08
345.61	-30.78
345.993	-13.38
346.376	-15.18
346.759	14.87
347.142	16.45
347.525	28.66
347.908	57.36
348.291	74.98
348.674	115.43
349.057	110.46
349.44	121.31
349.823	149.56
350.206	163.8
350.588	183.46
350.971	195.43
351.354	224.58
351.737	211.7
352.119	233.85
352.502	259.84
352.884	262.1
353.267	276.11
353.65	269.56
354.032	289.89
354.414	283.34
354.797	281.53
355.179	317.69
355.562	305.94
355.944	307.29
356.326	303.68
356.709	315.66
357.091	318.14
357.473	317.46
357.855	332.38
358.238	321.53
358.62	314.53
359.002	331.93
359.384	331.93
359.766	324.69
360.148	305.71
360.53	333.96
360.912	342.55
361.294	342.77
361.676	327.41
362.057	331.02
362.439	310.23
362.821	320.4
363.203	300.29
363.584	302.1
363.966	288.76
364.348	324.92
364.729	315.88
365.111	312.04
365.493	324.92
365.874	308.42
366.256	302.77
366.637	290.8
367.019	312.04
367.4	297.35
367.781	296.9
368.163	299.38
368.544	292.38
368.925	292.15
369.306	292.15
369.688	293.28
370.069	309.78
370.45	301.64
370.831	285.6
371.212	294.87
371.593	296
371.974	282.44
372.355	304.58
372.736	293.06
373.117	285.83
373.498	310.23
373.879	299.16
374.26	311.59
374.641	277.69
375.021	300.74
375.402	324.92
375.783	299.61
376.163	316.56
376.544	315.43
376.925	316.33
377.305	316.11
377.686	294.64
378.066	305.03
378.447	299.61
378.827	323.56
379.208	299.16
379.588	333.51
379.968	305.71
380.349	320.4
380.729	317.01
381.109	329.21
381.489	314.75
381.87	307.07
382.25	320.18
382.63	320.85
383.01	322.66
383.39	322.44
383.77	299.84
384.15	327.86
384.53	303.68
384.91	305.03
385.29	352.04
385.67	331.7
386.049	342.1
386.429	334.41
386.809	322.89
387.189	326.28
387.568	347.07
387.948	321.31
388.328	348.2
388.707	355.65
389.087	345.03
389.466	362.89
389.846	322.44
390.225	339.84
390.605	353.85
390.984	350.91
391.363	346.39
391.743	349.78
392.122	346.84
392.501	344.13
392.881	364.47
393.26	364.92
393.639	379.83
394.018	349.78
394.397	352.94
394.776	362.43
395.155	368.54
395.534	360.63
395.913	360.63
396.292	378.48
396.671	368.54
397.05	344.81
397.429	370.8
397.808	374.41
398.186	364.02
398.565	385.26
398.944	355.2
399.323	357.91
399.701	391.59
400.08	390.46
400.458	400.85
400.837	383.68
401.215	406.95
401.594	394.52
401.972	388.2
402.351	393.39
402.729	389.33
403.107	396.11
403.486	401.53
403.864	395.43
404.242	406.27
404.62	409.44
404.999	405.14
405.377	409.44
405.755	418.93
406.133	393.62
406.511	433.62
406.889	413.05
407.267	409.21
407.645	431.81
408.023	394.52
408.401	443.79
408.779	428.87
409.156	436.78
409.534	427.29
409.912	448.76
410.29	433.84
410.667	432.94
411.045	447.18
411.422	449.89
411.8	460.51
412.178	460.74
412.555	462.09
412.933	474.3
413.31	506.38
413.687	479.04
414.065	503.45
414.442	484.69
414.819	472.49
415.197	480.85
415.574	470.68
415.951	497.57
416.328	479.49
416.705	484.69
417.082	509.1
417.46	510.45
417.837	507.74
418.214	512.94
418.591	528.53
418.967	524.92
419.344	521.3
419.721	531.7
420.098	517.46
420.475	511.58
420.852	523.33
421.228	542.54
421.605	542.32
421.982	541.64
422.358	566.95
422.735	536.89
423.111	545.71
423.488	553.62
423.864	557.68
424.241	563.33
424.617	551.36
424.994	578.02
425.37	599.04
425.746	564.69
426.123	573.5
426.499	570.56
426.875	586.16
427.251	586.16
427.627	609.43
428.003	605.59
428.379	608.53
428.756	593.61
429.132	625.7
429.507	650.11
429.883	615.08
430.259	627.51
430.635	649.88
431.011	652.14
431.387	658.47
431.763	660.05
432.138	654.4
432.514	673.84
432.89	665.7
433.265	666.61
433.641	673.39
434.016	677.68
434.392	718.13
434.767	713.61
435.143	710.67
435.518	699.15
435.894	693.72
436.269	732.59
436.644	712.03
437.02	747.51
437.395	722.88
437.77	737.11
438.145	736.89
438.52	745.7
438.895	773.5
439.271	780.95
439.646	768.07
440.021	778.47
440.395	784.57
440.77	785.93
441.145	785.25
441.52	806.72
441.895	791.35
442.27	821.86
442.645	811.69
443.019	819.82
443.394	809.88
443.769	821.18
444.143	839.71
444.518	838.58
444.892	829.99
445.267	848.3
445.641	859.37
446.016	852.14
446.39	864.34
446.764	867.05
447.139	855.75
447.513	854.85
447.887	878.35
448.262	874.51
448.636	877.67
449.01	878.8
449.384	901.63
449.758	917.9
450.132	929.65
450.506	893.04
450.88	923.32
451.254	922.42
451.628	927.62
452.002	921.97
452.376	933.72
452.75	936.66
453.123	971.46
453.497	1006.03
453.871	968.97
454.244	982.53
454.618	992.25
454.992	1005.58
455.365	1015.07
455.739	1018.24
456.112	1025.47
456.486	1020.72
456.859	1048.29
457.232	1065.69
457.606	1072.02
457.979	1059.36
458.352	1108.86
458.725	1119.02
459.099	1147.5
459.472	1154.73
459.845	1125.13
460.218	1134.39
460.591	1145.69
460.964	1157.44
461.337	1195.63
461.71	1199.47
462.083	1187.5
462.456	1214.61
462.829	1224.56
463.201	1246.48
463.574	1237.89
463.947	1281.51
464.32	1288.51
464.692	1281.96
465.065	1273.82
465.438	1329.19
465.81	1327.15
466.183	1345.23
466.555	1348.85
466.928	1375.29
467.3	1390.2
467.672	1403.08
468.045	1414.38
468.417	1420.49
468.789	1425.91
469.161	1477.66
469.534	1479.47
469.906	1488.28
470.278	1503.87
470.65	1511.78
471.022	1533.25
471.394	1554.94
471.766	1551.78
472.138	1552.01
472.51	1614.38
472.882	1659.35
473.253	1680.82
473.625	1699.8
473.997	1684.89
474.369	1726.01
474.74	1752.91
475.112	1747.03
475.484	1777.76
475.855	1788.84
476.227	1816.18
476.598	1879.68
476.97	1922.84
477.341	1910.87
477.713	1952.67
478.084	1924.43
478.455	1987.25
478.827	2018.21
479.198	2087.81
479.569	2036.97
479.94	2110.41
480.311	2147.02
480.682	2172.78
481.053	2186.11
481.424	2225.89
481.795	2275.6
482.166	2280.8
482.537	2334.36
482.908	2355.83
483.279	2409.61
483.65	2418.2
484.021	2468.82
484.391	2506.56
484.762	2533
485.133	2551.98
485.503	2542.04
485.874	2567.8
486.244	2641.92
486.615	2699.1
486.985	2700
487.356	2717.4
487.726	2769.15
488.097	2819.32
488.467	2853.22
488.837	2903.16
489.207	2878.3
489.578	2928.92
489.948	2994.91
490.318	3015.7
490.688	3012.31
491.058	3102.02
491.428	3078.29
491.798	3105.19
492.168	3186.77
492.538	3198.74
492.908	3225.64
493.278	3244.17
493.648	3286.42
494.017	3306.09
494.387	3368.91
494.757	3393.54
495.126	3442.35
495.496	3421.79
495.866	3462.01
496.235	3471.5
496.605	3466.31
496.974	3507.44
497.344	3520.99
497.713	3604.16
498.082	3636.47
498.452	3635.12
498.821	3664.27
499.19	3664.49
499.559	3702.23
499.928	3729.35
500.298	3759.18
500.667	3760.08
501.036	3789.01
501.405	3807.77
501.774	3824.94
502.143	3866.52
502.512	3932.06
502.88	3883.25
503.249	3918.72
503.618	3983.58
503.987	3970.7
504.356	3994.2
504.724	3986.52
505.093	4029.46
505.462	4063.81
505.83	4083.92
506.199	4162.79
506.567	4190.36
506.936	4180.19
507.304	4252.95
507.672	4238.26
508.041	4248.43
508.409	4302.9
508.777	4367.75
509.145	4379.05
509.514	4366.62
509.882	4434.87
510.25	4433.97
510.618	4456.34
510.986	4446.39
511.354	4506.73
511.722	4561.19
512.09	4575.88
512.458	4563.45
512.826	4619.27
513.193	4680.06
513.561	4636.67
513.929	4706.5
514.297	4717.12
514.664	4778.59
515.032	4774.07
515.4	4840.73
515.767	4850.9
516.135	4882.99
516.502	4856.55
516.869	4939.26
517.237	4972.93
517.604	4935.87
517.972	5042.76
518.339	5104.23
518.706	5114.63
519.073	5117.34
519.44	5183.55
519.808	5187.17
520.175	5230.78
520.542	5232.59
520.909	5314.39
521.276	5309.87
521.643	5367.5
522.009	5338.57
522.376	5416.31
522.743	5429.42
523.11	5471.68
523.477	5573.82
523.843	5574.05
524.21	5618.34
524.577	5651.33
524.943	5730.2
525.31	5743.08
525.676	5793.93
526.043	5810.43
526.409	5830.54
526.776	5962.06
527.142	5920.71
527.508	5930.88
527.874	6002.29
528.241	6042.74
528.607	6066.01
528.973	6088.61
529.339	6097.88
529.705	6148.72
530.071	6228.27
530.437	6284.31
530.803	6257.42
531.169	6294.26
531.535	6382.84
531.901	6382.61
532.267	6393.24
532.632	6411.77
532.998	6480.47
533.364	6530.86
533.73	6512.55
534.095	6545.1
534.461	6599.78
534.826	6691.76
535.192	6661.48
535.557	6662.38
535.923	6704.41
536.288	6741.48
536.653	6755.03
537.019	6818.76
537.384	6797.52
537.749	6830.96
538.114	6926.33
538.479	6922.94
538.845	6922.49
539.21	6967.91
539.575	6965.2
539.94	6981.92
540.305	7033.9
540.67	7033.45
541.034	7091.97
541.399	7111.41
541.764	7074.12
542.129	7172.65
542.494	7157.06
542.858	7212.65
543.223	7253.78
543.587	7297.17
543.952	7302.82
544.316	7320.9
544.681	7339.88
545.045	7357.05
545.41	7453.32
545.774	7476.82
546.138	7447.45
546.503	7512.75
546.867	7516.37
547.231	7573.09
547.595	7661.9
547.959	7692.18
548.324	7684.28
548.688	7682.92
549.052	7736.48
549.416	7708.46
549.779	7762.92
550.143	7778.06
550.507	7893.54
550.871	7806.08
551.235	7893.76
551.599	8025.06
551.962	8030.25
552.326	7951.61
552.689	8082.23
553.053	8006.53
553.417	8107.77
553.78	8180.08
554.143	8104.15
554.507	8180.31
554.87	8178.5
555.234	8265.5
555.597	8237.93
555.96	8260.98
556.323	8318.83
556.686	8382.34
557.05	8411.04
557.413	8398.15
557.776	8441.77
558.139	8506.4
558.502	8570.81
558.865	8546.85
559.228	8638.37
559.59	8659.16
559.953	8681.76
560.316	8759.05
560.679	8720.86
561.041	8827.97
561.404	8816.67
561.767	8911.59
562.129	8875.2
562.492	8986.16
562.854	8961.76
563.217	9007.63
563.579	8988.87
563.941	9059.38
564.304	9117.91
564.666	9131.69
565.028	9192.03
565.39	9187.29
565.753	9256.89
566.115	9267.96
566.477	9380.5
566.839	9350.45
567.201	9425.7
567.563	9445.81
567.925	9521.29
568.287	9477.22
568.648	9528.97
569.01	9579.59
569.372	9577.78
569.734	9582.53
570.095	9683.09
570.457	9738.91
570.819	9775.07
571.18	9733.49
571.542	9822.52
571.903	9867.72
572.265	9828.4
572.626	9902.07
572.987	9939.36
573.349	9902.3
573.71	10016.87
574.071	10024.1
574.432	9996.3
574.794	10141.16
575.155	10086.02
575.516	10126.47
575.877	10147.49
576.238	10201.72
576.599	10263.64
576.96	10229.75
577.32	10195.62
577.681	10283.76
578.042	10293.02
578.403	10305
578.763	10311.1
579.124	10334.38
579.485	10357.65
579.845	10372.57
580.206	10371.66
580.566	10427.25
580.927	10412.11
581.287	10537.31
581.648	10447.14
582.008	10460.02
582.368	10484.2
582.728	10504.54
583.089	10415.5
583.449	10522.62
583.809	10489.63
584.169	10525.78
584.529	10519.23
584.889	10545.22
585.249	10531.88
585.609	10516.97
585.969	10561.49
586.329	10629.28
586.688	10508.38
587.048	10599.68
587.408	10595.16
587.768	10590.87
588.127	10608.72
588.487	10584.09
588.846	10659.34
589.206	10532.79
589.565	10618.89
589.925	10629.73
590.284	10591.54
590.643	10652.78
591.003	10586.57
591.362	10688.04
591.721	10652.78
592.08	10648.72
592.44	10700.47
592.799	10701.15
593.158	10690.52
593.517	10672.22
593.876	10689.85
594.235	10706.34
594.593	10708.38
594.952	10724.87
595.311	10716.29
595.67	10712.22
596.029	10801.48
596.387	10743.4
596.746	10788.15
597.104	10735.04
597.463	10756.28
597.822	10855.04
598.18	10794.25
598.538	10753.12
598.897	10796.28
599.255	10742.95
599.613	10869.73
599.972	10804.42
600.33	10869.95
600.688	10830.86
601.046	10860.91
601.404	10858.66
601.762	10806.91
602.12	10946.56
602.478	10924.87
602.836	10903.4
603.194	10832.67
603.552	10862.72
603.91	10781.82
604.268	10945.66
604.625	10899.56
604.983	11010.29
605.341	10860.01
605.698	10958.77
606.056	10960.12
606.413	10976.39
606.771	10980.01
607.128	11006
607.485	10925.77
607.843	10958.77
608.2	11011.19
608.557	11069.05
608.914	10976.84
609.272	11122.38
609.629	11136.84
609.986	11115.82
610.343	11088.71
610.7	11133
611.057	11158.99
611.414	11074.24
611.771	11125.54
612.127	11190.62
612.484	11125.77
612.841	11197.18
613.198	11118.08
613.554	11156.73
613.911	11226.78
614.267	11178.19
614.624	11231.75
614.98	11220.68
615.337	11254.8
615.693	11233.56
616.05	11264.52
616.406	11248.02
616.762	11271.07
617.118	11338.87
617.475	11282.82
617.831	11348.13
618.187	11321.47
618.543	11332.32
618.899	11368.92
619.255	11382.71
619.611	11360.34
619.967	11422.93
620.323	11444.63
620.678	11448.02
621.034	11352.2
621.39	11320.11
621.746	11398.75
622.101	11582.93
622.457	11447.34
622.812	11468.36
623.168	11451.18
623.523	11483.05
623.879	11473.1
624.234	11398.53
624.589	11459.54
624.945	11486.89
625.3	11503.84
625.655	11516.26
626.01	11511.29
626.365	11512.2
626.72	11500.22
627.075	11480.11
627.43	11473.55
627.785	11498.19
628.14	11479.88
628.495	11539.99
628.85	11439.43
629.205	11455.7
629.559	11579.31
629.914	11436.72
630.269	11431.3
630.623	11404.4
630.978	11452.99
631.332	11473.55
631.687	11499.54
632.041	11443.5
632.396	11425.65
632.75	11363.5
633.104	11430.62
633.459	11295.25
633.813	11381.35
634.167	11420.45
634.521	11360.34
634.875	11408.02
635.229	11353.11
635.583	11293.45
635.937	11371.64
636.291	11298.64
636.645	11275.59
636.999	11329.15
637.352	11310.39
637.706	11242.15
638.06	11216.84
638.413	11268.36
638.767	11321.69
639.121	11367.12
639.474	11283.5
639.828	11185.2
640.181	11284.18
640.534	11248.48
640.888	11155.6
641.241	11168.25
641.594	11189.04
641.947	11199.89
642.301	11213.67
642.654	11125.54
643.007	11239.44
643.36	11163.96
643.713	11154.69
644.066	11215.26
644.419	11204.86
644.771	11134.58
645.124	10977.3
645.477	11008.48
645.83	10866.34
646.182	10877.86
646.535	10829.5
646.888	10830.18
647.24	10746.57
647.593	10870.63
647.945	10841.93
648.298	10742.95
648.65	10807.13
649.002	10753.8
649.355	10855.49
649.707	10799.67
650.059	10794.93
650.411	10973.45
650.763	10993.34
651.115	11194.24
651.467	11092.77
651.819	11088.25
652.171	11007.35
652.523	10956.28
652.875	11017.3
653.227	11007.8
653.578	11098.2
653.93	11053.68
654.282	11044.64
654.633	10951.99
654.985	10986.11
655.337	11064.53
655.688	11033.79
656.039	11067.24
656.391	10914.7
656.742	10998.09
657.094	11003.06
657.445	10997.41
657.796	10988.14
658.147	10978.65
658.498	11006.45
658.849	11053
659.2	11021.14
659.551	10975.04
659.902	11100.91
660.253	10994.47
660.604	11049.61
660.955	10956.51
661.306	10986.79
661.656	11032.66
662.007	10965.77
662.358	11015.49
662.708	11029.95
663.059	11026.11
663.409	10944.3
663.76	10983.4
664.11	10996.05
664.461	11023.4
664.811	10970.52
665.161	10969.61
665.511	10959.67
665.862	10994.92
666.212	10962.83
666.562	10973.45
666.912	10957.86
667.262	10973.91
667.612	10948.37
667.962	10899.56
668.312	10862.04
668.662	11043.96
669.011	10941.59
669.361	10934.59
669.711	10876.28
670.06	10930.52
670.41	10947.92
670.76	10940.91
671.109	10973.91
671.459	10897.75
671.808	10907.02
672.157	10934.81
672.507	10850.52
672.856	10859.11
673.205	10932.1
673.554	10938.43
673.904	10896.39
674.253	10913.79
674.602	10905.43
674.951	10694.59
675.3	10706.79
675.649	10896.39
675.998	10894.36
676.346	10905.21
676.695	10852.1
677.044	10748.38
677.393	10854.81
677.741	10866.34
678.09	10782.72
678.438	10770.75
678.787	10761.71
679.135	10893.68
679.484	10689.39
679.832	10779.56
680.181	10652.11
680.529	10782.5
680.877	10749.05
681.225	10651.65
681.573	10797.64
681.922	10704.99
682.27	10573.69
682.618	10666.12
682.966	10623.41
683.314	10652.78
683.661	10585.44
684.009	10561.94
684.357	10545.67
684.705	10545.67
685.053	10500.25
685.4	10576.63
685.748	10466.12
686.095	10423.64
686.443	10380.48
686.79	10404.88
687.138	10441.27
687.485	10455.5
687.832	10271.55
688.18	10385.22
688.527	10328.05
688.874	10322.85
689.221	10239.91
689.568	10276.07
689.915	10259.8
690.262	10294.38
690.609	10200.59
690.956	10155.62
691.303	10104.78
691.65	10098.68
691.997	10083.31
692.344	10123.08
692.69	10057.77
693.037	10029.3
693.383	9894.39
693.73	9955.18
694.077	9841.05
694.423	9883.77
694.769	9837.89
695.116	9928.28
695.462	9870.43
695.808	9759.25
696.155	9835.18
696.501	9791.56
696.847	9732.81
697.193	9605.58
697.539	9680.38
697.885	9624.34
698.231	9566.26
698.577	9617.11
698.923	9540.72
699.269	9502.76
699.614	9453.27
699.96	9478.8
700.306	9482.87
700.651	9432.25
700.997	9431.57
701.342	9353.84
701.688	9342.31
702.033	9341.86
702.379	9322.88
702.724	9297.79
703.069	9272.26
703.415	9152.71
703.76	9186.16
704.105	9229.32
704.45	9168.3
704.795	9088.98
705.14	9025.71
705.485	9077.69
705.83	9066.84
706.175	9065.48
706.52	9045.6
706.865	8978.93
707.209	9006.95
707.554	8902.32
707.899	9010.79
708.243	8914.3
708.588	8903.45
708.932	8825.71
709.277	8797.47
709.621	8804.02
709.966	8788.65
710.31	8820.74
710.654	8700.29
710.998	8759.28
711.342	8745.04
711.687	8680.41
712.031	8675.21
712.375	8657.81
712.719	8651.71
713.063	8689.22
713.407	8617.13
713.75	8635.21
714.094	8612.61
714.438	8559.51
714.782	8609.22
715.125	8591.37
715.469	8594.76
715.812	8523.12
716.156	8526.51
716.499	8529.68
716.843	8552.28
717.186	8482.9
717.53	8543.01
717.873	8509.79
718.216	8480.41
718.559	8485.61
718.902	8418.04
719.246	8416.91
719.589	8387.53
719.932	8421.88
720.275	8390.47
720.617	8369.46
720.96	8417.82
721.303	8335.33
721.646	8387.76
721.989	8349.79
722.331	8369.68
722.674	8334.65
723.016	8336.01
723.359	8339.4
723.701	8319.06
724.044	8281.32
724.386	8213.3
724.729	8314.09
725.071	8256.24
725.413	8338.72
725.755	8258.05
726.097	8214.43
726.439	8199.06
726.782	8231.38
727.124	8241.1
727.465	8235.45
727.807	8197.48
728.149	8163.36
728.491	8212.17
728.833	8214.88
729.175	8172.17
729.516	8253.07
729.858	8188.22
730.199	8203.36
730.541	8120.2
730.882	8215.33
731.224	8193.41
731.565	8130.37
731.906	8133.53
732.248	8070.25
732.589	8059.18
732.93	8084.04
733.271	8120.42
733.612	8153.64
733.953	8130.37
734.294	8086.52
734.635	8065.28
734.976	8117.48
735.317	8035.9
735.658	8118.16
735.999	8087.2
736.339	8089.01
736.68	8080.88
737.021	8080.88
737.361	8078.39
737.702	8111.38
738.042	8055.79
738.383	8081.1
738.723	8060.31
739.063	8032.97
739.404	8063.93
739.744	8060.54
740.084	8082.23
740.424	8032.51
740.764	8061.21
741.104	8062.57
741.444	8019.41
741.784	8039.07
742.124	8060.08
742.464	8023.48
742.804	8018.28
743.143	7977.15
743.483	8041.33
743.823	7980.54
744.162	7940.31
744.502	7997.04
744.841	7900.54
745.181	7988.22
745.52	7891.5
745.86	7961.78
746.199	7904.38
746.538	7906.87
746.877	7961.78
747.216	7989.13
747.556	7980.31
747.895	7920.88
748.234	7913.2
748.573	8014.44
748.911	7930.14
749.25	7894.44
749.589	7878.85
749.928	7898.96
750.267	7947.77
750.605	7863.93
750.944	7919.07
751.283	7809.24
751.621	7884.27
751.96	7871.39
752.298	7853.76
752.636	7846.08
752.975	7877.94
753.313	7795.68
753.651	7797.49
753.989	7811.73
754.327	7761.56
754.666	7765.4
755.004	7760.43
755.342	7776.25
755.679	7739.87
756.017	7666.42
756.355	7708
756.693	7674.56
757.031	7724.5
757.368	7695.12
757.706	7651.28
758.044	7635.92
758.381	7646.99
758.719	7590.94
759.056	7593.88
759.394	7565.63
759.731	7566.54
760.068	7498.74
760.405	7446.77
760.743	7488.35
761.08	7527.67
761.417	7495.58
761.754	7475.24
762.091	7419.42
762.428	7450.38
762.765	7347.34
763.102	7446.77
763.438	7394.11
763.775	7390.5
764.112	7312.99
764.449	7381.68
764.785	7289.03
765.122	7247.45
765.458	7233.21
765.795	7201.35
766.131	7187.79
766.467	7252.65
766.804	7222.37
767.14	7121.58
767.476	7114.57
767.812	7110.73
768.148	7116.61
768.485	7039.32
768.821	7092.2
769.157	6991.86
769.492	6985.31
769.828	6998.19
770.164	6964.29
770.5	6920.68
770.836	6903.96
771.171	6901.25
771.507	6898.31
771.842	6844.3
772.178	6800
772.513	6786.67
772.849	6818.54
773.184	6734.24
773.519	6785.32
773.855	6723.4
774.19	6680.69
774.525	6623.29
774.86	6669.84
775.195	6653.79
775.53	6651.99
775.865	6637.75
776.2	6545.77
776.535	6555.27
776.87	6519.79
777.205	6513.68
777.539	6487.47
777.874	6488.83
778.209	6436.62
778.543	6412.22
778.878	6368.38
779.212	6414.25
779.547	6308.49
779.881	6378.1
780.215	6309.85
780.55	6252.22
780.884	6249.74
781.218	6306.46
781.552	6265.78
781.886	6249.96
782.22	6204.77
782.554	6199.79
782.888	6081.38
783.222	6105.11
783.556	6114.15
783.889	6083.41
784.223	6050.87
784.557	5995.73
784.89	6081.15
785.224	6021.72
785.557	5970.2
785.891	5965.22
786.224	5945.34
786.558	5920.03
786.891	5906.02
787.224	5847.71
787.557	5885.9
787.891	5860.82
788.224	5886.36
788.557	5849.52
788.89	5835.28
789.223	5807.94
789.556	5811.78
789.888	5768.85
790.221	5710.99
790.554	5693.59
790.887	5718.9
791.219	5641.62
791.552	5633.26
791.884	5623.31
792.217	5606.14
792.549	5574.73
792.882	5522.75
793.214	5521.39
793.546	5588.51
793.879	5505.35
794.211	5494.05
794.543	5479.14
794.875	5485.24
795.207	5494.05
795.539	5471.68
795.871	5509.19
796.203	5441.85
796.535	5374.05
796.867	5371.79
797.198	5362.08
797.53	5396.2
797.862	5348.29
798.193	5392.58
798.525	5343.32
798.856	5309.42
799.188	5289.54
799.519	5241.63
799.85	5261.06
800.182	5244.79
800.513	5207.73
800.844	5169.31
801.175	5201.4
801.506	5217.22
801.837	5184
802.168	5168.86
802.499	5132.03
802.83	5101.07
803.161	5080.05
803.491	5071.24
803.822	5099.48
804.153	5043.89
804.483	5030.56
804.814	4986.95
805.145	5015.87
805.475	4988.08
805.805	4962.54
806.136	5029.43
806.466	4939.04
806.796	4963.89
807.126	4925.93
807.457	4896.1
807.787	4973.39
808.117	4935.87
808.447	4827.85
808.777	4905.14
809.107	4904.46
809.436	4878.47
809.766	4857.01
810.096	4842.09
810.426	4821.75
810.755	4838.02
811.085	4842.09
811.414	4827.4
811.744	4795.76
812.073	4775.88
812.403	4785.37
812.732	4697.69
813.061	4772.71
813.39	4758.25
813.719	4733.17
814.049	4704.47
814.378	4628.99
814.707	4714.41
815.036	4676.44
815.365	4670.12
815.693	4630.34
816.022	4650.23
816.351	4635.99
816.68	4662.43
817.008	4609.78
817.337	4558.48
817.665	4559.16
817.994	4576.11
818.322	4567.97
818.651	4521.19
818.979	4527.07
819.307	4546.05
819.636	4479.84
819.964	4497.92
820.292	4576.11
820.62	4554.87
820.948	4471.48
821.276	4497.92
821.604	4458.15
821.932	4508.09
822.259	4495.66
822.587	4521.42
822.915	4512.38
823.243	4526.84
823.57	4453.4
823.898	4469.9
824.225	4481.87
824.553	4490.46
824.88	4505.38
825.207	4515.32
825.535	4507.86
825.862	4498.82
826.189	4504.92
826.516	4494.08
826.843	4506.28
827.17	4466.96
827.497	4511.7
827.824	4500.18
828.151	4515.77
828.478	4493.4
828.805	4506.05
829.131	4478.03
829.458	4466.28
829.785	4442.78
830.111	4495.43
830.438	4485.72
830.764	4485.94
831.09	4496.11
831.417	4447.52
831.743	4522.32
832.069	4469.22
832.395	4502.44
832.722	4452.04
833.048	4495.43
833.374	4433.74
833.7	4436.23
834.026	4442.55
834.351	4461.76
834.677	4471.7
835.003	4476.45
835.329	4429.67
835.654	4392.84
835.98	4414.76
836.306	4390.58
836.631	4391.25
836.956	4390.35
837.282	4374.31
837.607	4414.76
837.932	4377.47
838.258	4353.06
838.583	4386.96
838.908	4419.5
839.233	4410.92
839.558	4335.89
839.883	4299.28
840.208	4326.62
840.533	4311.26
840.858	4281.88
841.182	4337.47
841.507	4312.16
841.832	4322.33
842.156	4271.03
842.481	4267.87
842.805	4323.23
843.13	4280.75
843.454	4293.4
843.778	4238.26
844.103	4259.28
844.427	4216.8
844.751	4225.38
845.075	4210.24
845.399	4186.06
845.723	4163.69
846.047	4200.98
846.371	4173.41
846.695	4179.73
847.019	4139.06
847.343	4138.38
847.666	4076.91
847.99	4117.59
848.313	4071.71
848.637	4066.74
848.96	4087.76
849.284	4039.63
849.607	4017.48
849.931	3974.09
850.254	3984.26
850.577	3958.95
850.9	3933.87
851.223	3931.38
851.546	3925.96
851.869	3864.94
852.192	3920.08
852.515	3856.13
852.838	3885.73
853.161	3895.67
853.483	3857.48
853.806	3846.86
854.129	3789.24
854.451	3822
854.774	3793.53
855.096	3779.97
855.419	3780.42
855.741	3782.23
856.063	3803.25
856.385	3761.67
856.708	3716.47
857.03	3755.57
857.352	3755.11
857.674	3764.15
857.996	3720.99
858.318	3699.3
858.64	3703.82
858.961	3680.09
859.283	3678.5
859.605	3671.05
859.926	3624.72
860.248	3645.96
860.57	3607.55
860.891	3640.99
861.212	3571.62
861.534	3609.58
861.855	3601.22
862.176	3651.16
862.498	3589.02
862.819	3603.48
863.14	3566.64
863.461	3596.93
863.782	3576.13
864.103	3537.72
864.424	3574.78
864.745	3539.07
865.065	3557.15
865.386	3528.68
865.707	3535.01
866.027	3525.51
866.348	3548.34
866.668	3528.23
866.989	3478.96
867.309	3483.71
867.63	3493.88
867.95	3480.09
868.27	3488.45
868.59	3499.75
868.91	3481.45
869.23	3501.33
869.55	3461.34
869.87	3476.48
870.19	3459.3
870.51	3450.49
870.83	3436.48
871.15	3442.58
871.469	3433.54
871.789	3442.13
872.109	3428.12
872.428	3416.36
872.748	3423.14
873.067	3414.56
873.386	3403.94
873.706	3401.9
874.025	3381.56
874.344	3364.84
874.663	3380.66
874.982	3352.41
875.301	3399.42
875.62	3389.25
875.939	3377.04
876.258	3383.15
876.577	3377.04
876.896	3344.95
877.214	3350.83
877.533	3352.19
877.852	3358.29
878.17	3330.04
878.489	3372.75
878.807	3342.92
879.125	3341.79
879.444	3296.14
879.762	3336.37
880.08	3305.63
880.398	3335.24
880.716	3343.15
881.034	3278.97
881.352	3282.81
881.67	3278.97
881.988	3303.6
882.306	3294.56
882.624	3264.96
882.941	3241.23
883.259	3237.84
883.577	3245.52
883.894	3254.56
884.212	3248.01
884.529	3232.87
884.846	3199.2
885.164	3227.9
885.481	3198.74
885.798	3238.74
886.115	3194.9
886.432	3203.72
886.75	3183.38
887.067	3205.3
887.383	3172.53
887.7	3173.21
888.017	3114.9
888.334	3163.26
888.651	3111.29
888.967	3150.84
889.284	3105.86
889.6	3116.71
889.917	3085.98
890.233	3110.61
890.55	3065.19
890.866	3084.4
891.182	3052.31
891.498	3066.54
891.815	3047.79
892.131	3058.63
892.447	3014.79
892.763	3031.52
893.079	3080.1
893.395	3005.08
893.71	3000.33
894.026	3028.13
894.342	3013.21
894.657	2945.19
894.973	2995.59
895.289	2957.85
895.604	2938.19
895.92	2956.04
896.235	2895.7
896.55	2953.55
896.865	2940.22
897.181	2904.51
897.496	2940.45
897.811	2947.9
898.126	2902.03
898.441	2889.37
898.756	2868.58
899.071	2817.96
899.386	2850.73
899.7	2812.54
900.015	2848.02
900.33	2811.86
900.644	2792.2
900.959	2822.93
901.273	2787.68
901.588	2808.92
901.902	2784.07
902.216	2776.61
902.531	2772.09
902.845	2744.07
903.159	2767.57
903.473	2765.99
903.787	2747.46
904.101	2693.45
904.415	2762.37
904.729	2724.41
905.042	2699.77
905.356	2671.98
905.67	2703.84
905.984	2655.26
906.297	2664.07
906.611	2666.55
906.924	2648.7
907.237	2629.49
907.551	2638.53
907.864	2616.16
908.177	2601.25
908.491	2606.44
908.804	2578.87
909.117	2566.44
909.43	2548.37
909.743	2551.98
910.056	2570.74
910.368	2546.56
910.681	2539.78
910.994	2523.28
911.307	2531.42
911.619	2491.64
911.932	2532.32
912.244	2495.26
912.557	2473.34
912.869	2474.69
913.181	2486.9
913.494	2471.08
913.806	2491.87
914.118	2446.67
914.43	2427.46
914.742	2419.33
915.054	2401.93
915.366	2401.7
915.678	2426.79
915.99	2386.34
916.302	2368.93
916.613	2399.22
916.925	2367.58
917.236	2383.62
917.548	2362.83
917.859	2335.72
918.171	2337.3
918.482	2330.07
918.794	2318.99
919.105	2328.48
919.416	2325.09
919.727	2316.51
920.038	2262.27
920.349	2292.33
920.66	2260.24
920.971	2241.71
921.282	2247.36
921.593	2223.85
921.903	2245.32
922.214	2201.48
922.525	2192.22
922.835	2214.81
923.146	2210.75
923.456	2175.27
923.767	2213.01
924.077	2194.02
924.387	2180.92
924.697	2147.02
925.008	2155.61
925.318	2137.53
925.628	2133.69
925.938	2142.95
926.248	2118.32
926.558	2094.59
926.867	2086.91
927.177	2071.99
927.487	2058.89
927.796	2069.28
928.106	2088.72
928.416	2081.48
928.725	2075.38
929.034	2071.54
929.344	2057.76
929.653	2064.31
929.962	2025.89
930.271	2014.59
930.581	2059.11
930.89	2004.88
931.199	1992.45
931.508	1988.61
931.817	1984.54
932.125	1992.67
932.434	1974.37
932.743	1949.74
933.051	2007.36
933.36	1962.17
933.669	1949.74
933.977	1922.84
934.286	1956.06
934.594	1902.73
934.902	1909.96
935.21	1879.23
935.519	1927.36
935.827	1893.69
936.135	1909.29
936.443	1873.13
936.751	1887.37
937.059	1881.26
937.367	1855.5
937.674	1836.52
937.982	1847.59
938.29	1834.49
938.597	1853.47
938.905	1817.99
939.213	1823.41
939.52	1839.46
939.827	1849.17
940.135	1835.84
940.442	1812.79
940.749	1781.61
941.056	1788.61
941.363	1767.14
941.67	1773.24
941.977	1778.44
942.284	1731.66
942.591	1751.32
942.898	1736.18
943.205	1733.25
943.511	1745.45
943.818	1759.91
944.125	1727.82
944.431	1729.4
944.738	1725.79
945.044	1703.19
945.35	1684.66
945.657	1693.7
945.963	1686.92
946.269	1675.85
946.575	1664.09
946.881	1650.31
947.187	1672.23
947.493	1657.54
947.799	1640.37
948.105	1645.56
948.41	1641.27
948.716	1626.36
949.022	1617.32
949.327	1634.04
949.633	1583.87
949.938	1616.41
950.244	1603.08
950.549	1577.54
950.854	1578.67
951.16	1593.81
951.465	1591.55
951.77	1568.96
952.075	1612.57
952.38	1571.44
952.685	1551.56
952.99	1552.23
953.294	1564.44
953.599	1540.71
953.904	1538.9
954.209	1512.91
954.513	1531.67
954.818	1528.51
955.122	1531.22
955.426	1510.88
955.731	1514.72
956.035	1502.74
956.339	1516.75
956.643	1487.38
956.948	1479.47
957.252	1468.39
957.556	1488.05
957.86	1502.52
958.163	1475.17
958.467	1452.35
958.771	1439.69
959.075	1428.39
959.378	1455.06
959.682	1432.01
959.985	1408.06
960.289	1439.02
960.592	1416.19
960.896	1434.5
961.199	1411.45
961.502	1401.05
961.805	1385.01
962.108	1410.09
962.411	1369.64
962.714	1380.71
963.017	1383.88
963.32	1391.79
963.623	1355.63
963.926	1376.64
964.228	1393.59
964.531	1350.88
964.833	1347.72
965.136	1298.91
965.438	1343.2
965.741	1337.1
966.043	1333.26
966.345	1314.27
966.648	1340.04
966.95	1318.57
967.252	1293.03
967.554	1309.53
967.856	1334.16
968.158	1302.75
968.46	1309.53
968.761	1283.09
969.063	1289.64
969.365	1285.12
969.666	1292.58
969.968	1279.02
970.269	1273.82
970.571	1266.37
970.872	1240.15
971.174	1266.14
971.475	1267.27
971.776	1250.32
972.077	1250.55
972.378	1252.13
972.679	1224.78
972.98	1232.47
973.281	1225.91
973.582	1232.69
973.883	1226.59
974.183	1194.28
974.484	1218.68
974.785	1196.99
975.085	1222.07
975.386	1218.46
975.686	1193.6
975.986	1195.41
976.287	1170.55
976.587	1192.02
976.887	1178.68
977.187	1158.8
977.487	1181.85
977.787	1161.96
978.087	1194.95
978.387	1162.19
978.687	1176.2
978.987	1144.11
979.286	1126.93
979.586	1105.01
979.885	1147.5
980.185	1127.39
980.484	1112.24
980.784	1111.79
981.083	1095.07
981.382	1094.39
981.682	1116.99
981.981	1125.58
982.28	1115.63
982.579	1128.06
982.878	1105.92
983.177	1102.98
983.475	1126.71
983.774	1097.78
984.073	1088.97
984.372	1090.1
984.67	1071.12
984.969	1089.42
985.267	1092.58
985.566	1089.42
985.864	1057.56
986.162	1060.04
986.461	1046.94
986.759	1063.43
987.057	1036.31
987.355	1070.66
987.653	1057.33
987.951	1036.99
988.249	1021.63
988.547	1040.61
988.844	1015.07
989.142	1027.05
989.44	1017.11
989.737	1014.17
990.035	994.28
990.332	1019.59
990.63	987.05
990.927	1014.17
991.224	966.26
991.521	1007.84
991.819	1000.38
992.116	1008.97
992.413	986.82
992.71	958.12
993.006	973.49
993.303	963.55
993.6	947.5
993.897	982.76
994.193	959.25
994.49	960.61
994.787	946.15
995.083	948.18
995.379	963.77
995.676	928.75
995.972	931.01
996.268	950.89
996.565	928.52
996.861	933.49
997.157	946.37
997.453	936.43
997.749	904.34
998.044	922.87
998.34	915.41
998.636	904.11
998.932	905.02
999.227	888.3
999.523	924.45
999.818	893.27
1000.114	870.67
1000.409	883.32
1000.704	887.84
1001	887.17
1001.295	877.67
1001.59	871.57
1001.885	879.93
1002.18	856.66
1002.475	870.44
1002.77	867.05
1003.065	855.75
1003.359	864.79
1003.654	840.16
1003.949	841.29
1004.243	836.77
1004.538	846.04
1004.832	822.76
1005.127	825.47
1005.421	862.99
1005.715	840.16
1006.009	819.82
1006.304	819.37
1006.598	813.5
1006.892	819.37
1007.186	803.55
1007.48	820.05
1007.773	805.59
1008.067	789.99
1008.361	786.38
1008.655	804.68
1008.948	784.34
1009.242	790.67
1009.535	796.32
1009.829	802.87
1010.122	778.92
1010.415	757.45
1010.708	766.04
1011.001	755.64
1011.295	756.1
1011.588	743.89
1011.881	756.77
1012.173	744.57
1012.466	754.51
1012.759	739.15
1013.052	748.41
1013.344	736.66
1013.637	735.31
1013.93	748.19
1014.222	744.12
1014.514	737.57
1014.807	719.71
1015.099	728.98
1015.391	719.26
1015.683	729.2
1015.976	705.25
1016.268	702.76
1016.56	679.71
1016.851	724.46
1017.143	710.67
1017.435	710.67
1017.727	679.26
1018.018	694.18
1018.31	706.61
1018.602	687.62
1018.893	694.4
1019.185	693.27
1019.476	687.62
1019.767	694.4
1020.058	651.01
1020.35	680.39
1020.641	677.68
1020.932	646.27
1021.223	648.98
1021.514	669.54
1021.804	682.65
1022.095	658.02
1022.386	685.36
1022.677	659.6
1022.967	654.18
1023.258	625.7
1023.548	657.79
1023.839	646.95
1024.129	632.71
1024.419	636.1
1024.709	627.29
1025	637
1025.29	615.31
1025.58	653.27
1025.87	621.41
1026.16	616.44
1026.449	633.84
1026.739	592.94
1027.029	593.39
1027.319	604.46
1027.608	592.71
1027.898	609.21
1028.187	588.19
1028.477	592.48
1028.766	586.61
1029.055	581.64
1029.344	582.77
1029.634	601.52
1029.923	586.16
1030.212	569.89
1030.501	575.99
1030.79	574.41
1031.078	589.55
1031.367	569.21
1031.656	565.37
1031.945	580.06
1032.233	562.88
1032.522	551.58
1032.81	575.31
1033.099	554.52
1033.387	558.59
1033.675	555.88
1033.963	553.84
1034.251	542.77
1034.54	554.52
1034.828	546.16
1035.116	535.08
1035.403	568.76
1035.691	541.19
1035.979	533.28
1036.267	528.76
1036.554	539.83
1036.842	524.01
1037.129	532.82
1037.417	500.06
1037.704	523.79
1037.992	524.24
1038.279	530.11
1038.566	540.96
1038.853	540.96
1039.14	540.96
