Data from mousepad_grey_FLMS001491_00065.txt Node
Date: Wed Feb 08 14:29:46 GMT 2017
User: dcchb
Spectrometer: FLMS00149
Trigger mode: 0
Integration Time (sec): 2.000000E-2
Scans to average: 10
Electric dark correction enabled: true
Nonlinearity correction enabled: false
Boxcar width: 0
XAxis mode: Wavelengths
Number of Pixels in Spectrum: 2048
>>>>>Begin Spectral Data<<<<<
341.393	-12.37
341.776	-12.37
342.16	-12.37
342.543	-46.95
342.927	-59.6
343.31	-72.71
343.693	-67.06
344.077	-72.94
344.46	-53.05
344.843	-57.57
345.226	-53.5
345.61	-38.81
345.993	7.97
346.376	9.1
346.759	7.97
347.142	34.18
347.525	16.78
347.908	65.59
348.291	75.99
348.674	103.56
349.057	94.52
349.44	123.67
349.823	151.24
350.206	155.76
350.588	170.9
350.971	179.94
351.354	210.22
351.737	236.43
352.119	210.22
352.502	242.76
352.884	258.13
353.267	257
353.65	271.46
354.032	278.47
354.414	278.24
354.797	285.25
355.179	302.42
355.562	299.48
355.944	315.3
356.326	292.48
356.709	314.17
357.091	310.78
357.473	333.83
357.855	294.29
358.238	300.61
358.62	319.14
359.002	328.64
359.384	324.57
359.766	323.21
360.148	349.65
360.53	301.29
360.912	310.33
361.294	310.33
361.676	312.82
362.057	304.23
362.439	312.14
362.821	315.3
363.203	315.53
363.584	305.81
363.966	332.93
364.348	304.68
364.729	298.58
365.111	287.96
365.493	294.06
365.874	298.35
366.256	277.79
366.637	292.93
367.019	305.13
367.4	295.87
367.781	289.99
368.163	294.06
368.544	282.08
368.925	299.26
369.306	329.09
369.688	302.2
370.069	292.48
370.45	293.38
370.831	298.13
371.212	293.83
371.593	299.94
371.974	299.03
372.355	287.73
372.736	318.92
373.117	285.02
373.498	302.87
373.879	300.61
374.26	296.55
374.641	274.85
375.021	294.74
375.402	294.51
375.783	310.33
376.163	300.61
376.544	303.78
376.925	306.04
377.305	315.08
377.686	316.43
378.066	316.88
378.447	319.82
378.827	318.92
379.208	303.55
379.588	311.23
379.968	313.27
380.349	297.22
380.729	311.46
381.109	302.2
381.489	321.18
381.87	326.83
382.25	328.18
382.63	308.3
383.01	310.33
383.39	323.44
383.77	339.03
384.15	321.86
384.53	336.09
384.91	330.44
385.29	328.64
385.67	338.8
386.049	320.73
386.429	341.97
386.809	349.43
387.189	336.77
387.568	311.91
387.948	337.9
388.328	337.67
388.707	349.65
389.087	348.07
389.466	354.4
389.846	325.7
390.225	324.34
390.605	335.87
390.984	324.12
391.363	327.73
391.743	354.85
392.122	360.5
392.501	365.7
392.881	348.3
393.26	334.28
393.639	356.43
394.018	352.36
394.397	355.75
394.776	356.21
395.155	361.18
395.534	363.44
395.913	368.41
396.292	352.59
396.671	369.99
397.05	367.96
397.429	376.54
397.808	362.76
398.186	370.44
398.565	383.32
398.944	371.35
399.323	372.02
399.701	389.2
400.08	384.91
400.458	377
400.837	364.11
401.215	417.22
401.594	389.88
401.972	375.64
402.351	387.62
402.729	388.75
403.107	388.29
403.486	402.31
403.864	412.93
404.242	387.62
404.62	393.94
404.999	419.93
405.377	411.12
405.755	429.65
406.133	420.61
406.511	418.12
406.889	439.14
407.267	427.84
407.645	420.38
408.023	422.87
408.401	438.69
408.779	461.29
409.156	437.11
409.534	428.07
409.912	466.48
410.29	438.92
410.667	449.31
411.045	448.86
411.422	459.48
411.8	460.61
412.178	453.38
412.555	464.23
412.933	493.6
413.31	459.71
413.687	459.93
414.065	466.71
414.442	495.41
414.819	500.38
415.197	498.35
415.574	482.53
415.951	508.29
416.328	512.81
416.705	482.53
417.082	495.86
417.46	507.16
417.837	497.22
418.214	515.3
418.591	512.36
418.967	527.73
419.344	530.89
419.721	528.4
420.098	506.94
420.475	522.3
420.852	540.61
421.228	551.68
421.605	541.74
421.982	536.54
422.358	554.17
422.735	559.36
423.111	541.51
423.488	580.61
423.864	580.83
424.241	567.27
424.617	562.98
424.994	570.21
425.37	583.54
425.746	557.33
426.123	581.28
426.499	583.32
426.875	575.86
427.251	588.52
427.627	597.55
428.003	607.5
428.379	617.22
428.756	622.64
429.132	625.8
429.507	645.24
429.883	640.27
430.259	630.77
430.635	647.27
431.011	655.18
431.387	644.33
431.763	698.34
432.138	660.83
432.514	680.49
432.89	652.02
433.265	698.8
433.641	698.12
434.016	681.17
434.392	692.92
434.767	720.94
435.143	709.42
435.518	731.56
435.894	724.11
436.269	750.09
436.644	732.24
437.02	759.81
437.395	729.98
437.77	735.18
438.145	749.64
438.52	755.97
438.895	787.83
439.271	774.5
439.646	797.1
440.021	789.87
440.395	800.94
440.77	801.17
441.145	800.04
441.52	803.88
441.895	826.02
442.27	808.17
442.645	808.85
443.019	828.06
443.394	832.13
443.769	848.4
444.143	849.53
444.518	827.38
444.892	864.67
445.267	855.4
445.641	861.95
446.016	856.98
446.39	844.33
446.764	871.9
447.139	850.2
447.513	891.56
447.887	862.63
448.262	894.04
448.636	868.28
449.01	905.12
449.384	891.33
449.758	904.89
450.132	919.58
450.506	937.66
450.88	937.66
451.254	912.12
451.628	932.24
452.002	962.29
452.376	937.43
452.75	961.84
453.123	957.55
453.497	1019.46
453.871	989.41
454.244	999.58
454.618	1007.94
454.992	1031.67
455.365	1028.96
455.739	1046.81
456.112	1041.84
456.486	1048.84
456.859	1078.9
457.232	1073.25
457.606	1114.38
457.979	1100.82
458.352	1081.38
458.725	1094.72
459.099	1136.3
459.472	1145.34
459.845	1143.76
460.218	1149.4
460.591	1177.65
460.964	1162.96
461.337	1206.35
461.71	1204.54
462.083	1208.39
462.456	1241.38
462.829	1230.76
463.201	1261.49
463.574	1233.7
463.947	1254.94
464.32	1305.33
464.692	1299.68
465.065	1297.88
465.438	1335.61
465.81	1329.97
466.183	1344.65
466.555	1395.5
466.928	1415.16
467.3	1386.69
467.672	1400.7
468.045	1451.77
468.417	1425.78
468.789	1444.99
469.161	1451.77
469.534	1466.46
469.906	1505.1
470.278	1503.75
470.65	1525.44
471.022	1550.07
471.394	1590.98
471.766	1614.25
472.138	1607.7
472.51	1636.85
472.882	1656.74
473.253	1663.06
473.625	1696.51
473.997	1736.28
474.369	1716.17
474.74	1746
475.112	1799.33
475.484	1781.93
475.855	1864.41
476.227	1856.96
476.598	1917.75
476.97	1862.83
477.341	1946.9
477.713	1975.82
478.084	1975.82
478.455	2017.4
478.827	2028.03
479.198	2058.31
479.569	2095.14
479.94	2127.01
480.311	2147.8
480.682	2168.14
481.053	2213.56
481.424	2241.35
481.795	2272.31
482.166	2307.57
482.537	2342.14
482.908	2395.47
483.279	2409.48
483.65	2436.15
484.021	2481.57
484.391	2507.56
484.762	2569.03
485.133	2555.02
485.503	2605.86
485.874	2644.05
486.244	2662.36
486.615	2676.37
486.985	2720.89
487.356	2766.09
487.726	2807.89
488.097	2828.68
488.467	2834.11
488.837	2896.7
489.207	2944.61
489.578	2983.71
489.948	2998.4
490.318	3034.33
490.688	3060.54
491.058	3116.36
491.428	3153.42
491.798	3184.83
492.168	3242.91
492.538	3237.26
492.908	3255.79
493.278	3281.78
493.648	3321.55
494.017	3359.29
494.387	3355.45
494.757	3392.74
495.126	3425.28
495.496	3403.36
495.866	3490.36
496.235	3486.07
496.605	3551.15
496.974	3587.31
497.344	3606.74
497.713	3647.64
498.082	3604.71
498.452	3657.36
498.821	3655.33
499.19	3682.45
499.559	3747.3
499.928	3770.13
500.298	3762.9
500.667	3847.64
501.036	3836.57
501.405	3838.83
501.774	3860.75
502.143	3905.72
502.512	3891.25
502.88	3966.05
503.249	3973.51
503.618	4007.41
503.987	3977.13
504.356	4042.44
504.724	4081.98
505.093	4099.38
505.462	4098.71
505.83	4131.02
506.199	4183.45
506.567	4180.51
506.936	4226.61
507.304	4242.43
507.672	4302.09
508.041	4326.5
508.409	4335.08
508.777	4358.13
509.145	4388.87
509.514	4366.72
509.882	4396.55
510.25	4410.56
510.618	4478.81
510.986	4481.97
511.354	4523.55
511.722	4550.22
512.09	4584.34
512.458	4622.76
512.826	4632.93
513.193	4648.97
513.561	4690.55
513.929	4691.91
514.297	4772.59
514.664	4819.59
515.032	4823.43
515.4	4862.3
515.767	4879.7
516.135	4924.45
516.502	4902.3
516.869	5011.68
517.237	5001.73
517.604	4966.03
517.972	5035.63
518.339	5054.16
518.706	5094.84
519.073	5136.42
519.44	5189.3
519.808	5203.31
520.175	5164.21
520.542	5280.82
520.909	5308.62
521.276	5329.41
521.643	5331.67
522.009	5406.47
522.376	5436.3
522.743	5501.38
523.11	5517.43
523.477	5547.93
523.843	5574.37
524.21	5651.43
524.577	5634.26
524.943	5709.96
525.31	5727.14
525.676	5767.36
526.043	5847.81
526.409	5888.04
526.776	5935.04
527.142	5923.74
527.508	5971.65
527.874	6020.92
528.241	6011.65
528.607	6090.29
528.973	6100.01
529.339	6128.71
529.705	6158.99
530.071	6228.14
530.437	6284.19
530.803	6282.83
531.169	6357.86
531.535	6313.34
531.901	6397.18
532.267	6412.54
532.632	6434.01
532.998	6501.81
533.364	6548.13
533.73	6568.02
534.095	6632.42
534.461	6610.28
534.826	6642.37
535.192	6706.09
535.557	6708.81
535.923	6754.91
536.288	6778.18
536.653	6759.2
537.019	6806.43
537.384	6802.82
537.749	6871.06
538.114	6891.63
538.479	6908.12
538.845	6971.85
539.21	6995.8
539.575	6988.35
539.94	7026.54
540.305	7068.57
540.67	7091.17
541.034	7084.16
541.399	7162.13
541.764	7128.46
542.129	7208.68
542.494	7212.97
542.858	7286.64
543.223	7272.86
543.587	7312.18
543.952	7363.7
544.316	7359.86
544.681	7390.6
545.045	7432.86
545.41	7450.71
545.774	7465.62
546.138	7522.57
546.503	7533.19
546.867	7541.33
547.231	7634.21
547.595	7620.2
547.959	7639.86
548.324	7695.45
548.688	7659.97
549.052	7699.74
549.416	7782.68
549.779	7734.09
550.143	7805.05
550.507	7865.16
550.871	7844.6
551.235	7886.63
551.599	7991.26
551.962	7955.55
552.326	7980.41
552.689	8062.67
553.053	7995.55
553.417	8092.73
553.78	8147.86
554.143	8121.42
554.507	8124.59
554.87	8182.44
555.234	8271.7
555.597	8245.72
555.96	8313.28
556.323	8272.38
556.686	8350.8
557.05	8378.59
557.413	8409.55
557.776	8478.25
558.139	8519.83
558.502	8542.66
558.865	8509.21
559.228	8667.4
559.59	8656.78
559.953	8661.98
560.316	8793.5
560.679	8734.97
561.041	8827.4
561.404	8895.19
561.767	8902.42
562.129	8876.66
562.492	8977.45
562.854	9013.15
563.217	8931.8
563.579	9007.05
563.941	9085.92
564.304	9130.66
564.666	9188.97
565.028	9194.39
565.39	9225.58
565.753	9265.12
566.115	9313.71
566.477	9331.34
566.839	9360.26
567.201	9436.64
567.563	9435.29
567.925	9562.06
568.287	9531.78
568.648	9546.25
569.01	9632.57
569.372	9680.03
569.734	9637.32
570.095	9685.9
570.457	9747.37
570.819	9761.83
571.18	9813.36
571.542	9812.68
571.903	9866.69
572.265	9840.48
572.626	9965.9
572.987	9979.68
573.349	10044.76
573.71	9986.69
574.071	10005.44
574.432	10084.99
574.794	10125.89
575.155	10162.28
575.516	10147.36
575.877	10204.08
576.238	10148.49
576.599	10267.36
576.96	10202.5
577.32	10275.27
577.681	10310.29
578.042	10363.85
578.403	10332.21
578.763	10364.53
579.124	10414.02
579.485	10409.27
579.845	10383.29
580.206	10393.68
580.566	10439.78
580.927	10395.49
581.287	10537.86
581.648	10447.92
582.008	10523.85
582.368	10498.99
582.728	10511.64
583.089	10531.98
583.449	10520.68
583.809	10485.88
584.169	10535.82
584.529	10538.54
584.889	10595.48
585.249	10543.96
585.609	10535.15
585.969	10588.93
586.329	10510.74
586.688	10635.48
587.048	10566.33
587.408	10603.17
587.768	10576.05
588.127	10536.95
588.487	10573.34
588.846	10630.96
589.206	10572.66
589.565	10634.58
589.925	10632.77
590.284	10622.83
590.643	10593
591.003	10624.18
591.362	10676.61
591.721	10645.88
592.08	10652.43
592.44	10716.61
592.799	10695.37
593.158	10691.98
593.517	10699.44
593.876	10711.64
594.235	10720.23
594.593	10738.08
594.952	10710.06
595.311	10661.92
595.67	10731.53
596.029	10776.5
596.387	10775.59
596.746	10762.71
597.104	10745.76
597.463	10717.97
597.822	10776.04
598.18	10788.25
598.538	10742.15
598.897	10823.5
599.255	10676.16
599.613	10842.94
599.972	10792.99
600.33	10788.47
600.688	10749.6
601.046	10754.58
601.404	10828.47
601.762	10793.22
602.12	10864.4
602.478	10845.42
602.836	10849.94
603.194	10894.91
603.552	10884.29
603.91	10796.38
604.268	10789.83
604.625	10823.05
604.983	10923.84
605.341	10827.79
605.698	10954.34
606.056	10922.48
606.413	10881.58
606.771	10879.09
607.128	10927.9
607.485	10917.51
607.843	10844.07
608.2	10972.88
608.557	11059.65
608.914	11027.79
609.272	11035.25
609.629	11020.33
609.986	11075.7
610.343	11019.88
610.7	11085.87
611.057	11091.74
611.414	11041.8
611.771	11036.6
612.127	11162.25
612.484	11152.76
612.841	11176.94
613.198	11140.78
613.554	11147.33
613.911	11203.6
614.267	11218.07
614.624	11175.36
614.98	11225.3
615.337	11287.9
615.693	11225.52
616.05	11283.38
616.406	11260.33
616.762	11223.72
617.118	11235.24
617.475	11315.24
617.831	11376.25
618.187	11309.36
618.543	11308.01
618.899	11397.72
619.255	11351.62
619.611	11322.02
619.967	11341.45
620.323	11385.97
620.678	11327.67
621.034	11295.58
621.39	11344.16
621.746	11320.66
622.101	11488.34
622.457	11372.64
622.812	11415.12
623.168	11401.34
623.523	11401.56
623.879	11444.28
624.234	11360.44
624.589	11461.68
624.945	11460.09
625.3	11488.57
625.655	11482.69
626.01	11424.61
626.365	11415.58
626.72	11391.4
627.075	11452.41
627.43	11471.62
627.785	11375.58
628.14	11449.92
628.495	11440.21
628.85	11435.69
629.205	11448.34
629.559	11423.48
629.914	11380.55
630.269	11418.29
630.623	11352.75
630.978	11344.39
631.332	11425.97
631.687	11357.5
632.041	11397.72
632.396	11368.57
632.75	11335.58
633.104	11439.76
633.459	11302.36
633.813	11303.71
634.167	11272.53
634.521	11263.26
634.875	11342.13
635.229	11386.65
635.583	11210.38
635.937	11243.6
636.291	11214.68
636.645	11294.45
636.999	11192.08
637.352	11263.72
637.706	11173.77
638.06	11285.18
638.413	11164.96
638.767	11206.32
639.121	11237.5
639.474	11052.42
639.828	11124.96
640.181	11148.92
640.534	11172.64
640.888	11087.9
641.241	11104.85
641.594	11110.27
641.947	11151.18
642.301	11037.05
642.654	11147.56
643.007	11079.09
643.36	11063.04
643.713	11046.32
644.066	11145.98
644.419	11153.44
644.771	10966.32
645.124	10909.15
645.477	10941.01
645.83	10854.23
646.182	10776.72
646.535	10731.3
646.888	10813.33
647.24	10701.92
647.593	10748.93
647.945	10744.86
648.298	10734.46
648.65	10693.33
649.002	10616.27
649.355	10703.28
649.707	10732.66
650.059	10718.64
650.411	10868.02
650.763	10895.59
651.115	10922.71
651.467	10914.35
651.819	10959.09
652.171	10896.72
652.523	10945.53
652.875	10917.96
653.227	10920.22
653.578	10968.58
653.93	10955.02
654.282	10915.7
654.633	10880.22
654.985	10937.17
655.337	10915.25
655.688	10893.78
656.039	10914.8
656.391	10865.53
656.742	10865.31
657.094	10872.76
657.445	10901.24
657.796	10972.88
658.147	10876.15
658.498	10962.93
658.849	10884.29
659.2	10900.11
659.551	10877.96
659.902	10926.77
660.253	10847.91
660.604	10919.32
660.955	10863.27
661.306	10915.25
661.656	10906.66
662.007	10868.25
662.358	10876.15
662.708	10896.49
663.059	10876.83
663.409	10759.32
663.76	10894.69
664.11	10869.6
664.461	10864.18
664.811	10850.62
665.161	10922.03
665.511	10854.69
665.862	10929.94
666.212	10884.29
666.562	10923.84
666.912	10856.95
667.262	10853.78
667.612	10860.56
667.962	10868.02
668.312	10839.55
668.662	10902.37
669.011	10898.53
669.361	10816.72
669.711	10834.8
670.06	10835.48
670.41	10800.68
670.76	10714.13
671.109	10855.82
671.459	10764.75
671.808	10810.85
672.157	10857.85
672.507	10779.89
672.856	10727.23
673.205	10775.14
673.554	10769.94
673.904	10730.62
674.253	10845.65
674.602	10793.45
674.951	10624.86
675.3	10562.72
675.649	10758.64
675.998	10750.51
676.346	10745.54
676.695	10739.66
677.044	10677.74
677.393	10689.04
677.741	10661.02
678.09	10726.55
678.438	10656.27
678.787	10633.22
679.135	10651.98
679.484	10602.04
679.832	10606.33
680.181	10556.62
680.529	10658.53
680.877	10540.57
681.225	10580.8
681.573	10664.63
681.922	10468.26
682.27	10443.85
682.618	10570.4
682.966	10503.96
683.314	10512.55
683.661	10389.61
684.009	10379.9
684.357	10376.96
684.705	10383.29
685.053	10336.28
685.4	10362.95
685.748	10305.1
686.095	10331.54
686.443	10315.27
686.79	10337.19
687.138	10296.06
687.485	10274.59
687.832	10187.13
688.18	10185.33
688.527	10121.37
688.874	10131.32
689.221	10093.35
689.568	10106.23
689.915	10100.81
690.262	10075.72
690.609	10048.38
690.956	10012.22
691.303	10004.54
691.65	9948.27
691.997	10018.1
692.344	9886.12
692.69	9890.87
693.037	9962.05
693.383	9789.4
693.73	9867.37
694.077	9770.65
694.423	9772.68
694.769	9719.12
695.116	9701.72
695.462	9654.72
695.808	9659.24
696.155	9676.41
696.501	9565
696.847	9584.44
697.193	9566.36
697.539	9544.21
697.885	9463.54
698.231	9492.46
698.577	9469.86
698.923	9423.99
699.269	9307.83
699.614	9309.42
699.96	9313.48
700.306	9333.37
700.651	9277.33
700.997	9205.92
701.342	9230.77
701.688	9202.07
702.033	9228.51
702.379	9156.65
702.724	9097.22
703.069	9163.88
703.415	9073.26
703.76	9070.33
704.105	9074.17
704.45	9035.3
704.795	8920.95
705.14	8965.47
705.485	8939.93
705.83	8880.27
706.175	8931.35
706.52	8918.69
706.865	8857.22
707.209	8855.64
707.554	8829.65
707.899	8795.31
708.243	8772.03
708.588	8711.92
708.932	8673.5
709.277	8657
709.621	8726.38
709.966	8611.13
710.31	8688.87
710.654	8506.27
710.998	8626.27
711.342	8657.91
711.687	8548.08
712.031	8561.41
712.375	8473.05
712.719	8511.02
713.063	8545.59
713.407	8477.8
713.75	8409.33
714.094	8517.57
714.438	8484.13
714.782	8479.38
715.125	8473.28
715.469	8452.94
715.812	8346.28
716.156	8400.74
716.499	8335.2
716.843	8363.23
717.186	8354.87
717.53	8296.56
717.873	8290.46
718.216	8279.39
718.559	8313.06
718.902	8307.63
719.246	8295.88
719.589	8229.9
719.932	8292.49
720.275	8283.91
720.617	8212.04
720.96	8203.68
721.303	8230.57
721.646	8234.19
721.989	8120.75
722.331	8225.6
722.674	8199.39
723.016	8112.61
723.359	8192.84
723.701	8180.18
724.044	8167.53
724.386	8153.06
724.729	8184.25
725.071	8135.44
725.413	8125.72
725.755	8126.17
726.097	8059.96
726.439	8075.1
726.782	8116.45
727.124	8125.27
727.465	8050.92
727.807	8046.85
728.149	7997.59
728.491	8043.23
728.833	8011.37
729.175	8058.38
729.516	8005.27
729.858	8002.78
730.199	8035.33
730.541	8019.51
730.882	8031.03
731.224	8031.48
731.565	8018.38
731.906	8043.46
732.248	8002.78
732.589	7988.77
732.93	8010.69
733.271	7907.19
733.612	8001.88
733.953	7986.06
734.294	7927.98
734.635	7955.55
734.976	7987.64
735.317	7972.5
735.658	7991.71
735.999	8000.07
736.339	7884.14
736.68	7951.49
737.021	7900.64
737.361	7936.34
737.702	8025.38
738.042	7909
738.383	7933.86
738.723	7953.29
739.063	7908.55
739.404	7908.1
739.744	7874.65
740.084	7898.61
740.424	7934.31
740.764	7888.66
741.104	7889.79
741.444	7900.41
741.784	7876.69
742.124	7889.11
742.464	7857.93
742.804	7852.51
743.143	7849.57
743.483	7814.54
743.823	7814.99
744.162	7851.38
744.502	7845.05
744.841	7815.44
745.181	7912.16
745.52	7836.23
745.86	7870.13
746.199	7859.74
746.538	7828.33
746.877	7830.13
747.216	7867.65
747.556	7835.1
747.895	7818.83
748.234	7805.27
748.573	7798.27
748.911	7720.31
749.25	7816.35
749.589	7775.67
749.928	7770.02
750.267	7786.97
750.605	7779.74
750.944	7711.72
751.283	7777.25
751.621	7771.83
751.96	7699.29
752.298	7751.49
752.636	7713.75
752.975	7702
753.313	7652.06
753.651	7719.4
753.989	7702.45
754.327	7704.71
754.666	7540.65
755.004	7652.51
755.342	7647.09
755.679	7631.27
756.017	7591.72
756.355	7668.78
756.693	7588.56
757.031	7556.69
757.368	7554.89
757.706	7516.47
758.044	7548.56
758.381	7527.32
758.719	7519.86
759.056	7382.46
759.394	7475.11
759.731	7418.84
760.068	7386.08
760.405	7406.64
760.743	7442.35
761.08	7385.63
761.417	7311.73
761.754	7332.75
762.091	7335.46
762.428	7259.53
762.765	7297.49
763.102	7320.09
763.438	7236.48
763.775	7194.22
764.112	7240.09
764.449	7212.52
764.785	7182.01
765.122	7177.27
765.458	7141.34
765.795	7078.51
766.131	7135.24
766.467	7066.09
766.804	7090.94
767.14	7004.62
767.476	7027.89
767.812	6997.39
768.148	7031.06
768.485	6914.9
768.821	6899.54
769.157	6919.2
769.492	6913.55
769.828	6874.9
770.164	6878.75
770.5	6853.89
770.836	6787.9
771.171	6729.82
771.507	6808.69
771.842	6720.56
772.178	6710.61
772.513	6737.73
772.849	6648.02
773.184	6668.58
773.519	6674.91
773.855	6633.55
774.19	6593.33
774.525	6613.44
774.86	6561.69
775.195	6594.91
775.53	6509.72
775.865	6496.38
776.2	6479.89
776.535	6452.32
776.87	6392.43
777.205	6392.2
777.539	6338.42
777.874	6357.18
778.209	6349.27
778.543	6266.11
778.878	6278.99
779.212	6229.72
779.547	6218.2
779.881	6245.54
780.215	6199.67
780.55	6240.57
780.884	6169.16
781.218	6185.43
781.552	6143.62
781.886	6127.58
782.22	6099.11
782.554	6044.19
782.888	6023.85
783.222	6018.88
783.556	5958.77
783.889	5942.73
784.223	5976.62
784.557	5913.8
784.89	5975.27
785.224	5866.79
785.557	5846
785.891	5847.36
786.224	5820.69
786.558	5867.92
786.891	5738.89
787.224	5787.25
787.557	5745.44
787.891	5766.23
788.224	5743.41
788.557	5712
788.89	5717.42
789.223	5719.91
789.556	5652.11
789.888	5622.73
790.221	5665.44
790.554	5596.29
790.887	5578.89
791.219	5548.84
791.552	5561.04
791.884	5547.48
792.217	5563.98
792.549	5515.62
792.882	5474.49
793.214	5462.74
793.546	5476.75
793.879	5408.28
794.211	5389.07
794.543	5408.95
794.875	5380.48
795.207	5425.45
795.539	5333.48
795.871	5394.94
796.203	5308.62
796.535	5276.98
796.867	5335.06
797.198	5255.96
797.53	5274.49
797.862	5246.02
798.193	5231.78
798.525	5227.26
798.856	5205.57
799.188	5186.81
799.519	5148.4
799.85	5088.74
800.182	5113.14
800.513	5076.76
800.844	5094.39
801.175	5117.66
801.506	5104.78
801.837	5058.23
802.168	5074.27
802.499	4988.4
802.83	4995.86
803.161	4998.12
803.491	5026.82
803.822	4989.53
804.153	4937.33
804.483	4945.92
804.814	4920.15
805.145	4912.24
805.475	4916.99
805.805	4893.49
806.136	4905.69
806.466	4943.2
806.796	4877.67
807.126	4850.55
807.457	4849.42
807.787	4851.45
808.117	4811.68
808.447	4801.51
808.777	4895.52
809.107	4786.15
809.436	4786.6
809.766	4771.46
810.096	4789.76
810.426	4755.64
810.755	4740.5
811.085	4756.32
811.414	4708.18
811.744	4659.59
812.073	4677.9
812.403	4677
812.732	4661.85
813.061	4652.36
813.39	4655.3
813.719	4638.8
814.049	4597.68
814.378	4591.35
814.707	4596.09
815.036	4587.28
815.365	4521.29
815.693	4525.36
816.022	4591.12
816.351	4508.86
816.68	4477.9
817.008	4524.23
817.337	4491.01
817.665	4497.11
817.994	4478.13
818.322	4474.74
818.651	4440.84
818.979	4417.34
819.307	4467.74
819.636	4457.11
819.964	4453.05
820.292	4446.04
820.62	4440.39
820.948	4392.94
821.276	4448.53
821.604	4448.3
821.932	4453.27
822.259	4389.77
822.587	4395.2
822.915	4380.05
823.243	4382.31
823.57	4395.87
823.898	4393.84
824.225	4357.23
824.553	4410.34
824.88	4407.17
825.207	4416.44
825.535	4384.35
825.862	4376.44
826.189	4366.04
826.516	4406.72
826.843	4395.65
827.17	4368.53
827.497	4420.96
827.824	4399.26
828.151	4391.13
828.478	4416.66
828.805	4456.44
829.131	4392.71
829.458	4410.56
829.785	4338.47
830.111	4386.16
830.438	4417.57
830.764	4399.94
831.09	4423.44
831.417	4323.11
831.743	4390.68
832.069	4427.06
832.395	4364.01
832.722	4371.92
833.048	4355.87
833.374	4361.07
833.7	4373.27
834.026	4348.42
834.351	4324.01
834.677	4377.34
835.003	4315.2
835.329	4344.58
835.654	4333.05
835.98	4322.2
836.306	4337.57
836.631	4310.45
836.956	4308.87
837.282	4365.14
837.607	4288.31
837.932	4283.11
838.258	4260.28
838.583	4241.53
838.908	4255.31
839.233	4265.93
839.558	4290.57
839.883	4251.24
840.208	4211.02
840.533	4241.3
840.858	4273.62
841.182	4193.84
841.507	4271.36
841.832	4222.54
842.156	4156.78
842.481	4202.88
842.805	4179.61
843.13	4164.47
843.454	4178.03
843.778	4150.68
844.103	4165.82
844.427	4142.55
844.751	4143.9
845.075	4123.56
845.399	4133.96
845.723	4079.05
846.047	4146.84
846.371	4104.81
846.695	4088.08
847.019	4064.81
847.343	4019.39
847.666	3980.74
847.99	3989.56
848.313	3998.37
848.637	3965.6
848.96	3968.09
849.284	3957.24
849.607	3967.41
849.931	3910.69
850.254	3876.79
850.577	3867.3
850.9	3882.67
851.223	3879.05
851.546	3833.18
851.869	3848.77
852.192	3842.22
852.515	3809
852.838	3805.15
853.161	3779.84
853.483	3804.25
853.806	3731.71
854.129	3757.7
854.451	3740.3
854.774	3743.69
855.096	3719.73
855.419	3704.37
855.741	3707.53
856.063	3668.66
856.385	3671.15
856.708	3663.01
857.03	3617.36
857.352	3641.32
857.674	3640.64
857.996	3616.91
858.318	3556.35
858.64	3614.42
858.961	3575.33
859.283	3583.69
859.605	3543.47
859.926	3564.71
860.248	3537.36
860.57	3570.58
860.891	3567.87
861.212	3538.72
861.534	3540.3
861.855	3480.64
862.176	3550.47
862.498	3554.31
862.819	3512.96
863.14	3489.46
863.461	3491.04
863.782	3502.34
864.103	3461.66
864.424	3462.34
864.745	3487.42
865.065	3466.41
865.386	3450.59
865.707	3470.93
866.027	3465.95
866.348	3462.56
866.668	3450.14
866.989	3438.16
867.309	3428.67
867.63	3356.13
867.95	3429.34
868.27	3429.34
868.59	3390.93
868.91	3413.07
869.23	3385.05
869.55	3369.23
869.87	3402.9
870.19	3390.48
870.51	3363.36
870.83	3360.42
871.15	3353.19
871.469	3346.41
871.789	3348.89
872.109	3363.58
872.428	3358.39
872.748	3360.87
873.067	3332.17
873.386	3328.33
873.706	3320.87
874.025	3298.5
874.344	3289.69
874.663	3326.75
874.982	3345.05
875.301	3328.33
875.62	3338.05
875.939	3253.98
876.258	3336.69
876.577	3277.48
876.896	3229.8
877.214	3219.63
877.533	3278.39
877.852	3279.29
878.17	3268.22
878.489	3232.97
878.807	3248.78
879.125	3268.45
879.444	3216.24
879.762	3251.04
880.08	3220.76
880.398	3211.27
880.716	3197.71
881.034	3230.25
881.352	3216.24
881.67	3169.01
881.988	3163.59
882.306	3222.57
882.624	3155
882.941	3165.62
883.259	3161.56
883.577	3175.34
883.894	3164.72
884.212	3133.76
884.529	3188.9
884.846	3151.16
885.164	3109.13
885.481	3124.49
885.798	3150.26
886.115	3102.8
886.432	3105.29
886.75	3105.29
887.067	3081.11
887.383	3096.25
887.7	3087.66
888.017	3089.47
888.334	3100.77
888.651	3013.76
888.967	3038.17
889.284	3027.55
889.6	3036.13
889.917	3039.52
890.233	3005.4
890.55	3003.14
890.866	3005.85
891.182	2979.41
891.498	3010.37
891.815	2974.22
892.131	2987.55
892.447	2980.32
892.763	2941.67
893.079	2945.74
893.395	2943.26
893.71	2941
894.026	2948.45
894.342	2962.92
894.657	2914.1
894.973	2915.23
895.289	2871.62
895.604	2911.62
895.92	2869.59
896.235	2855.35
896.55	2853.31
896.865	2885.63
897.181	2881.11
897.496	2860.77
897.811	2800.89
898.126	2821.23
898.441	2815.58
898.756	2807.44
899.071	2823.26
899.386	2798.63
899.7	2768.57
900.015	2748.01
900.33	2773.99
900.644	2741.68
900.959	2737.39
901.273	2792.3
901.588	2756.14
901.902	2715.47
902.216	2754.11
902.531	2706.43
902.845	2692.19
903.159	2675.01
903.473	2690.83
903.787	2711.85
904.101	2657.39
904.415	2697.84
904.729	2653.55
905.042	2644.05
905.356	2621.23
905.67	2620.1
905.984	2600.67
906.297	2613.32
906.611	2613.1
906.924	2591.17
907.237	2578.52
907.551	2580.78
907.864	2593.43
908.177	2577.62
908.491	2532.19
908.804	2525.19
909.117	2507.56
909.43	2541.23
909.743	2524.74
910.056	2498.3
910.368	2485.87
910.681	2498.97
910.994	2471.18
911.307	2461.46
911.619	2449.94
911.932	2443.38
912.244	2452.42
912.557	2428.69
912.869	2411.97
913.181	2433.89
913.494	2421.24
913.806	2402.93
914.118	2376.72
914.43	2373.78
914.742	2362.25
915.054	2344.18
915.366	2345.76
915.678	2356.38
915.99	2275.48
916.302	2320.22
916.613	2310.73
916.925	2276.61
917.236	2301.01
917.548	2341.92
917.859	2289.94
918.171	2275.48
918.482	2274.35
918.794	2233.67
919.105	2263.73
919.416	2237.06
919.727	2240
920.038	2226.66
920.349	2232.31
920.66	2242.03
920.971	2215.59
921.282	2242.03
921.593	2214.91
921.903	2177.4
922.214	2145.31
922.525	2143.05
922.835	2140.34
923.146	2132.88
923.456	2124.97
923.767	2157.74
924.077	2142.83
924.387	2117.74
924.697	2095.37
925.008	2106.22
925.318	2066.89
925.628	2080.45
925.938	2096.95
926.248	2068.7
926.558	2088.82
926.867	2084.3
927.177	2030.74
927.487	2036.16
927.796	2047.46
928.106	2037.52
928.416	2034.13
928.725	2018.53
929.034	2016.95
929.344	1985.32
929.653	1986.67
929.962	1993.68
930.271	1997.07
930.581	1948.48
930.89	1941.93
931.199	1957.75
931.508	2000.23
931.817	1957.75
932.125	1948.93
932.434	1943.73
932.743	1899.67
933.051	1922.49
933.36	1887.46
933.669	1867.8
933.977	1885.88
934.286	1882.94
934.594	1881.59
934.902	1847.92
935.21	1870.29
935.519	1854.25
935.827	1881.59
936.135	1875.94
936.443	1834.13
936.751	1838.65
937.059	1837.97
937.367	1769.5
937.674	1795.26
937.982	1810.4
938.29	1786.68
938.597	1813.57
938.905	1785.77
939.213	1758.43
939.52	1788.94
939.827	1780.35
940.135	1764.08
940.442	1745.1
940.749	1744.42
941.056	1733.57
941.363	1710.29
941.67	1704.19
941.977	1732.67
942.284	1690.86
942.591	1714.81
942.898	1674.14
943.205	1681.37
943.511	1681.14
943.818	1669.84
944.125	1662.61
944.431	1700.58
944.738	1670.3
945.044	1668.04
945.35	1611.77
945.657	1635.27
945.963	1663.74
946.269	1640.24
946.575	1617.87
946.881	1622.61
947.187	1630.07
947.493	1633.46
947.799	1600.01
948.105	1607.92
948.41	1584.42
948.716	1585.78
949.022	1589.85
949.327	1575.61
949.633	1579.22
949.938	1570.41
950.244	1539.45
950.549	1557.98
950.854	1577.42
951.16	1521.6
951.465	1530.19
951.77	1535.16
952.075	1533.58
952.38	1533.58
952.685	1520.02
952.99	1519.79
953.294	1524.08
953.599	1495.38
953.904	1502.84
954.209	1503.75
954.513	1464.2
954.818	1492.22
955.122	1488.83
955.426	1477.53
955.731	1455.16
956.035	1430.08
956.339	1458.55
956.643	1456.97
956.948	1419
957.252	1428.04
957.556	1437.76
957.86	1417.42
958.163	1435.95
958.467	1425.56
958.771	1436.4
959.075	1396.18
959.378	1421.94
959.682	1390.3
959.985	1413.58
960.289	1414.71
960.592	1383.07
960.896	1393.24
961.199	1361.15
961.502	1365.44
961.805	1337.65
962.108	1324.32
962.411	1351.21
962.714	1340.81
963.017	1350.3
963.32	1371.09
963.623	1353.24
963.926	1339.68
964.228	1335.16
964.531	1317.08
964.833	1327.03
965.136	1308.72
965.438	1318.67
965.741	1290.19
966.043	1287.48
966.345	1326.8
966.648	1280.93
966.95	1283.86
967.252	1297.42
967.554	1282.96
967.856	1267.82
968.158	1275.28
968.46	1269.85
968.761	1288.61
969.063	1276.41
969.365	1255.39
969.666	1257.88
969.968	1223.3
970.269	1252.45
970.571	1242.51
970.872	1254.26
971.174	1218.33
971.475	1211.1
971.776	1225.79
972.077	1217.2
972.378	1209.52
972.679	1204.32
972.98	1205.67
973.281	1177.88
973.582	1176.75
973.883	1173.58
974.183	1195.51
974.484	1174.26
974.785	1183.98
975.085	1191.21
975.386	1206.58
975.686	1188.73
975.986	1132.46
976.287	1152.79
976.587	1144.89
976.887	1144.89
977.187	1132.46
977.487	1155.28
977.787	1144.89
978.087	1111.44
978.387	1128.39
978.687	1133.13
978.987	1118.22
979.286	1135.85
979.586	1112.34
979.885	1092.68
980.185	1096.75
980.484	1098.56
980.784	1081.38
981.083	1077.99
981.382	1078.22
981.682	1076.64
981.981	1062.63
982.28	1084.77
982.579	1072.34
982.878	1079.12
983.177	1060.14
983.475	1078.45
983.774	1079.58
984.073	1065.57
984.372	1041.61
984.67	1071.67
984.969	1043.64
985.267	1028.5
985.566	1060.14
985.864	1027.83
986.162	1023.98
986.461	1047.71
986.759	1022.85
987.057	1042.74
987.355	1031.67
987.653	1028.73
987.951	992.8
988.249	996.19
988.547	994.15
988.844	999.35
989.142	1006.13
989.44	992.12
989.737	980.37
990.035	953.7
990.332	959.81
990.63	987.38
990.927	973.59
991.224	976.3
991.521	955.06
991.819	983.76
992.116	955.96
992.413	951.67
992.71	950.31
993.006	946.92
993.303	950.31
993.6	923.42
993.897	907.15
994.193	946.25
994.49	935.63
994.787	945.12
995.083	905.34
995.379	908.06
995.676	931.33
995.972	916.64
996.268	919.13
996.565	906.02
996.861	910.32
997.157	885
997.453	917.32
997.749	900.37
998.044	885.91
998.34	889.07
998.636	894.27
998.932	891.33
999.227	847.27
999.523	859.92
999.818	885.23
1000.114	861.95
1000.409	843.2
1000.704	842.29
1001	841.84
1001.295	856.31
1001.59	847.49
1001.885	859.47
1002.18	853.37
1002.475	837.77
1002.77	818.57
1003.065	852.24
1003.359	841.84
1003.654	808.62
1003.949	831.9
1004.243	825.12
1004.538	798.45
1004.832	834.84
1005.127	798.23
1005.421	829.19
1005.715	809.53
1006.009	789.41
1006.304	795.97
1006.598	783.31
1006.892	796.19
1007.186	780.83
1007.48	800.49
1007.773	793.48
1008.067	771.56
1008.361	774.05
1008.655	777.89
1008.948	756.65
1009.242	773.82
1009.535	784.22
1009.829	773.6
1010.122	748.74
1010.415	757.78
1010.708	742.41
1011.001	728.17
1011.295	743.99
1011.588	725.91
1011.881	747.83
1012.173	740.15
1012.466	748.06
1012.759	747.61
1013.052	719.81
1013.344	727.04
1013.637	721.39
1013.93	729.3
1014.222	718.46
1014.514	702.41
1014.807	709.64
1015.099	692.02
1015.391	682.75
1015.683	694.28
1015.976	707.16
1016.268	694.28
1016.56	693.37
1016.851	682.52
1017.143	697.67
1017.435	678.91
1017.727	682.07
1018.018	678.46
1018.31	684.78
1018.602	670.32
1018.893	679.13
1019.185	670.32
1019.476	659.7
1019.767	658.12
1020.058	662.41
1020.35	653.82
1020.641	652.92
1020.932	666.93
1021.223	645.46
1021.514	625.58
1021.804	628.29
1022.095	620.83
1022.386	638.68
1022.677	631.45
1022.967	631.68
1023.258	644.56
1023.548	631.9
1023.839	608.63
1024.129	615.41
1024.419	603.88
1024.709	629.42
1025	597.33
1025.29	602.07
1025.58	594.17
1025.87	585.8
1026.16	595.3
1026.449	589.87
1026.739	616.76
1027.029	589.87
1027.319	607.72
1027.608	604.33
1027.898	586.26
1028.187	576.76
1028.477	572.24
1028.766	586.93
1029.055	562.53
1029.344	557.1
1029.634	567.95
1029.923	563.88
1030.212	560.72
1030.501	543.77
1030.79	540.38
1031.078	578.8
1031.367	560.72
1031.656	539.48
1031.945	554.84
1032.233	551.91
1032.522	563.88
1032.81	556.43
1033.099	555.07
1033.387	537.22
1033.675	548.74
1033.963	524.34
1034.251	535.86
1034.54	542.87
1034.828	558.46
1035.116	546.93
1035.403	550.55
1035.691	527.05
1035.979	522.75
1036.267	538.12
1036.554	525.92
1036.842	523.88
1037.129	516.88
1037.417	530.89
1037.704	512.13
1037.992	506.94
1038.279	512.81
1038.566	515.75
1038.853	515.75
1039.14	515.75
