Data from mousepad_grey_FLMS001491_00025.txt Node
Date: Wed Feb 08 14:29:12 GMT 2017
User: dcchb
Spectrometer: FLMS00149
Trigger mode: 0
Integration Time (sec): 2.000000E-2
Scans to average: 10
Electric dark correction enabled: true
Nonlinearity correction enabled: false
Boxcar width: 0
XAxis mode: Wavelengths
Number of Pixels in Spectrum: 2048
>>>>>Begin Spectral Data<<<<<
341.393	-21.48
341.776	-21.48
342.16	-21.48
342.543	-50.18
342.927	-65.78
343.31	-87.02
343.693	-74.36
344.077	-55.15
344.46	-56.96
344.843	-39.56
345.226	-47.02
345.61	-33.69
345.993	-23.29
346.376	-9.51
346.759	11.74
347.142	28.23
347.525	48.57
347.908	63.04
348.291	74.56
348.674	100.77
349.057	99.64
349.44	118.4
349.823	137.84
350.206	159.08
350.588	166.31
350.971	193.2
351.354	226.42
351.737	212.18
352.119	224.39
352.502	237.04
352.884	274.1
353.267	285.63
353.65	267.55
354.032	287.66
354.414	275.23
354.797	285.63
355.179	304.84
355.562	298.74
355.944	309.81
356.326	312.07
356.709	320.2
357.091	327.89
357.473	324.05
357.855	318.17
358.238	313.65
358.62	317.94
359.002	332.18
359.384	318.85
359.766	328.56
360.148	319.3
360.53	316.36
360.912	312.97
361.294	311.84
361.676	325.18
362.057	303.03
362.439	300.09
362.821	297.83
363.203	297.38
363.584	310.49
363.966	279.75
364.348	283.14
364.729	329.02
365.111	290.37
365.493	305.51
365.874	285.4
366.256	300.77
366.637	303.03
367.019	293.54
367.4	271.17
367.781	290.83
368.163	300.32
368.544	307.55
368.925	284.5
369.306	302.12
369.688	300.77
370.069	279.98
370.45	320.43
370.831	291.5
371.212	288.57
371.593	306.64
371.974	296.93
372.355	318.17
372.736	308.9
373.117	290.15
373.498	306.19
373.879	297.61
374.26	291.28
374.641	289.7
375.021	286.76
375.402	296.02
375.783	299.41
376.163	322.69
376.544	288.34
376.925	309.81
377.305	310.03
377.686	301.45
378.066	289.7
378.447	300.99
378.827	275.46
379.208	293.99
379.588	311.39
379.968	299.86
380.349	304.16
380.729	316.14
381.109	310.94
381.489	319.98
381.87	294.44
382.25	314.1
382.63	328.79
383.01	322.01
383.39	324.05
383.77	322.01
384.15	316.59
384.53	317.49
384.91	312.75
385.29	301.45
385.67	317.72
386.049	324.05
386.429	314.78
386.809	313.2
387.189	327.89
387.568	312.07
387.948	324.05
388.328	351.16
388.707	319.3
389.087	324.27
389.466	338.28
389.846	293.31
390.225	319.07
390.605	354.78
390.984	360.43
391.363	355.23
391.743	332.18
392.122	335.34
392.501	336.25
392.881	345.51
393.26	337.83
393.639	343.25
394.018	346.87
394.397	352.07
394.776	345.97
395.155	365.17
395.534	363.14
395.913	338.96
396.292	375.12
396.671	354.1
397.05	350.26
397.429	355.91
397.808	359.98
398.186	350.94
398.565	370.37
398.944	336.47
399.323	372.63
399.701	381.9
400.08	360.2
400.458	388
400.837	383.7
401.215	372.63
401.594	377.6
401.972	393.42
402.351	372.86
402.729	370.82
403.107	380.54
403.486	379.41
403.864	366.3
404.242	390.26
404.62	380.99
404.999	388.22
405.377	391.39
405.755	405.62
406.133	379.64
406.511	385.29
406.889	399.52
407.267	398.17
407.645	419.86
408.023	395.68
408.401	409.24
408.779	411.73
409.156	416.7
409.534	406.53
409.912	422.57
410.29	434.55
410.667	424.61
411.045	428.45
411.422	430.93
411.8	419.18
412.178	443.82
412.555	439.97
412.933	460.31
413.31	460.76
413.687	459.41
414.065	467.09
414.442	455.12
414.819	427.77
415.197	451.73
415.574	477.71
415.951	464.38
416.328	463.02
416.705	464.38
417.082	486.75
417.46	468.9
417.837	472.74
418.214	489.46
418.591	488.33
418.967	472.74
419.344	488.11
419.721	494.44
420.098	509.8
420.475	490.37
420.852	511.61
421.228	517.94
421.605	478.39
421.982	488.11
422.358	497.15
422.735	513.19
423.111	509.35
423.488	511.16
423.864	508.9
424.241	522.91
424.617	517.94
424.994	532.18
425.37	515
425.746	553.64
426.123	525.4
426.499	559.52
426.875	559.07
427.251	562.68
427.627	551.84
428.003	563.81
428.379	571.72
428.756	562.68
429.132	581.21
429.507	568.56
429.883	585.06
430.259	590.25
430.635	578.5
431.011	585.28
431.387	612.4
431.763	602.46
432.138	622.12
432.514	597.03
432.89	608.33
433.265	634.77
433.641	648.78
434.016	626.86
434.392	660.76
434.767	621.66
435.143	668.89
435.518	666.86
435.894	673.87
436.269	669.57
436.644	665.28
437.02	658.95
437.395	677.71
437.77	665.73
438.145	695.33
438.52	675.22
438.895	686.07
439.271	707.54
439.646	720.42
440.021	711.83
440.395	714.32
440.77	732.62
441.145	711.83
441.52	745.28
441.895	712.51
442.27	741.66
442.645	743.7
443.019	733.98
443.394	760.64
443.769	756.8
444.143	733.75
444.518	771.27
444.892	751.83
445.267	767.88
445.641	762.45
446.016	794.54
446.39	818.72
446.764	749.12
447.139	790.02
447.513	822.11
447.887	780.98
448.262	787.31
448.636	789.57
449.01	812.17
449.384	823.92
449.758	836.35
450.132	825.05
450.506	829.34
450.88	833.64
451.254	849.46
451.628	861.88
452.002	827.53
452.376	847.65
452.75	857.59
453.123	851.04
453.497	894.2
453.871	882
454.244	871.6
454.618	881.09
454.992	896.91
455.365	940.98
455.739	964.25
456.112	914.99
456.486	945.95
456.859	927.87
457.232	954.09
457.606	954.99
457.979	960.64
458.352	965.61
458.725	999.73
459.099	992.95
459.472	1020.98
459.845	1019.62
460.218	1007.19
460.591	1034.08
460.964	1016.68
461.337	1060.3
461.71	1054.42
462.083	1074.76
462.456	1102.1
462.829	1072.5
463.201	1086.51
463.574	1112.95
463.947	1095.1
464.32	1135.78
464.692	1160.63
465.065	1132.84
465.438	1178.94
465.81	1181.42
466.183	1178.03
466.555	1209.22
466.928	1219.39
467.3	1205.6
467.672	1221.87
468.045	1247.41
468.417	1273.4
468.789	1270.46
469.161	1266.62
469.534	1295.09
469.906	1326.96
470.278	1302.32
470.65	1334.87
471.022	1378.93
471.394	1399.72
471.766	1397.46
472.138	1406.05
472.51	1463.9
472.882	1455.54
473.253	1461.42
473.625	1479.49
473.997	1491.92
474.369	1500.06
474.74	1497.35
475.112	1541.64
475.484	1533.96
475.855	1585.48
476.227	1584.58
476.598	1621.19
476.97	1661.19
477.341	1679.26
477.713	1699.38
478.084	1682.65
478.455	1745.48
478.827	1758.58
479.198	1799.71
479.569	1810.33
479.94	1822.99
480.311	1825.93
480.682	1877
481.053	1936.88
481.424	1923.78
481.795	1979.82
482.166	1987.96
482.537	2008.75
482.908	2071.12
483.279	2052.81
483.65	2112.47
484.021	2157.67
484.391	2134.62
484.762	2171.23
485.133	2192.7
485.503	2230.21
485.874	2237.22
486.244	2294.84
486.615	2277.67
486.985	2301.85
487.356	2358.79
487.726	2407.38
488.097	2447.15
488.467	2451.9
488.837	2478.34
489.207	2534.16
489.578	2523.54
489.948	2527.6
490.318	2584.32
490.688	2599.69
491.058	2607.83
491.428	2706.13
491.798	2688.95
492.168	2726.92
492.538	2749.29
492.908	2755.17
493.278	2786.58
493.648	2829.97
494.017	2830.19
494.387	2863.64
494.757	2902.06
495.126	2853.24
495.496	2923.98
495.866	2943.19
496.235	2980.47
496.605	2998.33
496.974	3007.82
497.344	3046.91
497.713	3064.54
498.082	3065.22
498.452	3120.81
498.821	3079.9
499.19	3126.91
499.559	3158.55
499.928	3187.02
500.298	3213.69
500.667	3206.46
501.036	3227.25
501.405	3246.91
501.774	3248.04
502.143	3280.8
502.512	3302.27
502.88	3286.91
503.249	3277.64
503.618	3392.67
503.987	3377.98
504.356	3380.91
504.724	3407.58
505.093	3415.94
505.462	3457.07
505.83	3439.22
506.199	3470.18
506.567	3523.28
506.936	3504.53
507.304	3524.64
507.672	3555.37
508.041	3608.03
508.409	3603.96
508.777	3645.09
509.145	3699.78
509.514	3682.37
509.882	3665.88
510.25	3694.13
510.618	3753.33
510.986	3779.77
511.354	3776.61
511.722	3816.38
512.09	3845.99
512.458	3880.79
512.826	3862.48
513.193	3890.51
513.561	3861.35
513.929	3949.26
514.297	3978.64
514.664	3975.7
515.032	3999.65
515.4	4092.31
515.767	4073.1
516.135	4074.46
516.502	4052.08
516.869	4169.14
517.237	4147.22
517.604	4145.19
517.972	4164.85
518.339	4215.24
518.706	4230.84
519.073	4246.65
519.44	4305.64
519.808	4314.67
520.175	4308.8
520.542	4365.75
520.909	4421.56
521.276	4391.96
521.643	4412.07
522.009	4445.52
522.376	4457.72
522.743	4524.16
523.11	4540.21
523.477	4564.61
523.843	4639.64
524.21	4659.07
524.577	4669.24
524.943	4684.83
525.31	4743.82
525.676	4810.71
526.043	4810.03
526.409	4842.57
526.776	4901.33
527.142	4895.68
527.508	4931.83
527.874	4945.17
528.241	4956.47
528.607	4986.52
528.973	5015.22
529.339	4979.74
529.705	5034.2
530.071	5130.7
530.437	5120.98
530.803	5175.89
531.169	5177.93
531.535	5216.35
531.901	5238.49
532.267	5235.1
532.632	5287.3
532.998	5309.68
533.364	5381.31
533.73	5401.43
534.095	5391.48
534.461	5432.39
534.826	5413.4
535.192	5456.79
535.557	5502.89
535.923	5465.15
536.288	5559.84
536.653	5563.68
537.019	5556.45
537.384	5577.47
537.749	5618.6
538.114	5632.15
538.479	5671.02
538.845	5702.21
539.21	5731.13
539.575	5721.87
539.94	5764.13
540.305	5765.48
540.67	5810
541.034	5858.14
541.399	5821.08
541.764	5938.59
542.129	5912.15
542.494	5949.66
542.858	5968.42
543.223	5953.95
543.587	6002.09
543.952	6008.64
544.316	6026.04
544.681	6069.2
545.045	6092.93
545.41	6037.79
545.774	6116.66
546.138	6105.81
546.503	6168.41
546.867	6165.25
547.231	6194.63
547.595	6254.06
547.959	6277.33
548.324	6257.9
548.688	6240.73
549.052	6336.09
549.416	6322.08
549.779	6387.84
550.143	6340.84
550.507	6432.59
550.871	6454.51
551.235	6479.59
551.599	6462.64
551.962	6512.81
552.326	6557.33
552.689	6543.32
553.053	6518.91
553.417	6563.43
553.78	6641.17
554.143	6608.85
554.507	6731.11
554.87	6677.55
555.234	6765.23
555.597	6716.87
555.96	6726.59
556.323	6845
556.686	6758
557.05	6841.84
557.413	6861.73
557.776	6854.27
558.139	6897.21
558.502	6979.46
558.865	6961.38
559.228	6994.6
559.59	7065.79
559.953	7061.95
560.316	7085
560.679	7113.25
561.041	7140.36
561.404	7156.18
561.767	7272.34
562.129	7226.01
562.492	7279.34
562.854	7279.12
563.217	7334.03
563.579	7323.41
563.941	7406.12
564.304	7421.94
564.666	7453.35
565.028	7494.93
565.39	7531.54
565.753	7563.63
566.115	7547.58
566.477	7540.8
566.839	7649.5
567.201	7607.24
567.563	7691.99
567.925	7706.68
568.287	7765.21
568.648	7744.42
569.01	7783.96
569.372	7858.99
569.734	7875.03
570.095	7920
570.457	7876.16
570.819	7924.75
571.18	7898.99
571.542	7970.62
571.903	8027.35
572.265	8051.98
572.626	8080.9
572.987	8067.34
573.349	8053.79
573.71	8144.86
574.071	8089.94
574.432	8254.01
574.794	8215.36
575.155	8282.71
575.516	8205.19
575.877	8223.27
576.238	8238.64
576.599	8287.23
576.96	8346.89
577.32	8357.96
577.681	8367.22
578.042	8342.82
578.403	8395.25
578.763	8375.36
579.124	8393.21
579.485	8408.35
579.845	8416.94
580.206	8482.7
580.566	8479.76
580.927	8484.96
581.287	8506.43
581.648	8447.45
582.008	8596.82
582.368	8582.81
582.728	8574.22
583.089	8551.85
583.449	8578.29
583.809	8567.67
584.169	8534.22
584.529	8568.12
584.889	8597.95
585.249	8562.92
585.609	8534
585.969	8622.13
586.329	8575.35
586.688	8583.71
587.048	8601.57
587.408	8581.91
587.768	8594.56
588.127	8604.96
588.487	8576.48
588.846	8632.75
589.206	8588.46
589.565	8574.45
589.925	8628.69
590.284	8633.88
590.643	8608.8
591.003	8619.65
591.362	8630.27
591.721	8606.54
592.08	8641.57
592.44	8653.54
592.799	8657.84
593.158	8671.62
593.517	8668.46
593.876	8646.31
594.235	8633.66
594.593	8685.41
594.952	8670.72
595.311	8619.19
595.67	8641.11
596.029	8712.3
596.387	8763.15
596.746	8676.14
597.104	8626.43
597.463	8668.91
597.822	8719.3
598.18	8682.47
598.538	8661
598.897	8726.99
599.255	8708.91
599.613	8773.99
599.972	8727.67
600.33	8723.15
600.688	8751.17
601.046	8765.63
601.404	8821.45
601.762	8765.63
602.12	8769.47
602.478	8813.99
602.836	8823.71
603.194	8704.84
603.552	8782.58
603.91	8761.79
604.268	8730.38
604.625	8759.76
604.983	8736.03
605.341	8765.18
605.698	8846.08
606.056	8834.56
606.413	8831.62
606.771	8863.93
607.128	8842.47
607.485	8855.35
607.843	8912.97
608.2	8871.39
608.557	8877.27
608.914	8831.39
609.272	8891.28
609.629	8920.88
609.986	8972.63
610.343	8907.1
610.7	8963.59
611.057	8946.19
611.414	8921.56
611.771	8937.6
612.127	8970.37
612.484	9036.81
612.841	8985.06
613.198	8980.99
613.554	9002.69
613.911	9040.65
614.267	8989.58
614.624	9027.32
614.98	9036.36
615.337	9068.45
615.693	9070.71
616.05	9051.05
616.406	9058.96
616.762	9045.85
617.118	9082.68
617.475	9096.02
617.831	9081.55
618.187	9136.92
618.543	9112.74
618.899	9165.17
619.255	9114.32
619.611	9113.64
619.967	9110.93
620.323	9150.93
620.678	9123.36
621.034	9063.48
621.39	9166.52
621.746	9113.87
622.101	9260.76
622.457	9149.35
622.812	9120.88
623.168	9147.09
623.523	9185.28
623.879	9214.88
624.234	9118.84
624.589	9180.76
624.945	9235.45
625.3	9170.37
625.655	9129.69
626.01	9169.91
626.365	9219.18
626.72	9196.13
627.075	9230.03
627.43	9230.03
627.785	9241.32
628.14	9202.46
628.495	9131.72
628.85	9189.8
629.205	9142.57
629.559	9184.38
629.914	9211.27
630.269	9177.6
630.623	9162.91
630.978	9178.73
631.332	9184.6
631.687	9171.72
632.041	9171.5
632.396	9175.79
632.75	9106.87
633.104	9159.52
633.459	9200.2
633.813	9132.4
634.167	9073.65
634.521	9114.32
634.875	9090.82
635.229	9097.15
635.583	9070.48
635.937	9093.98
636.291	9061.67
636.645	9036.58
636.999	9050.82
637.352	9067.09
637.706	9000.2
638.06	9068.9
638.413	9058.5
638.767	9064.15
639.121	9030.03
639.474	8950.03
639.828	8964.72
640.181	8983.48
640.534	8940.09
640.888	8935.57
641.241	8897.83
641.594	8995.68
641.947	8930.82
642.301	8948.45
642.654	9002.69
643.007	8897.83
643.36	9000.43
643.713	8909.13
644.066	8973.08
644.419	8954.78
644.771	8859.64
645.124	8766.76
645.477	8823.93
645.83	8711.17
646.182	8678.63
646.535	8713.66
646.888	8725.63
647.24	8641.11
647.593	8705.75
647.945	8682.7
648.298	8655.58
648.65	8654
649.002	8613.77
649.355	8677.72
649.707	8626.43
650.059	8731.06
650.411	8798.62
650.763	8759.98
651.115	8919.53
651.467	8840.43
651.819	8902.12
652.171	8886.53
652.523	8775.57
652.875	8807.66
653.227	8856.02
653.578	8906.64
653.93	8890.6
654.282	8818.29
654.633	8793.88
654.985	8843.14
655.337	8831.62
655.688	8818.29
656.039	8880.66
656.391	8825.29
656.742	8875.46
657.094	8810.15
657.445	8824.16
657.796	8870.04
658.147	8818.96
658.498	8795.91
658.849	8811.51
659.2	8853.76
659.551	8801.79
659.902	8811.96
660.253	8864.16
660.604	8812.86
660.955	8832.07
661.306	8853.09
661.656	8862.35
662.007	8806.31
662.358	8865.06
662.708	8824.61
663.059	8822.13
663.409	8775.35
663.76	8846.76
664.11	8818.29
664.461	8808.12
664.811	8797.95
665.161	8753.43
665.511	8844.95
665.862	8815.35
666.212	8775.57
666.562	8816.25
666.912	8805.18
667.262	8793.88
667.612	8808.34
667.962	8819.19
668.312	8815.35
668.662	8861
669.011	8837.95
669.361	8792.75
669.711	8797.95
670.06	8771.51
670.41	8789.13
670.76	8785.29
671.109	8796.36
671.459	8732.41
671.808	8771.05
672.157	8781
672.507	8697.16
672.856	8710.49
673.205	8826.19
673.554	8773.77
673.904	8708.91
674.253	8776.93
674.602	8708.23
674.951	8592.08
675.3	8588.46
675.649	8712.07
675.998	8712.75
676.346	8702.36
676.695	8706.88
677.044	8669.59
677.393	8697.84
677.741	8759.53
678.09	8631.17
678.438	8655.58
678.787	8714.33
679.135	8635.92
679.484	8607.44
679.832	8597.73
680.181	8580.1
680.529	8621.23
680.877	8570.16
681.225	8551.85
681.573	8592.98
681.922	8545.3
682.27	8462.14
682.618	8526.99
682.966	8462.14
683.314	8519.31
683.661	8505.98
684.009	8482.47
684.357	8414
684.705	8431.18
685.053	8429.59
685.4	8395.92
685.748	8316.6
686.095	8379.2
686.443	8347.34
686.79	8354.79
687.138	8296.49
687.485	8322.93
687.832	8250.39
688.18	8268.47
688.527	8238.41
688.874	8233.67
689.221	8169.04
689.568	8186.44
689.915	8192.99
690.262	8179.66
690.609	8147.57
690.956	8103.95
691.303	8108.47
691.65	8016.5
691.997	8102.82
692.344	8015.37
692.69	8087
693.037	8022.83
693.383	7890.63
693.73	7922.72
694.077	7976.5
694.423	7912.77
694.769	7903.51
695.116	7863.28
695.462	7800.91
695.808	7736.73
696.155	7840.68
696.501	7795.49
696.847	7721.82
697.193	7682.5
697.539	7706.45
697.885	7681.37
698.231	7584.87
698.577	7662.16
698.923	7603.63
699.269	7596.62
699.614	7534.48
699.96	7542.84
700.306	7502.61
700.651	7468.72
700.997	7446.57
701.342	7452.22
701.688	7487.47
702.033	7407.7
702.379	7386.68
702.724	7318.44
703.069	7382.16
703.415	7299.23
703.76	7295.16
704.105	7296.07
704.45	7276.63
704.795	7238.67
705.14	7260.81
705.485	7202.73
705.83	7152.34
706.175	7151.44
706.52	7104.88
706.865	7099.91
707.209	6985.79
707.554	7067.6
707.899	7141.49
708.243	7011.1
708.588	6976.53
708.932	7008.84
709.277	6927.04
709.621	6949.41
709.966	6878.45
710.31	6924.55
710.654	6899.92
710.998	6873.25
711.342	6894.04
711.687	6875.51
712.031	6846.36
712.375	6878
712.719	6800.26
713.063	6843.87
713.407	6859.47
713.75	6750.54
714.094	6821.73
714.438	6835.51
714.782	6763.42
715.125	6790.99
715.469	6759.13
715.812	6740.6
716.156	6760.26
716.499	6707.83
716.843	6736.53
717.186	6741.5
717.53	6720.04
717.873	6764.78
718.216	6698.34
718.559	6692.47
718.902	6618.79
719.246	6700.37
719.589	6654.5
719.932	6595.74
720.275	6643.2
720.617	6651.79
720.96	6639.81
721.303	6611.79
721.646	6655.18
721.989	6628.96
722.331	6620.6
722.674	6585.58
723.016	6576.08
723.359	6569.53
723.701	6602.75
724.044	6611.11
724.386	6524.56
724.729	6542.41
725.071	6606.82
725.413	6552.81
725.755	6539.25
726.097	6520.04
726.439	6533.15
726.782	6499.02
727.124	6605.01
727.465	6525.92
727.807	6542.86
728.149	6552.13
728.491	6504
728.833	6541.51
729.175	6527.05
729.516	6497.89
729.858	6504.45
730.199	6488.4
730.541	6551.68
730.882	6496.99
731.224	6544.45
731.565	6488.18
731.906	6471.45
732.248	6536.99
732.589	6479.59
732.93	6491.34
733.271	6491.11
733.612	6488.4
733.953	6545.58
734.294	6437.78
734.635	6527.27
734.976	6448.63
735.317	6471.23
735.658	6480.27
735.999	6497.67
736.339	6448.63
736.68	6474.62
737.021	6438.91
737.361	6461.28
737.702	6533.37
738.042	6456.31
738.383	6464.22
738.723	6458.57
739.063	6479.14
739.404	6455.18
739.744	6471.45
740.084	6453.6
740.424	6456.77
740.764	6442.08
741.104	6508.52
741.444	6488.85
741.784	6420.16
742.124	6454.51
742.464	6422.64
742.804	6467.16
743.143	6424.22
743.483	6426.26
743.823	6406.6
744.162	6398.24
744.502	6433.72
744.841	6439.14
745.181	6478.91
745.52	6445.24
745.86	6420.38
746.199	6436.2
746.538	6448.4
746.877	6470.32
747.216	6474.17
747.556	6424.9
747.895	6425.81
748.234	6430.1
748.573	6419.48
748.911	6443.66
749.25	6403.21
749.589	6373.38
749.928	6450.21
750.267	6408.4
750.605	6362.3
750.944	6371.8
751.283	6400.27
751.621	6433.04
751.96	6315.98
752.298	6365.92
752.636	6338.12
752.975	6301.52
753.313	6344
753.651	6350.78
753.989	6343.32
754.327	6344.9
754.666	6313.04
755.004	6336.09
755.342	6319.14
755.679	6263.1
756.017	6259.71
756.355	6268.97
756.693	6254.06
757.031	6257.9
757.368	6210.67
757.706	6303.77
758.044	6161.41
758.381	6164.57
758.719	6221.29
759.056	6199.82
759.394	6152.37
759.731	6160.73
760.068	6097.9
760.405	6153.04
760.743	6085.48
761.08	6129.99
761.417	6121.18
761.754	6115.53
762.091	6071.01
762.428	6039.6
762.765	6034.18
763.102	6027.17
763.438	5998.47
763.775	6012.48
764.112	6019.26
764.449	5932.94
764.785	5965.93
765.122	5956.89
765.458	5904.69
765.795	5865.59
766.131	5881.19
766.467	5822.21
766.804	5863.33
767.14	5803.22
767.476	5825.6
767.812	5798.93
768.148	5834.18
768.485	5810.45
768.821	5743.79
769.157	5708.99
769.492	5744.24
769.828	5738.82
770.164	5684.81
770.5	5719.16
770.836	5645.94
771.171	5602.1
771.507	5617.24
771.842	5605.26
772.178	5569.1
772.513	5593.06
772.849	5553.51
773.184	5512.16
773.519	5507.86
773.855	5489.79
774.19	5461.54
774.525	5465.38
774.86	5470.8
775.195	5471.25
775.53	5456.34
775.865	5398.49
776.2	5366.62
776.535	5362.56
776.87	5342.44
777.205	5323.69
777.539	5294.08
777.874	5312.16
778.209	5252.96
778.543	5264.03
778.878	5210.02
779.212	5198.04
779.547	5231.49
779.881	5170.25
780.215	5200.98
780.55	5171.83
780.884	5155.78
781.218	5121.66
781.552	5201.66
781.886	5071.04
782.22	5100.87
782.554	5043.24
782.888	5000.53
783.222	5034.88
783.556	4968.22
783.889	4962.34
784.223	4940.87
784.557	4914.66
784.89	4952.85
785.224	4950.36
785.557	4895.45
785.891	4902.23
786.224	4928.22
786.558	4915.79
786.891	4822.91
787.224	4835.56
787.557	4784.72
787.891	4814.77
788.224	4811.61
788.557	4813.19
788.89	4784.94
789.223	4819.52
789.556	4756.02
789.888	4758.96
790.221	4691.39
790.554	4677.38
790.887	4680.99
791.219	4676.25
791.552	4608.23
791.884	4614.78
792.217	4605.06
792.549	4595.12
792.882	4598.96
793.214	4540.43
793.546	4568.91
793.879	4539.53
794.211	4528
794.543	4564.84
794.875	4527.32
795.207	4486.65
795.539	4464.5
795.871	4438.74
796.203	4423.82
796.535	4447.55
796.867	4402.36
797.198	4436.25
797.53	4396.93
797.862	4388.57
798.193	4388.8
798.525	4299.31
798.856	4416.59
799.188	4310.16
799.519	4276.26
799.85	4281
800.182	4298.18
800.513	4305.86
800.844	4241.68
801.175	4286.65
801.506	4228.8
801.837	4230.38
802.168	4270.61
802.499	4179.09
802.83	4159.42
803.161	4177.96
803.491	4150.39
803.822	4166.43
804.153	4163.27
804.483	4114.91
804.814	4097.96
805.145	4104.51
805.475	4100.67
805.805	4080.33
806.136	4064.51
806.466	4099.77
806.796	4116.04
807.126	4074
807.457	4049.37
807.787	4030.39
808.117	4024.29
808.447	3958.07
808.777	4018.19
809.107	3988.58
809.436	3973.44
809.766	3991.75
810.096	3990.39
810.426	3961.92
810.755	3988.81
811.085	3934.12
811.414	3929.6
811.744	3905.19
812.073	3923.27
812.403	3880.11
812.732	3874.01
813.061	3925.31
813.39	3839.21
813.719	3839.43
814.049	3866.55
814.378	3859.77
814.707	3819.77
815.036	3859.09
815.365	3816.38
815.693	3768.47
816.022	3793.33
816.351	3778.87
816.68	3792.43
817.008	3770.06
817.337	3774.35
817.665	3754.24
817.994	3762.82
818.322	3733.45
818.651	3720.34
818.979	3702.94
819.307	3720.11
819.636	3706.33
819.964	3674.47
820.292	3711.75
820.62	3698.65
820.948	3700.91
821.276	3703.84
821.604	3675.6
821.932	3694.58
822.259	3679.21
822.587	3693.9
822.915	3682.83
823.243	3669.27
823.57	3691.64
823.898	3693.45
824.225	3684.18
824.553	3716.05
824.88	3676.5
825.207	3727.8
825.535	3656.61
825.862	3643.28
826.189	3654.81
826.516	3699.55
826.843	3686.22
827.17	3686.67
827.497	3682.37
827.824	3669.04
828.151	3685.09
828.478	3685.99
828.805	3711.07
829.131	3658.19
829.458	3641.7
829.785	3643.51
830.111	3654.58
830.438	3660
830.764	3658.19
831.09	3709.49
831.417	3636.5
831.743	3649.16
832.069	3671.08
832.395	3655.26
832.722	3629.95
833.048	3604.18
833.374	3634.92
833.7	3662.71
834.026	3625.2
834.351	3605.09
834.677	3651.87
835.003	3634.69
835.329	3634.01
835.654	3643.73
835.98	3628.82
836.306	3587.91
836.631	3615.71
836.956	3605.54
837.282	3594.47
837.607	3548.59
837.932	3584.3
838.258	3577.07
838.583	3604.41
838.908	3579.1
839.233	3565.09
839.558	3504.75
839.883	3548.59
840.208	3513.11
840.533	3533.9
840.858	3511.98
841.182	3562.15
841.507	3512.66
841.832	3515.83
842.156	3498.2
842.481	3497.75
842.805	3499.1
843.13	3486
843.454	3485.09
843.778	3505.88
844.103	3462.72
844.427	3497.52
844.751	3467.24
845.075	3475.6
845.399	3435.6
845.723	3415.26
846.047	3420.23
846.371	3426.11
846.695	3367.81
847.019	3321.25
847.343	3373.91
847.666	3387.69
847.99	3360.8
848.313	3313.57
848.637	3327.81
848.96	3326.23
849.284	3295.04
849.607	3307.92
849.931	3295.27
850.254	3250.52
850.577	3226.57
850.9	3225.21
851.223	3200.13
851.546	3206
851.869	3155.84
852.192	3214.14
852.515	3173.69
852.838	3175.04
853.161	3206
853.483	3130.75
853.806	3128.04
854.129	3137.53
854.451	3126.91
854.774	3114.93
855.096	3101.6
855.419	3093.01
855.741	3055.05
856.063	3092.11
856.385	3050.3
856.708	3086.01
857.03	3056.85
857.352	3063.18
857.674	3083.75
857.996	3028.61
858.318	3008.49
858.64	3008.49
858.961	3036.52
859.283	2998.78
859.605	2986.35
859.926	2985.9
860.248	3003.75
860.57	2956.29
860.891	2943.19
861.212	2945.67
861.534	2965.56
861.855	2951.32
862.176	2958.78
862.498	2950.42
862.819	2931.66
863.14	2932.34
863.461	2932.56
863.782	2948.83
864.103	2927.37
864.424	2890.08
864.745	2893.47
865.065	2898.21
865.386	2878.55
865.707	2895.05
866.027	2888.27
866.348	2914.94
866.668	2862.74
866.989	2849.18
867.309	2850.53
867.63	2842.62
867.95	2835.84
868.27	2853.92
868.59	2829.06
868.91	2850.98
869.23	2838.78
869.55	2838.56
869.87	2833.58
870.19	2840.36
870.51	2827.26
870.83	2797.65
871.15	2830.19
871.469	2801.27
871.789	2799.23
872.109	2796.97
872.428	2810.99
872.748	2814.6
873.067	2787.26
873.386	2773.02
873.706	2774.83
874.025	2761.27
874.344	2776.18
874.663	2770.31
874.982	2747.71
875.301	2792.91
875.62	2745.68
875.939	2772.57
876.258	2742.29
876.577	2742.51
876.896	2724.66
877.214	2704.77
877.533	2720.82
877.852	2763.53
878.17	2730.54
878.489	2729.18
878.807	2737.77
879.125	2711.55
879.444	2713.81
879.762	2718.11
880.08	2723.76
880.398	2712.68
880.716	2711.33
881.034	2702.06
881.352	2673.36
881.67	2679.24
881.988	2659.8
882.306	2662.51
882.624	2670.88
882.941	2653.93
883.259	2646.24
883.577	2634.94
883.894	2633.14
884.212	2636.3
884.529	2644.44
884.846	2600.6
885.164	2589.75
885.481	2615.28
885.798	2614.61
886.115	2610.54
886.432	2618.22
886.75	2584.1
887.067	2562.63
887.383	2583.19
887.7	2579.35
888.017	2560.82
888.334	2552.24
888.651	2580.71
888.967	2559.69
889.284	2545.46
889.6	2541.61
889.917	2530.99
890.233	2515.63
890.55	2501.39
890.866	2540.48
891.182	2511.56
891.498	2553.59
891.815	2473.59
892.131	2467.27
892.447	2507.26
892.763	2452.8
893.079	2453.25
893.395	2428.17
893.71	2471.56
894.026	2459.58
894.342	2438.57
894.657	2456.19
894.973	2436.08
895.289	2464.33
895.604	2438.34
895.92	2404.67
896.235	2416.65
896.55	2387.49
896.865	2371.22
897.181	2394.5
897.496	2404.44
897.811	2380.04
898.126	2365.12
898.441	2360.38
898.756	2361.05
899.071	2327.61
899.386	2347.27
899.7	2305.46
900.015	2301.85
900.33	2291.45
900.644	2306.59
900.959	2301.39
901.273	2292.81
901.588	2270.66
901.902	2280.6
902.216	2262.53
902.531	2299.36
902.845	2270.89
903.159	2255.97
903.473	2219.81
903.787	2225.92
904.101	2249.42
904.415	2236.54
904.729	2195.41
905.042	2207.84
905.356	2208.06
905.67	2193.37
905.984	2183.43
906.297	2196.54
906.611	2184.34
906.924	2141.85
907.237	2188.63
907.551	2142.98
907.864	2119.25
908.177	2150.44
908.491	2156.54
908.804	2124.22
909.117	2120.61
909.43	2122.19
909.743	2086.94
910.056	2091.46
910.368	2102.98
910.681	2060.72
910.994	2074.73
911.307	2069.08
911.619	2035.86
911.932	2062.76
912.244	2015.3
912.557	2006.49
912.869	2034.73
913.181	2015.98
913.494	2043.32
913.806	1998.58
914.118	1987.96
914.43	1979.82
914.742	2004.9
915.054	1976.21
915.366	1979.14
915.678	1952.02
915.99	1959.26
916.302	1933.49
916.613	1897.11
916.925	1917.9
917.236	1925.13
917.548	1945.25
917.859	1917.68
918.171	1918.13
918.482	1924.46
918.794	1886.26
919.105	1889.2
919.416	1890.56
919.727	1900.5
920.038	1850.56
920.349	1844.23
920.66	1847.17
920.971	1822.76
921.282	1843.78
921.593	1856.66
921.903	1836.32
922.214	1833.84
922.525	1830.9
922.835	1799.94
923.146	1837.23
923.456	1784.12
923.767	1770.11
924.077	1744.35
924.387	1791.35
924.697	1766.04
925.008	1799.03
925.318	1755.42
925.628	1802.65
925.938	1741.86
926.248	1748.19
926.558	1741.18
926.867	1701.86
927.177	1723.1
927.487	1703.44
927.796	1681.07
928.106	1702.99
928.416	1686.27
928.725	1698.92
929.034	1682.2
929.344	1692.6
929.653	1656.67
929.962	1643.56
930.271	1642.65
930.581	1666.38
930.89	1639.94
931.199	1613.5
931.508	1641.98
931.817	1636.55
932.125	1621.86
932.434	1616.67
932.743	1609.66
933.051	1600.85
933.36	1620.73
933.669	1627.29
933.977	1590.23
934.286	1577.57
934.594	1579.61
934.902	1585.71
935.21	1559.72
935.519	1565.82
935.827	1537.57
936.135	1561.98
936.443	1531.47
936.751	1550
937.059	1535.99
937.367	1546.39
937.674	1509.1
937.982	1542.77
938.29	1511.81
938.597	1487.18
938.905	1505.26
939.213	1491.47
939.52	1512.04
939.827	1502.09
940.135	1481.98
940.442	1485.6
940.749	1472.72
941.056	1488.53
941.363	1469.1
941.67	1465.26
941.977	1467.29
942.284	1435.2
942.591	1441.53
942.898	1463.45
943.205	1423.23
943.511	1432.94
943.818	1439.72
944.125	1411.02
944.431	1415.32
944.738	1411.47
945.044	1408.54
945.35	1439.27
945.657	1425.49
945.963	1391.59
946.269	1371.7
946.575	1345.49
946.881	1424.13
947.187	1377.8
947.493	1360.85
947.799	1331.25
948.105	1325.83
948.41	1338.93
948.716	1341.42
949.022	1353.17
949.327	1337.13
949.633	1333.51
949.938	1326.28
950.244	1310.69
950.549	1308.2
950.854	1308.43
951.16	1307.52
951.465	1313.62
951.77	1310.01
952.075	1310.69
952.38	1314.75
952.685	1299.16
952.99	1298.26
953.294	1298.93
953.599	1265.94
953.904	1281.53
954.209	1239.73
954.513	1239.5
954.818	1260.97
955.122	1270.69
955.426	1239.5
955.731	1260.29
956.035	1240.63
956.339	1218.71
956.643	1252.61
956.948	1208.32
957.252	1211.25
957.556	1207.41
957.86	1230.69
958.163	1210.8
958.467	1196.11
958.771	1201.31
959.075	1211.93
959.378	1201.31
959.682	1194.76
959.985	1180.07
960.289	1194.3
960.592	1171.48
960.896	1180.97
961.199	1154.08
961.502	1192.04
961.805	1147.75
962.108	1131.71
962.411	1174.42
962.714	1155.44
963.017	1146.17
963.32	1159.28
963.623	1112.95
963.926	1125.61
964.228	1124.02
964.531	1146.4
964.833	1122.67
965.136	1130.35
965.438	1100.52
965.741	1137.81
966.043	1089.9
966.345	1116.11
966.648	1094.87
966.95	1111.14
967.252	1091.71
967.554	1084.7
967.856	1100.52
968.158	1069.56
968.46	1075.44
968.761	1056.46
969.063	1066.62
969.365	1075.21
969.666	1046.74
969.968	1060.07
970.269	1040.86
970.571	1071.37
970.872	1078.38
971.174	1027.3
971.475	1075.44
971.776	1035.44
972.077	1032.5
972.378	1022.56
972.679	989.56
972.98	1023.01
973.281	1006.97
973.582	1025.5
973.883	1023.69
974.183	1031.15
974.484	993.18
974.785	996.57
975.085	1024.82
975.386	1018.49
975.686	1000.41
975.986	997.7
976.287	1003.58
976.587	991.37
976.887	975.33
977.187	953.86
977.487	954.76
977.787	981.65
978.087	958.6
978.387	980.3
978.687	968.32
978.987	951.37
979.286	963.8
979.586	968.55
979.885	966.51
980.185	938.49
980.484	935.78
980.784	945.27
981.083	933.52
981.382	949.57
981.682	970.36
981.981	942.33
982.28	940.3
982.579	936.01
982.878	926.97
983.177	932.39
983.475	940.3
983.774	907.08
984.073	923.35
984.372	905.72
984.67	891.04
984.969	900.98
985.267	893.75
985.566	912.05
985.864	905.95
986.162	878.38
986.461	871.15
986.759	884.48
987.057	891.04
987.355	879.51
987.653	861.43
987.951	873.86
988.249	885.16
988.547	891.49
988.844	867.08
989.142	861.88
989.44	852.39
989.737	857.14
990.035	849
990.332	843.35
990.63	847.87
990.927	869.34
991.224	840.87
991.521	830.92
991.819	815.56
992.116	830.47
992.413	806.29
992.71	854.2
993.006	828.21
993.303	815.56
993.6	816.24
993.897	812.85
994.193	815.33
994.49	809
994.787	791.15
995.083	825.05
995.379	824.82
995.676	801.09
995.972	795.22
996.268	799.06
996.565	808.78
996.861	784.6
997.157	774.43
997.453	777.82
997.749	780.3
998.044	782.56
998.34	776.01
998.636	769.68
998.932	788.89
999.227	773.52
999.523	771.49
999.818	763.58
1000.114	752.06
1000.409	753.86
1000.704	768.55
1001	732.17
1001.295	764.26
1001.59	751.83
1001.885	761.1
1002.18	727.65
1002.475	740.76
1002.77	735.33
1003.065	715
1003.359	736.92
1003.654	715.22
1003.949	714.77
1004.243	714.32
1004.538	711.38
1004.832	713.19
1005.127	719.29
1005.421	717.71
1005.715	725.62
1006.009	714.09
1006.304	690.59
1006.598	705.28
1006.892	707.76
1007.186	700.53
1007.48	707.31
1007.773	740.31
1008.067	683.81
1008.361	674.32
1008.655	668.89
1008.948	687.65
1009.242	696.46
1009.535	675.67
1009.829	656.47
1010.122	642.91
1010.415	661.89
1010.708	677.93
1011.001	647.43
1011.295	673.64
1011.588	639.97
1011.881	661.21
1012.173	648.78
1012.466	644.71
1012.759	667.99
1013.052	666.18
1013.344	670.25
1013.637	661.66
1013.93	633.42
1014.222	641.32
1014.514	632.74
1014.807	636.81
1015.099	628.22
1015.391	638.84
1015.683	648.56
1015.976	650.82
1016.268	603.36
1016.56	612.17
1016.851	628.9
1017.143	626.64
1017.435	623.25
1017.727	622.79
1018.018	611.95
1018.31	603.59
1018.602	607.88
1018.893	607.65
1019.185	611.5
1019.476	589.57
1019.767	619.4
1020.058	593.87
1020.35	604.49
1020.641	589.8
1020.932	576.69
1021.223	567.43
1021.514	584.38
1021.804	583.25
1022.095	592.96
1022.386	555.9
1022.677	582.34
1022.967	551.61
1023.258	564.26
1023.548	552.51
1023.839	581.44
1024.129	551.16
1024.419	567.88
1024.709	546.19
1025	564.94
1025.29	561.55
1025.58	534.89
1025.87	545.28
1026.16	540.08
1026.449	545.51
1026.739	517.49
1027.029	545.28
1027.319	541.89
1027.608	541.44
1027.898	526.53
1028.187	522.68
1028.477	520.42
1028.766	524.27
1029.055	527.88
1029.344	549.35
1029.634	516.81
1029.923	514.32
1030.212	510.71
1030.501	510.25
1030.79	506.64
1031.078	504.38
1031.367	492.4
1031.656	516.58
1031.945	516.13
1032.233	518.16
1032.522	509.13
1032.81	510.03
1033.099	480.65
1033.387	478.39
1033.675	497.15
1033.963	507.09
1034.251	486.07
1034.54	496.92
1034.828	482.46
1035.116	484.04
1035.403	483.36
1035.691	499.86
1035.979	469.8
1036.267	496.7
1036.554	488.79
1036.842	482.46
1037.129	480.43
1037.417	473.19
1037.704	463.02
1037.992	460.99
1038.279	483.59
1038.566	474.1
1038.853	474.1
1039.14	474.1
