Data from mousepad_grey_FLMS001491_00061.txt Node
Date: Wed Feb 08 14:29:45 GMT 2017
User: dcchb
Spectrometer: FLMS00149
Trigger mode: 0
Integration Time (sec): 2.000000E-2
Scans to average: 10
Electric dark correction enabled: true
Nonlinearity correction enabled: false
Boxcar width: 0
XAxis mode: Wavelengths
Number of Pixels in Spectrum: 2048
>>>>>Begin Spectral Data<<<<<
341.393	-12.12
341.776	-12.12
342.16	-12.12
342.543	-47.15
342.927	-67.71
343.31	-71.55
343.693	-68.84
344.077	-63.42
344.46	-54.15
344.843	-36.75
345.226	-53.7
345.61	-51.44
345.993	-16.86
346.376	7.32
346.759	14.32
347.142	22.91
347.525	40.76
347.908	57.71
348.291	89.35
348.674	72.17
349.057	112.17
349.44	114.88
349.823	140.65
350.206	168.44
350.588	191.72
350.971	197.14
351.354	204.37
351.737	207.31
352.119	244.37
352.502	244.6
352.884	257.25
353.267	256.12
353.65	267.65
354.032	264.71
354.414	291.38
354.797	300.87
355.179	304.71
355.562	331.15
355.944	309.91
356.326	306.74
356.709	329.34
357.091	305.16
357.473	312.39
357.855	327.76
358.238	338.15
358.62	305.16
359.002	308.55
359.384	328.89
359.766	327.76
360.148	306.97
360.53	311.04
360.912	309
361.294	318.27
361.676	303.13
362.057	301.77
362.439	330.47
362.821	294.99
363.203	300.64
363.584	318.27
363.966	291.83
364.348	299.96
364.729	322.34
365.111	325.27
365.493	316.91
365.874	327.76
366.256	308.33
366.637	297.25
367.019	298.61
367.4	315.56
367.781	302.45
368.163	305.84
368.544	303.35
368.925	303.35
369.306	302
369.688	294.09
370.069	300.64
370.45	295.44
370.831	304.48
371.212	312.17
371.593	320.08
371.974	311.26
372.355	308.55
372.736	303.81
373.117	299.51
373.498	298.61
373.879	293.86
374.26	313.52
374.641	307.42
375.021	310.13
375.402	311.94
375.783	320.75
376.163	309.68
376.544	293.18
376.925	305.84
377.305	311.26
377.686	315.1
378.066	331.83
378.447	320.75
378.827	306.07
379.208	315.78
379.588	316.01
379.968	323.69
380.349	290.02
380.729	326.63
381.109	327.99
381.489	304.03
381.87	318.04
382.25	317.14
382.63	343.8
383.01	312.39
383.39	341.54
383.77	329.12
384.15	338.61
384.53	327.08
384.91	341.32
385.29	328.44
385.67	335.44
386.049	353.97
386.429	342.67
386.809	347.42
387.189	354.65
387.568	336.8
387.948	326.86
388.328	330.25
388.707	340.19
389.087	364.37
389.466	345.39
389.846	346.97
390.225	347.87
390.605	364.14
390.984	345.16
391.363	367.98
391.743	378.61
392.122	329.57
392.501	336.57
392.881	368.21
393.26	365.95
393.639	347.19
394.018	369.79
394.397	343.35
394.776	363.92
395.155	339.96
395.534	393.75
395.913	382.22
396.292	371.15
396.671	396.23
397.05	385.16
397.429	398.04
397.808	367.98
398.186	372.73
398.565	379.28
398.944	372.5
399.323	394.42
399.701	389.23
400.08	379.51
400.458	390.13
400.837	357.59
401.215	398.49
401.594	396.46
401.972	396.91
402.351	393.29
402.729	397.59
403.107	387.19
403.486	388.55
403.864	396.91
404.242	404.59
404.62	435.1
404.999	396.91
405.377	391.94
405.755	420.86
406.133	422.22
406.511	428.55
406.889	415.89
407.267	447.3
407.645	434.65
408.023	442.78
408.401	430.81
408.779	438.04
409.156	440.07
409.534	432.39
409.912	454.08
410.29	457.7
410.667	456.57
411.045	450.24
411.422	453.86
411.8	452.95
412.178	472.84
412.555	466.97
412.933	462.67
413.31	461.77
413.687	477.13
414.065	497.25
414.442	499.28
414.819	504.7
415.197	505.61
415.574	488.66
415.951	508.09
416.328	504.03
416.705	483.69
417.082	529.79
417.46	503.8
417.837	510.81
418.214	521.2
418.591	522.33
418.967	523.46
419.344	513.97
419.721	549.22
420.098	539.51
420.475	539.05
420.852	526.4
421.228	553.74
421.605	564.59
421.982	556.45
422.358	554.19
422.735	567.98
423.111	558.49
423.488	560.97
423.864	560.07
424.241	598.04
424.617	571.37
424.994	570.24
425.37	592.39
425.746	597.13
426.123	599.62
426.499	586.51
426.875	616.34
427.251	614.08
427.627	602.78
428.003	636.9
428.379	626.51
428.756	611.14
429.132	640.52
429.507	648.66
429.883	664.93
430.259	645.94
430.635	641.65
431.011	667.64
431.387	667.19
431.763	657.02
432.138	687.98
432.514	668.54
432.89	705.38
433.265	701.08
433.641	709.67
434.016	719.84
434.392	713.96
434.767	733.4
435.143	716.45
435.518	723.46
435.894	727.52
436.269	753.96
436.644	749.9
437.02	739.95
437.395	756.45
437.77	756.45
438.145	775.43
438.52	774.53
438.895	773.4
439.271	768.2
439.646	783.12
440.021	811.14
440.395	796.22
440.77	790.35
441.145	832.38
441.52	821.08
441.895	826.5
442.27	841.87
442.645	810.91
443.019	829.44
443.394	832.61
443.769	846.39
444.143	835.09
444.518	873.96
444.892	862.43
445.267	849.78
445.641	862.43
446.016	852.04
446.39	880.06
446.764	860.85
447.139	880.97
447.513	894.3
447.887	896.56
448.262	896.78
448.636	900.17
449.01	902.43
449.384	917.35
449.758	917.35
450.132	906.95
450.506	892.04
450.88	935.2
451.254	941.08
451.628	985.82
452.002	925.26
452.376	973.17
452.75	967.74
453.123	971.36
453.497	965.94
453.871	1005.71
454.244	1001.87
454.618	1026.27
454.992	1025.59
455.365	995.54
455.739	1031.02
456.112	1045.71
456.486	1067.4
456.859	1071.47
457.232	1077.34
457.606	1084.8
457.979	1084.58
458.352	1117.57
458.725	1135.2
459.099	1153.95
459.472	1154.86
459.845	1157.12
460.218	1166.38
460.591	1162.31
460.964	1180.39
461.337	1203.89
461.71	1211.58
462.083	1221.97
462.456	1252.48
462.829	1229.43
463.201	1266.27
463.574	1279.83
463.947	1299.49
464.32	1313.95
464.692	1319.6
465.065	1351.46
465.438	1329.54
465.81	1340.16
466.183	1341.74
466.555	1384.68
466.928	1392.14
467.3	1392.14
467.672	1446.83
468.045	1431.91
468.417	1440.95
468.789	1452.7
469.161	1471.23
469.534	1482.76
469.906	1519.37
470.278	1514.4
470.65	1552.13
471.022	1578.35
471.394	1593.49
471.766	1589.2
472.138	1601.62
472.51	1630.78
472.882	1680.72
473.253	1663.54
473.625	1722.07
473.997	1759.13
474.369	1742.86
474.74	1778.34
475.112	1801.85
475.484	1797.1
475.855	1840.04
476.227	1855.63
476.598	1887.27
476.97	1874.16
477.341	1935.18
477.713	1958
478.084	2006.36
478.455	2009.52
478.827	2017.21
479.198	2087.26
479.569	2098.33
479.94	2128.16
480.311	2165
480.682	2191.67
481.053	2257.65
481.424	2272.34
481.795	2293.13
482.166	2328.61
482.537	2332.23
482.908	2375.62
483.279	2417.2
483.65	2419.68
484.021	2491.32
484.391	2506.01
484.762	2532
485.133	2548.27
485.503	2588.72
485.874	2635.95
486.244	2674.36
486.615	2712.33
486.985	2725.21
487.356	2765.44
487.726	2790.07
488.097	2839.78
488.467	2849.95
488.837	2899.44
489.207	2948.71
489.578	2983.96
489.948	3050.85
490.318	3070.96
490.688	3067.12
491.058	3132.66
491.428	3153.67
491.798	3162.94
492.168	3226.44
492.538	3234.35
492.908	3270.51
493.278	3329.49
493.648	3339.88
494.017	3359.77
494.387	3388.24
494.757	3445.87
495.126	3413.78
495.496	3499.65
495.866	3521.12
496.235	3495.13
496.605	3541.01
496.974	3551.4
497.344	3583.04
497.713	3603.61
498.082	3630.05
498.452	3686.77
498.821	3723.15
499.19	3666.66
499.559	3742.59
499.928	3802.24
500.298	3777.16
500.667	3818.74
501.036	3808.57
501.405	3846.54
501.774	3886.99
502.143	3914.56
502.512	3966.76
502.88	3957.49
503.249	3941.68
503.618	4011.28
503.987	3986.42
504.356	4032.75
504.724	4112.52
505.093	4070.71
505.462	4051.5
505.83	4108.45
506.199	4129.02
506.567	4198.39
506.936	4218.28
507.304	4266.41
507.672	4321.33
508.041	4276.36
508.409	4334.89
508.777	4338.95
509.145	4388.44
509.514	4403.58
509.882	4447.65
510.25	4434.77
510.618	4482.45
510.986	4524.94
511.354	4528.55
511.722	4561.77
512.09	4638.83
512.458	4635.9
512.826	4630.7
513.193	4647.19
513.561	4728.55
513.929	4701.66
514.297	4783.01
514.664	4800.18
515.032	4843.12
515.4	4832.73
515.767	4919.05
516.135	4907.07
516.502	4865.04
516.869	4992.27
517.237	5003.57
517.604	4986.85
517.972	5076.56
518.339	5076.11
518.706	5110.46
519.073	5140.97
519.44	5128.99
519.808	5205.37
520.175	5187.52
520.542	5260.96
520.909	5343.67
521.276	5293.5
521.643	5395.42
522.009	5394.97
522.376	5392.94
522.743	5481.07
523.11	5461.86
523.477	5609.65
523.843	5612.37
524.21	5605.36
524.577	5674.06
524.943	5719.93
525.31	5720.61
525.676	5756.32
526.043	5807.84
526.409	5892.81
526.776	5925.8
527.142	5940.72
527.508	5956.76
527.874	6039.02
528.241	6043.99
528.607	6010.55
528.973	6173.26
529.339	6148.17
529.705	6198.34
530.071	6227.72
530.437	6237.43
530.803	6262.52
531.169	6316.53
531.535	6335.29
531.901	6393.59
532.267	6409.86
532.632	6427.94
532.998	6535.73
533.364	6553.36
533.73	6533.92
534.095	6647.59
534.461	6559.69
534.826	6649.63
535.192	6657.76
535.557	6692.79
535.923	6700.93
536.288	6747.48
536.653	6784.77
537.019	6782.96
537.384	6798.1
537.749	6879.9
538.114	6884.42
538.479	6882.62
538.845	6946.12
539.21	6993.8
539.575	7017.75
539.94	7060.46
540.305	7068.37
540.67	7051.88
541.034	7059.79
541.399	7157.41
541.764	7071.54
542.129	7233.79
542.494	7218.2
542.858	7279.22
543.223	7264.53
543.587	7323.28
543.952	7345.43
544.316	7378.42
544.681	7340
545.045	7445.76
545.41	7447.8
545.774	7511.3
546.138	7551.52
546.503	7497.51
546.867	7531.64
547.231	7561.69
547.595	7615.03
547.959	7684.63
548.324	7696.83
548.688	7739.09
549.052	7762.59
549.416	7756.49
549.779	7809.14
550.143	7822.48
550.507	7875.13
550.871	7919.88
551.235	7895.24
551.599	7910.84
551.962	7975.92
552.326	8015.92
552.689	8065.18
553.053	8004.62
553.417	8068.57
553.78	8247.78
554.143	8175.01
554.507	8207.55
554.87	8203.94
555.234	8366.87
555.597	8263.6
555.96	8346.98
556.323	8390.6
556.686	8360.09
557.05	8363.71
557.413	8511.27
557.776	8436.25
558.139	8534.55
558.502	8545.4
558.865	8581.33
559.228	8618.39
559.59	8642.34
559.953	8679.86
560.316	8772.51
560.679	8728.89
561.041	8791.72
561.404	8841.89
561.767	8903.58
562.129	8896.35
562.492	8978.83
562.854	9017.47
563.217	9014.54
563.579	9081.2
563.941	9147.41
564.304	9115.33
564.666	9174.08
565.028	9152.61
565.39	9197.81
565.753	9377.92
566.115	9293.63
566.477	9368.43
566.839	9359.61
567.201	9398.26
567.563	9480.97
567.925	9545.82
568.287	9525.03
568.648	9535.65
569.01	9595.31
569.372	9692.03
569.734	9655.42
570.095	9711.02
570.457	9739.72
570.819	9753.73
571.18	9803.22
571.542	9852.93
571.903	9907.62
572.265	9878.47
572.626	9903.1
572.987	9951.91
573.349	10058.58
573.71	10038.01
574.071	10158.24
574.432	10101.97
574.794	10239.36
575.155	10090.21
575.516	10134.28
575.877	10191.68
576.238	10187.84
576.599	10231.91
576.96	10235.3
577.32	10194.62
577.681	10320.49
578.042	10358.46
578.403	10264.22
578.763	10369.53
579.124	10385.57
579.485	10342.41
579.845	10408.4
580.206	10375.41
580.566	10417.66
580.927	10420.38
581.287	10483.88
581.648	10457.21
582.008	10534.5
582.368	10542.41
582.728	10574.27
583.089	10526.36
583.449	10558.45
583.809	10538.11
584.169	10500.37
584.529	10541.95
584.889	10550.77
585.249	10518.45
585.609	10510.77
585.969	10576.08
586.329	10595.74
586.688	10597.32
587.048	10581.28
587.408	10565
587.768	10598.45
588.127	10618.11
588.487	10629.41
588.846	10625.34
589.206	10538.34
589.565	10578.34
589.925	10564.78
590.284	10568.85
590.643	10635.96
591.003	10727.26
591.362	10654.27
591.721	10666.7
592.08	10703.53
592.44	10705.34
592.799	10692.01
593.158	10741.72
593.517	10638.68
593.876	10634.61
594.235	10658.56
594.593	10700.37
594.952	10741.95
595.311	10635.96
595.67	10727.94
596.029	10783.53
596.387	10750.08
596.746	10838.67
597.104	10708.5
597.463	10778.78
597.822	10702.4
598.18	10722.06
598.538	10695.85
598.897	10711.67
599.255	10697.88
599.613	10804.55
599.972	10774.49
600.33	10820.82
600.688	10777.88
601.046	10818.78
601.404	10813.36
601.762	10848.84
602.12	10885
602.478	10807.03
602.836	10843.64
603.194	10802.29
603.552	10861.49
603.91	10833.92
604.268	10910.98
604.625	10836.64
604.983	10881.38
605.341	10872.12
605.698	10909.63
606.056	10923.87
606.413	10980.59
606.771	10961.6
607.128	10963.86
607.485	10872.57
607.843	10915.73
608.2	11019.68
608.557	10986.69
608.914	10957.31
609.272	11052.45
609.629	11007.93
609.986	11105.33
610.343	11037.76
610.7	11149.62
611.057	11123.18
611.414	11071.88
611.771	11070.98
612.127	11191.65
612.484	11128.61
612.841	11174.71
613.198	11099.68
613.554	11144.65
613.911	11214.48
614.267	11245.21
614.624	11218.55
614.98	11192.56
615.337	11284.99
615.693	11226
616.05	11197.08
616.406	11262.16
616.762	11288.6
617.118	11230.07
617.475	11253.35
617.831	11314.59
618.187	11387.81
618.543	11300.58
618.899	11431.65
619.255	11247.7
619.611	11313.46
619.967	11440.24
620.323	11364.31
620.678	11353.91
621.034	11301.93
621.39	11365.66
621.746	11387.58
622.101	11473
622.457	11396.85
622.812	11444.76
623.168	11462.16
623.523	11429.39
623.879	11435.49
624.234	11380.12
624.589	11404.98
624.945	11411.99
625.3	11494.02
625.655	11417.19
626.01	11463.96
626.365	11527.92
626.72	11437.75
627.075	11385.32
627.43	11371.54
627.785	11405.66
628.14	11432.33
628.495	11489.5
628.85	11382.61
629.205	11374.93
629.559	11471.42
629.914	11401.82
630.269	11432.78
630.623	11365.21
630.978	11388.03
631.332	11402.04
631.687	11393.23
632.041	11366.11
632.396	11374.93
632.75	11353.23
633.104	11393.01
633.459	11327.47
633.813	11295.38
634.167	11279.11
634.521	11301.48
634.875	11307.13
635.229	11330.63
635.583	11215.84
635.937	11274.14
636.291	11223.07
636.645	11273.69
636.999	11246.12
637.352	11255.61
637.706	11185.78
638.06	11243.4
638.413	11251.99
638.767	11195.72
639.121	11162.05
639.474	11175.16
639.828	11181.26
640.181	11147.59
640.534	11186.23
640.888	11125.22
641.241	11088.38
641.594	11122.73
641.947	11181.94
642.301	11098.1
642.654	11134.93
643.007	11169.73
643.36	10995.05
643.713	11069.85
644.066	11109.17
644.419	11083.86
644.771	11010.64
645.124	10917.54
645.477	10832.79
645.83	10819.01
646.182	10763.87
646.535	10774.26
646.888	10776.07
647.24	10710.99
647.593	10762.06
647.945	10730.42
648.298	10679.58
648.65	10706.92
649.002	10691.56
649.355	10713.93
649.707	10698.11
650.059	10783.08
650.411	10859.69
650.763	10971.32
651.115	11016.97
651.467	10949.18
651.819	10987.59
652.171	10927.71
652.523	10963.19
652.875	10990.76
653.227	10848.16
653.578	11015.61
653.93	10902.62
654.282	10851.32
654.633	10885.9
654.985	10922.06
655.337	10934.71
655.688	10933.36
656.039	10923.64
656.391	10893.58
656.742	10902.62
657.094	10898.1
657.445	10934.03
657.796	10933.58
658.147	10904.2
658.498	10869.86
658.849	10912.34
659.2	10920.25
659.551	10869.63
659.902	10951.66
660.253	10867.82
660.604	10910.76
660.955	10819.46
661.306	10914.37
661.656	10933.81
662.007	10887.71
662.358	10873.7
662.708	10905.33
663.059	10924.54
663.409	10907.59
663.76	10895.62
664.11	10947.37
664.461	10900.36
664.811	10942.17
665.161	10879.8
665.511	10807.48
665.862	10853.13
666.212	10902.17
666.562	10954.15
666.912	10921.83
667.262	10905.11
667.612	10884.09
667.962	10878.22
668.312	10864.21
668.662	10910.08
669.011	10901.27
669.361	10913.02
669.711	10862.4
670.06	10794.6
670.41	10782.4
670.76	10812.46
671.109	10930.19
671.459	10869.86
671.808	10803.87
672.157	10800.93
672.507	10711.44
672.856	10789.86
673.205	10715.74
673.554	10818.11
673.904	10797.54
674.253	10769.52
674.602	10795.06
674.951	10640.71
675.3	10552.8
675.649	10642.97
675.998	10699.92
676.346	10710.76
676.695	10769.75
677.044	10675.28
677.393	10729.29
677.741	10734.04
678.09	10755.28
678.438	10581.95
678.787	10696.53
679.135	10707.6
679.484	10598.45
679.832	10669.86
680.181	10569.3
680.529	10621.5
680.877	10571.56
681.225	10574.04
681.573	10588.96
681.922	10562.74
682.27	10518.45
682.618	10603.87
682.966	10511.45
683.314	10537.66
683.661	10494.5
684.009	10451.34
684.357	10422.86
684.705	10345.12
685.053	10440.71
685.4	10391.45
685.748	10357.55
686.095	10328.17
686.443	10284.33
686.79	10270.55
687.138	10341.06
687.485	10313.71
687.832	10257.67
688.18	10215.64
688.527	10172.02
688.874	10199.59
689.221	10133.83
689.568	10127.28
689.915	10108.97
690.262	10052.48
690.609	10071.23
690.956	10053.61
691.303	9991.46
691.65	9951.69
691.997	9967.05
692.344	9901.75
692.69	9899.03
693.037	9895.87
693.383	9782.88
693.73	9873.5
694.077	9797.12
694.423	9781.07
694.769	9729.55
695.116	9750.11
695.462	9683.45
695.808	9635.54
696.155	9723.22
696.501	9657.68
696.847	9582.43
697.193	9524.13
697.539	9597.12
697.885	9477.58
698.231	9480.74
698.577	9447.07
698.923	9386.73
699.269	9396.9
699.614	9394.64
699.96	9345.38
700.306	9348.54
700.651	9239.62
700.997	9222.67
701.342	9251.82
701.688	9236.45
702.033	9233.51
702.379	9196.23
702.724	9153.52
703.069	9153.97
703.415	8989.9
703.76	9111.71
704.105	9055.44
704.45	8980.19
704.795	8942.67
705.14	8953.75
705.485	8952.39
705.83	8910.81
706.175	8931.15
706.52	8909.91
706.865	8837.82
707.209	8800.53
707.554	8805.73
707.899	8862
708.243	8797.37
708.588	8797.14
708.932	8716.01
709.277	8647.77
709.621	8749.01
709.966	8667.65
710.31	8645.73
710.654	8606.64
710.998	8639.41
711.342	8597.82
711.687	8559.18
712.031	8558.05
712.375	8526.64
712.719	8524.38
713.063	8479.86
713.407	8502.46
713.75	8476.02
714.094	8523.48
714.438	8503.82
714.782	8485.51
715.125	8450.48
715.469	8417.49
715.812	8427.66
716.156	8345.85
716.499	8344.05
716.843	8381.11
717.186	8285.52
717.53	8374.78
717.873	8351.96
718.216	8315.12
718.559	8341.56
718.902	8267.66
719.246	8319.64
719.589	8300.21
719.932	8267.44
720.275	8297.49
720.617	8236.48
720.96	8243.48
721.303	8278.96
721.646	8310.83
721.989	8196.25
722.331	8269.47
722.674	8181.11
723.016	8174.56
723.359	8254.11
723.701	8173.43
724.044	8137.27
724.386	8171.85
724.729	8216.37
725.071	8095.92
725.413	8055.01
725.755	8112.41
726.097	8059.53
726.439	8078.97
726.782	8089.59
727.124	8044.17
727.465	8061.34
727.807	8150.15
728.149	8024.51
728.491	8044.39
728.833	8082.81
729.175	8021.12
729.516	8034.22
729.858	7982.93
730.199	8101.34
730.541	8071.06
730.882	8005.07
731.224	8135.69
731.565	8067.67
731.906	7989.25
732.248	7990.16
732.589	7949.71
732.93	8021.57
733.271	7988.8
733.612	8016.6
733.953	7991.06
734.294	7982.7
734.635	7933.21
734.976	8004.17
735.317	7932.31
735.658	7995.35
735.999	7934.79
736.339	7927.33
736.68	7943.83
737.021	7913.1
737.361	7952.19
737.702	7930.27
738.042	7966.43
738.383	7908.35
738.723	7956.26
739.063	7898.63
739.404	7940.89
739.744	7903.83
740.084	7874.91
740.424	7867.9
740.764	7877.62
741.104	7968.01
741.444	7921.23
741.784	7915.36
742.124	7857.96
742.464	7859.99
742.804	7816.83
743.143	7888.24
743.483	7866.09
743.823	7888.92
744.162	7836.49
744.502	7866.32
744.841	7818.41
745.181	7845.08
745.52	7874.91
745.86	7903.83
746.199	7883.27
746.538	7843.72
746.877	7904.28
747.216	7837.39
747.556	7789.26
747.895	7829.03
748.234	7873.1
748.573	7818.86
748.911	7766.89
749.25	7820.9
749.589	7753.1
749.928	7770.28
750.267	7770.5
750.605	7772.76
750.944	7801.91
751.283	7777.96
751.621	7724.18
751.96	7658.64
752.298	7685.98
752.636	7773.21
752.975	7672.88
753.313	7665.65
753.651	7708.81
753.989	7643.5
754.327	7656.15
754.666	7622.48
755.004	7629.26
755.342	7633.33
755.679	7667
756.017	7568.7
756.355	7677.17
756.693	7588.13
757.031	7630.62
757.368	7556.95
757.706	7539.32
758.044	7569.6
758.381	7507.46
758.719	7523.05
759.056	7476.5
759.394	7514.24
759.731	7457.52
760.068	7419.55
760.405	7363.05
760.743	7396.27
761.08	7374.81
761.417	7347.01
761.754	7351.53
762.091	7379.1
762.428	7287.12
762.765	7256.39
763.102	7321.02
763.438	7260.23
763.775	7234.47
764.112	7264.07
764.449	7261.14
764.785	7191.53
765.122	7154.02
765.458	7148.6
765.795	7107.69
766.131	7144.98
766.467	7070.86
766.804	7053.68
767.14	7010.3
767.476	7004.42
767.812	7028.15
768.148	7009.62
768.485	6946.57
768.821	6930.52
769.157	6940.69
769.492	6905.21
769.828	6884.42
770.164	6797.65
770.5	6840.58
770.836	6814.37
771.171	6777.31
771.507	6731.43
771.842	6695.73
772.178	6777.08
772.513	6759.68
772.849	6683.07
773.184	6622.28
773.519	6666.35
773.855	6613.02
774.19	6601.04
774.525	6597.65
774.86	6623.87
775.195	6483.53
775.53	6526.01
775.865	6491.44
776.2	6453.93
776.535	6383.19
776.87	6382.29
777.205	6368.05
777.539	6388.17
777.874	6351.33
778.209	6274.04
778.543	6319.69
778.878	6236.76
779.212	6222.29
779.547	6267.04
779.881	6211.45
780.215	6186.36
780.55	6242.18
780.884	6110.66
781.218	6162.41
781.552	6124.44
781.886	6135.74
782.22	6110.43
782.554	6057.55
782.888	6000.38
783.222	5975.75
783.556	5977.78
783.889	6001.06
784.223	5941.62
784.557	5935.52
784.89	5925.58
785.224	5939.82
785.557	5891.68
785.891	5874.28
786.224	5845.81
786.558	5801.51
786.891	5763.55
787.224	5765.13
787.557	5721.06
787.891	5746.15
788.224	5750.22
788.557	5753.83
788.89	5720.61
789.223	5675.87
789.556	5631.35
789.888	5624.12
790.221	5653.72
790.554	5586.6
790.887	5599.49
791.219	5564.23
791.552	5586.83
791.884	5542.09
792.217	5529.66
792.549	5507.51
792.882	5496.21
793.214	5438.59
793.546	5461.41
793.879	5396.1
794.211	5397.23
794.543	5429.55
794.875	5388.64
795.207	5438.13
795.539	5361.53
795.871	5403.33
796.203	5301.19
796.535	5325.14
796.867	5327.18
797.198	5293.5
797.53	5305.93
797.862	5252.15
798.193	5258.25
798.525	5231.36
798.856	5237.01
799.188	5177.58
799.519	5174.19
799.85	5166.95
800.182	5147.52
800.513	5136.67
800.844	5102.1
801.175	5107.75
801.506	5112.72
801.837	5115.88
802.168	5070.69
802.499	5072.49
802.83	5004.25
803.161	5030.46
803.491	4976
803.822	5015.55
804.153	4980.74
804.483	4971.03
804.814	4948.2
805.145	4952.04
805.475	4949.33
805.805	4922.22
806.136	4896.23
806.466	4907.98
806.796	4891.26
807.126	4859.84
807.457	4865.49
807.787	4867.98
808.117	4852.39
808.447	4808.32
808.777	4821.43
809.107	4761.09
809.436	4755.89
809.766	4771.26
810.096	4786.63
810.426	4738.27
810.755	4749.79
811.085	4755.89
811.414	4759.51
811.744	4702.56
812.073	4637.48
812.403	4677.02
812.732	4674.54
813.061	4638.61
813.39	4629.57
813.719	4597.48
814.049	4669.34
814.378	4586.63
814.707	4629.79
815.036	4601.09
815.365	4610.58
815.693	4541.43
816.022	4580.53
816.351	4528.1
816.68	4533.52
817.008	4508.21
817.337	4475.45
817.665	4425.51
817.994	4545.5
818.322	4513.64
818.651	4464.83
818.979	4483.13
819.307	4515.9
819.636	4449.23
819.964	4397.48
820.292	4475.45
820.62	4420.53
820.948	4425.28
821.276	4451.72
821.604	4435.9
821.932	4405.39
822.259	4435.45
822.587	4422.34
822.915	4413.08
823.243	4425.28
823.57	4439.29
823.898	4408.1
824.225	4380.31
824.553	4390.93
824.88	4406.97
825.207	4374.21
825.535	4441.1
825.862	4398.39
826.189	4380.76
826.516	4431.83
826.843	4429.8
827.17	4384.15
827.497	4393.19
827.824	4413.08
828.151	4458.27
828.478	4420.76
828.805	4437.71
829.131	4381.21
829.458	4378.95
829.785	4359.97
830.111	4440.87
830.438	4371.5
830.764	4428.44
831.09	4432.74
831.417	4376.47
831.743	4389.35
832.069	4399.07
832.395	4399.97
832.722	4435
833.048	4360.42
833.374	4375.11
833.7	4352.51
834.026	4409.01
834.351	4381.89
834.677	4389.57
835.003	4342.34
835.329	4342.8
835.654	4361.78
835.98	4319.52
836.306	4327.2
836.631	4353.87
836.956	4316.13
837.282	4285.85
837.607	4305.96
837.932	4310.03
838.258	4302.12
838.583	4261.89
838.908	4287.43
839.233	4266.19
839.558	4234.78
839.883	4265.06
840.208	4203.82
840.533	4260.09
840.858	4237.71
841.182	4250.37
841.507	4216.25
841.832	4257.83
842.156	4196.58
842.481	4216.92
842.805	4219.18
843.13	4197.04
843.454	4169.92
843.778	4129.24
844.103	4178.05
844.427	4145.06
844.751	4152.52
845.075	4191.61
845.399	4143.93
845.723	4117.49
846.047	4105.97
846.371	4097.15
846.695	4091.05
847.019	4013.99
847.343	4043.14
847.666	4032.3
847.99	3975.57
848.313	3963.14
848.637	3966.76
848.96	3950.26
849.284	3944.16
849.607	3948.91
849.931	3937.16
850.254	3889.93
850.577	3883.15
850.9	3866.42
851.223	3839.76
851.546	3803.6
851.869	3810.15
852.192	3860.1
852.515	3810.15
852.838	3764.96
853.161	3806.09
853.483	3767.67
853.806	3764.96
854.129	3741
854.451	3703.04
854.774	3691.97
855.096	3688.8
855.419	3686.54
855.741	3697.84
856.063	3649.48
856.385	3706.88
856.708	3668.24
857.03	3670.72
857.352	3676.15
857.674	3632.98
857.996	3621.68
858.318	3617.39
858.64	3626.88
858.961	3612.19
859.283	3575.36
859.605	3557.51
859.926	3588.46
860.248	3626.66
860.57	3585.3
860.891	3546.43
861.212	3542.82
861.534	3543.72
861.855	3520.44
862.176	3554.34
862.498	3527.68
862.819	3498.52
863.14	3499.88
863.461	3511.18
863.782	3464.85
864.103	3546.88
864.424	3494
864.745	3478.64
865.065	3469.37
865.386	3432.99
865.707	3440.9
866.027	3455.14
866.348	3484.51
866.668	3447.23
866.989	3453.1
867.309	3403.39
867.63	3471.18
867.95	3410.39
868.27	3388.47
868.59	3425.31
868.91	3406.1
869.23	3376.72
869.55	3382.14
869.87	3416.49
870.19	3363.61
870.51	3352.31
870.83	3376.72
871.15	3332.65
871.469	3404.06
871.789	3368.13
872.109	3345.53
872.428	3341.24
872.748	3340.11
873.067	3364.52
873.386	3355.25
873.706	3348.47
874.025	3316.16
874.344	3314.35
874.663	3343.05
874.982	3332.88
875.301	3290.62
875.62	3300.79
875.939	3327.45
876.258	3353.44
876.577	3295.82
876.896	3301.92
877.214	3259.89
877.533	3266.67
877.852	3234.58
878.17	3250.17
878.489	3247.91
878.807	3230.51
879.125	3263.73
879.444	3229.15
879.762	3195.71
880.08	3255.82
880.398	3227.34
880.716	3249.26
881.034	3243.16
881.352	3237.51
881.67	3221.92
881.988	3196.16
882.306	3134.92
882.624	3167.01
882.941	3210.62
883.259	3186.22
883.577	3163.62
883.894	3155.71
884.212	3166.78
884.529	3149.83
884.846	3130.62
885.164	3132.66
885.481	3145.76
885.798	3121.13
886.115	3106.67
886.432	3128.14
886.75	3097.18
887.067	3077.07
887.383	3127.01
887.7	3094.24
888.017	3086.33
888.334	3062.6
888.651	3029.61
888.967	3059.21
889.284	3069.16
889.6	3056.28
889.917	3018.08
890.233	3075.26
890.55	2993.9
890.866	3008.82
891.182	3019.89
891.498	3019.21
891.815	2979.89
892.131	2977.18
892.447	2941.7
892.763	2972.89
893.079	2916.62
893.395	2993.23
893.71	2959.78
894.026	2917.07
894.342	2959.55
894.657	2947.35
894.973	2879.56
895.289	2908.48
895.604	2890.63
895.92	2929.95
896.235	2899.9
896.55	2914.13
896.865	2856.28
897.181	2873.23
897.496	2849.95
897.811	2837.98
898.126	2848.37
898.441	2821.03
898.756	2824.64
899.071	2777.86
899.386	2838.43
899.7	2780.58
900.015	2802.04
900.33	2771.31
900.644	2802.95
900.959	2758.66
901.273	2751.2
901.588	2715.04
901.902	2729.73
902.216	2723.85
902.531	2746.23
902.845	2716.85
903.159	2682.27
903.473	2683.63
903.787	2667.81
904.101	2669.62
904.415	2653.35
904.729	2686.57
905.042	2616.74
905.356	2645.21
905.67	2629.62
905.984	2638.89
906.297	2611.54
906.611	2630.52
906.924	2593.46
907.237	2600.69
907.551	2578.55
907.864	2571.99
908.177	2541.49
908.491	2561.37
908.804	2553.46
909.117	2532
909.43	2487.48
909.743	2458.78
910.056	2501.04
910.368	2470.98
910.681	2502.17
910.994	2466.23
911.307	2425.56
911.619	2463.75
911.932	2436.4
912.244	2459.46
912.557	2447.7
912.869	2427.82
913.181	2412.22
913.494	2427.37
913.806	2409.51
914.118	2377.2
914.43	2370.42
914.742	2386.91
915.054	2364.09
915.366	2360.02
915.678	2342.85
915.99	2317.99
916.302	2328.16
916.613	2329.52
916.925	2306.46
917.236	2292
917.548	2265.56
917.859	2293.58
918.171	2302.4
918.482	2254.71
918.794	2276.41
919.105	2276.41
919.416	2244.55
919.727	2243.87
920.038	2254.49
920.349	2238.9
920.66	2196.19
920.971	2227.37
921.282	2192.8
921.593	2199.57
921.903	2170.2
922.214	2163.42
922.525	2181.27
922.835	2197.32
923.146	2145.11
923.456	2146.92
923.767	2132.91
924.077	2139.92
924.387	2144.66
924.697	2134.27
925.008	2064.44
925.318	2120.03
925.628	2121.38
925.938	2083.19
926.248	2060.14
926.558	2067.15
926.867	2063.76
927.177	2077.77
927.487	2045.68
927.796	2049.07
928.106	2013.82
928.416	2043.87
928.725	2038.9
929.034	2018.34
929.344	2021.73
929.653	2000.26
929.962	1996.42
930.271	1961.39
930.581	1948.96
930.89	1971.11
931.199	1966.81
931.508	1936.98
931.817	1976.76
932.125	1913.25
932.434	1939.92
932.743	1895.18
933.051	1899.24
933.36	1898.11
933.669	1867.38
933.977	1870.09
934.286	1882.07
934.594	1890.66
934.902	1880.71
935.21	1889.07
935.519	1876.65
935.827	1885.01
936.135	1829.87
936.443	1831.9
936.751	1807.49
937.059	1829.64
937.367	1830.55
937.674	1820.38
937.982	1806.36
938.29	1827.83
938.597	1840.49
938.905	1769.98
939.213	1795.29
939.52	1738.34
939.827	1764.33
940.135	1755.52
940.442	1765.91
940.749	1763.2
941.056	1757.33
941.363	1722.53
941.67	1737.44
941.977	1723.88
942.284	1716.42
942.591	1699.02
942.898	1674.39
943.205	1696.54
943.511	1699.93
943.818	1695.86
944.125	1671.68
944.431	1647.5
944.738	1680.49
945.044	1677.1
945.35	1653.83
945.657	1634.84
945.963	1634.62
946.269	1639.14
946.575	1627.61
946.881	1669.87
947.187	1602.98
947.493	1626.26
947.799	1635.52
948.105	1619.7
948.41	1616.09
948.716	1589.42
949.022	1578.8
949.327	1569.54
949.633	1562.98
949.938	1574.05
950.244	1555.07
950.549	1550.78
950.854	1537.9
951.16	1560.5
951.465	1552.36
951.77	1554.62
952.075	1565.02
952.38	1529.76
952.685	1529.31
952.99	1509.65
953.294	1518.01
953.599	1492.7
953.904	1492.25
954.209	1517.56
954.513	1475.98
954.818	1490.44
955.122	1473.49
955.426	1470.1
955.731	1458.13
956.035	1457.9
956.339	1453.61
956.643	1448.63
956.948	1447.96
957.252	1426.71
957.556	1436.21
957.86	1429.43
958.163	1458.13
958.467	1430.33
958.771	1425.81
959.075	1396.88
959.378	1418.58
959.682	1396.21
959.985	1389.2
960.289	1381.07
960.592	1397.56
960.896	1384.23
961.199	1395.08
961.502	1389.2
961.805	1363.66
962.108	1369.77
962.411	1362.76
962.714	1338.35
963.017	1378.58
963.32	1345.36
963.623	1339.03
963.926	1346.04
964.228	1338.35
964.531	1322.31
964.833	1313.04
965.136	1349.88
965.438	1317.34
965.741	1330.22
966.043	1325.93
966.345	1311.24
966.648	1289.77
966.95	1264.01
967.252	1293.84
967.554	1303.33
967.856	1266.27
968.158	1280.5
968.46	1269.66
968.761	1280.28
969.063	1261.07
969.365	1242.31
969.666	1240.28
969.968	1275.98
970.269	1233.05
970.571	1241.41
970.872	1226.27
971.174	1220.62
971.475	1263.55
971.776	1177.45
972.077	1237.34
972.378	1225.14
972.679	1215.65
972.98	1172.94
973.281	1196.44
973.582	1188.08
973.883	1177.91
974.183	1183.56
974.484	1204.35
974.785	1173.39
975.085	1153.05
975.386	1160.96
975.686	1186.72
975.986	1160.73
976.287	1152.6
976.587	1136.1
976.887	1157.12
977.187	1165.25
977.487	1153.73
977.787	1155.31
978.087	1136.55
978.387	1138.81
978.687	1115.31
978.987	1127.06
979.286	1115.08
979.586	1118.7
979.885	1132.71
980.185	1118.02
980.484	1104.01
980.784	1103.78
981.083	1119.83
981.382	1109.43
981.682	1073.95
981.981	1080.96
982.28	1092.49
982.579	1061.53
982.878	1082.54
983.177	1084.58
983.475	1052.94
983.774	1060.17
984.073	1062.43
984.372	1055.65
984.67	1063.56
984.969	1044.8
985.267	1051.81
985.566	1028.08
985.864	1036.44
986.162	1015.65
986.461	1026.05
986.759	1026.5
987.057	993.5
987.355	998.25
987.653	1022.66
987.951	1013.62
988.249	1018.14
988.547	1005.48
988.844	990.79
989.142	1008.87
989.44	994.41
989.737	988.08
990.035	988.31
990.332	989.89
990.63	977.01
990.927	975.2
991.224	982.21
991.521	981.53
991.819	958.7
992.116	953.73
992.413	947.4
992.71	944.01
993.006	969.1
993.303	948.08
993.6	944.01
993.897	946.5
994.193	936.11
994.49	939.72
994.787	905.15
995.083	913.73
995.379	925.26
995.676	931.13
995.972	915.77
996.268	913.28
996.565	905.82
996.861	901.98
997.157	870.12
997.453	899.72
997.749	883
998.044	901.53
998.34	909.44
998.636	877.12
998.932	867.41
999.227	894.52
999.523	849.1
999.818	879.61
1000.114	886.16
1000.409	846.39
1000.704	855.2
1001	850.23
1001.295	851.14
1001.59	856.11
1001.885	843.23
1002.18	829.89
1002.475	836.22
1002.77	859.27
1003.065	848.65
1003.359	835.77
1003.654	836.22
1003.949	857.46
1004.243	831.02
1004.538	819.5
1004.832	809.55
1005.127	807.52
1005.421	800.97
1005.715	804.81
1006.009	812.49
1006.304	820.18
1006.598	817.24
1006.892	812.49
1007.186	806.62
1007.48	803.68
1007.773	796.9
1008.067	776.34
1008.361	810.91
1008.655	787.63
1008.948	784.47
1009.242	782.89
1009.535	770.69
1009.829	756.9
1010.122	752.38
1010.415	770.23
1010.708	756.22
1011.001	753.29
1011.295	751.03
1011.588	741.99
1011.881	739.73
1012.173	735.43
1012.466	723
1012.759	715.55
1013.052	718.71
1013.344	727.98
1013.637	732.04
1013.93	717.13
1014.222	738.14
1014.514	724.36
1014.807	700.41
1015.099	703.34
1015.391	714.87
1015.683	707.18
1015.976	694.76
1016.268	689.11
1016.56	686.17
1016.851	680.52
1017.143	706.96
1017.435	689.56
1017.727	676.23
1018.018	680.29
1018.31	702.67
1018.602	689.33
1018.893	691.37
1019.185	683.46
1019.476	660.18
1019.767	665.15
1020.058	657.69
1020.35	646.85
1020.641	654.53
1020.932	664.7
1021.223	655.66
1021.514	653.4
1021.804	658.82
1022.095	635.32
1022.386	648.43
1022.677	643.01
1022.967	636.9
1023.258	649.11
1023.548	627.86
1023.839	620.63
1024.129	619.73
1024.419	608.2
1024.709	624.02
1025	616.79
1025.29	615.21
1025.58	605.72
1025.87	607.07
1026.16	618.15
1026.449	599.62
1026.739	585.83
1027.029	605.27
1027.319	588.09
1027.608	592.61
1027.898	597.13
1028.187	585.61
1028.477	589.22
1028.766	584.7
1029.055	567.53
1029.344	588.09
1029.634	573.18
1029.923	567.3
1030.212	565.72
1030.501	557.58
1030.79	582.22
1031.078	593.52
1031.367	554.19
1031.656	569.56
1031.945	546.96
1032.233	541.99
1032.522	568.21
1032.81	552.84
1033.099	567.98
1033.387	555.55
1033.675	550.58
1033.963	567.53
1034.251	554.42
1034.54	527.98
1034.828	551.03
1035.116	566.4
1035.403	528.21
1035.691	551.48
1035.979	532.05
1036.267	515.33
1036.554	541.09
1036.842	527.53
1037.129	538.15
1037.417	511.71
1037.704	517.13
1037.992	515.55
1038.279	504.7
1038.566	523.23
1038.853	523.23
1039.14	523.23
