Data from mousepad_grey_FLMS001491_00020.txt Node
Date: Wed Feb 08 14:29:04 GMT 2017
User: dcchb
Spectrometer: FLMS00149
Trigger mode: 0
Integration Time (sec): 2.000000E-2
Scans to average: 10
Electric dark correction enabled: true
Nonlinearity correction enabled: false
Boxcar width: 0
XAxis mode: Wavelengths
Number of Pixels in Spectrum: 2048
>>>>>Begin Spectral Data<<<<<
341.393	-20.47
341.776	-20.47
342.16	-20.47
342.543	-58.66
342.927	-48.49
343.31	-79
343.693	-83.06
344.077	-77.41
344.46	-60.01
344.843	-59.79
345.226	-35.83
345.61	-35.15
345.993	-22.05
346.376	7.56
346.759	-10.97
347.142	50.94
347.525	46.2
347.908	50.04
348.291	74.9
348.674	102.47
349.057	131.17
349.44	146.99
349.823	121.45
350.206	165.29
350.588	173.88
350.971	207.55
351.354	209.13
351.737	237.38
352.119	229.47
352.502	247.55
352.884	261.11
353.267	240.54
353.65	278.74
354.032	266.53
354.414	302.01
354.797	312.18
355.179	315.57
355.562	284.84
355.944	310.15
356.326	309.92
356.709	337.04
357.091	323.71
357.473	306.53
357.855	305.63
358.238	314.44
358.62	336.36
359.002	344.5
359.384	321.45
359.766	306.31
360.148	310.15
360.53	326.87
360.912	313.54
361.294	310.15
361.676	327.32
362.057	315.8
362.439	324.38
362.821	293.65
363.203	305.85
363.584	265.85
363.966	312.63
364.348	320.99
364.729	317.83
365.111	305.63
365.493	304.05
365.874	300.66
366.256	283.48
366.637	307.44
367.019	302.24
367.4	283.26
367.781	304.72
368.163	310.6
368.544	284.61
368.925	272.41
369.306	313.08
369.688	309.47
370.069	284.16
370.45	298.17
370.831	300.66
371.212	306.08
371.593	292.29
371.974	292.07
372.355	319.86
372.736	296.14
373.117	289.58
373.498	300.66
373.879	314.67
374.26	309.92
374.641	299.07
375.021	321.45
375.402	297.04
375.783	305.63
376.163	306.31
376.544	304.72
376.925	322.12
377.305	317.38
377.686	334.1
378.066	298.17
378.447	307.21
378.827	326.64
379.208	310.15
379.588	311.5
379.968	310.37
380.349	302.69
380.729	301.56
381.109	325.51
381.489	330.03
381.87	318.28
382.25	311.28
382.63	336.59
383.01	333.65
383.39	317.6
383.77	313.31
384.15	315.12
384.53	356.7
384.91	344.27
385.29	334.55
385.67	331.84
386.049	328
386.429	337.49
386.809	319.64
387.189	323.25
387.568	333.2
387.948	348.56
388.328	346.08
388.707	345.85
389.087	329.36
389.466	368
389.846	352.18
390.225	364.61
390.605	353.08
390.984	349.92
391.363	334.33
391.743	345.63
392.122	374.33
392.501	361.9
392.881	352.63
393.26	356.25
393.639	349.24
394.018	359.64
394.397	365.06
394.776	376.13
395.155	365.96
395.534	391.05
395.913	358.06
396.292	356.93
396.671	366.19
397.05	365.96
397.429	383.37
397.808	378.85
398.186	391.28
398.565	365.96
398.944	373.65
399.323	378.17
399.701	378.17
400.08	382.01
400.458	384.95
400.837	392.63
401.215	398.28
401.594	399.41
401.972	396.25
402.351	393.76
402.729	410.94
403.107	392.86
403.486	414.78
403.864	400.09
404.242	405.74
404.62	422.91
404.999	394.44
405.377	407.77
405.755	419.52
406.133	422.46
406.511	412.52
406.889	417.72
407.267	451.61
407.645	426.53
408.023	434.21
408.401	434.44
408.779	427.88
409.156	454.1
409.534	445.96
409.912	446.87
410.29	453.19
410.667	450.48
411.045	445.74
411.422	461.56
411.8	464.72
412.178	469.01
412.555	461.56
412.933	476.24
413.31	480.09
413.687	458.84
414.065	478.28
414.442	480.76
414.819	484.61
415.197	488.45
415.574	468.79
415.951	483.48
416.328	484.15
416.705	516.02
417.082	517.83
417.46	514.21
417.837	518.05
418.214	505.62
418.591	516.47
418.967	505.62
419.344	519.86
419.721	517.15
420.098	519.41
420.475	509.46
420.852	523.7
421.228	541.1
421.605	560.99
421.982	529.58
422.358	542.01
422.735	570.93
423.111	562.57
423.488	568.67
423.864	557.37
424.241	584.04
424.617	571.38
424.994	550.59
425.37	584.26
425.746	594.89
426.123	589.01
426.499	561.21
426.875	567.99
427.251	596.24
427.627	626.07
428.003	597.15
428.379	595.34
428.756	626.3
429.132	614.77
429.507	639.4
429.883	636.24
430.259	626.3
430.635	641.66
431.011	649.35
431.387	668.78
431.763	661.55
432.138	658.84
432.514	664.49
432.89	674.66
433.265	669.69
433.641	674.88
434.016	706.75
434.392	707.65
434.767	692.74
435.143	698.84
435.518	711.72
435.894	712.4
436.269	716.01
436.644	714.88
437.02	746.29
437.395	734.32
437.77	731.38
438.145	752.4
438.52	740.87
438.895	766.86
439.271	761.43
439.646	782.68
440.021	782.23
440.395	786.74
440.77	777.03
441.145	793.07
441.52	788.1
441.895	797.59
442.27	805.28
442.645	766.41
443.019	807.76
443.394	811.83
443.769	850.02
444.143	838.95
444.518	840.08
444.892	826.52
445.267	859.51
445.641	857.93
446.016	863.8
446.39	867.42
446.764	887.31
447.139	866.97
447.513	889.34
447.887	877.82
448.262	873.97
448.636	879.4
449.01	911.26
449.384	912.39
449.758	877.14
450.132	928.89
450.506	896.12
450.88	909.23
451.254	914.43
451.628	954.2
452.002	929.11
452.376	953.52
452.75	953.29
453.123	951.71
453.497	955.1
453.871	987.19
454.244	1001.2
454.618	1019.73
454.992	1020.86
455.365	1011.82
455.739	1028.32
456.112	1036.23
456.486	1078.94
456.859	1050.24
457.232	1052.95
457.606	1092.73
457.979	1076.45
458.352	1092.27
458.725	1100.86
459.099	1128.88
459.472	1096.79
459.845	1132.72
460.218	1145.61
460.591	1131.37
460.964	1154.64
461.337	1208.88
461.71	1234.42
462.083	1214.3
462.456	1205.49
462.829	1223.8
463.201	1247.52
463.574	1232.61
463.947	1243.68
464.32	1274.42
464.692	1262.89
465.065	1299.95
465.438	1292.95
465.81	1303.12
466.183	1324.58
466.555	1344.02
466.928	1384.24
467.3	1384.7
467.672	1380.18
468.045	1411.59
468.417	1421.76
468.789	1429.21
469.161	1461.3
469.534	1464.69
469.906	1502.21
470.278	1509.89
470.65	1495.65
471.022	1509.66
471.394	1563.9
471.766	1583.11
472.138	1607.51
472.51	1610.45
472.882	1625.59
473.253	1638.47
473.625	1686.16
473.997	1732.71
474.369	1717.12
474.74	1698.36
475.112	1761.41
475.484	1801.41
475.855	1824.46
476.227	1816.55
476.598	1836.66
476.97	1892.48
477.341	1905.81
477.713	1935.19
478.084	1948.97
478.455	1967.05
478.827	2007.73
479.198	2034.85
479.569	2061.97
479.94	2137.9
480.311	2092.7
480.682	2172.92
481.053	2162.98
481.424	2247.27
481.795	2226.93
482.166	2309.42
482.537	2275.97
482.908	2380.83
483.279	2349.42
483.65	2409.08
484.021	2439.58
484.391	2495.17
484.762	2506.02
485.133	2503.99
485.503	2544.66
485.874	2591.44
486.244	2615.85
486.615	2635.96
486.985	2716.41
487.356	2710.76
487.726	2752.79
488.097	2812.45
488.467	2827.37
488.837	2884.99
489.207	2858.78
489.578	2941.26
489.948	2964.99
490.318	2973.81
490.688	2995.27
491.058	3050.87
491.428	3084.31
491.798	3111.43
492.168	3150.98
492.538	3184.65
492.908	3229.84
493.278	3238.43
493.648	3212.67
494.017	3278.88
494.387	3304.42
494.757	3291.54
495.126	3364.53
495.496	3388.71
495.866	3427.81
496.235	3435.04
496.605	3468.26
496.974	3503.28
497.344	3537.18
497.713	3553.68
498.082	3523.4
498.452	3596.39
498.821	3612.66
499.19	3644.52
499.559	3695.37
499.928	3701.47
500.298	3709.83
500.667	3754.35
501.036	3751.64
501.405	3797.97
501.774	3772.88
502.143	3816.04
502.512	3821.69
502.88	3836.83
503.249	3909.15
503.618	3922.71
503.987	3926.78
504.356	3979.88
504.724	3981.24
505.093	4049.03
505.462	4023.27
505.83	4087
506.199	4083.61
506.567	4117.28
506.936	4162.25
507.304	4150.72
507.672	4192.76
508.041	4197.95
508.409	4224.17
508.777	4304.62
509.145	4325.63
509.514	4280.44
509.882	4329.25
510.25	4363.83
510.618	4393.66
510.986	4385.52
511.354	4437.72
511.722	4508
512.09	4543.93
512.458	4507.55
512.826	4592.97
513.193	4582.58
513.561	4557.04
513.929	4645.17
514.297	4661.67
514.664	4707.55
515.032	4729.47
515.4	4762.91
515.767	4778.5
516.135	4767.66
516.502	4798.62
516.869	4886.3
517.237	4898.05
517.604	4869.58
517.972	4927.43
518.339	4933.75
518.706	5025.5
519.073	4991.15
519.44	5044.49
519.808	5120.64
520.175	5072.51
520.542	5161.55
520.909	5197.93
521.276	5211.71
521.643	5243.35
522.009	5254.65
522.376	5312.28
522.743	5372.39
523.11	5419.62
523.477	5459.16
523.843	5488.99
524.21	5509.56
524.577	5590.23
524.943	5543
525.31	5586.39
525.676	5664.81
526.043	5659.84
526.409	5700.06
526.776	5824.8
527.142	5824.8
527.508	5831.13
527.874	5885.59
528.241	5914.75
528.607	5882.66
528.973	5985.7
529.339	5989.32
529.705	6002.88
530.071	6065.93
530.437	6117.9
530.803	6150.45
531.169	6180.5
531.535	6211.69
531.901	6224.79
532.267	6229.77
532.632	6297.56
532.998	6258.47
533.364	6384.79
533.73	6374.39
534.095	6429.76
534.461	6461.4
534.826	6450.78
535.192	6532.13
535.557	6573.71
535.923	6573.49
536.288	6604.9
536.653	6595.86
537.019	6601.96
537.384	6663.2
537.749	6717.89
538.114	6715.4
538.479	6769.64
538.845	6824.33
539.21	6765.57
539.575	6764.67
539.94	6853.25
540.305	6865.23
540.67	6849.41
541.034	6963.53
541.399	6937.09
541.764	7025.22
542.129	6998.56
542.494	7040.37
542.858	7038.33
543.223	7060.25
543.587	7136.18
543.952	7119.46
544.316	7151.78
544.681	7221.83
545.045	7225.9
545.41	7264.77
545.774	7218.67
546.138	7284.65
546.503	7306.12
546.867	7327.82
547.231	7401.26
547.595	7413.01
547.959	7464.99
548.324	7476.06
548.688	7499.56
549.052	7479
549.416	7567.13
549.779	7585.66
550.143	7717.41
550.507	7684.42
550.871	7676.06
551.235	7714.7
551.599	7744.75
551.962	7741.82
552.326	7777.97
552.689	7847.12
553.053	7834.92
553.417	7847.8
553.78	8002.83
554.143	7989.72
554.507	7968.25
554.87	8032.43
555.234	8106.78
555.597	8085.31
555.96	8113.78
556.323	8132.77
556.686	8160.34
557.05	8156.49
557.413	8199.66
557.776	8243.95
558.139	8324.85
558.502	8271.97
558.865	8329.15
559.228	8435.81
559.59	8426.54
559.953	8474.9
560.316	8530.72
560.679	8485.3
561.041	8583.15
561.404	8573.43
561.767	8667.44
562.129	8693.66
562.492	8749.25
562.854	8725.75
563.217	8754.44
563.579	8800.09
563.941	8846.65
564.304	8891.16
564.666	8936.59
565.028	8957.15
565.39	8978.62
565.753	9074.89
566.115	9031.27
566.477	9047.32
566.839	9146.98
567.201	9152.85
567.563	9228.56
567.925	9217.94
568.287	9245.73
568.648	9290.02
569.01	9313.75
569.372	9410.47
569.734	9382.23
570.095	9446.63
570.457	9514.65
570.819	9556.68
571.18	9536.57
571.542	9596.68
571.903	9613.86
572.265	9636
572.626	9716.68
572.987	9750.35
573.349	9749
573.71	9781.76
574.071	9754.19
574.432	9812.5
574.794	9829.9
575.155	9877.13
575.516	9857.69
575.877	9847.75
576.238	9896.34
576.599	9915.54
576.96	9958.93
577.32	9940.63
577.681	10085.48
578.042	10060.17
578.403	10008.88
578.763	10057.91
579.124	10063.34
579.485	10094.75
579.845	10150.34
580.206	10125.26
580.566	10125.03
580.927	10061.08
581.287	10196.67
581.648	10113.05
582.008	10172.49
582.368	10239.38
582.728	10216.78
583.089	10160.06
583.449	10172.26
583.809	10223.56
584.169	10270.11
584.529	10248.19
584.889	10358.02
585.249	10288.42
585.609	10188.98
585.969	10293.39
586.329	10281.64
586.688	10334.52
587.048	10315.53
587.408	10334.06
587.768	10304.46
588.127	10344.01
588.487	10325.03
588.846	10345.14
589.206	10260.85
589.565	10288.64
589.925	10344.23
590.284	10290.9
590.643	10361.41
591.003	10349.66
591.362	10388.98
591.721	10295.2
592.08	10330.22
592.44	10343.56
592.799	10421.97
593.158	10312.14
593.517	10383.78
593.876	10370.67
594.235	10424.46
594.593	10398.7
594.952	10421.29
595.311	10376.1
595.67	10421.52
596.029	10450.67
596.387	10419.03
596.746	10467.85
597.104	10386.94
597.463	10410.67
597.822	10455.19
598.18	10420.62
598.538	10361.18
598.897	10484.12
599.255	10387.4
599.613	10566.15
599.972	10537.9
600.33	10485.7
600.688	10472.59
601.046	10524.79
601.404	10595.75
601.762	10545.81
602.12	10570.22
602.478	10594.4
602.836	10555.53
603.194	10522.99
603.552	10508.3
603.91	10495.87
604.268	10571.8
604.625	10586.94
604.983	10598.92
605.341	10532.7
605.698	10661.74
606.056	10659.25
606.413	10572.93
606.771	10697.44
607.128	10641.63
607.485	10600.95
607.843	10647.73
608.2	10685.92
608.557	10741.29
608.914	10710.55
609.272	10709.42
609.629	10752.13
609.986	10764.11
610.343	10735.41
610.7	10802.98
611.057	10760.95
611.414	10735.64
611.771	10803.66
612.127	10800.49
612.484	10766.14
612.841	10851.11
613.198	10798.91
613.554	10918.23
613.911	10870.32
614.267	10894.95
614.624	10818.12
614.98	10840.27
615.337	10916.65
615.693	10911.68
616.05	10885.01
616.406	10934.05
616.762	10942.86
617.118	10909.42
617.475	10924.78
617.831	10951.22
618.187	11020.83
618.543	10967.49
618.899	11087.94
619.255	11006.82
619.611	10923.2
619.967	11104.89
620.323	11065.57
620.678	11035.97
621.034	11010.88
621.39	10947.16
621.746	11025.8
622.101	11061.5
622.457	11047.49
622.812	11023.54
623.168	11068.51
623.523	11095.17
623.879	11100.15
624.234	11000.49
624.589	11126.81
624.945	11049.07
625.3	11071.45
625.655	11135.17
626.01	11131.56
626.365	11134.72
626.72	11135.17
627.075	11004.33
627.43	11087.04
627.785	11116.64
628.14	11105.57
628.495	11103.99
628.85	11100.6
629.205	11038.68
629.559	11094.95
629.914	11063.08
630.269	11037.32
630.623	11067.15
630.978	11021.73
631.332	11137.89
631.687	11116.19
632.041	11049.75
632.396	11035.06
632.75	11049.53
633.104	11033.26
633.459	11048.85
633.813	11041.62
634.167	11048.62
634.521	11022.86
634.875	11029.41
635.229	11030.32
635.583	10967.72
635.937	10958.23
636.291	10911.45
636.645	10942.18
636.999	11002.97
637.352	10922.98
637.706	10881.39
638.06	10900.38
638.413	10918.68
638.767	10851.34
639.121	10865.8
639.474	10901.51
639.828	10912.13
640.181	10907.83
640.534	10844.11
640.888	10797.1
641.241	10785.8
641.594	10775.41
641.947	10848.85
642.301	10751
642.654	10823.54
643.007	10795.3
643.36	10806.37
643.713	10803.88
644.066	10875.97
644.419	10713.94
644.771	10654.06
645.124	10649.76
645.477	10524.12
645.83	10608.41
646.182	10477.11
646.535	10459.03
646.888	10474.4
647.24	10383.78
647.593	10501.07
647.945	10457.9
648.298	10397.79
648.65	10387.17
649.002	10386.94
649.355	10408.19
649.707	10426.04
650.059	10552.36
650.411	10596.88
650.763	10644.34
651.115	10677.78
651.467	10614.96
651.819	10680.95
652.171	10745.58
652.523	10700.83
652.875	10683.21
653.227	10532.03
653.578	10711
653.93	10724.11
654.282	10626.03
654.633	10522.31
654.985	10618.58
655.337	10632.36
655.688	10638.92
656.039	10653.15
656.391	10598.46
656.742	10556.43
657.094	10615.64
657.445	10634.17
657.796	10627.39
658.147	10614.51
658.498	10619.25
658.849	10579.71
659.2	10625.58
659.551	10616.99
659.902	10638.24
660.253	10595.75
660.604	10639.14
660.955	10583.78
661.306	10662.42
661.656	10577
662.007	10671.23
662.358	10613.15
662.708	10605.92
663.059	10656.32
663.409	10588.07
663.76	10685.92
664.11	10597.56
664.461	10620.38
664.811	10684.34
665.161	10621.97
665.511	10557.79
665.862	10687.28
666.212	10682.53
666.562	10606.37
666.912	10610.44
667.262	10702.87
667.612	10614.51
667.962	10560.95
668.312	10585.36
668.662	10569.76
669.011	10603.66
669.361	10652.02
669.711	10595.07
670.06	10633.72
670.41	10573.15
670.76	10568.63
671.109	10620.38
671.459	10577.67
671.808	10529.77
672.157	10534.06
672.507	10523.21
672.856	10534.74
673.205	10451.35
673.554	10603.21
673.904	10588.52
674.253	10549.88
674.602	10534.29
674.951	10410.9
675.3	10368.87
675.649	10467.17
675.998	10504
676.346	10406.83
676.695	10466.26
677.044	10490.67
677.393	10453.84
677.741	10483.89
678.09	10471.69
678.438	10487.05
678.787	10401.63
679.135	10456.1
679.484	10308.75
679.832	10417.23
680.181	10257.91
680.529	10345.82
680.877	10378.81
681.225	10334.52
681.573	10364.35
681.922	10255.87
682.27	10286.38
682.618	10287.51
682.966	10278.25
683.314	10270.11
683.661	10190.34
684.009	10151.92
684.357	10198.93
684.705	10191.02
685.053	10200.28
685.4	10127.97
685.748	10034.41
686.095	10077.57
686.443	10009.55
686.79	9992.15
687.138	10027.41
687.485	10015.65
687.832	10060.4
688.18	10014.07
688.527	9956.22
688.874	9874.19
689.221	9837.81
689.568	9914.19
689.915	9860.63
690.262	9817.02
690.609	9743.12
690.956	9801.65
691.303	9699.5
691.65	9766.17
691.997	9778.37
692.344	9683.46
692.69	9758.71
693.037	9692.73
693.383	9558.72
693.73	9605.27
694.077	9547.64
694.423	9550.13
694.769	9561.66
695.116	9512.17
695.462	9520.07
695.808	9388.78
696.155	9439.85
696.501	9373.19
696.847	9422.9
697.193	9370.93
697.539	9319.4
697.885	9266.07
698.231	9207.09
698.577	9260.42
698.923	9192.85
699.269	9187.43
699.614	9188.11
699.96	9067.43
700.306	9145.17
700.651	9066.53
700.997	9042.8
701.342	9079.18
701.688	9085.74
702.033	8956.93
702.379	8967.55
702.724	8950.37
703.069	8905.18
703.415	8822.01
703.76	8850.71
704.105	8848.91
704.45	8861.79
704.795	8782.24
705.14	8750.38
705.485	8688.01
705.83	8748.8
706.175	8666.09
706.52	8647.78
706.865	8649.36
707.209	8587.67
707.554	8603.26
707.899	8677.84
708.243	8585.86
708.588	8557.16
708.932	8499.54
709.277	8483.49
709.621	8488.24
709.966	8396.94
710.31	8440.1
710.654	8415.24
710.998	8401.91
711.342	8349.26
711.687	8428.8
712.031	8373.89
712.375	8309.48
712.719	8278.07
713.063	8352.87
713.407	8371.18
713.75	8199.66
714.094	8259.54
714.438	8198.53
714.782	8263.38
715.125	8227.68
715.469	8252.31
715.812	8198.08
716.156	8192.2
716.499	8247.11
716.843	8153.56
717.186	8107.91
717.53	8141.58
717.873	8169.6
718.216	8124.63
718.559	8144.74
718.902	8023.16
719.246	8049.83
719.589	8053.45
719.932	8044.41
720.275	8056.84
720.617	8072.2
720.96	8055.03
721.303	8070.85
721.646	8017.97
721.989	7979.32
722.331	8039.44
722.674	7977.74
723.016	7976.61
723.359	8064.52
723.701	8034.69
724.044	7972.32
724.386	7924.86
724.729	7914.47
725.071	7938.87
725.413	7956.5
725.755	7958.08
726.097	7889.83
726.439	7850.06
726.782	7900.91
727.124	7984.3
727.465	7855.03
727.807	7905.88
728.149	7849.84
728.491	7878.31
728.833	7894.35
729.175	7837.41
729.516	7810.97
729.858	7862.49
730.199	7833.79
730.541	7824.75
730.882	7841.7
731.224	7882.6
731.565	7845.77
731.906	7827.92
732.248	7834.24
732.589	7802.15
732.93	7790.85
733.271	7785.2
733.612	7795.15
733.953	7817.29
734.294	7838.99
734.635	7756.96
734.976	7852.77
735.317	7812.1
735.658	7734.13
735.999	7806.45
736.339	7762.15
736.68	7804.64
737.021	7778.2
737.361	7726.9
737.702	7795.83
738.042	7736.84
738.383	7761.48
738.723	7772.78
739.063	7831.76
739.404	7765.32
739.744	7764.64
740.084	7718.77
740.424	7718.54
740.764	7773.45
741.104	7813.23
741.444	7709.73
741.784	7658.43
742.124	7728.71
742.464	7697.98
742.804	7795.15
743.143	7773
743.483	7750.4
743.823	7720.12
744.162	7653
744.502	7740.01
744.841	7664.3
745.181	7680.8
745.52	7674.02
745.86	7669.95
746.199	7731.2
746.538	7671.08
746.877	7724.19
747.216	7711.31
747.556	7673.8
747.895	7681.25
748.234	7680.35
748.573	7631.76
748.911	7636.06
749.25	7675.38
749.589	7619.56
749.928	7618.2
750.267	7661.82
750.605	7626.79
750.944	7579.33
751.283	7600.13
751.621	7624.31
751.96	7563.97
752.298	7563.29
752.636	7595.83
752.975	7549.05
753.313	7549.73
753.651	7560.58
753.989	7546.57
754.327	7493.01
754.666	7494.37
755.004	7578.43
755.342	7466.8
755.679	7455.27
756.017	7422.05
756.355	7439.68
756.693	7402.62
757.031	7459.56
757.368	7451.65
757.706	7394.03
758.044	7413.46
758.381	7408.94
758.719	7373.01
759.056	7342.73
759.394	7301.83
759.731	7325.1
760.068	7307.7
760.405	7256.63
760.743	7237.2
761.08	7316.74
761.417	7236.07
761.754	7212.11
762.091	7249.63
762.428	7170.53
762.765	7094.38
763.102	7120.82
763.438	7146.8
763.775	7141.83
764.112	7085.11
764.449	7107.03
764.785	7085.11
765.122	7032.91
765.458	6991.78
765.795	7002.85
766.131	7010.54
766.467	6926.02
766.804	6922.63
767.14	6872.01
767.476	6867.71
767.812	6961.95
768.148	6883.53
768.485	6867.04
768.821	6851.44
769.157	6812.58
769.492	6769.19
769.828	6798.79
770.164	6728.96
770.5	6702.52
770.836	6736.19
771.171	6631.56
771.507	6693.48
771.842	6653.71
772.178	6585.69
772.513	6589.3
772.849	6648.74
773.184	6572.36
773.519	6554.95
773.855	6517.89
774.19	6451.91
774.525	6414.85
774.86	6473.37
775.195	6466.14
775.53	6458.69
775.865	6355.19
776.2	6351.57
776.535	6290.78
776.87	6365.13
777.205	6276.54
777.539	6259.14
777.874	6305.47
778.209	6263.44
778.543	6208.3
778.878	6119.49
779.212	6148.64
779.547	6107.96
779.881	6146.83
780.215	6120.84
780.55	6150.9
780.884	6077
781.218	6128.75
781.552	6051.92
781.886	6042.65
782.22	6014.4
782.554	5972.82
782.888	5918.36
783.222	5863
783.556	5870.68
783.889	5937.57
784.223	5843.79
784.557	5825.71
784.89	5826.16
785.224	5802.21
785.557	5777.35
785.891	5778.03
786.224	5765.82
786.558	5767.4
786.891	5698.71
787.224	5643.34
787.557	5667.75
787.891	5598.37
788.224	5626.17
788.557	5631.14
788.89	5630.01
789.223	5594.3
789.556	5554.08
789.888	5583.91
790.221	5555.43
790.554	5478.6
790.887	5574.42
791.219	5469.33
791.552	5452.61
791.884	5410.13
792.217	5440.41
792.549	5423.01
792.882	5354.31
793.214	5353.63
793.546	5365.38
793.879	5360.64
794.211	5311.15
794.543	5299.17
794.875	5286.29
795.207	5298.26
795.539	5288.32
795.871	5294.2
796.203	5217.36
796.535	5223.92
796.867	5216.23
797.198	5199.74
797.53	5208.32
797.862	5159.06
798.193	5151.83
798.525	5131.72
798.856	5159.29
799.188	5110.47
799.519	5068.67
799.85	5071.15
800.182	5034.99
800.513	5066.41
800.844	5026.41
801.175	5045.16
801.506	5011.72
801.837	5019.18
802.168	4982.57
802.499	5012.4
802.83	4949.35
803.161	4962.23
803.491	4931.72
803.822	4957.26
804.153	4907.54
804.483	4802.46
804.814	4836.58
805.145	4820.76
805.475	4825.96
805.805	4821.67
806.136	4826.64
806.466	4813.08
806.796	4744.83
807.126	4772.18
807.457	4776.7
807.787	4751.84
808.117	4706.19
808.447	4734.89
808.777	4743.25
809.107	4710.71
809.436	4697.83
809.766	4680.2
810.096	4674.33
810.426	4704.83
810.755	4644.5
811.085	4628.68
811.414	4613.99
811.744	4624.84
812.073	4593.65
812.403	4589.58
812.732	4589.13
813.061	4595.46
813.39	4549.81
813.719	4559.53
814.049	4571.96
814.378	4557.27
814.707	4506.65
815.036	4488.57
815.365	4501
815.693	4470.49
816.022	4491.51
816.351	4472.98
816.68	4424.16
817.008	4441.11
817.337	4386.42
817.665	4394.56
817.994	4402.92
818.322	4385.29
818.651	4394.33
818.979	4352.98
819.307	4400.89
819.636	4342.81
819.964	4360.44
820.292	4344.62
820.62	4328.35
820.948	4331.28
821.276	4345.07
821.604	4350.27
821.932	4342.81
822.259	4370.15
822.587	4321.34
822.915	4306.65
823.243	4316.82
823.57	4313.88
823.898	4312.3
824.225	4323.15
824.553	4304.17
824.88	4320.44
825.207	4346.65
825.535	4297.84
825.862	4357.95
826.189	4362.02
826.516	4341.23
826.843	4307.56
827.17	4315.01
827.497	4344.84
827.824	4354.11
828.151	4357.95
828.478	4350.94
828.805	4342.58
829.131	4316.82
829.458	4333.09
829.785	4267.78
830.111	4298.97
830.438	4309.36
830.764	4357.05
831.09	4359.31
831.417	4279.99
831.743	4306.43
832.069	4303.94
832.395	4283.6
832.722	4353.66
833.048	4290.83
833.374	4280.44
833.7	4324.73
834.026	4294.68
834.351	4274.11
834.677	4274.11
835.003	4288.12
835.329	4264.62
835.654	4268.01
835.98	4258.52
836.306	4273.66
836.631	4275.24
836.956	4273.88
837.282	4230.5
837.607	4253.09
837.932	4211.51
838.258	4254
838.583	4208.12
838.908	4184.17
839.233	4197.95
839.558	4217.62
839.883	4172.19
840.208	4223.04
840.533	4165.64
840.858	4136.26
841.182	4121.57
841.507	4142.14
841.832	4125.41
842.156	4111.18
842.481	4114.57
842.805	4160.44
843.13	4120.67
843.454	4082.03
843.778	4089.71
844.103	4087
844.427	4076.83
844.751	4050.84
845.075	4063.49
845.399	4047.68
845.723	4058.75
846.047	4052.87
846.371	4023.72
846.695	4010.61
847.019	3925.87
847.343	3943.05
847.666	3899.88
847.99	3976.04
848.313	3937.62
848.637	3958.19
848.96	3876.83
849.284	3904.4
849.607	3822.6
849.931	3835.48
850.254	3863.27
850.577	3793.67
850.9	3800.68
851.223	3778.98
851.546	3789.38
851.869	3776.5
852.192	3724.52
852.515	3722.03
852.838	3758.64
853.161	3727.46
853.483	3688.36
853.806	3680
854.129	3704.18
854.451	3684.07
854.774	3656.27
855.096	3677.06
855.419	3654.92
855.741	3649.49
856.063	3644.3
856.385	3618.99
856.708	3579.44
857.03	3612.66
857.352	3592.09
857.674	3585.77
857.996	3568.14
858.318	3560.23
858.64	3524.07
858.961	3518.65
859.283	3535.83
859.605	3501.7
859.926	3503.74
860.248	3488.82
860.57	3458.99
860.891	3494.47
861.212	3440.46
861.534	3451.76
861.855	3458.99
862.176	3470.97
862.498	3393
862.819	3410.86
863.14	3473.91
863.461	3460.8
863.782	3421.7
864.103	3448.82
864.424	3435.94
864.745	3421.25
865.065	3398.88
865.386	3388.48
865.707	3379.45
866.027	3422.38
866.348	3384.64
866.668	3386.22
866.989	3374.7
867.309	3390.97
867.63	3390.74
867.95	3345.55
868.27	3393.23
868.59	3334.93
868.91	3358.65
869.23	3309.84
869.55	3343.97
869.87	3353.68
870.19	3326.57
870.51	3342.16
870.83	3304.64
871.15	3298.09
871.469	3317.3
871.789	3310.97
872.109	3337.41
872.428	3280.24
872.748	3282.27
873.067	3268.04
873.386	3297.64
873.706	3288.37
874.025	3275.94
874.344	3283.4
874.663	3282.05
874.982	3270.52
875.301	3258.54
875.62	3256.06
875.939	3213.8
876.258	3225.78
876.577	3212.44
876.896	3256.28
877.214	3226.45
877.533	3184.42
877.852	3221.26
878.17	3217.42
878.489	3222.39
878.807	3209.28
879.125	3188.94
879.444	3164.54
879.762	3195.04
880.08	3168.38
880.398	3178.77
880.716	3152.56
881.034	3131.77
881.352	3153.01
881.67	3149.62
881.988	3138.77
882.306	3175.83
882.624	3117.76
882.941	3127.25
883.259	3091.99
883.577	3102.39
883.894	3090.41
884.212	3083.86
884.529	3096.74
884.846	3096.51
885.164	3081.83
885.481	3082.28
885.798	3082.5
886.115	3063.3
886.432	3048.38
886.75	3049.96
887.067	3047.25
887.383	3052.22
887.7	3036.63
888.017	3032.56
888.334	2995.5
888.651	3050.41
888.967	3017.87
889.284	3011.55
889.6	3004.31
889.917	2962.73
890.233	2961.83
890.55	2996.4
890.866	2984.43
891.182	2902.85
891.498	2942.85
891.815	2951.43
892.131	2936.52
892.447	2946.69
892.763	2933.58
893.079	2905.11
893.395	2903.3
893.71	2865.79
894.026	2900.81
894.342	2874.6
894.657	2844.77
894.973	2866.46
895.289	2838.89
895.604	2883.64
895.92	2839.35
896.235	2818.1
896.55	2826.92
896.865	2826.92
897.181	2818.33
897.496	2790.99
897.811	2816.07
898.126	2760.25
898.441	2807.26
898.756	2769.07
899.071	2765.68
899.386	2717.77
899.7	2747.15
900.015	2735.85
900.33	2722.97
900.644	2732
900.959	2703.76
901.273	2686.13
901.588	2660.37
901.902	2708.95
902.216	2653.36
902.531	2622.18
902.845	2662.85
903.159	2640.71
903.473	2628.28
903.787	2622.85
904.101	2589.41
904.415	2620.59
904.729	2598.22
905.042	2617.43
905.356	2606.36
905.67	2548.51
905.984	2572.01
906.297	2549.86
906.611	2548.73
906.924	2520.94
907.237	2546.47
907.551	2550.99
907.864	2496.98
908.177	2499.47
908.491	2516.64
908.804	2495.85
909.117	2476.87
909.43	2461.05
909.743	2441.84
910.056	2481.62
910.368	2458.34
910.681	2407.27
910.994	2407.27
911.307	2419.7
911.619	2389.19
911.932	2429.64
912.244	2408.17
912.557	2383.09
912.869	2391.45
913.181	2353.26
913.494	2381.96
913.806	2360.04
914.118	2330.43
914.43	2327.04
914.742	2324.33
915.054	2328.85
915.366	2289.98
915.678	2327.72
915.99	2317.55
916.302	2294.95
916.613	2255.41
916.925	2260.83
917.236	2261.51
917.548	2269.87
917.859	2267.16
918.171	2235.97
918.482	2198.69
918.794	2219.7
919.105	2228.74
919.416	2218.35
919.727	2208.85
920.038	2204.33
920.349	2189.42
920.66	2175.86
920.971	2149.65
921.282	2185.35
921.593	2126.82
921.903	2126.14
922.214	2144.9
922.525	2139.7
922.835	2132.25
923.146	2125.47
923.456	2101.06
923.767	2060.16
924.077	2083.43
924.387	2075.3
924.697	2101.06
925.008	2044.34
925.318	2093.6
925.628	2081.63
925.938	2066.71
926.248	2036.2
926.558	2035.07
926.867	2039.14
927.177	2043.21
927.487	2002.53
927.796	1994.85
928.106	2014.74
928.416	2015.87
928.725	1982.19
929.034	1972.93
929.344	1975.19
929.653	1977.45
929.962	1949.2
930.271	1942.65
930.581	1948.52
930.89	1919.37
931.199	1908.98
931.508	1909.65
931.817	1902.42
932.125	1926.38
932.434	1875.08
932.743	1905.13
933.051	1903.55
933.36	1857.9
933.669	1860.16
933.977	1862.65
934.286	1880.5
934.594	1859.71
934.902	1850.67
935.21	1831.46
935.519	1818.58
935.827	1822.88
936.135	1814.06
936.443	1812.93
936.751	1824.23
937.059	1802.76
937.367	1774.74
937.674	1791.46
937.982	1788.98
938.29	1747.17
938.597	1765.93
938.905	1753.27
939.213	1742.88
939.52	1742.65
939.827	1741.97
940.135	1719.6
940.442	1739.71
940.749	1745.59
941.056	1701.07
941.363	1700.62
941.67	1704.01
941.977	1666.95
942.284	1674.41
942.591	1660.62
942.898	1680.05
943.205	1661.07
943.511	1645.48
943.818	1640.96
944.125	1636.21
944.431	1638.93
944.738	1656.55
945.044	1643.67
945.35	1652.03
945.657	1630.56
945.963	1595.54
946.269	1577.01
946.575	1605.71
946.881	1624.46
947.187	1579.27
947.493	1580.4
947.799	1585.37
948.105	1572.49
948.41	1543.79
948.716	1546.27
949.022	1545.14
949.327	1560.51
949.633	1514.86
949.938	1537.23
950.244	1536.33
950.549	1560.74
950.854	1531.13
951.16	1489.78
951.465	1478.93
951.77	1527.74
952.075	1465.6
952.38	1506.5
952.685	1493.84
952.99	1494.97
953.294	1499.49
953.599	1493.62
953.904	1492.26
954.209	1474.18
954.513	1470.79
954.818	1440.29
955.122	1444.81
955.426	1465.37
955.731	1475.31
956.035	1470.12
956.339	1468.99
956.643	1440.06
956.948	1438.25
957.252	1432.83
957.556	1374.98
957.86	1428.08
958.163	1414.52
958.467	1386.28
958.771	1387.18
959.075	1392.83
959.378	1367.52
959.682	1396.9
959.985	1359.61
960.289	1389.89
960.592	1391.02
960.896	1348.99
961.199	1354.19
961.502	1353.51
961.805	1325.49
962.108	1334.08
962.411	1335.21
962.714	1316.45
963.017	1363
963.32	1325.49
963.623	1323.91
963.926	1316.9
964.228	1301.53
964.531	1339.72
964.833	1315.32
965.136	1302.44
965.438	1266.51
965.741	1277.13
966.043	1294.08
966.345	1279.16
966.648	1271.93
966.95	1254.3
967.252	1308.31
967.554	1254.76
967.856	1240.07
968.158	1260.86
968.46	1245.94
968.761	1229.45
969.063	1233.96
969.365	1217.47
969.666	1218.37
969.968	1218.6
970.269	1222.21
970.571	1217.92
970.872	1237.81
971.174	1231.48
971.475	1216.79
971.776	1214.3
972.077	1189.45
972.378	1208.2
972.679	1199.62
972.98	1193.06
973.281	1187.41
973.582	1188.54
973.883	1168.43
974.183	1167.3
974.484	1161.65
974.785	1161.42
975.085	1158.49
975.386	1156.23
975.686	1164.36
975.986	1132.95
976.287	1158.03
976.587	1138.83
976.887	1134.98
977.187	1129.79
977.487	1095.66
977.787	1138.6
978.087	1149.9
978.387	1110.8
978.687	1107.64
978.987	1113.97
979.286	1110.13
979.586	1117.13
979.885	1082.78
980.185	1108.32
980.484	1103.35
980.784	1080.75
981.083	1072.61
981.382	1071.71
981.682	1068.09
981.981	1080.97
982.28	1038.26
982.579	1064.93
982.878	1080.07
983.177	1055.89
983.475	1029.22
983.774	1049.11
984.073	1036.46
984.372	1038.04
984.67	1027.42
984.969	1021.99
985.267	1010.69
985.566	1026.06
985.864	1027.42
986.162	1022.22
986.461	1012.28
986.759	1018.6
987.057	1006.63
987.355	995.78
987.653	994.2
987.951	1014.99
988.249	1004.14
988.547	994.87
988.844	980.19
989.142	985.16
989.44	990.13
989.737	967.53
990.035	973.41
990.332	966.4
990.63	959.85
990.927	944.25
991.224	963.92
991.521	940.87
991.819	938.38
992.116	955.78
992.413	945.84
992.71	930.24
993.006	951.03
993.303	964.14
993.6	924.82
993.897	913.07
994.193	920.07
994.49	923.01
994.787	939.74
995.083	945.61
995.379	909.68
995.676	906.97
995.972	903.58
996.268	885.73
996.565	883.47
996.861	906.74
997.157	887.08
997.453	887.76
997.749	888.21
998.044	892.5
998.34	876.69
998.636	877.59
998.932	865.84
999.227	850.02
999.523	886.86
999.818	841.66
1000.114	883.01
1000.409	869.91
1000.704	859.29
1001	822
1001.295	834.2
1001.59	852.51
1001.885	856.57
1002.18	815.9
1002.475	825.61
1002.77	842.79
1003.065	822.45
1003.359	814.77
1003.654	845.05
1003.949	801.43
1004.243	804.82
1004.538	806.63
1004.832	812.28
1005.127	799.17
1005.421	792.17
1005.715	794.43
1006.009	788.33
1006.304	799.63
1006.598	792.17
1006.892	802.79
1007.186	761.43
1007.48	784.49
1007.773	776.35
1008.067	768.21
1008.361	775.67
1008.655	780.19
1008.948	796.91
1009.242	791.94
1009.535	752.62
1009.829	744.71
1010.122	743.36
1010.415	745.39
1010.708	744.26
1011.001	739.29
1011.295	741.1
1011.588	751.27
1011.881	763.69
1012.173	750.81
1012.466	716.69
1012.759	731.83
1013.052	735.67
1013.344	715.33
1013.637	700.19
1013.93	719.85
1014.222	712.85
1014.514	710.81
1014.807	728.67
1015.099	701.55
1015.391	711.49
1015.683	707.2
1015.976	716.69
1016.268	685.73
1016.56	687.09
1016.851	691.83
1017.143	678.73
1017.435	688.67
1017.727	675.79
1018.018	674.43
1018.31	692.28
1018.602	680.76
1018.893	668.56
1019.185	650.03
1019.476	640.99
1019.767	665.17
1020.058	629.91
1020.35	636.69
1020.641	663.58
1020.932	655.45
1021.223	639.18
1021.514	643.92
1021.804	635.56
1022.095	646.41
1022.386	628.33
1022.677	628.1
1022.967	632.4
1023.258	633.98
1023.548	628.33
1023.839	649.57
1024.129	637.82
1024.419	636.47
1024.709	626.75
1025	608.22
1025.29	595.56
1025.58	619.29
1025.87	596.02
1026.16	588.56
1026.449	589.91
1026.739	605.73
1027.029	590.37
1027.319	582.23
1027.608	594.89
1027.898	562.8
1028.187	581.1
1028.477	594.66
1028.766	593.08
1029.055	582.68
1029.344	567.99
1029.634	552.4
1029.923	557.37
1030.212	563.02
1030.501	561.44
1030.79	550.37
1031.078	570.48
1031.367	571.38
1031.656	548.33
1031.945	565.96
1032.233	561.21
1032.522	533.42
1032.81	538.62
1033.099	542.01
1033.387	555.79
1033.675	545.4
1033.963	537.26
1034.251	572.06
1034.54	525.73
1034.828	528.9
1035.116	524.6
1035.403	538.39
1035.691	516.47
1035.979	531.38
1036.267	525.96
1036.554	525.06
1036.842	504.27
1037.129	536.58
1037.417	499.97
1037.704	495.68
1037.992	502.68
1038.279	520.54
1038.566	505.4
1038.853	505.4
1039.14	505.4
