Data from mousepad_grey_FLMS001491_00049.txt Node
Date: Wed Feb 08 14:29:30 GMT 2017
User: dcchb
Spectrometer: FLMS00149
Trigger mode: 0
Integration Time (sec): 2.000000E-2
Scans to average: 10
Electric dark correction enabled: true
Nonlinearity correction enabled: false
Boxcar width: 0
XAxis mode: Wavelengths
Number of Pixels in Spectrum: 2048
>>>>>Begin Spectral Data<<<<<
341.393	-27.17
341.776	-27.17
342.16	-27.17
342.543	-62.43
342.927	-70.56
343.31	-71.02
343.693	-70.34
344.077	-59.26
344.46	-64.69
344.843	-62.43
345.226	-35.99
345.61	-22.2
345.993	-25.59
346.376	-5.93
346.759	6.72
347.142	27.29
347.525	39.49
347.908	59.6
348.291	77.23
348.674	92.37
349.057	114.74
349.44	135.08
349.823	139.15
350.206	168.98
350.588	182.31
350.971	179.83
351.354	204.01
351.737	215.08
352.119	239.26
352.502	230.45
352.884	273.38
353.267	281.74
353.65	276.32
354.032	284.23
354.414	293.5
354.797	313.38
355.179	291.01
355.562	295.08
355.944	312.03
356.326	299.6
356.709	298.01
357.091	321.74
357.473	309.99
357.855	314.06
358.238	330.1
358.62	334.85
359.002	316.55
359.384	316.77
359.766	332.82
360.148	316.09
360.53	307.05
360.912	304.34
361.294	316.77
361.676	328.97
362.057	302.08
362.439	300.5
362.821	310.44
363.203	304.57
363.584	320.39
363.966	289.43
364.348	299.14
364.729	294.17
365.111	296.21
365.493	303.89
365.874	313.16
366.256	307.51
366.637	295.3
367.019	305.92
367.4	287.17
367.781	299.82
368.163	288.52
368.544	294.63
368.925	299.82
369.306	304.57
369.688	293.04
370.069	282.65
370.45	331.69
370.831	300.95
371.212	288.75
371.593	270.44
371.974	288.75
372.355	317.9
372.736	303.66
373.117	294.17
373.498	293.27
373.879	310.67
374.26	315.87
374.641	289.65
375.021	298.24
375.402	303.21
375.783	321.29
376.163	305.02
376.544	331.46
376.925	319.26
377.305	322.19
377.686	305.7
378.066	322.87
378.447	307.28
378.827	317.68
379.208	309.77
379.588	302.99
379.968	308.41
380.349	314.51
380.729	317.9
381.109	298.01
381.489	319.94
381.87	323.32
382.25	324.68
382.63	312.7
383.01	308.18
383.39	314.29
383.77	316.77
384.15	324
384.53	320.39
384.91	325.13
385.29	325.13
385.67	329.43
386.049	331.69
386.429	328.52
386.809	334.85
387.189	314.29
387.568	353.83
387.948	344.57
388.328	348.18
388.707	341.86
389.087	332.14
389.466	338.47
389.846	319.94
390.225	353.83
390.605	344.79
390.984	347.05
391.363	350.89
391.743	329.88
392.122	317.22
392.501	342.08
392.881	345.92
393.26	348.63
393.639	349.54
394.018	351.57
394.397	344.12
394.776	332.36
395.155	346.6
395.534	374.85
395.913	373.72
396.292	352.25
396.671	382.76
397.05	363.1
397.429	345.92
397.808	382.53
398.186	389.31
398.565	383.66
398.944	387.28
399.323	378.69
399.701	374.4
400.08	393.61
400.458	371.91
400.837	389.76
401.215	391.57
401.594	373.94
401.972	385.24
402.351	373.49
402.729	386.83
403.107	390.44
403.486	403.1
403.864	397.22
404.242	402.87
404.62	411.01
404.999	400.16
405.377	420.05
405.755	410.78
406.133	414.62
406.511	407.16
406.889	423.66
407.267	442.19
407.645	417.33
408.023	409.2
408.401	427.95
408.779	422.53
409.156	426.6
409.534	440.84
409.912	448.52
410.29	426.15
410.667	458.69
411.045	437.22
411.422	438.12
411.8	427.28
412.178	455.07
412.555	453.94
412.933	453.94
413.31	451.68
413.687	482.64
414.065	473.83
414.442	475.41
414.819	469.31
415.197	485.58
415.574	468.18
415.951	484.22
416.328	490.33
416.705	480.16
417.082	497.33
417.46	484.22
417.837	510.89
418.214	519.93
418.591	510.21
418.967	493.26
419.344	507.5
419.721	497.33
420.098	519.93
420.475	519.48
420.852	543.21
421.228	546.82
421.605	532.13
421.982	536.2
422.358	530.1
422.735	533.94
423.111	524.45
423.488	540.04
423.864	571.68
424.241	541.4
424.617	542.98
424.994	543.88
425.37	565.35
425.746	551.57
426.123	553.6
426.499	576.2
426.875	588.63
427.251	593.37
427.627	594.96
428.003	594.96
428.379	609.19
428.756	607.16
429.132	587.72
429.507	600.38
429.883	593.37
430.259	619.36
430.635	635.41
431.011	626.82
431.387	631.79
431.763	621.4
432.138	635.18
432.514	649.19
432.89	648.29
433.265	648.29
433.641	656.2
434.016	674.73
434.392	692.13
434.767	680.6
435.143	682.41
435.518	715.4
435.894	703.43
436.269	709.53
436.644	694.61
437.02	710.89
437.395	707.27
437.77	721.96
438.145	741.84
438.52	712.69
438.895	763.09
439.271	727.61
439.646	747.27
440.021	767.38
440.395	749.53
440.77	760.83
441.145	751.34
441.52	803.09
441.895	747.72
442.27	777.55
442.645	775.06
443.019	785.91
443.394	791.79
443.769	806.02
444.143	797.44
444.518	822.97
444.892	799.47
445.267	830.88
445.641	803.54
446.016	827.27
446.39	837.21
446.764	801.73
447.139	833.82
447.513	820.94
447.887	852.58
448.262	855.74
448.636	826.81
449.01	869.53
449.384	879.69
449.758	877.89
450.132	896.64
450.506	889.86
450.88	893.93
451.254	876.53
451.628	875.17
452.002	935.29
452.376	905.91
452.75	931.44
453.123	900.94
453.497	944.1
453.871	940.94
454.244	948.85
454.618	978.9
454.992	978.45
455.365	986.36
455.739	997.88
456.112	1017.54
456.486	1002.18
456.859	1031.78
457.232	1016.64
457.606	1046.24
457.979	1026.81
458.352	1063.87
458.725	1071.78
459.099	1083.08
459.472	1069.07
459.845	1090.31
460.218	1104.77
460.591	1099.12
460.964	1122.4
461.337	1107.71
461.71	1137.77
462.083	1165.56
462.456	1177.77
462.829	1183.19
463.201	1156.52
463.574	1188.61
463.947	1202.17
464.32	1202.4
464.692	1217.99
465.065	1261.83
465.438	1272.68
465.81	1275.16
466.183	1289.4
466.555	1309.97
466.928	1306.8
467.3	1313.13
467.672	1315.84
468.045	1352.68
468.417	1341.83
468.789	1364.65
469.161	1370.3
469.534	1434.26
469.906	1440.58
470.278	1405.78
470.65	1430.87
471.022	1468.61
471.394	1476.51
471.766	1516.29
472.138	1527.13
472.51	1555.83
472.882	1569.17
473.253	1600.81
473.625	1610.07
473.997	1633.57
474.369	1612.1
474.74	1635.38
475.112	1695.72
475.484	1684.64
475.855	1708.37
476.227	1733.91
476.598	1792.21
476.97	1780.69
477.341	1813.68
477.713	1803.51
478.084	1815.04
478.455	1902.49
478.827	1892.1
479.198	1961.47
479.569	1932.32
479.94	1997.63
480.311	2025.43
480.682	2062.04
481.053	2069.04
481.424	2121.92
481.795	2106.55
482.166	2150.17
482.537	2204.18
482.908	2240.34
483.279	2265.42
483.65	2283.95
484.021	2321.92
484.391	2350.39
484.762	2338.41
485.133	2400.78
485.503	2415.93
485.874	2468.58
486.244	2493.44
486.615	2522.14
486.985	2522.82
487.356	2588.35
487.726	2586.09
488.097	2656.82
488.467	2683.49
488.837	2708.57
489.207	2776.37
489.578	2789.7
489.948	2810.04
490.318	2850.26
490.688	2814.33
491.058	2857.27
491.428	2908.79
491.798	2956.93
492.168	2970.49
492.538	3020.88
492.908	3025.17
493.278	3065.85
493.648	3095.91
494.017	3095.46
494.387	3115.79
494.757	3129.8
495.126	3174.55
495.496	3229.24
495.866	3209.12
496.235	3258.84
496.605	3258.39
496.974	3286.64
497.344	3346.52
497.713	3385.17
498.082	3362.79
498.452	3392.62
498.821	3414.77
499.19	3412.06
499.559	3435.11
499.928	3492.51
500.298	3519.17
500.667	3538.83
501.036	3524.82
501.405	3593.97
501.774	3526.63
502.143	3636.68
502.512	3594.65
502.88	3664.48
503.249	3659.51
503.618	3690.24
503.987	3734.31
504.356	3737.92
504.724	3790.35
505.093	3753.74
505.462	3781.54
505.83	3767.3
506.199	3833.29
506.567	3856.11
506.936	3888.88
507.304	3935.21
507.672	3962.78
508.041	3950.57
508.409	3952.83
508.777	3988.31
509.145	4053.85
509.514	4017.24
509.882	4068.99
510.25	4099.5
510.618	4116.67
510.986	4126.39
511.354	4158.25
511.722	4202.54
512.09	4250
512.458	4253.62
512.826	4240.06
513.193	4315.31
513.561	4320.51
513.929	4372.26
514.297	4399.83
514.664	4366.38
515.032	4421.52
515.4	4455.19
515.767	4467.17
516.135	4495.42
516.502	4465.36
516.869	4551.46
517.237	4595.75
517.604	4602.08
517.972	4615.19
518.339	4689.54
518.706	4655.19
519.073	4681.85
519.44	4696.77
519.808	4785.35
520.175	4689.31
520.542	4778.12
520.909	4871.68
521.276	4858.35
521.643	4906.03
522.009	4919.81
522.376	4995.07
522.743	5030.09
523.11	5044.78
523.477	5060.83
523.843	5083.2
524.21	5160.71
524.577	5176.53
524.943	5178.34
525.31	5197.55
525.676	5250.65
526.043	5331.33
526.409	5364.1
526.776	5387.15
527.142	5465.79
527.508	5447.48
527.874	5431.21
528.241	5526.35
528.607	5502.62
528.973	5605.22
529.339	5552.34
529.705	5640.93
530.071	5655.16
530.437	5661.94
530.803	5709.85
531.169	5793.01
531.535	5794.37
531.901	5757.31
532.267	5805.21
532.632	5868.72
532.998	5920.01
533.364	5900.13
533.73	5925.66
534.095	6010.86
534.461	5994.59
534.826	6003.4
535.192	6011.31
535.557	6114.36
535.923	6058.32
536.288	6114.58
536.653	6182.38
537.019	6123.62
537.384	6244.98
537.749	6252.89
538.114	6294.24
538.479	6283.39
538.845	6311.87
539.21	6308.48
539.575	6356.84
539.94	6370.4
540.305	6449.94
540.67	6345.31
541.034	6468.02
541.399	6507.34
541.764	6526.33
542.129	6491.52
542.494	6516.38
542.858	6575.14
543.223	6567
543.587	6664.63
543.952	6632.76
544.316	6677.51
544.681	6617.4
545.045	6775.58
545.41	6750.73
545.774	6822.81
546.138	6813.1
546.503	6817.84
546.867	6837.96
547.231	6909.37
547.595	6904.85
547.959	6961.34
548.324	6972.42
548.688	6999.76
549.052	6995.01
549.416	7016.71
549.779	7013.32
550.143	7072.3
550.507	7118.4
550.871	7110.27
551.235	7121.11
551.599	7125.63
551.962	7216.7
552.326	7237.04
552.689	7296.7
553.053	7270.26
553.417	7283.82
553.78	7342.35
554.143	7352.52
554.507	7398.85
554.87	7415.57
555.234	7489.46
555.597	7501.89
555.96	7437.94
556.323	7582.34
556.686	7572.63
557.05	7623.92
557.413	7665.73
557.776	7622.34
558.139	7706.86
558.502	7698.27
558.865	7719.74
559.228	7792.28
559.59	7876.35
559.953	7800.64
560.316	7900.53
560.679	7857.59
561.041	7995.44
561.404	7951.6
561.767	8053.52
562.129	8010.58
562.492	8075.89
562.854	8162.89
563.217	8095.1
563.579	8206.73
563.941	8162.67
564.304	8218.26
564.666	8336.67
565.028	8337.58
565.39	8296
565.753	8363.57
566.115	8401.76
566.477	8434.07
566.839	8476.78
567.201	8467.07
567.563	8527.63
567.925	8533.5
568.287	8561.75
568.648	8574.86
569.01	8685.36
569.372	8669.55
569.734	8711.35
570.095	8707.29
570.457	8821.41
570.819	8764.91
571.18	8783.44
571.542	8837
571.903	8914.29
572.265	8935.08
572.626	8915.64
572.987	8949.76
573.349	8957.9
573.71	9004.68
574.071	9024.79
574.432	9097.33
574.794	9092.36
575.155	9129.42
575.516	9107.05
575.877	9152.02
576.238	9158.8
576.599	9287.16
576.96	9242.64
577.32	9222.07
577.681	9274.28
578.042	9303.88
578.403	9292.35
578.763	9274.95
579.124	9335.97
579.485	9338.23
579.845	9414.16
580.206	9401.5
580.566	9371.45
580.927	9423.65
581.287	9420.49
581.648	9427.49
582.008	9423.88
582.368	9452.12
582.728	9418.9
583.089	9414.61
583.449	9481.05
583.809	9476.3
584.169	9526.47
584.529	9437.66
584.889	9573.7
585.249	9475.4
585.609	9480.15
585.969	9473.82
586.329	9498.68
586.688	9514.04
587.048	9498.45
587.408	9483.31
587.768	9479.02
588.127	9536.42
588.487	9494.16
588.846	9546.81
589.206	9535.96
589.565	9451.45
589.925	9562.86
590.284	9528.28
590.643	9582.06
591.003	9599.92
591.362	9629.52
591.721	9597.43
592.08	9595.4
592.44	9639.46
592.799	9599.92
593.158	9638.11
593.517	9637.2
593.876	9582.97
594.235	9590.43
594.593	9581.16
594.952	9594.95
595.311	9602.85
595.67	9646.92
596.029	9657.99
596.387	9677.43
596.746	9698.67
597.104	9611.89
597.463	9632.46
597.822	9729.18
598.18	9632.68
598.538	9712.23
598.897	9752.91
599.255	9555.4
599.613	9700.48
599.972	9635.4
600.33	9753.36
600.688	9682.17
601.046	9726.92
601.404	9806.24
601.762	9745
602.12	9798.78
602.478	9732.57
602.836	9725.56
603.194	9654.6
603.552	9707.03
603.91	9657.77
604.268	9734.83
604.625	9737.77
604.983	9726.24
605.341	9710.2
605.698	9712.46
606.056	9782.74
606.413	9771.21
606.771	9758.56
607.128	9862.28
607.485	9770.53
607.843	9804.43
608.2	9755.17
608.557	9840.36
608.914	9801.49
609.272	9864.09
609.629	9943.18
609.986	9883.53
610.343	9909.29
610.7	9879.91
611.057	9913.81
611.414	9933.92
611.771	9929.17
612.127	9902.73
612.484	9926.01
612.841	9955.16
613.198	9923.07
613.554	9926.91
613.911	10025.89
614.267	9975.27
614.624	10030.87
614.98	10092.79
615.337	10042.84
615.693	9999
616.05	10015.05
616.406	9999
616.762	10089.85
617.118	10056.63
617.475	10035.61
617.831	10122.84
618.187	10080.58
618.543	10122.62
618.899	10161.48
619.255	10121.03
619.611	10055.72
619.967	10160.35
620.323	10152.67
620.678	10102.05
621.034	10108.15
621.39	10167.36
621.746	10083.52
622.101	10169.85
622.457	10161.48
622.812	10160.13
623.168	10147.25
623.523	10157.19
623.879	10196.29
624.234	10222.05
624.589	10134.37
624.945	10155.16
625.3	10222.5
625.655	10168.26
626.01	10176.85
626.365	10218.21
626.72	10165.78
627.075	10155.38
627.43	10225.21
627.785	10094.82
628.14	10197.19
628.495	10186.12
628.85	10203.74
629.205	10161.26
629.559	10213.46
629.914	10196.51
630.269	10150.64
630.623	10218.21
630.978	10138.43
631.332	10195.16
631.687	10250.07
632.041	10211.88
632.396	10140.02
632.75	10135.27
633.104	10137.08
633.459	10072.9
633.813	10099.11
634.167	10110.19
634.521	10072.22
634.875	10121.94
635.229	10102.95
635.583	10071.09
635.937	10053.24
636.291	9992.68
636.645	10061.6
636.999	10005.78
637.352	10094.37
637.706	9982.96
638.06	10002.62
638.413	10003.07
638.767	9906.35
639.121	9979.57
639.474	9977.31
639.828	9948.38
640.181	9938.67
640.534	9992.45
640.888	9960.59
641.241	9911.77
641.594	9929.17
641.947	10003.07
642.301	9925.33
642.654	9927.59
643.007	10019.57
643.36	9931.21
643.713	9901.15
644.066	9893.92
644.419	9922.85
644.771	9851.44
645.124	9716.3
645.477	9730.31
645.83	9674.27
646.182	9707.71
646.535	9577.32
646.888	9645.79
647.24	9596.98
647.593	9639.01
647.945	9650.99
648.298	9626.58
648.65	9561.73
649.002	9561.95
649.355	9652.57
649.707	9592.46
650.059	9627.71
650.411	9710.65
650.763	9728.73
651.115	9858.67
651.467	9842.17
651.819	9803.08
652.171	9824.54
652.523	9846.92
652.875	9783.64
653.227	9742.06
653.578	9846.46
653.93	9766.01
654.282	9745
654.633	9789.06
654.985	9819.8
655.337	9759.91
655.688	9686.69
656.039	9776.18
656.391	9715.39
656.742	9781.83
657.094	9749.52
657.445	9791.78
657.796	9782.51
658.147	9717.43
658.498	9824.54
658.849	9786.8
659.2	9768.73
659.551	9782.96
659.902	9805.56
660.253	9727.82
660.604	9761.95
660.955	9690.76
661.306	9665.68
661.656	9792.68
662.007	9735.96
662.358	9779.57
662.708	9747.48
663.059	9807.6
663.409	9677.2
663.76	9749.97
664.11	9763.53
664.461	9778.44
664.811	9737.99
665.161	9703.19
665.511	9726.92
665.862	9740.25
666.212	9789.74
666.562	9690.76
666.912	9679.91
667.262	9703.64
667.612	9702.06
667.962	9734.15
668.312	9748.16
668.662	9754.72
669.011	9740.93
669.361	9690.08
669.711	9700.93
670.06	9684.21
670.41	9747.48
670.76	9666.36
671.109	9696.19
671.459	9708.84
671.808	9666.81
672.157	9674.27
672.507	9634.72
672.856	9649.18
673.205	9646.7
673.554	9683.76
673.904	9618.9
674.253	9686.92
674.602	9580.93
674.951	9524.44
675.3	9473.59
675.649	9657.09
675.998	9588.17
676.346	9561.5
676.695	9622.74
677.044	9564.66
677.393	9550.88
677.741	9589.97
678.09	9595.62
678.438	9523.99
678.787	9564.21
679.135	9559.24
679.484	9526.02
679.832	9454.84
680.181	9439.7
680.529	9499.35
680.877	9437.44
681.225	9494.61
681.573	9542.74
681.922	9421.62
682.27	9387.04
682.618	9427.49
682.966	9386.82
683.314	9355.4
683.661	9396.31
684.009	9321.51
684.357	9219.14
684.705	9312.24
685.053	9272.24
685.4	9292.58
685.748	9269.98
686.095	9243.32
686.443	9200.15
686.79	9158.8
687.138	9140.72
687.485	9208.74
687.832	9181.4
688.18	9165.8
688.527	9033.15
688.874	9031.34
689.221	9051.46
689.568	9011.68
689.915	9006.71
690.262	8947.5
690.609	8954.28
690.956	8929.88
691.303	8928.07
691.65	8863.21
691.997	8961.29
692.344	8833.61
692.69	8832.25
693.037	8823.44
693.383	8733.95
693.73	8800.62
694.077	8704.12
694.423	8659.15
694.769	8760.39
695.116	8651.92
695.462	8657.79
695.808	8643.56
696.155	8679.72
696.501	8527.18
696.847	8609.43
697.193	8502.54
697.539	8556.78
697.885	8459.38
698.231	8409.21
698.577	8419.61
698.923	8409.67
699.269	8336.67
699.614	8305.94
699.96	8310.23
700.306	8319.95
700.651	8292.61
700.997	8220.07
701.342	8204.93
701.688	8189.56
702.033	8164.02
702.379	8177.81
702.724	8154.08
703.069	8186.39
703.415	8032.5
703.76	8047.87
704.105	8039.96
704.45	8050.58
704.795	7979.39
705.14	7940.3
705.485	7987.53
705.83	7952.5
706.175	7897.81
706.52	7884.03
706.865	7795.22
707.209	7816.01
707.554	7822.56
707.899	7834.31
708.243	7758.16
708.588	7758.16
708.932	7750.47
709.277	7700.98
709.621	7704.15
709.966	7649.91
710.31	7658.73
710.654	7622.57
710.998	7663.7
711.342	7649.91
711.687	7625.51
712.031	7612.4
712.375	7571.04
712.719	7568.78
713.063	7594.55
713.407	7536.69
713.75	7526.53
714.094	7495.79
714.438	7512.97
714.782	7549.58
715.125	7415.34
715.469	7453.08
715.812	7444.27
716.156	7494.66
716.499	7402.46
716.843	7493.76
717.186	7417.83
717.53	7407.43
717.873	7413.31
718.216	7438.17
718.559	7362.69
718.902	7289.92
719.246	7331.5
719.589	7326.08
719.932	7306.64
720.275	7347.32
720.617	7296.7
720.96	7298.73
721.303	7211.28
721.646	7283.59
721.989	7327.89
722.331	7297.38
722.674	7199.75
723.016	7244.27
723.359	7295.57
723.701	7287.21
724.044	7205.18
724.386	7187.33
724.729	7207.44
725.071	7210.15
725.413	7168.12
725.755	7194.78
726.097	7176.25
726.439	7141
726.782	7179.42
727.124	7194.78
727.465	7156.37
727.807	7209.7
728.149	7173.99
728.491	7187.78
728.833	7178.06
729.175	7168.57
729.516	7107.78
729.858	7132.19
730.199	7200.43
730.541	7143.71
730.882	7171.73
731.224	7125.86
731.565	7107.33
731.906	7093.77
732.248	7137.61
732.589	7059.19
732.93	7148.91
733.271	7069.59
733.612	7114.33
733.953	7137.38
734.294	7093.99
734.635	7115.69
734.976	7063.26
735.317	7121.56
735.658	7104.84
735.999	7089.25
736.339	7096.71
736.68	7121.11
737.021	7106.65
737.361	7050.38
737.702	7139.87
738.042	7063.94
738.383	7064.84
738.723	7107.1
739.063	7077.5
739.404	7101.45
739.744	7084.5
740.084	7011.96
740.424	7047.89
740.764	7037.27
741.104	7084.95
741.444	7035.01
741.784	7076.82
742.124	7037.05
742.464	7007.22
742.804	7066.88
743.143	7062.81
743.483	7037.72
743.823	7011.28
744.162	6999.53
744.502	7069.36
744.841	7021.91
745.181	7073.88
745.52	7035.46
745.86	7060.1
746.199	7057.61
746.538	6974.22
746.877	7006.76
747.216	7045.63
747.556	7085.41
747.895	6971.74
748.234	7022.36
748.573	6995.69
748.911	7007.89
749.25	6987.1
749.589	6943.94
749.928	6986.2
750.267	6979.65
750.605	7001.79
750.944	6986.65
751.283	6962.47
751.621	7007.22
751.96	6969.7
752.298	6978.97
752.636	6960.89
752.975	6902.81
753.313	6879.08
753.651	6928.12
753.989	6878.18
754.327	6853.1
754.666	6875.92
755.004	6863.94
755.342	6903.04
755.679	6923.83
756.017	6831.18
756.355	6827.33
756.693	6788.47
757.031	6852.87
757.368	6832.76
757.706	6771.06
758.044	6787.11
758.381	6792.53
758.719	6748.24
759.056	6791.18
759.394	6760.67
759.731	6672.08
760.068	6687.45
760.405	6706.66
760.743	6680.45
761.08	6710.05
761.417	6654.01
761.754	6592.09
762.091	6617.85
762.428	6578.08
762.765	6559.55
763.102	6578.3
763.438	6574.91
763.775	6517.06
764.112	6531.52
764.449	6510.51
764.785	6523.61
765.122	6480.45
765.458	6423.5
765.795	6434.12
766.131	6421.24
766.467	6420.57
766.804	6381.02
767.14	6345.77
767.476	6334.47
767.812	6298.76
768.148	6310.51
768.485	6216.73
768.821	6266.67
769.157	6241.36
769.492	6205.88
769.828	6223.96
770.164	6196.39
770.5	6145.54
770.836	6168.37
771.171	6113.23
771.507	6095.83
771.842	6101.25
772.178	6095.38
772.513	6056.73
772.849	6075.04
773.184	5998.88
773.519	5985.77
773.855	5955.27
774.19	5953.46
774.525	5938.32
774.86	5928.15
775.195	5877.3
775.53	5892.67
775.865	5871.2
776.2	5857.42
776.535	5784.2
776.87	5765.22
777.205	5700.36
777.539	5742.84
777.874	5759.11
778.209	5689.74
778.543	5703.3
778.878	5659.91
779.212	5656.52
779.547	5634.37
779.881	5659.23
780.215	5603.86
780.55	5604.54
780.884	5587.14
781.218	5556.41
781.552	5570.64
781.886	5548.72
782.22	5503.53
782.554	5519.57
782.888	5461.04
783.222	5428.05
783.556	5375.62
783.889	5455.17
784.223	5362.74
784.557	5343.31
784.89	5350.99
785.224	5339.24
785.557	5300.37
785.891	5276.87
786.224	5254.27
786.558	5237.55
786.891	5228.05
787.224	5218.11
787.557	5159.81
787.891	5195.74
788.224	5199.58
788.557	5185.8
788.89	5150.09
789.223	5182.18
789.556	5108.51
789.888	5073.26
790.221	5096.76
790.554	5060.6
790.887	5059.47
791.219	5036.65
791.552	4999.36
791.884	4980.83
792.217	4983.99
792.549	4958.01
792.882	4944.45
793.214	4930.44
793.546	4932.7
793.879	4877.1
794.211	4860.38
794.543	4902.41
794.875	4863.09
795.207	4845.24
795.539	4856.31
795.871	4882.3
796.203	4807.05
796.535	4806.82
796.867	4755.98
797.198	4780.38
797.53	4762.3
797.862	4746.94
798.193	4725.47
798.525	4730.21
798.856	4734.06
799.188	4687.28
799.519	4672.14
799.85	4662.65
800.182	4636.88
800.513	4620.16
800.844	4597.34
801.175	4659.26
801.506	4616.32
801.837	4572.93
802.168	4572.03
802.499	4576.77
802.83	4553.04
803.161	4509.88
803.491	4494.06
803.822	4523.44
804.153	4524.8
804.483	4427.85
804.814	4444.8
805.145	4440.05
805.475	4412.71
805.805	4432.82
806.136	4412.26
806.466	4397.34
806.796	4418.58
807.126	4314.41
807.457	4335.87
807.787	4328.87
808.117	4329.55
808.447	4320.51
808.777	4353.95
809.107	4341.07
809.436	4316.67
809.766	4284.8
810.096	4304.92
810.426	4310.11
810.755	4265.59
811.085	4244.58
811.414	4264.24
811.744	4205.26
812.073	4237.12
812.403	4214.75
812.732	4178.59
813.061	4165.03
813.39	4173.62
813.719	4158.48
814.049	4171.81
814.378	4192.6
814.707	4135.43
815.036	4167.29
815.365	4112.6
815.693	4091.59
816.022	4109.44
816.351	4094.53
816.68	4032.61
817.008	4073.06
817.337	4048.65
817.665	4033.96
817.994	4048.42
818.322	4028.99
818.651	4031.25
818.979	4019.05
819.307	4019.95
819.636	3996.45
819.964	3984.02
820.292	4005.94
820.62	3988.09
820.948	3972.95
821.276	3970.46
821.604	3987.64
821.932	3991.7
822.259	3987.64
822.587	3999.39
822.915	3947.41
823.243	3993.06
823.57	3998.93
823.898	3933.63
824.225	4005.04
824.553	3940.86
824.88	3922.1
825.207	3968.88
825.535	3953.96
825.862	4002.1
826.189	3939.73
826.516	3942.89
826.843	3988.99
827.17	4004.58
827.497	3932.95
827.824	3996.9
828.151	3951.25
828.478	3987.41
828.805	3952.83
829.131	3945.38
829.458	3958.26
829.785	3956
830.111	3933.85
830.438	3984.92
830.764	3954.19
831.09	3985.6
831.417	3920.52
831.743	3953.51
832.069	3941.31
832.395	3924.81
832.722	3963.23
833.048	3954.19
833.374	3961.2
833.7	3921.87
834.026	3940.18
834.351	3917.35
834.677	3913.06
835.003	3930.91
835.329	3892.27
835.654	3924.59
835.98	3887.98
836.306	3908.99
836.631	3885.72
836.956	3922.55
837.282	3898.37
837.607	3899.95
837.932	3865.15
838.258	3871.71
838.583	3859.5
838.908	3852.72
839.233	3845.72
839.558	3855.89
839.883	3821.54
840.208	3798.94
840.533	3856.34
840.858	3828.32
841.182	3814.08
841.507	3833.06
841.832	3819.28
842.156	3790.35
842.481	3769.56
842.805	3789
843.13	3785.61
843.454	3790.13
843.778	3727.76
844.103	3756
844.427	3728.43
844.751	3710.35
845.075	3701.99
845.399	3716.46
845.723	3724.82
846.047	3711.71
846.371	3683.24
846.695	3673.07
847.019	3659.96
847.343	3657.93
847.666	3632.84
847.99	3607.08
848.313	3636.68
848.637	3577.93
848.96	3597.14
849.284	3537.7
849.607	3547.19
849.931	3547.42
850.254	3552.62
850.577	3498.38
850.9	3485.73
851.223	3516.91
851.546	3436.92
851.869	3433.75
852.192	3467.65
852.515	3447.76
852.838	3452.96
853.161	3446.86
853.483	3428.78
853.806	3385.84
854.129	3394.43
854.451	3364.37
854.774	3361.66
855.096	3361.66
855.419	3289.35
855.741	3342.91
856.063	3311.49
856.385	3313.3
856.708	3328.22
857.03	3321.89
857.352	3287.54
857.674	3268.11
857.996	3254.77
858.318	3284.83
858.64	3285.73
858.961	3258.16
859.283	3231.04
859.605	3214.77
859.926	3200.99
860.248	3222.91
860.57	3204.83
860.891	3169.35
861.212	3181.33
861.534	3181.55
861.855	3175.68
862.176	3178.39
862.498	3179.52
862.819	3190.59
863.14	3151.5
863.461	3154.66
863.782	3133.65
864.103	3139.75
864.424	3154.66
864.745	3175
865.065	3134.55
865.386	3118.96
865.707	3103.59
866.027	3145.85
866.348	3098.17
866.668	3135.68
866.989	3070.82
867.309	3077.83
867.63	3085.06
867.95	3076.92
868.27	3086.87
868.59	3080.77
868.91	3038.96
869.23	3064.95
869.55	3024.27
869.87	3103.14
870.19	3021.11
870.51	3066.98
870.83	3054.78
871.15	3035.34
871.469	3021.78
871.789	3050.94
872.109	2998.06
872.428	3023.14
872.748	3024.04
873.067	3044.84
873.386	3009.13
873.706	3005.51
874.025	2982.46
874.344	2969.81
874.663	2986.98
874.982	2986.76
875.301	2987.89
875.62	2993.99
875.939	2971.62
876.258	2981.33
876.577	2949.47
876.896	2954.44
877.214	2962.13
877.533	2945.63
877.852	2986.53
878.17	2943.82
878.489	2947.66
878.807	2908.57
879.125	2909.47
879.444	2921.9
879.762	2925.74
880.08	2915.35
880.398	2926.87
880.716	2902.92
881.034	2887.55
881.352	2903.82
881.67	2888.91
881.988	2921.22
882.306	2866.76
882.624	2865.63
882.941	2837.61
883.259	2888.68
883.577	2850.72
883.894	2838.29
884.212	2842.58
884.529	2813.65
884.846	2853.2
885.164	2839.87
885.481	2820.89
885.798	2825.86
886.115	2786.31
886.432	2818.4
886.75	2777.72
887.067	2796.25
887.383	2769.59
887.7	2768.46
888.017	2774.79
888.334	2764.16
888.651	2756.93
888.967	2766.65
889.284	2744.28
889.6	2748.12
889.917	2728.91
890.233	2699.31
890.55	2683.71
890.866	2721
891.182	2696.37
891.498	2708.12
891.815	2654.34
892.131	2708.12
892.447	2665.64
892.763	2697.05
893.079	2653.21
893.395	2683.94
893.71	2661.34
894.026	2684.62
894.342	2657.95
894.657	2614.79
894.973	2607.11
895.289	2605.52
895.604	2578.63
895.92	2603.26
896.235	2619.08
896.55	2617.05
896.865	2565.98
897.181	2565.98
897.496	2565.98
897.811	2547.45
898.126	2552.42
898.441	2516.04
898.756	2546.54
899.071	2511.97
899.386	2491.18
899.7	2477.39
900.015	2507.67
900.33	2502.7
900.644	2464.96
900.959	2484.17
901.273	2448.47
901.588	2482.14
901.902	2454.79
902.216	2453.66
902.531	2427
902.845	2409.15
903.159	2422.93
903.473	2423.83
903.787	2427.68
904.101	2415.02
904.415	2388.58
904.729	2363.72
905.042	2375.47
905.356	2357.62
905.67	2373.21
905.984	2370.28
906.297	2334.8
906.611	2332.99
906.924	2294.35
907.237	2319.66
907.551	2332.76
907.864	2297.74
908.177	2265.19
908.491	2287.34
908.804	2288.24
909.117	2280.34
909.43	2244.4
909.743	2262.93
910.056	2253.9
910.368	2247.57
910.681	2221.81
910.994	2213.44
911.307	2199.66
911.619	2170.51
911.932	2227.91
912.244	2180.9
912.557	2217.74
912.869	2196.72
913.181	2197.63
913.494	2149.49
913.806	2170.28
914.118	2127.57
914.43	2146.55
914.742	2120.79
915.054	2136.61
915.366	2100.45
915.678	2123.28
915.99	2097.29
916.302	2089.83
916.613	2078.53
916.925	2097.29
917.236	2053.22
917.548	2052.32
917.859	2059.32
918.171	2052.32
918.482	2087.8
918.794	2038.76
919.105	2014.13
919.416	2037.63
919.727	2031.08
920.038	1979.55
920.349	2033.34
920.66	1991.08
920.971	2005.31
921.282	1982.49
921.593	1992.89
921.903	1970.97
922.214	1960.12
922.525	1953.56
922.835	1927.12
923.146	1924.64
923.456	1934.81
923.767	1911.31
924.077	1916.28
924.387	1936.62
924.697	1913.57
925.008	1911.31
925.318	1887.58
925.628	1872.21
925.938	1898.42
926.248	1860.23
926.558	1860.23
926.867	1850.97
927.177	1861.36
927.487	1859.56
927.796	1817.3
928.106	1822.04
928.416	1838.99
928.725	1808.71
929.034	1800.35
929.344	1812.33
929.653	1810.97
929.962	1775.49
930.271	1771.42
930.581	1800.57
930.89	1770.52
931.199	1777.52
931.508	1802.83
931.817	1763.06
932.125	1779.56
932.434	1732.1
932.743	1730.75
933.051	1711.31
933.36	1714.02
933.669	1707.92
933.977	1718.09
934.286	1699.56
934.594	1704.98
934.902	1674.48
935.21	1689.16
935.519	1691.2
935.827	1651.43
936.135	1659.56
936.443	1653.23
936.751	1663.18
937.059	1644.42
937.367	1639.67
937.674	1622.5
937.982	1656.62
938.29	1624.31
938.597	1635.38
938.905	1601.94
939.213	1567.13
939.52	1627.7
939.827	1624.31
940.135	1570.52
940.442	1577.98
940.749	1566.46
941.056	1604.87
941.363	1531.88
941.67	1556.74
941.977	1550.19
942.284	1559.9
942.591	1554.25
942.898	1561.71
943.205	1539.34
943.511	1533.91
943.818	1544.08
944.125	1530.75
944.431	1520.36
944.738	1523.97
945.044	1480.58
945.35	1490.75
945.657	1502.28
945.963	1483.97
946.269	1467.02
946.575	1482.62
946.881	1466.8
947.187	1456.18
947.493	1446.23
947.799	1462.5
948.105	1447.14
948.41	1441.94
948.716	1440.36
949.022	1439
949.327	1414.82
949.633	1399.45
949.938	1413.47
950.244	1413.24
950.549	1395.16
950.854	1373.47
951.16	1372.11
951.465	1378.21
951.77	1383.41
952.075	1378.66
952.38	1371.66
952.685	1379.12
952.99	1374.6
953.294	1366.46
953.599	1386.57
953.904	1358.1
954.209	1353.81
954.513	1359.68
954.818	1319.23
955.122	1324.43
955.426	1344.09
955.731	1299.8
956.035	1313.36
956.339	1339.8
956.643	1308.61
956.948	1314.49
957.252	1318.1
957.556	1323.98
957.86	1299.34
958.163	1280.59
958.467	1276.29
958.771	1320.81
959.075	1267.93
959.378	1266.58
959.682	1246.92
959.985	1247.59
960.289	1265.67
960.592	1256.63
960.896	1259.12
961.199	1265.67
961.502	1246.92
961.805	1264.09
962.108	1215.05
962.411	1232
962.714	1241.27
963.017	1216.86
963.32	1215.05
963.623	1229.06
963.926	1214.37
964.228	1207.14
964.531	1193.36
964.833	1189.06
965.136	1208.27
965.438	1185.68
965.741	1181.38
966.043	1205.56
966.345	1193.36
966.648	1184.09
966.95	1156.07
967.252	1157.2
967.554	1158.11
967.856	1166.01
968.158	1135.05
968.46	1118.11
968.761	1147.48
969.063	1158.78
969.365	1156.3
969.666	1149.29
969.968	1142.29
970.269	1135.73
970.571	1121.5
970.872	1140.93
971.174	1158.78
971.475	1118.56
971.776	1102.97
972.077	1077.43
972.378	1096.41
972.679	1101.38
972.98	1091.89
973.281	1100.48
973.582	1096.19
973.883	1066.13
974.183	1082.17
974.484	1056.64
974.785	1069.29
975.085	1072.68
975.386	1061.61
975.686	1040.14
975.986	1048.28
976.287	1051.67
976.587	1044.66
976.887	1050.54
977.187	1069.07
977.487	1041.27
977.787	1034.04
978.087	1046.02
978.387	1010.09
978.687	1008.28
978.987	1023.19
979.286	1026.13
979.586	1003.31
979.885	996.08
980.185	1015.28
980.484	1000.6
980.784	993.59
981.083	972.35
981.382	994.72
981.682	983.87
981.981	980.71
982.28	994.49
982.579	974.38
982.878	982.52
983.177	1001.05
983.475	970.77
983.774	964.66
984.073	963.76
984.372	959.69
984.67	969.86
984.969	945.91
985.267	969.41
985.566	942.97
985.864	988.17
986.162	921.95
986.461	948.17
986.759	940.48
987.057	926.92
987.355	953.36
987.653	940.03
987.951	932.35
988.249	930.77
988.547	909.98
988.844	893.71
989.142	899.81
989.44	916.08
989.737	903.65
990.035	910.2
990.332	871.11
990.63	914.04
990.927	903.2
991.224	875.63
991.521	884.21
991.819	873.82
992.116	868.85
992.413	877.89
992.71	866.81
993.006	855.29
993.303	849.41
993.6	837.44
993.897	871.11
994.193	877.66
994.49	833.37
994.787	840.15
995.083	843.09
995.379	834.5
995.676	869.3
995.972	831.33
996.268	839.7
996.565	836.08
996.861	835.85
997.157	843.76
997.453	808.74
997.749	829.3
998.044	832.46
998.34	796.76
998.636	810.77
998.932	818
999.227	818.23
999.523	838.79
999.818	804.44
1000.114	794.5
1000.409	805.35
1000.704	787.49
1001	792.69
1001.295	791.56
1001.59	784.78
1001.885	778
1002.18	761.73
1002.475	779.58
1002.77	778
1003.065	755.4
1003.359	788.17
1003.654	756.99
1003.949	766.7
1004.243	766.7
1004.538	769.19
1004.832	747.27
1005.127	750.21
1005.421	741.62
1005.715	755.86
1006.009	721.28
1006.304	739.36
1006.598	749.53
1006.892	728.06
1007.186	720.6
1007.48	742.07
1007.773	721.96
1008.067	719.02
1008.361	712.92
1008.655	735.74
1008.948	724.22
1009.242	709.53
1009.535	713.6
1009.829	692.81
1010.122	687.16
1010.415	718.57
1010.708	706.59
1011.001	695.52
1011.295	686.48
1011.588	707.04
1011.881	665.69
1012.173	682.86
1012.466	679.25
1012.759	660.27
1013.052	673.37
1013.344	687.38
1013.637	675.86
1013.93	668.17
1014.222	681.28
1014.514	686.25
1014.807	656.88
1015.099	658.23
1015.391	672.69
1015.683	647.38
1015.976	672.47
1016.268	647.84
1016.56	655.97
1016.851	628.63
1017.143	669.53
1017.435	665.91
1017.727	653.49
1018.018	620.49
1018.31	632.24
1018.602	639.93
1018.893	650.1
1019.185	628.18
1019.476	608.74
1019.767	598.35
1020.058	599.93
1020.35	616.65
1020.641	613.03
1020.932	611.9
1021.223	603.77
1021.514	601.51
1021.804	573.49
1022.095	614.62
1022.386	616.65
1022.677	614.16
1022.967	593.83
1023.258	571.23
1023.548	586.59
1023.839	591.11
1024.129	607.39
1024.419	585.92
1024.709	552.47
1025	578.91
1025.29	574.62
1025.58	568.06
1025.87	571.23
1026.16	564.67
1026.449	583.66
1026.739	573.26
1027.029	578.69
1027.319	561.96
1027.608	539.36
1027.898	563.32
1028.187	559.02
1028.477	569.87
1028.766	565.13
1029.055	545.47
1029.344	555.86
1029.634	534.84
1029.923	534.17
1030.212	516.09
1030.501	547.27
1030.79	533.49
1031.078	519.03
1031.367	522.42
1031.656	538.69
1031.945	515.41
1032.233	517.9
1032.522	500.27
1032.81	515.41
1033.099	529.42
1033.387	520.61
1033.675	523.32
1033.963	503.43
1034.251	533.71
1034.54	513.6
1034.828	489.2
1035.116	513.38
1035.403	510.21
1035.691	490.78
1035.979	487.16
1036.267	479.48
1036.554	468.18
1036.842	491.91
1037.129	487.39
1037.417	500.5
1037.704	496.65
1037.992	486.48
1038.279	475.86
1038.566	460.5
1038.853	460.5
1039.14	460.5
