Data from mousepad_grey_FLMS001491_00007.txt Node
Date: Wed Feb 08 14:28:54 GMT 2017
User: dcchb
Spectrometer: FLMS00149
Trigger mode: 0
Integration Time (sec): 2.000000E-2
Scans to average: 10
Electric dark correction enabled: true
Nonlinearity correction enabled: false
Boxcar width: 0
XAxis mode: Wavelengths
Number of Pixels in Spectrum: 2048
>>>>>Begin Spectral Data<<<<<
341.393	7.57
341.776	7.57
342.16	7.57
342.543	-56.83
342.927	-43.28
343.31	-62.94
343.693	-88.92
344.077	-48.47
344.46	-57.29
344.843	-67
345.226	-34.69
345.61	-36.5
345.993	-25.42
346.376	-12.99
346.759	16.38
347.142	25.88
347.525	40.79
347.908	43.95
348.291	80.34
348.674	95.48
349.057	131.41
349.44	128.02
349.823	133.67
350.206	169.37
350.588	171.63
350.971	195.59
351.354	200.56
351.737	238.75
352.119	236.04
352.502	244.4
352.884	271.97
353.267	272.87
353.65	267.45
354.032	282.59
354.414	269.48
354.797	289.82
355.179	274.91
355.562	303.61
355.944	324.62
356.326	315.58
356.709	316.71
357.091	306.55
357.473	327.56
357.855	327.56
358.238	312.2
358.62	313.78
359.002	324.85
359.384	316.04
359.766	326.43
360.148	335.25
360.53	312.65
360.912	303.83
361.294	308.13
361.676	307.22
362.057	315.13
362.439	331.63
362.821	324.4
363.203	313.1
363.584	311.52
363.966	286.89
364.348	321.46
364.729	320.56
365.111	295.7
365.493	309.26
365.874	278.75
366.256	291.18
366.637	284.63
367.019	283.27
367.4	293.44
367.781	321.69
368.163	294.79
368.544	308.81
368.925	294.57
369.306	304.74
369.688	299.31
370.069	288.47
370.45	280.33
370.831	289.82
371.212	278.98
371.593	311.29
371.974	291.86
372.355	285.3
372.736	301.35
373.117	293.89
373.498	298.64
373.879	306.55
374.26	290.5
374.641	328.24
375.021	309.94
375.402	301.12
375.783	301.57
376.163	327.34
376.544	295.92
376.925	315.58
377.305	316.49
377.686	311.07
378.066	305.19
378.447	309.03
378.827	309.26
379.208	323.27
379.588	314.23
379.968	321.69
380.349	306.32
380.729	298.41
381.109	311.52
381.489	326.21
381.87	316.71
382.25	317.62
382.63	326.21
383.01	341.57
383.39	315.81
383.77	340.22
384.15	325.98
384.53	319.43
384.91	336.15
385.29	318.75
385.67	312.87
386.049	328.01
386.429	338.64
386.809	319.88
387.189	309.26
387.568	330.95
387.948	335.7
388.328	321.23
388.707	340.22
389.087	331.4
389.466	348.35
389.846	324.62
390.225	345.19
390.605	330.27
390.984	330.05
391.363	334.12
391.743	355.81
392.122	344.51
392.501	342.93
392.881	334.12
393.26	347.67
393.639	372.98
394.018	334.79
394.397	351.74
394.776	362.14
395.155	356.94
395.534	355.58
395.913	339.09
396.292	359.43
396.671	375.47
397.05	366.43
397.429	354.23
397.808	341.8
398.186	377.28
398.565	384.51
398.944	364.4
399.323	349.93
399.701	371.85
400.08	367.33
400.458	372.08
400.837	392.65
401.215	401.01
401.594	367.56
401.972	398.52
402.351	379.54
402.729	394.23
403.107	406.88
403.486	398.75
403.864	396.71
404.242	391.52
404.62	381.8
404.999	385.64
405.377	393.1
405.755	399.88
406.133	388.58
406.511	409.59
406.889	408.69
407.267	382.02
407.645	408.92
408.023	416.83
408.401	438.75
408.779	424.96
409.156	430.38
409.534	425.64
409.912	424.06
410.29	427.67
410.667	431.97
411.045	438.07
411.422	436.49
411.8	436.49
412.178	441.91
412.555	443.49
412.933	433.32
413.31	455.47
413.687	469.03
414.065	487.78
414.442	466.77
414.819	457.73
415.197	478.97
415.574	446.43
415.951	488.01
416.328	475.58
416.705	487.11
417.082	471.74
417.46	480.55
417.837	474.68
418.214	464.73
418.591	467.45
418.967	473.32
419.344	482.81
419.721	478.97
420.098	485.52
420.475	493.43
420.852	490.72
421.228	509.03
421.605	498.63
421.982	512.42
422.358	496.6
422.735	503.6
423.111	520.78
423.488	530.49
423.864	520.33
424.241	543.83
424.617	528.23
424.994	533.43
425.37	505.86
425.746	540.21
426.123	537.73
426.499	525.52
426.875	554.22
427.251	544.28
427.627	551.96
428.003	555.35
428.379	567.78
428.756	561.23
429.132	578.63
429.507	570.95
429.883	586.54
430.259	591.28
430.635	588.35
431.011	598.06
431.387	604.62
431.763	609.81
432.138	627.89
432.514	622.02
432.89	591.28
433.265	630.6
433.641	629.7
434.016	645.75
434.392	635.8
434.767	645.75
435.143	649.59
435.518	680.1
435.894	669.7
436.269	652.07
436.644	668.12
437.02	662.47
437.395	670.15
437.77	692.52
438.145	701.56
438.52	701.56
438.895	677.84
439.271	692.75
439.646	736.14
440.021	705.86
440.395	729.13
440.77	706.76
441.145	705.18
441.52	725.97
441.895	743.14
442.27	728.91
442.645	741.11
443.019	737.95
443.394	736.59
443.769	743.14
444.143	756.7
444.518	769.58
444.892	772.75
445.267	768.91
445.641	779.3
446.016	757.61
446.39	772.3
446.764	772.3
447.139	789.47
447.513	782.69
447.887	794.44
448.262	772.97
448.636	815.68
449.01	810.94
449.384	833.76
449.758	806.87
450.132	829.24
450.506	826.98
450.88	844.16
451.254	809.81
451.628	859.75
452.002	864.05
452.376	853.2
452.75	854.78
453.123	852.75
453.497	857.49
453.871	873.54
454.244	895.68
454.618	922.8
454.992	917.38
455.365	889.81
455.739	912.63
456.112	937.94
456.486	948.56
456.859	943.82
457.232	944.04
457.606	943.14
457.979	966.19
458.352	973.87
458.725	986.75
459.099	1006.41
459.472	1004.83
459.845	1018.17
460.218	1009.35
460.591	1010.26
460.964	1051.84
461.337	1063.59
461.71	1065.17
462.083	1109.46
462.456	1087.99
462.829	1071.5
463.201	1103.81
463.574	1060.88
463.947	1093.19
464.32	1129.35
464.692	1097.03
465.065	1131.83
465.438	1156.92
465.81	1172.51
466.183	1204.38
466.555	1181.1
466.928	1209.35
467.3	1224.94
467.672	1218.39
468.045	1239.63
468.417	1247.76
468.789	1238.95
469.161	1278.95
469.534	1273.3
469.906	1295.67
470.278	1323.24
470.65	1337.93
471.022	1354.2
471.394	1393.75
471.766	1425.16
472.138	1387.2
472.51	1407.31
472.882	1432.84
473.253	1457.48
473.625	1437.36
473.997	1510.13
474.369	1489.11
474.74	1515.33
475.112	1543.35
475.484	1547.42
475.855	1606.62
476.227	1581.54
476.598	1623.35
476.97	1626.96
477.341	1670.13
477.713	1664.48
478.084	1711.93
478.455	1725.27
478.827	1747.41
479.198	1751.25
479.569	1781.76
479.94	1797.13
480.311	1845.49
480.682	1877.13
481.053	1934.07
481.424	1907.18
481.795	1927.52
482.166	1968.87
482.537	1977.01
482.908	2045.48
483.279	2053.17
483.65	2099.04
484.021	2116.22
484.391	2121.87
484.762	2120.74
485.133	2166.38
485.503	2197.57
485.874	2223.78
486.244	2270.34
486.615	2278.02
486.985	2338.36
487.356	2334.51
487.726	2352.59
488.097	2417.22
488.467	2457.68
488.837	2488.18
489.207	2490.89
489.578	2508.75
489.948	2565.7
490.318	2559.14
490.688	2572.02
491.058	2627.39
491.428	2680.04
491.798	2673.04
492.168	2688.18
492.538	2762.53
492.908	2747.16
493.278	2781.06
493.648	2771.34
494.017	2827.61
494.387	2856.99
494.757	2877.78
495.126	2915.52
495.496	2927.95
495.866	2931.56
496.235	2953.48
496.605	2970.66
496.974	3024.67
497.344	3031.45
497.713	3059.02
498.082	3062.86
498.452	3078.45
498.821	3110.09
499.19	3116.19
499.559	3134.72
499.928	3186.7
500.298	3180.37
500.667	3207.03
501.036	3212.68
501.405	3235.06
501.774	3225.56
502.143	3267.37
502.512	3275.96
502.88	3346.69
503.249	3320.03
503.618	3327.03
503.987	3369.06
504.356	3366.8
504.724	3412.68
505.093	3437.76
505.462	3438.44
505.83	3466.46
506.199	3493.13
506.567	3530.87
506.936	3503.3
507.304	3566.12
507.672	3591.66
508.041	3599.34
508.409	3635.27
508.777	3630.3
509.145	3656.29
509.514	3693.12
509.882	3708.49
510.25	3716.17
510.618	3776.96
510.986	3766.34
511.354	3871.88
511.722	3822.84
512.09	3863.74
512.458	3856.96
512.826	3903.06
513.193	3920.91
513.561	3928.37
513.929	3931.76
514.297	3985.32
514.664	4007.01
515.032	3993.45
515.4	4059.44
515.767	4065.32
516.135	4114.58
516.502	4091.76
516.869	4133.56
517.237	4176.73
517.604	4202.49
517.972	4201.13
518.339	4243.84
518.706	4250.62
519.073	4266.22
519.44	4301.24
519.808	4347.8
520.175	4383.05
520.542	4334.91
520.909	4436.83
521.276	4433.22
521.643	4464.63
522.009	4466.21
522.376	4517.28
522.743	4550.95
523.11	4562.03
523.477	4656.71
523.843	4681.12
524.21	4704.17
524.577	4745.07
524.943	4776.48
525.31	4768.12
525.676	4822.59
526.043	4843.15
526.409	4836.37
526.776	4948.91
527.142	4931.51
527.508	4935.12
527.874	5002.92
528.241	4990.04
528.607	5066.42
528.973	5078.85
529.339	5111.39
529.705	5148.9
530.071	5190.48
530.437	5155.23
530.803	5181.9
531.169	5238.39
531.535	5239.98
531.901	5278.17
532.267	5317.26
532.632	5379.63
532.998	5345.06
533.364	5403.13
533.73	5393.64
534.095	5470.48
534.461	5464.38
534.826	5479.97
535.192	5450.59
535.557	5556.8
535.923	5514.32
536.288	5623.24
536.653	5636.8
537.019	5643.81
537.384	5620.98
537.749	5688.78
538.114	5667.76
538.479	5751.83
538.845	5749.57
539.21	5745.5
539.575	5756.57
539.94	5834.08
540.305	5849.22
540.67	5832.73
541.034	5869.34
541.399	5890.58
541.764	5934.42
542.129	5958.6
542.494	6009.67
542.858	5978.71
543.223	5976
543.587	6041.31
543.952	6055.55
544.316	6048.77
544.681	6075.89
545.045	6133.51
545.41	6158.6
545.774	6151.82
546.138	6164.47
546.503	6267.74
546.867	6252.38
547.231	6357.46
547.595	6281.3
547.959	6342.55
548.324	6343.22
548.688	6364.92
549.052	6453.73
549.416	6427.74
549.779	6428.42
550.143	6504.12
550.507	6482.88
550.871	6480.39
551.235	6561.07
551.599	6608.75
551.962	6622.76
552.326	6622.76
552.689	6614.85
553.053	6680.39
553.417	6688.75
553.78	6809.88
554.143	6731.46
554.507	6771.69
554.87	6725.59
555.234	6894.85
555.597	6839.71
555.96	6889.65
556.323	6927.61
556.686	6898.01
557.05	6899.37
557.413	6982.98
557.776	7013.04
558.139	7093.49
558.502	7085.12
558.865	7056.2
559.228	7078.34
559.59	7152.69
559.953	7197.66
560.316	7203.31
560.679	7248.06
561.041	7336.19
561.404	7297.1
561.767	7380.48
562.129	7386.59
562.492	7422.06
562.854	7422.97
563.217	7465
563.579	7548.16
563.941	7544.32
564.304	7514.72
564.666	7580.03
565.028	7592.91
565.39	7582.06
565.753	7666.58
566.115	7687.37
566.477	7746.8
566.839	7776.86
567.201	7748.38
567.563	7782.73
567.925	7854.82
568.287	7871.32
568.648	7872
569.01	7965.78
569.372	7948.6
569.734	8004.42
570.095	8020.92
570.457	8075.61
570.819	8051.88
571.18	8039.45
571.542	8101.14
571.903	8176.4
572.265	8187.47
572.626	8173.68
572.987	8284.41
573.349	8203.74
573.71	8255.49
574.071	8249.84
574.432	8322.83
574.794	8376.84
575.155	8384.98
575.516	8349.95
575.877	8354.92
576.238	8356.5
576.599	8433.11
576.96	8422.26
577.32	8466.78
577.681	8458.2
578.042	8527.8
578.403	8453.68
578.763	8549.94
579.124	8491.19
579.485	8598.08
579.845	8577.29
580.206	8628.36
580.566	8576.84
580.927	8568.93
581.287	8697.29
581.648	8624.07
582.008	8666.78
582.368	8657.74
582.728	8730.96
583.089	8690.96
583.449	8643.05
583.809	8675.82
584.169	8704.97
584.529	8704.52
584.889	8700
585.249	8686.89
585.609	8663.61
585.969	8763.05
586.329	8669.26
586.688	8700.45
587.048	8757.4
587.408	8707.91
587.768	8746.32
588.127	8683.5
588.487	8718.08
588.846	8794.23
589.206	8757.17
589.565	8734.12
589.925	8725.99
590.284	8748.13
590.643	8768.02
591.003	8759.88
591.362	8738.19
591.721	8773.22
592.08	8805.76
592.44	8822.93
592.799	8746.78
593.158	8812.99
593.517	8817.73
593.876	8842.14
594.235	8810.28
594.593	8801.46
594.952	8828.58
595.311	8795.14
595.67	8857.96
596.029	8889.6
596.387	8909.94
596.746	8827.45
597.104	8876.26
597.463	8899.54
597.822	8875.36
598.18	8884.4
598.538	8874
598.897	8882.59
599.255	8819.77
599.613	8989.03
599.972	8947
600.33	8901.35
600.688	8896.83
601.046	8913.32
601.404	8970.95
601.762	8933.21
602.12	8941.35
602.478	9011.85
602.836	8970.72
603.194	8841.69
603.552	8887.56
603.91	8957.17
604.268	8920.1
604.625	8914.45
604.983	9016.15
605.341	8966.2
605.698	9065.64
606.056	8999.2
606.413	8978.18
606.771	9037.62
607.128	9057.05
607.485	8965.53
607.843	8959.65
608.2	9023.83
608.557	9025.86
608.914	9016.15
609.272	9096.37
609.629	9086.65
609.986	9099.08
610.343	9119.2
610.7	9179.08
611.057	9113.32
611.414	9191.74
611.771	9050.72
612.127	9158.97
612.484	9144.51
612.841	9219.98
613.198	9103.15
613.554	9178.4
613.911	9265.18
614.267	9246.65
614.624	9208.91
614.98	9263.15
615.337	9249.14
615.693	9244.39
616.05	9243.49
616.406	9328
616.762	9338.17
617.118	9255.69
617.475	9347.44
617.831	9338.85
618.187	9316.25
618.543	9305.86
618.899	9340.66
619.255	9346.53
619.611	9372.52
619.967	9386.53
620.323	9392.18
620.678	9318.06
621.034	9317.61
621.39	9366.65
621.746	9381.11
622.101	9392.63
622.457	9391.28
622.812	9433.31
623.168	9408.45
623.523	9457.27
623.879	9474.44
624.234	9379.53
624.589	9380.43
624.945	9432.63
625.3	9428.57
625.655	9376.82
626.01	9429.02
626.365	9423.59
626.72	9385.18
627.075	9415.46
627.43	9450.49
627.785	9439.64
628.14	9409.13
628.495	9435.57
628.85	9422.92
629.205	9388.57
629.559	9415.23
629.914	9399.64
630.269	9384.5
630.623	9367.32
630.978	9365.74
631.332	9349.92
631.687	9410.49
632.041	9433.09
632.396	9401
632.75	9383.14
633.104	9403.48
633.459	9261.79
633.813	9316.48
634.167	9343.6
634.521	9330.26
634.875	9236.48
635.229	9332.07
635.583	9235.35
635.937	9283.03
636.291	9256.82
636.645	9293.88
636.999	9294.56
637.352	9299.3
637.706	9230.83
638.06	9301.56
638.413	9292.98
638.767	9259.98
639.121	9309.92
639.474	9205.52
639.828	9187.67
640.181	9239.64
640.534	9235.35
640.888	9139.08
641.241	9132.53
641.594	9139.08
641.947	9206.42
642.301	9182.02
642.654	9233.77
643.007	9250.72
643.36	9143.83
643.713	9214.33
644.066	9152.64
644.419	9122.81
644.771	9058.63
645.124	9038.52
645.477	9023.83
645.83	8970.5
646.182	8969.82
646.535	8899.09
646.888	8911.29
647.24	8831.29
647.593	8959.43
647.945	8910.84
648.298	8846.89
648.65	8863.83
649.002	8825.64
649.355	8857.73
649.707	8878.07
650.059	8939.31
650.411	8993.55
650.763	9034.9
651.115	9121.91
651.467	9087.33
651.819	9073.32
652.171	9130.04
652.523	9105.64
652.875	9037.39
653.227	9037.16
653.578	9138.86
653.93	9159.19
654.282	9029.03
654.633	9040.33
654.985	8972.76
655.337	9019.31
655.688	9077.84
656.039	9059.99
656.391	8993.1
656.742	9011.18
657.094	9071.51
657.445	9109.25
657.796	9088.01
658.147	9041.91
658.498	9040.33
658.849	9035.81
659.2	9083.49
659.551	9064.28
659.902	9041.68
660.253	9085.3
660.604	9008.46
660.955	9037.39
661.306	9059.08
661.656	9061.8
662.007	9037.62
662.358	9073.32
662.708	9017.5
663.059	9003.49
663.409	8980.22
663.76	9019.08
664.11	9096.37
664.461	9111.06
664.811	9088.46
665.161	9022.7
665.511	9077.84
665.862	9048.24
666.212	8999.42
666.562	9035.58
666.912	9048.01
667.262	9026.32
667.612	8997.84
667.962	9055.69
668.312	9042.36
668.662	9066.77
669.011	9073.77
669.361	9057.5
669.711	9026.99
670.06	8998.97
670.41	8980.67
670.76	9000.78
671.109	9029.93
671.459	8966.88
671.808	8932.99
672.157	8993.1
672.507	8942.48
672.856	8980.67
673.205	9006.66
673.554	8963.49
673.904	8961.46
674.253	8988.13
674.602	8943.83
674.951	8884.63
675.3	8786.1
675.649	8932.31
675.998	8942.48
676.346	8952.87
676.695	8943.15
677.044	8860.67
677.393	8943.61
677.741	8919.43
678.09	8850.95
678.438	8841.91
678.787	8840.33
679.135	8932.99
679.484	8867.22
679.832	8843.04
680.181	8829.71
680.529	8796.49
680.877	8791.29
681.225	8785.19
681.573	8764.4
681.922	8766.89
682.27	8752.65
682.618	8689.15
682.966	8732.99
683.314	8730.5
683.661	8612.32
684.009	8634.46
684.357	8615.93
684.705	8684.18
685.053	8709.71
685.4	8617.06
685.748	8639.21
686.095	8601.47
686.443	8588.36
686.79	8524.41
687.138	8585.2
687.485	8492.09
687.832	8589.49
688.18	8482.83
688.527	8514.01
688.874	8491.87
689.221	8404.86
689.568	8457.74
689.915	8382.27
690.262	8399.67
690.609	8396.28
690.956	8353.34
691.303	8323.06
691.65	8301.82
691.997	8327.35
692.344	8288.71
692.69	8290.74
693.037	8245.09
693.383	8175.49
693.73	8236.05
694.077	8114.93
694.423	8131.88
694.769	8105.21
695.116	8076.74
695.462	8018.89
695.808	8070.64
696.155	8076.51
696.501	7963.75
696.847	8040.35
697.193	7912.45
697.539	7973.46
697.885	7879.45
698.231	7862.96
698.577	7885.1
698.923	7856.86
699.269	7791.09
699.614	7752
699.96	7782.96
700.306	7732.57
700.651	7699.8
700.997	7740.7
701.342	7731.44
701.688	7684.88
702.033	7680.14
702.379	7661.15
702.724	7592.91
703.069	7601.72
703.415	7497.09
703.76	7556.3
704.105	7500.48
704.45	7505
704.795	7493.7
705.14	7390.43
705.485	7422.74
705.83	7398.11
706.175	7385
706.52	7377.55
706.865	7382.52
707.209	7303.65
707.554	7275.63
707.899	7345.68
708.243	7228.62
708.588	7270.66
708.932	7234.95
709.277	7250.09
709.621	7213.03
709.966	7180.26
710.31	7189.75
710.654	7125.12
710.998	7125.35
711.342	7143.43
711.687	7132.13
712.031	7165.35
712.375	7032.92
712.719	7090.77
713.063	7093.71
713.407	7095.75
713.75	7027.72
714.094	7062.98
714.438	6975.07
714.782	6995.18
715.125	7045.13
715.469	6997.67
715.812	6949.53
716.156	6948.18
716.499	6976.65
716.843	6942.08
717.186	6869.76
717.53	6927.84
717.873	6930.33
718.216	6946.15
718.559	6920.38
718.902	6873.83
719.246	6914.51
719.589	6824.57
719.932	6852.14
720.275	6845.36
720.617	6822.31
720.96	6846.94
721.303	6860.27
721.646	6866.83
721.989	6778.24
722.331	6829.76
722.674	6768.97
723.016	6822.08
723.359	6824.34
723.701	6817.33
724.044	6792.93
724.386	6716.09
724.729	6718.81
725.071	6789.09
725.413	6840.16
725.755	6791.35
726.097	6715.64
726.439	6703.67
726.782	6759.71
727.124	6763.78
727.465	6678.81
727.807	6686.49
728.149	6729.88
728.491	6776.21
728.833	6751.12
729.175	6735.98
729.516	6706.38
729.858	6726.49
730.199	6714.29
730.541	6700.95
730.882	6742.53
731.224	6779.14
731.565	6645.59
731.906	6740.05
732.248	6754.74
732.589	6699.82
732.93	6688.98
733.271	6705.25
733.612	6683.55
733.953	6676.55
734.294	6695.53
734.635	6672.25
734.976	6670.67
735.317	6731.24
735.658	6696.89
735.999	6712.03
736.339	6676.1
736.68	6664.12
737.021	6699.37
737.361	6632.03
737.702	6693.27
738.042	6648.98
738.383	6669.09
738.723	6680.39
739.063	6652.37
739.404	6682.2
739.744	6657.11
740.084	6637.68
740.424	6626.83
740.764	6629.32
741.104	6629.09
741.444	6610.79
741.784	6631.13
742.124	6677.9
742.464	6662.99
742.804	6599.71
743.143	6652.82
743.483	6617.11
743.823	6558.13
744.162	6645.59
744.502	6656.66
744.841	6599.49
745.181	6566.04
745.52	6606.72
745.86	6670.67
746.199	6609.88
746.538	6544.8
746.877	6617.34
747.216	6616.21
747.556	6655.98
747.895	6601.75
748.234	6575.53
748.573	6607.4
748.911	6598.58
749.25	6610.56
749.589	6573.5
749.928	6569.66
750.267	6596.78
750.605	6527.17
750.944	6555.19
751.283	6530.56
751.621	6554.97
751.96	6548.87
752.298	6519.94
752.636	6479.04
752.975	6453.95
753.313	6452.15
753.651	6526.5
753.989	6480.85
754.327	6494.86
754.666	6455.99
755.004	6485.82
755.342	6473.84
755.679	6508.42
756.017	6515.42
756.355	6445.59
756.693	6502.31
757.031	6391.36
757.368	6397.68
757.706	6436.78
758.044	6395.2
758.381	6332.6
758.719	6363.56
759.056	6381.19
759.394	6333.51
759.731	6313.85
760.068	6319.49
760.405	6301.42
760.743	6295.09
761.08	6275.2
761.417	6243.34
761.754	6240.17
762.091	6223.68
762.428	6209.67
762.765	6123.12
763.102	6201.53
763.438	6188.2
763.775	6154.3
764.112	6129.44
764.449	6131.7
764.785	6106.17
765.122	6088.54
765.458	6033.17
765.795	6103.46
766.131	6060.97
766.467	6050.12
766.804	5993.18
767.14	5984.14
767.476	5956.34
767.812	6014.87
768.148	5959.05
768.485	5933.97
768.821	5897.13
769.157	5889.45
769.492	5890.58
769.828	5865.5
770.164	5801.99
770.5	5852.61
770.836	5794.54
771.171	5818.27
771.507	5802.67
771.842	5755.89
772.178	5684.26
772.513	5670.7
772.849	5700.75
773.184	5704.37
773.519	5667.31
773.855	5697.82
774.19	5633.41
774.525	5603.58
774.86	5557.26
775.195	5603.13
775.53	5529.23
775.865	5512.06
776.2	5440.2
776.535	5505.96
776.87	5455.34
777.205	5430.03
777.539	5449.69
777.874	5433.64
778.209	5425.96
778.543	5403.36
778.878	5400.87
779.212	5362.91
779.547	5358.84
779.881	5367.2
780.215	5264.61
780.55	5300.99
780.884	5289.24
781.218	5231.84
781.552	5256.47
781.886	5193.65
782.22	5192.29
782.554	5201.78
782.888	5173.99
783.222	5161.56
783.556	5162.24
783.889	5111.17
784.223	5084.05
784.557	5051.51
784.89	5065.06
785.224	5061.22
785.557	5025.52
785.891	5006.76
786.224	4976.93
786.558	4999.08
786.891	4974.67
787.224	4957.95
787.557	4935.35
787.891	4931.06
788.224	4905.07
788.557	4946.2
788.89	4904.16
789.223	4913.66
789.556	4845.41
789.888	4836.14
790.221	4798.86
790.554	4823.94
790.887	4841.34
791.219	4762.93
791.552	4731.97
791.884	4759.76
792.217	4746.65
792.549	4742.36
792.882	4704.85
793.214	4687.9
793.546	4656.94
793.879	4674.11
794.211	4639.54
794.543	4648.13
794.875	4589.37
795.207	4666.88
795.539	4628.24
795.871	4625.08
796.203	4546.21
796.535	4554.57
796.867	4564.96
797.198	4540.33
797.53	4513.44
797.862	4463.05
798.193	4523.16
798.525	4464.4
798.856	4493.78
799.188	4437.74
799.519	4406.78
799.85	4428.47
800.182	4432.31
800.513	4427.12
800.844	4341.69
801.175	4373.78
801.506	4397.74
801.837	4349.15
802.168	4382.14
802.499	4382.6
802.83	4311.86
803.161	4318.19
803.491	4298.76
803.822	4300.56
804.153	4252.66
804.483	4313.67
804.814	4226.44
805.145	4210.4
805.475	4221.47
805.805	4182.38
806.136	4170.85
806.466	4227.35
806.796	4198.19
807.126	4148.48
807.457	4123.39
807.787	4167.24
808.117	4165.43
808.447	4144.41
808.777	4139.67
809.107	4108.71
809.436	4110.97
809.766	4101.93
810.096	4070.74
810.426	4042.72
810.755	4087.46
811.085	4103.96
811.414	4061.02
811.744	4009.95
812.073	4033.91
812.403	4016.96
812.732	4054.24
813.061	4016.05
813.39	3946.45
813.719	3945.32
814.049	4022.61
814.378	3963.62
814.707	3978.77
815.036	3974.92
815.365	3935.15
815.693	3918.88
816.022	3909.61
816.351	3934.25
816.68	3865.32
817.008	3896.28
817.337	3866.68
817.665	3868.03
817.994	3833.68
818.322	3841.14
818.651	3842.05
818.979	3854.7
819.307	3836.85
819.636	3830.75
819.964	3774.48
820.292	3802.72
820.62	3840.01
820.948	3836.85
821.276	3797.3
821.604	3786.23
821.932	3820.13
822.259	3748.04
822.587	3794.82
822.915	3798.66
823.243	3829.39
823.57	3786.68
823.898	3795.04
824.225	3778.77
824.553	3771.54
824.88	3749.62
825.207	3804.98
825.535	3779.22
825.862	3786.91
826.189	3772.44
826.516	3809.5
826.843	3801.14
827.17	3748.04
827.497	3820.35
827.824	3796.85
828.151	3792.1
828.478	3767.7
828.805	3790.3
829.131	3798.43
829.458	3784.42
829.785	3741.03
830.111	3797.75
830.438	3780.35
830.764	3735.16
831.09	3824.19
831.417	3750.52
831.743	3804.08
832.069	3740.81
832.395	3777.64
832.722	3803.85
833.048	3770.64
833.374	3775.38
833.7	3754.14
834.026	3746.23
834.351	3795.27
834.677	3759.11
835.003	3743.52
835.329	3725.44
835.654	3728.15
835.98	3721.37
836.306	3720.24
836.631	3697.19
836.956	3707.59
837.282	3738.55
837.607	3690.86
837.932	3770.41
838.258	3703.74
838.583	3721.15
838.908	3681.15
839.233	3710.52
839.558	3694.48
839.883	3694.25
840.208	3662.84
840.533	3622.62
840.858	3660.58
841.182	3622.62
841.507	3661.94
841.832	3635.27
842.156	3643.86
842.481	3607.93
842.805	3635.5
843.13	3608.15
843.454	3640.47
843.778	3565.44
844.103	3585.78
844.427	3583.07
844.751	3548.95
845.075	3623.07
845.399	3572.9
845.723	3555.73
846.047	3555.95
846.371	3483.86
846.695	3530.87
847.019	3491.09
847.343	3473.69
847.666	3477.99
847.99	3481.38
848.313	3459.46
848.637	3440.93
848.96	3437.76
849.284	3418.78
849.607	3376.97
849.931	3365.22
850.254	3357.76
850.577	3385.79
850.9	3326.13
851.223	3365.22
851.546	3344.21
851.869	3260.82
852.192	3298.33
852.515	3300.59
852.838	3306.69
853.161	3264.89
853.483	3263.76
853.806	3275.51
854.129	3240.03
854.451	3197.09
854.774	3220.82
855.096	3237.77
855.419	3219.24
855.741	3211.78
856.063	3181.27
856.385	3151.67
856.708	3141.95
857.03	3175.4
857.352	3207.26
857.674	3151.89
857.996	3125.23
858.318	3083.2
858.64	3146.7
858.961	3109.41
859.283	3098.79
859.605	3070.09
859.926	3113.93
860.248	3083.42
860.57	3086.36
860.891	3078.9
861.212	3033.25
861.534	3106.25
861.855	3069.41
862.176	3070.31
862.498	3072.12
862.819	3063.99
863.14	3075.29
863.461	3021.28
863.782	3016.76
864.103	3023.31
864.424	3039.58
864.745	2974.95
865.065	2978.11
865.386	3003.65
865.707	3000.49
866.027	2978.11
866.348	2990.54
866.668	2999.58
866.989	2975.4
867.309	2942.86
867.63	2967.72
867.95	2971.11
868.27	2964.55
868.59	2960.49
868.91	2917.1
869.23	2962.29
869.55	2927.72
869.87	2932.01
870.19	2992.58
870.51	2904.67
870.83	2935.4
871.15	2911.22
871.469	2917.78
871.789	2926.82
872.109	2910.32
872.428	2865.35
872.748	2928.17
873.067	2887.72
873.386	2856.08
873.706	2888.17
874.025	2911.22
874.344	2876.65
874.663	2867.61
874.982	2864.9
875.301	2868.29
875.62	2831.68
875.939	2849.08
876.258	2844.33
876.577	2846.82
876.896	2823.54
877.214	2845.69
877.533	2850.21
877.852	2821.06
878.17	2836.65
878.489	2872.35
878.807	2854.73
879.125	2803.66
879.444	2842.98
879.762	2805.91
880.08	2820.38
880.398	2781.28
880.716	2792.58
881.034	2781.51
881.352	2821.51
881.67	2780.83
881.988	2763.66
882.306	2803.43
882.624	2728.4
882.941	2763.43
883.259	2778.35
883.577	2765.01
883.894	2760.04
884.212	2705.13
884.529	2747.84
884.846	2724.34
885.164	2698.35
885.481	2666.71
885.798	2713.04
886.115	2701.96
886.432	2691.12
886.75	2701.51
887.067	2687.95
887.383	2694.96
887.7	2658.8
888.017	2690.21
888.334	2653.6
888.651	2690.21
888.967	2638.91
889.284	2660.38
889.6	2632.36
889.917	2661.51
890.233	2626.26
890.55	2629.2
890.866	2630.78
891.182	2607.5
891.498	2607.95
891.815	2577.67
892.131	2579.03
892.447	2598.69
892.763	2556.88
893.079	2554.17
893.395	2549.2
893.71	2567.05
894.026	2530.22
894.342	2525.92
894.657	2519.14
894.973	2518.46
895.289	2552.14
895.604	2487.96
895.92	2533.15
896.235	2508.97
896.55	2508.07
896.865	2470.56
897.181	2496.09
897.496	2480.5
897.811	2493.15
898.126	2497.45
898.441	2464.68
898.756	2457.22
899.071	2449.77
899.386	2431.46
899.7	2412.7
900.015	2427.17
900.33	2405.7
900.644	2379.49
900.959	2423.55
901.273	2425.13
901.588	2394.63
901.902	2367.51
902.216	2384.23
902.531	2361.63
902.845	2347.4
903.159	2332.03
903.473	2346.94
903.787	2345.14
904.101	2324.8
904.415	2337.23
904.729	2342.2
905.042	2311.92
905.356	2281.18
905.67	2252.48
905.984	2299.04
906.297	2279.15
906.611	2292.26
906.924	2291.13
907.237	2241.41
907.551	2240.28
907.864	2223.33
908.177	2266.72
908.491	2255.65
908.804	2233.27
909.117	2188.3
909.43	2195.31
909.743	2198.25
910.056	2213.16
910.368	2199.15
910.681	2159.6
910.994	2162.77
911.307	2142.2
911.619	2156.67
911.932	2170.23
912.244	2130.68
912.557	2110.57
912.869	2134.07
913.181	2101.98
913.494	2102.2
913.806	2077.57
914.118	2104.69
914.43	2100.85
914.742	2064.69
915.054	2060.17
915.366	2063.34
915.678	2048.87
915.99	2035.99
916.302	2027.86
916.613	2036.9
916.925	2000.51
917.236	2024.69
917.548	1973.62
917.859	2004.81
918.171	1996.44
918.482	1992.6
918.794	1954.64
919.105	1948.31
919.416	1957.58
919.727	1950.34
920.038	1933.85
920.349	1975.43
920.66	1921.42
920.971	1933.62
921.282	1923.23
921.593	1906.73
921.903	1903.11
922.214	1918.25
922.525	1886.62
922.835	1897.69
923.146	1882.78
923.456	1857.01
923.767	1886.39
924.077	1873.96
924.387	1870.35
924.697	1856.11
925.008	1854.75
925.318	1836.9
925.628	1825.6
925.938	1839.84
926.248	1834.87
926.558	1820.4
926.867	1831.48
927.177	1813.17
927.487	1805.72
927.796	1767.52
928.106	1785.15
928.416	1797.81
928.725	1756.23
929.034	1732.95
929.344	1769.33
929.653	1729.33
929.962	1739.95
930.271	1748.54
930.581	1730.24
930.89	1751.71
931.199	1739.95
931.508	1707.19
931.817	1699.73
932.125	1742.89
932.434	1742.67
932.743	1713.06
933.051	1694.76
933.36	1664.02
933.669	1669
933.977	1647.53
934.286	1675.78
934.594	1672.16
934.902	1656.57
935.21	1623.8
935.519	1642.1
935.827	1634.19
936.135	1625.83
936.443	1624.7
936.751	1627.87
937.059	1592.39
937.367	1605.95
937.674	1600.52
937.982	1626.74
938.29	1606.85
938.597	1598.72
938.905	1565.04
939.213	1572.28
939.52	1538.38
939.827	1577.25
940.135	1534.54
940.442	1589.45
940.749	1544.25
941.056	1559.39
941.363	1510.58
941.67	1517.81
941.977	1520.98
942.284	1521.65
942.591	1490.47
942.898	1490.92
943.205	1494.09
943.511	1497.47
943.818	1496.57
944.125	1492.73
944.431	1484.14
944.738	1511.49
945.044	1459.06
945.35	1482.11
945.657	1461.54
945.963	1451.15
946.269	1447.08
946.575	1417.93
946.881	1458.38
947.187	1421.09
947.493	1438.72
947.799	1418.38
948.105	1426.74
948.41	1411.83
948.716	1419.28
949.022	1372.96
949.327	1415.89
949.633	1400.98
949.938	1406.63
950.244	1394.2
950.549	1390.58
950.854	1365.05
951.16	1355.78
951.465	1367.31
951.77	1367.53
952.075	1352.17
952.38	1359.4
952.685	1340.87
952.99	1345.84
953.294	1333.64
953.599	1353.3
953.904	1314.65
954.209	1309.91
954.513	1309.23
954.818	1304.26
955.122	1317.37
955.426	1313.98
955.731	1326.63
956.035	1311.26
956.339	1299.74
956.643	1285.28
956.948	1297.71
957.252	1287.76
957.556	1307.2
957.86	1282.79
958.163	1270.81
958.467	1278.5
958.771	1251.61
959.075	1264.94
959.378	1254.77
959.682	1251.15
959.985	1236.69
960.289	1212.96
960.592	1262.45
960.896	1211.61
961.199	1240.53
961.502	1215
961.805	1212.51
962.108	1216.58
962.411	1190.82
962.714	1184.04
963.017	1197.6
963.32	1206.63
963.623	1197.37
963.926	1203.47
964.228	1167.31
964.531	1175.22
964.833	1162.79
965.136	1187.2
965.438	1172.51
965.741	1156.69
966.043	1158.27
966.345	1183.81
966.648	1169.57
966.95	1150.59
967.252	1149.91
967.554	1152.4
967.856	1134.09
968.158	1128.67
968.46	1133.64
968.761	1139.07
969.063	1127.54
969.365	1116.47
969.666	1095.68
969.968	1085.28
970.269	1101.78
970.571	1100.65
970.872	1106.07
971.174	1095.23
971.475	1097.03
971.776	1119.63
972.077	1070.37
972.378	1105.39
972.679	1093.42
972.98	1090.71
973.281	1074.66
973.582	1093.87
973.883	1085.28
974.183	1068.11
974.484	1061.55
974.785	1048.67
975.085	1057.94
975.386	1055.45
975.686	1043.48
975.986	1064.49
976.287	1030.59
976.587	1038.96
976.887	1027.2
977.187	1019.75
977.487	1012.06
977.787	1030.37
978.087	1027.43
978.387	1020.65
978.687	1031.5
978.987	1009.13
979.286	987.21
979.586	1011.61
979.885	987.66
980.185	1001.67
980.484	960.09
980.784	992.86
981.083	983.82
981.382	981.78
981.682	993.31
981.981	980.65
982.28	987.88
982.579	967.55
982.878	970.48
983.177	962.8
983.475	980.2
983.774	951.5
984.073	962.12
984.372	949.69
984.67	933.42
984.969	921.22
985.267	924.16
985.566	926.87
985.864	942.46
986.162	952.86
986.461	931.39
986.759	929.81
987.057	901.78
987.355	940.43
987.653	907.43
987.951	913.99
988.249	925.74
988.547	914.44
988.844	898.85
989.142	900.43
989.44	879.86
989.737	901.56
990.035	862.01
990.332	890.94
990.63	887.55
990.927	877.6
991.224	895
991.521	888.9
991.819	866.3
992.116	888.9
992.413	881.9
992.71	879.86
993.006	855.68
993.303	871.95
993.6	880.09
993.897	854.33
994.193	848.23
994.49	842.58
994.787	843.71
995.083	839.19
995.379	845.97
995.676	837.61
995.972	826.53
996.268	839.86
996.565	848.45
996.861	808.91
997.157	829.92
997.453	843.71
997.749	824.5
998.044	822.24
998.34	823.59
998.636	793.09
998.932	802.13
999.227	810.49
999.523	795.8
999.818	802.8
1000.114	809.36
1000.409	801.9
1000.704	798.51
1001	795.12
1001.295	779.53
1001.59	772.97
1001.885	779.08
1002.18	777.27
1002.475	779.3
1002.77	777.27
1003.065	750.83
1003.359	783.82
1003.654	759.42
1003.949	755.57
1004.243	772.75
1004.538	747.21
1004.832	764.61
1005.127	754.67
1005.421	730.26
1005.715	755.35
1006.009	750.38
1006.304	734.33
1006.598	743.82
1006.892	719.42
1007.186	735.23
1007.48	732.98
1007.773	716.25
1008.067	721.22
1008.361	704.05
1008.655	706.54
1008.948	714.67
1009.242	718.29
1009.535	720.32
1009.829	688
1010.122	699.53
1010.415	686.87
1010.708	709.92
1011.001	688.46
1011.295	706.08
1011.588	704.73
1011.881	689.59
1012.173	649.36
1012.466	664.73
1012.759	673.09
1013.052	653.88
1013.344	683.26
1013.637	679.87
1013.93	663.15
1014.222	664.5
1014.514	655.91
1014.807	678.97
1015.099	667.44
1015.391	643.94
1015.683	652.07
1015.976	656.59
1016.268	639.64
1016.56	634.45
1016.851	631.96
1017.143	637.61
1017.435	636.25
1017.727	631.73
1018.018	605.07
1018.31	624.05
1018.602	619.98
1018.893	641.68
1019.185	631.28
1019.476	620.66
1019.767	621.11
1020.058	626.99
1020.35	635.35
1020.641	620.44
1020.932	585.86
1021.223	596.71
1021.514	582.92
1021.804	598.74
1022.095	583.83
1022.386	617.95
1022.677	610.49
1022.967	606.2
1023.258	582.47
1023.548	589.25
1023.839	589.93
1024.129	564.84
1024.419	588.57
1024.709	574.11
1025	577.72
1025.29	575.47
1025.58	587.22
1025.87	568.91
1026.16	584.28
1026.449	581.57
1026.739	552.64
1027.029	567.56
1027.319	550.61
1027.608	547.22
1027.898	555.13
1028.187	538.63
1028.477	556.71
1028.766	535.01
1029.055	545.64
1029.344	558.97
1029.634	546.31
1029.923	518.07
1030.212	538.4
1030.501	551.51
1030.79	525.97
1031.078	539.31
1031.367	544.96
1031.656	528.01
1031.945	524.84
1032.233	520.1
1032.522	535.01
1032.81	520.1
1033.099	529.36
1033.387	513.55
1033.675	497.95
1033.963	534.79
1034.251	516.48
1034.54	506.09
1034.828	498.18
1035.116	515.13
1035.403	511.51
1035.691	524.84
1035.979	502.7
1036.267	502.25
1036.554	498.4
1036.842	522.36
1037.129	497.5
1037.417	469.25
1037.704	494.79
1037.992	494.79
1038.279	479.65
1038.566	484.62
1038.853	484.62
1039.14	484.62
