Data from mousepad_grey_FLMS001491_00011.txt Node
Date: Wed Feb 08 14:29:02 GMT 2017
User: dcchb
Spectrometer: FLMS00149
Trigger mode: 0
Integration Time (sec): 2.000000E-2
Scans to average: 10
Electric dark correction enabled: true
Nonlinearity correction enabled: false
Boxcar width: 0
XAxis mode: Wavelengths
Number of Pixels in Spectrum: 2048
>>>>>Begin Spectral Data<<<<<
341.393	-15.61
341.776	-15.61
342.16	-15.61
342.543	-68.71
342.927	-54.93
343.31	-69.62
343.693	-59
344.077	-85.89
344.46	-59
344.843	-49.28
345.226	-40.92
345.61	-37.98
345.993	-1.14
346.376	-23.52
346.759	23.71
347.142	12.87
347.525	51.51
347.908	66.65
348.291	60.32
348.674	98.97
349.057	112.3
349.44	129.47
349.823	148
350.206	167.21
350.588	195.01
350.971	199.98
351.354	197.04
351.737	226.19
352.119	239.75
352.502	247.89
352.884	247.89
353.267	262.8
353.65	283.59
354.032	290.83
354.414	308.45
354.797	303.48
355.179	319.75
355.562	314.1
355.944	307.77
356.326	318.17
356.709	329.02
357.091	319.98
357.473	316.81
357.855	323.59
358.238	331.5
358.62	314.33
359.002	320.43
359.384	324.05
359.766	352.07
360.148	329.92
360.53	325.85
360.912	324.72
361.294	309.13
361.676	327.21
362.057	319.53
362.439	286.98
362.821	305.06
363.203	314.1
363.584	306.87
363.966	309.36
364.348	320.2
364.729	321.11
365.111	296.02
365.493	293.31
365.874	295.12
366.256	309.58
366.637	300.77
367.019	297.61
367.4	292.86
367.781	302.12
368.163	298.96
368.544	300.54
368.925	300.54
369.306	290.83
369.688	297.83
370.069	290.15
370.45	283.59
370.831	292.86
371.212	296.02
371.593	300.99
371.974	298.28
372.355	288.11
372.736	294.44
373.117	315.68
373.498	293.09
373.879	291.73
374.26	303.48
374.641	286.08
375.021	302.58
375.402	293.99
375.783	314.55
376.163	311.39
376.544	320.88
376.925	313.2
377.305	288.57
377.686	317.72
378.066	294.67
378.447	323.14
378.827	310.03
379.208	312.29
379.588	331.28
379.968	304.38
380.349	306.42
380.729	329.24
381.109	320.2
381.489	306.19
381.87	311.39
382.25	300.54
382.63	319.07
383.01	312.07
383.39	326.3
383.77	318.17
384.15	310.49
384.53	314.78
384.91	307.55
385.29	313.65
385.67	317.94
386.049	340.32
386.429	322.69
386.809	313.88
387.189	325.4
387.568	342.58
387.948	311.84
388.328	336.02
388.707	342.12
389.087	327.43
389.466	344.84
389.846	348.23
390.225	313.88
390.605	336.93
390.984	350.94
391.363	334.21
391.743	347.55
392.122	359.3
392.501	351.84
392.881	348.68
393.26	362.69
393.639	354.78
394.018	345.74
394.397	371.73
394.776	354.78
395.155	356.13
395.534	368.34
395.913	370.15
396.292	390.71
396.671	365.85
397.05	385.51
397.429	361.33
397.808	374.89
398.186	379.41
398.565	374.21
398.944	372.63
399.323	363.37
399.701	378.28
400.08	372.18
400.458	375.8
400.837	383.7
401.215	376.7
401.594	392.07
401.972	402.91
402.351	386.64
402.729	388.68
403.107	401.33
403.486	385.96
403.864	375.8
404.242	391.39
404.62	412.4
404.999	412.4
405.377	396.36
405.755	412.18
406.133	418.51
406.511	408.79
406.889	417.38
407.267	413.99
407.645	410.6
408.023	445.17
408.401	421.22
408.779	430.03
409.156	435.68
409.534	451.95
409.912	442.46
410.29	444.95
410.667	457.37
411.045	445.4
411.422	465.28
411.8	448.11
412.178	456.7
412.555	460.99
412.933	464.38
413.31	454.21
413.687	474.1
414.065	489.24
414.442	487.88
414.819	473.87
415.197	489.69
415.574	490.82
415.951	488.11
416.328	497.83
416.705	493.08
417.082	489.01
417.46	510.71
417.837	511.16
418.214	491.95
418.591	519.97
418.967	528.79
419.344	508.22
419.721	518.84
420.098	530.37
420.475	530.59
420.852	562
421.228	543.7
421.605	517.26
421.982	524.72
422.358	542.34
422.735	530.37
423.111	543.93
423.488	547.32
423.864	575.11
424.241	549.8
424.617	569.91
424.994	561.78
425.37	573.08
425.746	574.66
426.123	583.93
426.499	590.48
426.875	589.57
427.251	612.4
427.627	602.46
428.003	606.3
428.379	613.53
428.756	613.98
429.132	594.55
429.507	647.88
429.883	635.68
430.259	623.92
430.635	632.74
431.011	646.75
431.387	659.63
431.763	680.19
432.138	672.51
432.514	676.13
432.89	658.5
433.265	685.84
433.641	700.76
434.016	689.46
434.392	684.26
434.767	678.16
435.143	714.09
435.518	721.77
435.894	722.9
436.269	724.49
436.644	705.73
437.02	732.4
437.395	766.52
437.77	761.55
438.145	747.08
438.52	748.89
438.895	756.8
439.271	768.1
439.646	784.15
440.021	759.29
440.395	797.71
440.77	753.19
441.145	779.63
441.52	789.8
441.895	796.58
442.27	801.09
442.645	832.28
443.019	823.47
443.394	803.81
443.769	838.83
444.143	841.09
444.518	828.44
444.892	837.7
445.267	865.05
445.641	837.93
446.016	802.9
446.39	855.78
446.764	887.65
447.139	891.94
447.513	866.63
447.887	887.19
448.262	860.75
448.636	858.04
449.01	869.34
449.384	913.41
449.758	917.7
450.132	899.85
450.506	905.05
450.88	898.04
451.254	903.69
451.628	914.31
452.002	932.62
452.376	943.69
452.75	960.19
453.123	957.47
453.497	967.19
453.871	978.49
454.244	983.91
454.618	991.82
454.992	1014.65
455.365	999.73
455.739	1033.18
456.112	1031.82
456.486	1058.04
456.859	1049.45
457.232	1061.43
457.606	1077.7
457.979	1078.83
458.352	1109.79
458.725	1093.06
459.099	1103.46
459.472	1078.6
459.845	1122.89
460.218	1140.52
460.591	1164.48
460.964	1133.29
461.337	1152.95
461.71	1194.08
462.083	1211.93
462.456	1196.11
462.829	1199.28
463.201	1203.57
463.574	1251.03
463.947	1241.31
464.32	1283.57
464.692	1286.28
465.065	1314.75
465.438	1303.23
465.81	1313.17
466.183	1330.57
466.555	1354.07
466.928	1342.32
467.3	1371.93
467.672	1401.98
468.045	1399.27
468.417	1418.25
468.789	1421.87
469.161	1429.1
469.534	1470.91
469.906	1457.35
470.278	1514.52
470.65	1502.55
471.022	1518.36
471.394	1527.4
471.766	1552.26
472.138	1571.02
472.51	1602.2
472.882	1631.13
473.253	1635.88
473.625	1664.35
473.997	1688.3
474.369	1684.46
474.74	1698.7
475.112	1741.18
475.484	1752.48
475.855	1802.42
476.227	1809.2
476.598	1836.55
476.97	1829.54
477.341	1892.82
477.713	1937.34
478.084	1903.44
478.455	1991.8
478.827	1986.83
479.198	2046.49
479.569	2069.31
479.94	2078.58
480.311	2098.24
480.682	2150.21
481.053	2165.58
481.424	2229.31
481.795	2226.59
482.166	2262.75
482.537	2270.89
482.908	2328.51
483.279	2375.97
483.65	2393.37
484.021	2433.14
484.391	2492.35
484.762	2490.77
485.133	2524.21
485.503	2566.25
485.874	2582.97
486.244	2600.37
486.615	2664.32
486.985	2614.38
487.356	2715.17
487.726	2744.09
488.097	2794.49
488.467	2797.43
488.837	2875.84
489.207	2862.51
489.578	2899.8
489.948	2924.65
490.318	3013.24
490.688	2981.15
491.058	3041.94
491.428	3030.64
491.798	3101.37
492.168	3144.54
492.538	3138.21
492.908	3198.77
493.278	3218.66
493.648	3231.77
494.017	3286.68
494.387	3320.8
494.757	3331.88
495.126	3349.28
495.496	3373.91
495.866	3375.94
496.235	3398.99
496.605	3495.49
496.974	3465.43
497.344	3543.17
497.713	3541.81
498.082	3563.73
498.452	3571.19
498.821	3577.74
499.19	3611.42
499.559	3676.05
499.928	3642.83
500.298	3720.57
500.667	3714.24
501.036	3727.57
501.405	3754.01
501.774	3758.08
502.143	3823.84
502.512	3835.82
502.88	3883.95
503.249	3812.54
503.618	3926.44
503.987	3924.63
504.356	3936.15
504.724	3979.54
505.093	3967.34
505.462	3987.68
505.83	4027.68
506.199	4040.33
506.567	4080.78
506.936	4088.69
507.304	4143.83
507.672	4177.5
508.041	4156.71
508.409	4222.47
508.777	4237.84
509.145	4318.29
509.514	4275.13
509.882	4364.62
510.25	4356.48
510.618	4340.21
510.986	4370.72
511.354	4417.04
511.722	4471.96
512.09	4509.25
512.458	4473.77
512.826	4516.25
513.193	4548.79
513.561	4584.27
513.929	4601.22
514.297	4682.12
514.664	4655.23
515.032	4724.83
515.4	4694.1
515.767	4829.24
516.135	4788.79
516.502	4761.89
516.869	4849.35
517.237	4842.57
517.604	4889.12
517.972	4911.72
518.339	4907.65
518.706	4913.3
519.073	5015.67
519.44	5029.91
519.808	5059.06
520.175	5085.28
520.542	5175.22
520.909	5196.69
521.276	5178.83
521.643	5206.85
522.009	5254.54
522.376	5303.35
522.743	5335.44
523.11	5366.85
523.477	5418.83
523.843	5397.81
524.21	5510.58
524.577	5473.29
524.943	5539.5
525.31	5606.62
525.676	5680.51
526.043	5652.27
526.409	5646.39
526.776	5755.99
527.142	5727.74
527.508	5789.89
527.874	5871.7
528.241	5863.79
528.607	5897.46
528.973	5967.06
529.339	5928.42
529.705	6042.31
530.071	6041.41
530.437	6105.81
530.803	6105.81
531.169	6110.33
531.535	6101.75
531.901	6203.66
532.267	6243.44
532.632	6255.41
532.998	6301.97
533.364	6353.04
533.73	6327.73
534.095	6323.21
534.461	6385.35
534.826	6440.95
535.192	6506.48
535.557	6523.88
535.923	6496.54
536.288	6574.28
536.653	6647.04
537.019	6539.02
537.384	6630.32
537.749	6693.37
538.114	6686.59
538.479	6754.38
538.845	6789.19
539.21	6738.11
539.575	6765.46
539.94	6818.56
540.305	6872.8
540.67	6896.08
541.034	6857.43
541.399	6938.33
541.764	6980.14
542.129	6975.62
542.494	7087.94
542.858	7082.96
543.223	7048.61
543.587	7100.14
543.952	7120.7
544.316	7163.19
544.681	7134.04
545.045	7193.02
545.41	7267.59
545.774	7256.97
546.138	7291.77
546.503	7316.18
546.867	7335.84
547.231	7347.14
547.595	7385.33
547.959	7466
548.324	7418.55
548.688	7503.52
549.052	7465.55
549.416	7503.97
549.779	7577.19
550.143	7628.03
550.507	7665.77
550.871	7670.52
551.235	7636.17
551.599	7717.3
551.962	7757.75
552.326	7788.48
552.689	7808.59
553.053	7775.15
553.417	7790.52
553.78	7912.09
554.143	7886.11
554.507	7938.08
554.87	7975.14
555.234	8080.45
555.597	7983.96
555.96	8025.54
556.323	8096.5
556.686	8065.99
557.05	8176.04
557.413	8175.59
557.776	8229.83
558.139	8227.34
558.502	8231.63
558.865	8287.45
559.228	8378.52
559.59	8416.04
559.953	8425.08
560.316	8510.95
560.679	8548.01
561.041	8533.32
561.404	8553.66
561.767	8628.01
562.129	8583.04
562.492	8673.88
562.854	8674.33
563.217	8715.24
563.579	8750.26
563.941	8768.79
564.304	8875.91
564.666	8910.71
565.028	8970.6
565.39	9017.15
565.753	8993.87
566.115	9011.95
566.477	9090.82
566.839	9121.33
567.201	9173.76
567.563	9185.73
567.925	9165.62
568.287	9245.84
568.648	9185.28
569.01	9376.24
569.372	9306.63
569.734	9317.26
570.095	9391.83
570.457	9435.22
570.819	9467.99
571.18	9447.2
571.542	9520.64
571.903	9564.03
572.265	9542.11
572.626	9646.29
572.987	9593.18
573.349	9707.98
573.71	9679.28
574.071	9681.31
574.432	9785.04
574.794	9815.32
575.155	9779.16
575.516	9760.18
575.877	9777.36
576.238	9861.2
576.599	9913.85
576.96	9911.14
577.32	9873.85
577.681	9959.05
578.042	10000.4
578.403	9985.94
578.763	9985.94
579.124	10033.85
579.485	10049.44
579.845	10103
580.206	10056.67
580.566	10131.24
580.927	10060.51
581.287	10116.78
581.648	10160.17
582.008	10146.61
582.368	10103.45
582.728	10157.46
583.089	10186.61
583.449	10167.4
583.809	10210.34
584.169	10181.64
584.529	10174.63
584.889	10271.81
585.249	10224.8
585.609	10199.49
585.969	10214.63
586.329	10195.42
586.688	10233.16
587.048	10189.55
587.408	10193.84
587.768	10232.49
588.127	10192.49
588.487	10229.77
588.846	10233.39
589.206	10187.74
589.565	10222.99
589.925	10308.19
590.284	10268.87
590.643	10217.12
591.003	10269.77
591.362	10309.55
591.721	10282.2
592.08	10319.71
592.44	10293.5
592.799	10374.85
593.158	10278.36
593.517	10237.46
593.876	10360.62
594.235	10283.11
594.593	10295.99
594.952	10353.84
595.311	10331.69
595.67	10280.62
596.029	10378.24
596.387	10372.82
596.746	10446.26
597.104	10345.7
597.463	10364.91
597.822	10413.95
598.18	10367.4
598.538	10396.55
598.897	10484.23
599.255	10372.14
599.613	10518.13
599.972	10460.05
600.33	10382.76
600.688	10441.29
601.046	10411.69
601.404	10469.32
601.762	10522.42
602.12	10527.39
602.478	10470.9
602.836	10511.35
603.194	10461.86
603.552	10457.56
603.91	10464.8
604.268	10565.58
604.625	10462.76
604.983	10544.79
605.341	10525.13
605.698	10533.72
606.056	10578.69
606.413	10568.3
606.771	10628.18
607.128	10629.08
607.485	10530.78
607.843	10578.01
608.2	10656.65
608.557	10597.67
608.914	10578.69
609.272	10647.16
609.629	10727.16
609.986	10711.12
610.343	10660.27
610.7	10754.73
611.057	10723.77
611.414	10738.91
611.771	10763.09
612.127	10792.24
612.484	10781.4
612.841	10778.91
613.198	10769.19
613.554	10751.79
613.911	10847.16
614.267	10852.36
614.624	10749.53
614.98	10843.32
615.337	10876.54
615.693	10849.42
616.05	10876.08
616.406	10871.56
616.762	10841.51
617.118	10859.81
617.475	10844.22
617.831	10925.8
618.187	10949.3
618.543	10909.53
618.899	11032.01
619.255	10937.55
619.611	11003.31
619.967	10962.18
620.323	11017.55
620.678	11033.37
621.034	10965.12
621.39	10992.92
621.746	10964.67
622.101	11136.87
622.457	10931.22
622.812	10993.37
623.168	11031.33
623.523	11061.39
623.879	11044.44
624.234	10969.19
624.589	11092.35
624.945	11006.7
625.3	11104.1
625.655	11083.31
626.01	11030.2
626.365	11059.36
626.72	11082.18
627.075	11030.2
627.43	11070.66
627.785	11011.45
628.14	11036.98
628.495	11046.25
628.85	11068.4
629.205	11007.83
629.559	11060.49
629.914	11042.41
630.269	11036.31
630.623	10988.85
630.978	10992.92
631.332	10994.05
631.687	11047.83
632.041	10926.48
632.396	11038.57
632.75	11077.43
633.104	11025.01
633.459	10934.39
633.813	10964.67
634.167	10972.8
634.521	10975.74
634.875	10913.15
635.229	10899.13
635.583	10912.92
635.937	10874.28
636.291	10905.91
636.645	10938.91
636.999	10912.47
637.352	10880.83
637.706	10860.04
638.06	10892.35
638.413	10879.02
638.767	10884.45
639.121	10909.76
639.474	10755.64
639.828	10805.58
640.181	10816.65
640.534	10800.38
640.888	10792.02
641.241	10747.5
641.594	10742.53
641.947	10799.02
642.301	10760.15
642.654	10799.7
643.007	10724.68
643.36	10737.78
643.713	10745.92
644.066	10768.06
644.419	10730.78
644.771	10614.17
645.124	10554.51
645.477	10576.66
645.83	10493.5
646.182	10458.92
646.535	10434.51
646.888	10460.5
647.24	10381.18
647.593	10482.65
647.945	10426.83
648.298	10337.79
648.65	10375.31
649.002	10392.48
649.355	10378.92
649.707	10409.43
650.059	10367.62
650.411	10595.64
650.763	10527.84
651.115	10665.69
651.467	10597.67
651.819	10604
652.171	10567.62
652.523	10665.69
652.875	10627.28
653.227	10585.02
653.578	10684.9
653.93	10628.63
654.282	10585.24
654.633	10600.84
654.985	10559.71
655.337	10554.51
655.688	10535.53
656.039	10611.68
656.391	10554.51
656.742	10531.23
657.094	10591.8
657.445	10622.76
657.796	10610.78
658.147	10568.07
658.498	10568.75
658.849	10665.69
659.2	10600.61
659.551	10576.66
659.902	10647.84
660.253	10620.95
660.604	10642.64
660.955	10488.07
661.306	10630.89
661.656	10586.83
662.007	10574.4
662.358	10624.34
662.708	10593.83
663.059	10538.47
663.409	10535.08
663.76	10617.11
664.11	10595.87
664.461	10511.57
664.811	10528.07
665.161	10552.48
665.511	10557
665.862	10493.04
666.212	10584.79
666.562	10669.76
666.912	10528.07
667.262	10606.94
667.612	10482.2
667.962	10586.83
668.312	10522.65
668.662	10589.76
669.011	10577.79
669.361	10511.12
669.711	10556.54
670.06	10556.77
670.41	10588.41
670.76	10504.34
671.109	10535.53
671.459	10531.01
671.808	10553.83
672.157	10572.36
672.507	10458.47
672.856	10486.94
673.205	10503.44
673.554	10498.92
673.904	10515.64
674.253	10572.14
674.602	10498.01
674.951	10364.46
675.3	10274.07
675.649	10418.24
675.998	10470.45
676.346	10444.46
676.695	10457.11
677.044	10372.82
677.393	10394.06
677.741	10365.59
678.09	10470.67
678.438	10404.01
678.787	10297.57
679.135	10368.07
679.484	10310.45
679.832	10354.29
680.181	10272.94
680.529	10397
680.877	10229.1
681.225	10246.72
681.573	10331.69
681.922	10266.38
682.27	10259.6
682.618	10191.58
682.966	10197.01
683.314	10300.05
683.661	10209.21
684.009	10118.59
684.357	10132.15
684.705	10143.9
685.053	10125.6
685.4	10068.65
685.748	10059.16
686.095	10017.8
686.443	10044.69
686.79	9984.36
687.138	10057.57
687.485	10020.74
687.832	9864.81
688.18	9944.36
688.527	9901.65
688.874	9906.62
689.221	9885.15
689.568	9780.29
689.915	9789.33
690.262	9796.79
690.609	9813.74
690.956	9773.06
691.303	9744.36
691.65	9684.93
691.997	9682.67
692.344	9631.15
692.69	9568.77
693.037	9608.09
693.383	9548.44
693.73	9582.33
694.077	9539.62
694.423	9494.65
694.769	9451.94
695.116	9340.76
695.462	9437.25
695.808	9404.71
696.155	9459.85
696.501	9279.97
696.847	9346.63
697.193	9285.84
697.539	9273.64
697.885	9249.69
698.231	9248.56
698.577	9161.78
698.923	9182.12
699.269	9158.62
699.614	9137.82
699.96	9021.44
700.306	9026.19
700.651	8986.42
700.997	8943.48
701.342	9025.74
701.688	8941.45
702.033	8972.86
702.379	8948.68
702.724	8935.34
703.069	8918.17
703.415	8801.34
703.76	8806.31
704.105	8771.73
704.45	8764.73
704.795	8716.14
705.14	8677.72
705.485	8684.73
705.83	8639.98
706.175	8706.42
706.52	8617.39
706.865	8620.78
707.209	8604.05
707.554	8563.15
707.899	8552.98
708.243	8549.82
708.588	8521.12
708.932	8427.33
709.277	8454.68
709.621	8449.03
709.966	8385.98
710.31	8406.77
710.654	8353.66
710.998	8375.36
711.342	8338.52
711.687	8308.02
712.031	8336.04
712.375	8242.26
712.719	8328.81
713.063	8285.87
713.407	8304.17
713.75	8277.06
714.094	8220.79
714.438	8234.57
714.782	8215.59
715.125	8190.5
715.469	8218.07
715.812	8200.45
716.156	8179.21
716.499	8098.3
716.843	8202.03
717.186	8137.4
717.53	8086.33
717.873	8141.69
718.216	8106.89
718.559	8046.55
718.902	8026.44
719.246	8033.67
719.589	8011.98
719.932	7977.18
720.275	7969.04
720.617	8027.8
720.96	7981.24
721.303	8070.96
721.646	8008.36
721.989	7935.6
722.331	7984.41
722.674	7948.25
723.016	8001.36
723.359	7929.04
723.701	8012.43
724.044	7938.31
724.386	7861.7
724.729	7879.78
725.071	7903.73
725.413	7928.14
725.755	7900.12
726.097	7846.11
726.439	7811.31
726.782	7812.21
727.124	7888.37
727.465	7814.47
727.807	7825.77
728.149	7853.79
728.491	7815.37
728.833	7877.07
729.175	7837.52
729.516	7803.62
729.858	7765.43
730.199	7814.92
730.541	7820.57
730.882	7844.07
731.224	7864.19
731.565	7801.14
731.906	7801.81
732.248	7821.93
732.589	7827.35
732.93	7825.32
733.271	7757.97
733.612	7783.96
733.953	7819.67
734.294	7781.7
734.635	7741.93
734.976	7796.84
735.317	7752.55
735.658	7695.83
735.999	7729.05
736.339	7744.19
736.68	7766.11
737.021	7743.96
737.361	7729.05
737.702	7748.48
738.042	7765.43
738.383	7730.86
738.723	7729.05
739.063	7746.22
739.404	7760.46
739.744	7731.08
740.084	7696.05
740.424	7699.22
740.764	7689.95
741.104	7709.61
741.444	7691.76
741.784	7725.21
742.124	7692.44
742.464	7656.06
742.804	7695.83
743.143	7679.33
743.483	7676.62
743.823	7671.42
744.162	7630.29
744.502	7716.85
744.841	7646.56
745.181	7691.54
745.52	7618.54
745.86	7672.55
746.199	7623.29
746.538	7634.81
746.877	7675.04
747.216	7614.93
747.556	7653.12
747.895	7635.72
748.234	7643.17
748.573	7601.14
748.911	7617.64
749.25	7641.82
749.589	7604.31
749.928	7639.56
750.267	7624.19
750.605	7607.47
750.944	7568.37
751.283	7534.7
751.621	7618.99
751.96	7546.91
752.298	7558.21
752.636	7523.63
752.975	7493.35
753.313	7458.09
753.651	7542.39
753.989	7516.17
754.327	7495.16
754.666	7463.52
755.004	7513.69
755.342	7508.94
755.679	7496.06
756.017	7396.4
756.355	7418.1
756.693	7426.68
757.031	7381.49
757.368	7349.17
757.706	7359.79
758.044	7372
758.381	7379.9
758.719	7321.38
759.056	7357.31
759.394	7352.33
759.731	7329.51
760.068	7316.86
760.405	7267.82
760.743	7201.38
761.08	7250.19
761.417	7172.45
761.754	7194.37
762.091	7191.44
762.428	7094.26
762.765	7162.06
763.102	7170.42
763.438	7119.12
763.775	7024.89
764.112	7078.9
764.449	7040.25
764.785	7043.64
765.122	6977.88
765.458	6991.89
765.795	6978.79
766.131	6956.64
766.467	6967.26
766.804	6860.37
767.14	6846.81
767.476	6849.3
767.812	6802.07
768.148	6891.33
768.485	6830.77
768.821	6775.4
769.157	6751.22
769.492	6775.4
769.828	6741.96
770.164	6690.21
770.5	6674.39
770.836	6681.84
771.171	6727.72
771.507	6636.87
771.842	6635.52
772.178	6556.42
772.513	6565.46
772.849	6512.81
773.184	6505.35
773.519	6492.02
773.855	6475.52
774.19	6415.64
774.525	6412.02
774.86	6458.57
775.195	6416.99
775.53	6410.44
775.865	6378.12
776.2	6318.46
776.535	6276.43
776.87	6251.8
777.205	6285.47
777.539	6186.49
777.874	6277.11
778.209	6222.2
778.543	6178.35
778.878	6157.11
779.212	6133.84
779.547	6077.11
779.881	6068.53
780.215	6110.33
780.55	6077.57
780.884	6080.96
781.218	6042.09
781.552	6016.78
781.886	6024.23
782.22	5960.28
782.554	5953.28
782.888	5893.39
783.222	5873.28
783.556	5870.57
783.889	5893.39
784.223	5824.24
784.557	5828.99
784.89	5835.31
785.224	5792.38
785.557	5780.17
785.891	5765.71
786.224	5745.15
786.558	5683.68
786.891	5697.92
787.224	5641.87
787.557	5646.84
787.891	5616.56
788.224	5604.13
788.557	5584.02
788.89	5594.64
789.223	5592.83
789.556	5551.03
789.888	5526.85
790.221	5494.3
790.554	5419.73
790.887	5492.72
791.219	5457.02
791.552	5474.87
791.884	5433.06
792.217	5397.13
792.549	5421.54
792.882	5369.34
793.214	5376.12
793.546	5356.46
793.879	5299.51
794.211	5314.65
794.543	5314.87
794.875	5302.67
795.207	5278.94
795.539	5287.3
795.871	5300.19
796.203	5187.87
796.535	5185.84
796.867	5138.83
797.198	5169.12
797.53	5170.92
797.862	5113.75
798.193	5097.03
798.525	5126.86
798.856	5094.99
799.188	5074.65
799.519	5031.49
799.85	5005.96
800.182	5050.25
800.513	5029.23
800.844	4976.58
801.175	5019.29
801.506	4992.85
801.837	4997.82
802.168	4946.75
802.499	4915.56
802.83	4892.96
803.161	4932.06
803.491	4907.65
803.822	4914.88
804.153	4864.49
804.483	4818.16
804.814	4838.73
805.145	4832.18
805.475	4838.05
805.805	4822.68
806.136	4802.8
806.466	4804.61
806.796	4803.48
807.126	4745.17
807.457	4748.79
807.787	4728.45
808.117	4732.97
808.447	4663.14
808.777	4731.84
809.107	4691.39
809.436	4700.65
809.766	4681.44
810.096	4670.6
810.426	4635.12
810.755	4624.27
811.085	4593.09
811.414	4605.74
811.744	4579.75
812.073	4541.56
812.403	4602.58
812.732	4574.78
813.061	4565.06
813.39	4531.84
813.719	4501.56
814.049	4564.16
814.378	4486.42
814.707	4516.7
815.036	4499.3
815.365	4451.85
815.693	4437.61
816.022	4439.42
816.351	4439.64
816.68	4418.85
817.008	4393.77
817.337	4404.84
817.665	4353.77
817.994	4383.37
818.322	4400.1
818.651	4373.2
818.979	4367.55
819.307	4408.01
819.636	4331.17
819.964	4350.15
820.292	4371.4
820.62	4277.61
820.948	4306.77
821.276	4384.96
821.604	4319.19
821.932	4320.55
822.259	4295.69
822.587	4358.52
822.915	4316.26
823.243	4349.93
823.57	4319.87
823.898	4288.91
824.225	4285.97
824.553	4287.33
824.88	4277.84
825.207	4307.67
825.535	4299.76
825.862	4313.09
826.189	4316.71
826.516	4255.47
826.843	4331.62
827.17	4360.32
827.497	4324.39
827.824	4340.44
828.151	4311.74
828.478	4339.76
828.805	4287.33
829.131	4301.12
829.458	4312.87
829.785	4303.6
830.111	4292.08
830.438	4287.33
830.764	4316.03
831.09	4387.89
831.417	4302.47
831.743	4290.49
832.069	4320.1
832.395	4255.69
832.722	4296.6
833.048	4312.64
833.374	4247.56
833.7	4246.2
834.026	4275.13
834.351	4266.31
834.677	4255.02
835.003	4296.6
835.329	4285.3
835.654	4248.46
835.98	4231.96
836.306	4248.69
836.631	4221.12
836.956	4242.13
837.282	4238.52
837.607	4192.19
837.932	4201.68
838.258	4204.17
838.583	4193.55
838.908	4193.1
839.233	4235.35
839.558	4169.14
839.883	4163.27
840.208	4136.6
840.533	4150.39
840.858	4149.71
841.182	4132.76
841.507	4154.68
841.832	4128.46
842.156	4109.48
842.481	4117.84
842.805	4109.93
843.13	4108.35
843.454	4096.6
843.778	4104.06
844.103	4072.87
844.427	4099.54
844.751	4094.34
845.075	4062.93
845.399	4034.23
845.723	4003.95
846.047	4035.13
846.371	3966.44
846.695	3950.16
847.019	3904.97
847.343	3957.17
847.666	3932.76
847.99	3935.25
848.313	3930.05
848.637	3871.3
848.96	3894.57
849.284	3839.66
849.607	3819.32
849.931	3841.69
850.254	3797.63
850.577	3796.95
850.9	3779.77
851.223	3781.36
851.546	3770.51
851.869	3742.49
852.192	3787
852.515	3701.36
852.838	3683.5
853.161	3722.6
853.483	3701.58
853.806	3694.8
854.129	3701.58
854.451	3655.26
854.774	3668.36
855.096	3664.52
855.419	3605.31
855.741	3584.52
856.063	3648.25
856.385	3573.68
856.708	3581.36
857.03	3566.45
857.352	3588.59
857.674	3569.84
857.996	3540.68
858.318	3501.81
858.64	3548.14
858.961	3528.25
859.283	3481.25
859.605	3490.97
859.926	3518.31
860.248	3504.75
860.57	3445.09
860.891	3481.93
861.212	3461.82
861.534	3455.04
861.855	3439.22
862.176	3455.26
862.498	3447.8
862.819	3413.46
863.14	3424.53
863.461	3436.73
863.782	3475.15
864.103	3407.81
864.424	3398.31
864.745	3422.49
865.065	3367.13
865.386	3387.47
865.707	3383.4
866.027	3398.09
866.348	3392.67
866.668	3351.99
866.989	3392.89
867.309	3343.63
867.63	3385.43
867.95	3326.68
868.27	3337.75
868.59	3336.4
868.91	3304.08
869.23	3309.5
869.55	3263.63
869.87	3321.93
870.19	3318.77
870.51	3298.2
870.83	3300.46
871.15	3310.63
871.469	3314.25
871.789	3341.59
872.109	3299.79
872.428	3271.31
872.748	3289.16
873.067	3283.74
873.386	3264.31
873.706	3269.28
874.025	3257.08
874.344	3233.12
874.663	3245.1
874.982	3215.04
875.301	3229.73
875.62	3238.54
875.939	3243.29
876.258	3239
876.577	3218.43
876.896	3222.27
877.214	3192.44
877.533	3210.97
877.852	3194.25
878.17	3198.09
878.489	3203.74
878.807	3168.26
879.125	3211.2
879.444	3203.97
879.762	3167.81
880.08	3216.4
880.398	3160.81
880.716	3169.17
881.034	3176.85
881.352	3166.91
881.67	3179.34
881.988	3142.05
882.306	3095.72
882.624	3132.33
882.941	3122.39
883.259	3103.41
883.577	3135.04
883.894	3069.96
884.212	3083.29
884.529	3120.58
884.846	3084.2
885.164	3073.13
885.481	3071.54
885.798	3043.3
886.115	3024.99
886.432	3010.3
886.75	3031.77
887.067	3001.71
887.383	2995.84
887.7	3019.12
888.017	3004.88
888.334	3009.4
888.651	3013.47
888.967	2979.34
889.284	3012.56
889.6	2968.5
889.917	2954.26
890.233	2951.32
890.55	2939.57
890.866	2944.99
891.182	2926.24
891.498	2961.26
891.815	2917.2
892.131	2934.37
892.447	2928.5
892.763	2897.76
893.079	2845.79
893.395	2890.53
893.71	2856.18
894.026	2880.14
894.342	2866.35
894.657	2822.51
894.973	2855.05
895.289	2845.56
895.604	2835.84
895.92	2850.31
896.235	2829.74
896.55	2823.64
896.865	2812.79
897.181	2766.69
897.496	2774.15
897.811	2784.77
898.126	2790.65
898.441	2768.73
898.756	2752.23
899.071	2779.57
899.386	2735.96
899.7	2743.42
900.015	2659.35
900.33	2686.47
900.644	2686.92
900.959	2724.43
901.273	2687.15
901.588	2674.49
901.902	2653.7
902.216	2698.22
902.531	2641.95
902.845	2633.36
903.159	2644.89
903.473	2634.94
903.787	2599.24
904.101	2591.33
904.415	2569.64
904.729	2596.98
905.042	2563.08
905.356	2580.71
905.67	2566.25
905.984	2560.14
906.297	2550.2
906.611	2577.77
906.924	2558.11
907.237	2519.02
907.551	2545
907.864	2461.84
908.177	2530.77
908.491	2519.92
908.804	2515.85
909.117	2470.2
909.43	2458.68
909.743	2437.44
910.056	2447.38
910.368	2431.79
910.681	2387.49
910.994	2405.57
911.307	2413.26
911.619	2403.54
911.932	2434.5
912.244	2397.44
912.557	2398.57
912.869	2383.88
913.181	2373.03
913.494	2340.94
913.806	2358.57
914.118	2302.3
914.43	2330.09
914.742	2338.91
915.054	2302.75
915.366	2293.48
915.678	2281.28
915.99	2309.08
916.302	2284.45
916.613	2252.81
916.925	2265.01
917.236	2240.6
917.548	2226.59
917.859	2217.1
918.171	2221.85
918.482	2243.32
918.794	2218.68
919.105	2212.36
919.416	2190.21
919.727	2188.4
920.038	2138.69
920.349	2160.16
920.66	2171.23
920.971	2173.71
921.282	2150.89
921.593	2120.83
921.903	2160.38
922.214	2131
922.525	2144.79
922.835	2129.65
923.146	2085.81
923.456	2100.72
923.767	2065.24
924.077	2104.79
924.387	2070.89
924.697	2051.01
925.008	2045.36
925.318	2048.75
925.628	2057.56
925.938	2032.02
926.248	2002.42
926.558	2010.33
926.867	2033.38
927.177	1987.05
927.487	2037.45
927.796	2001.52
928.106	1998.35
928.416	1970.78
928.725	1968.97
929.034	1968.3
929.344	1972.36
929.653	1955.64
929.962	1947.96
930.271	1944.12
930.581	1927.39
930.89	1925.36
931.199	1915.42
931.508	1922.42
931.817	1938.24
932.125	1877.9
932.434	1896.21
932.743	1919.26
933.051	1922.42
933.36	1860.05
933.669	1848.52
933.977	1869.32
934.286	1851.69
934.594	1863.21
934.902	1838.13
935.21	1799.94
935.519	1850.33
935.827	1841.07
936.135	1811.24
936.443	1809.88
936.751	1778.47
937.059	1785.02
937.367	1779.15
937.674	1767.17
937.982	1774.18
938.29	1753.61
938.597	1759.26
938.905	1757.23
939.213	1723.78
939.52	1743.67
939.827	1732.6
940.135	1716.55
940.442	1691.47
940.749	1723.1
941.056	1723.1
941.363	1711.81
941.67	1688.98
941.977	1693.73
942.284	1674.29
942.591	1650.34
942.898	1681.75
943.205	1680.17
943.511	1673.39
943.818	1648.3
944.125	1655.99
944.431	1663.22
944.738	1646.04
945.044	1659.38
945.35	1624.12
945.657	1611.02
945.963	1618.93
946.269	1595.2
946.575	1641.3
946.881	1613.05
947.187	1596.1
947.493	1581.87
947.799	1592.49
948.105	1521.3
948.41	1558.59
948.716	1572.37
949.022	1530.79
949.327	1568.08
949.633	1522.88
949.938	1568.31
950.244	1550.23
950.549	1523.11
950.854	1504.81
951.16	1519.72
951.465	1516.33
951.77	1481.75
952.075	1535.99
952.38	1510.68
952.685	1486.27
952.99	1466.61
953.294	1483.79
953.599	1462.55
953.904	1472.94
954.209	1447.41
954.513	1457.35
954.818	1475.43
955.122	1423.9
955.426	1454.18
955.731	1440.85
956.035	1441.3
956.339	1413.96
956.643	1445.37
956.948	1428.87
957.252	1450.57
957.556	1430.23
957.86	1408.54
958.163	1400.63
958.467	1391.14
958.771	1365.83
959.075	1411.25
959.378	1403.34
959.682	1377.35
959.985	1383.23
960.289	1367.41
960.592	1354.53
960.896	1369.67
961.199	1362.44
961.502	1352.94
961.805	1333.28
962.108	1326.05
962.411	1333.51
962.714	1328.54
963.017	1332.38
963.32	1323.79
963.623	1338.48
963.926	1310.69
964.228	1328.99
964.531	1307.52
964.833	1306.39
965.136	1285.15
965.438	1297.8
965.741	1274.75
966.043	1238.37
966.345	1277.47
966.648	1274.08
966.95	1232.72
967.252	1240.41
967.554	1227.98
967.856	1248.31
968.158	1213.29
968.46	1250.35
968.761	1248.99
969.063	1250.12
969.365	1208.77
969.666	1210.35
969.968	1214.64
970.269	1226.17
970.571	1205.83
970.872	1220.07
971.174	1234.53
971.475	1207.86
971.776	1189.56
972.077	1204.7
972.378	1199.05
972.679	1168.09
972.98	1172.38
973.281	1175.77
973.582	1179.39
973.883	1162.89
974.183	1169.67
974.484	1176.68
974.785	1181.42
975.085	1167.64
975.386	1154.53
975.686	1141.88
975.986	1142.55
976.287	1154.53
976.587	1126.51
976.887	1116.11
977.187	1150.69
977.487	1138.49
977.787	1127.87
978.087	1093.97
978.387	1102.56
978.687	1099.62
978.987	1129.67
979.286	1126.96
979.586	1095.78
979.885	1089
980.185	1120.86
980.484	1049
980.784	1060.52
981.083	1074.76
981.382	1048.55
981.682	1080.86
981.981	1064.36
982.28	1061.43
982.579	1037.92
982.878	1054.42
983.177	1054.87
983.475	1055.55
983.774	1032.95
984.073	1023.01
984.372	1047.64
984.67	1017.13
984.969	1028.43
985.267	1016.68
985.566	1037.25
985.864	1014.65
986.162	1016.68
986.461	1027.3
986.759	1032.95
987.057	1012.16
987.355	981.65
987.653	978.04
987.951	1020.98
988.249	996.57
988.547	995.67
988.844	985.04
989.142	989.34
989.44	971.71
989.737	933.52
990.035	983.01
990.332	970.13
990.63	967.87
990.927	933.07
991.224	960.41
991.521	964.93
991.819	952.05
992.116	938.94
992.413	943.46
992.71	925.16
993.006	944.59
993.303	945.27
993.6	932.39
993.897	927.87
994.193	896.46
994.49	917.7
994.787	927.87
995.083	946.4
995.379	907.76
995.676	902.11
995.972	897.14
996.268	914.76
996.565	917.02
996.861	889.68
997.157	878.61
997.453	873.86
997.749	885.16
998.044	856.69
998.34	866.4
998.636	882.9
998.932	878.83
999.227	857.14
999.523	876.12
999.818	874.54
1000.114	838.38
1000.409	864.14
1000.704	856.01
1001	857.59
1001.295	824.82
1001.59	846.29
1001.885	838.38
1002.18	870.92
1002.475	845.61
1002.77	829.57
1003.065	832.05
1003.359	826.4
1003.654	817.14
1003.949	806.52
1004.243	805.84
1004.538	801.55
1004.832	803.81
1005.127	819.85
1005.421	804.48
1005.715	804.71
1006.009	801.77
1006.304	781.21
1006.598	771.72
1006.892	793.41
1007.186	794.54
1007.48	773.07
1007.773	781.89
1008.067	774.43
1008.361	760.87
1008.655	740.76
1008.948	747.76
1009.242	746.41
1009.535	766.52
1009.829	781.21
1010.122	740.08
1010.415	712.96
1010.708	766.75
1011.001	737.37
1011.295	760.64
1011.588	736.24
1011.881	717.48
1012.173	738.5
1012.466	731.27
1012.759	716.58
1013.052	720.42
1013.344	728.33
1013.637	715.22
1013.93	711.38
1014.222	721.55
1014.514	695.33
1014.807	707.31
1015.099	701.89
1015.391	679.74
1015.683	698.72
1015.976	679.74
1016.268	691.95
1016.56	706.86
1016.851	689.46
1017.143	670.25
1017.435	671.61
1017.727	661.44
1018.018	658.73
1018.31	661.21
1018.602	667.99
1018.893	653.08
1019.185	659.4
1019.476	647.65
1019.767	654.66
1020.058	656.24
1020.35	642.23
1020.641	658.95
1020.932	662.12
1021.223	663.47
1021.514	660.53
1021.804	620.76
1022.095	636.35
1022.386	621.44
1022.677	625.96
1022.967	638.16
1023.258	637.03
1023.548	619.18
1023.839	625.96
1024.129	613.3
1024.419	642
1024.709	623.7
1025	604.94
1025.29	620.31
1025.58	595.68
1025.87	616.01
1026.16	579.18
1026.449	587.54
1026.739	602.91
1027.029	590.03
1027.319	586.19
1027.608	579.86
1027.898	613.08
1028.187	569.69
1028.477	577.15
1028.766	563.81
1029.055	594.09
1029.344	575.34
1029.634	594.55
1029.923	584.83
1030.212	569.01
1030.501	552.97
1030.79	571.95
1031.078	555.9
1031.367	536.69
1031.656	543.25
1031.945	527.43
1032.233	536.69
1032.522	573.53
1032.81	543.25
1033.099	516.13
1033.387	517.03
1033.675	537.37
1033.963	551.38
1034.251	532.85
1034.54	533.98
1034.828	537.37
1035.116	524.72
1035.403	545.51
1035.691	511.16
1035.979	511.16
1036.267	522.23
1036.554	522.46
1036.842	528.33
1037.129	531.27
1037.417	500.76
1037.704	514.77
1037.992	502.35
1038.279	510.25
1038.566	511.61
1038.853	511.61
1039.14	511.61
