Data from mousepad_grey_FLMS001491_00074.txt Node
Date: Wed Feb 08 14:29:54 GMT 2017
User: dcchb
Spectrometer: FLMS00149
Trigger mode: 0
Integration Time (sec): 2.000000E-2
Scans to average: 10
Electric dark correction enabled: true
Nonlinearity correction enabled: false
Boxcar width: 0
XAxis mode: Wavelengths
Number of Pixels in Spectrum: 2048
>>>>>Begin Spectral Data<<<<<
341.393	-12.57
341.776	-12.57
342.16	-12.57
342.543	-49.41
342.927	-60.03
343.31	-79.24
343.693	-68.39
344.077	-70.65
344.46	-46.24
344.843	-49.86
345.226	-55.73
345.61	-16.41
345.993	-36.3
346.376	-12.34
346.759	18.16
347.142	11.84
347.525	54.55
347.908	50.7
348.291	86.18
348.674	99.29
349.057	114.43
349.44	136.58
349.823	150.82
350.206	170.48
350.588	188.78
350.971	195.56
351.354	214.77
351.737	233.52
352.119	239.63
352.502	249.8
352.884	265.39
353.267	256.8
353.65	270.36
354.032	296.12
354.414	314.65
354.797	267.2
355.179	304.03
355.562	323.92
355.944	319.62
356.326	312.39
356.709	292.28
357.091	309.68
357.473	320.08
357.855	323.01
358.238	320.53
358.62	321.88
359.002	350.13
359.384	339.96
359.766	330.92
360.148	310.13
360.53	323.92
360.912	325.27
361.294	330.25
361.676	307.42
362.057	330.25
362.439	339.51
362.821	324.6
363.203	284.82
363.584	328.44
363.966	304.03
364.348	313.3
364.729	314.43
365.111	323.69
365.493	326.4
365.874	301.55
366.256	296.57
366.637	296.57
367.019	311.49
367.4	316.91
367.781	310.13
368.163	301.09
368.544	261.09
368.925	302.68
369.306	317.59
369.688	288.21
370.069	309.91
370.45	293.86
370.831	285.05
371.212	308.78
371.593	296.35
371.974	313.07
372.355	300.87
372.736	299.74
373.117	307.42
373.498	307.65
373.879	294.77
374.26	289.57
374.641	300.64
375.021	313.3
375.402	323.24
375.783	305.16
376.163	331.38
376.544	304.71
376.925	327.99
377.305	318.04
377.686	304.03
378.066	317.36
378.447	326.4
378.827	319.85
379.208	351.71
379.588	332.96
379.968	319.4
380.349	318.27
380.729	334.31
381.109	332.51
381.489	313.52
381.87	320.53
382.25	325.05
382.63	316.23
383.01	319.85
383.39	317.82
383.77	353.75
384.15	321.43
384.53	328.21
384.91	329.12
385.29	344.26
385.67	339.74
386.049	334.31
386.429	320.75
386.809	347.87
387.189	366.63
387.568	341.77
387.948	342
388.328	346.74
388.707	352.17
389.087	351.71
389.466	348.1
389.846	341.09
390.225	351.49
390.605	363.69
390.984	336.8
391.363	361.88
391.743	344.93
392.122	365.72
392.501	332.05
392.881	345.39
393.26	360.08
393.639	365.95
394.018	393.52
394.397	356.46
394.776	362.11
395.155	397.36
395.534	371.83
395.913	364.59
396.292	368.89
396.671	379.74
397.05	367.53
397.429	343.35
397.808	367.53
398.186	376.35
398.565	396.68
398.944	392.62
399.323	380.87
399.701	400.98
400.08	415.67
400.458	388.78
400.837	379.74
401.215	401.88
401.594	394.42
401.972	411.83
402.351	390.81
402.729	390.13
403.107	407.08
403.486	404.82
403.864	387.87
404.242	407.53
404.62	410.47
404.999	417.47
405.377	425.61
405.755	419.73
406.133	419.96
406.511	426.51
406.889	429.9
407.267	432.84
407.645	451.15
408.023	440.07
408.401	442.11
408.779	448.21
409.156	440.75
409.534	434.65
409.912	457.7
410.29	458.38
410.667	433.29
411.045	468.55
411.422	463.12
411.8	481.88
412.178	458.38
412.555	484.59
412.933	461.77
413.31	493.86
413.687	482.78
414.065	474.87
414.442	501.09
414.819	491.82
415.197	488.43
415.574	503.35
415.951	510.13
416.328	498.38
416.705	496.57
417.082	528.21
417.46	501.09
417.837	501.99
418.214	532.05
418.591	506.29
418.967	538.38
419.344	541.99
419.721	543.12
420.098	549.9
420.475	544.48
420.852	547.64
421.228	543.57
421.605	551.26
421.982	571.37
422.358	563.23
422.735	563.69
423.111	568.66
423.488	562.33
423.864	593.97
424.241	571.6
424.617	586.28
424.994	580.41
425.37	591.71
425.746	579.05
426.123	593.52
426.499	610.46
426.875	607.3
427.251	624.93
427.627	611.14
428.003	605.04
428.379	628.09
428.756	618.6
429.132	652.27
429.507	637.36
429.883	650.92
430.259	652.05
430.635	649.79
431.011	642.55
431.387	652.27
431.763	672.16
432.138	673.97
432.514	680.07
432.89	658.15
433.265	674.42
433.641	697.69
434.016	705.15
434.392	693.85
434.767	725.72
435.143	715.32
435.518	711.7
435.894	758.71
436.269	757.58
436.644	738.6
437.02	724.81
437.395	747.41
437.77	759.16
438.145	768.65
438.52	767.3
438.895	770.46
439.271	796.22
439.646	787.18
440.021	785.83
440.395	810.23
440.77	792.61
441.145	808.2
441.52	824.47
441.895	802.32
442.27	806.39
442.645	817.24
443.019	823.57
443.394	832.83
443.769	835.09
444.143	853.4
444.518	857.24
444.892	846.39
445.267	834.41
445.641	877.58
446.016	855.88
446.39	876.45
446.764	880.06
447.139	866.05
447.513	893.17
447.887	898.59
448.262	897.24
448.636	884.13
449.01	904.92
449.384	920.51
449.758	923.68
450.132	900.63
450.506	909.44
450.88	959.61
451.254	923.45
451.628	961.19
452.002	947.18
452.376	963.68
452.75	952.38
453.123	948.31
453.497	968.19
453.871	978.14
454.244	1014.75
454.618	1001.19
454.992	1035.76
455.365	1003.22
455.739	1031.92
456.112	1042.32
456.486	1048.64
456.859	1082.54
457.232	1093.39
457.606	1085.48
457.979	1087.29
458.352	1128.87
458.725	1109.89
459.099	1123.45
459.472	1151.47
459.845	1127.51
460.218	1145.14
460.591	1176.1
460.964	1155.53
461.337	1160.05
461.71	1201.41
462.083	1184.69
462.456	1229.43
462.829	1237.57
463.201	1262.2
463.574	1266.27
463.947	1282.31
464.32	1276.21
464.692	1275.31
465.065	1290.45
465.438	1303.1
465.81	1330.9
466.183	1323.67
466.555	1358.02
466.928	1363.66
467.3	1390.33
467.672	1393.49
468.045	1427.84
468.417	1415.19
468.789	1451.57
469.161	1457.67
469.534	1453.15
469.906	1505.13
470.278	1511.23
470.65	1506.26
471.022	1541.74
471.394	1539.25
471.766	1592.13
472.138	1620.83
472.51	1601.4
472.882	1644.79
473.253	1658.35
473.625	1684.79
473.997	1687.72
474.369	1737.67
474.74	1735.41
475.112	1779.25
475.484	1801.39
475.855	1804.56
476.227	1828.74
476.598	1867.15
476.97	1886.81
477.341	1929.98
477.713	1947.6
478.084	1947.38
478.455	1996.19
478.827	2006.59
479.198	2008.17
479.569	2096.3
479.94	2120.71
480.311	2131.55
480.682	2161.61
481.053	2198.22
481.424	2239.57
481.795	2249.29
482.166	2258.1
482.537	2338.33
482.908	2350.31
483.279	2362.73
483.65	2412.22
484.021	2444.31
484.391	2464.88
484.762	2527.7
485.133	2538.32
485.503	2532.45
485.874	2635.95
486.244	2635.04
486.615	2654.25
486.985	2684.08
487.356	2745.1
487.726	2751.88
488.097	2841.82
488.467	2813.57
488.837	2869.39
489.207	2920.01
489.578	2933.79
489.948	2956.84
490.318	2994.13
490.688	3006.79
491.058	3061.47
491.428	3070.96
491.798	3092.21
492.168	3140.79
492.538	3204.97
492.908	3220.11
493.278	3241.13
493.648	3229.6
494.017	3287.91
494.387	3323.39
494.757	3335.82
495.126	3368.81
495.496	3394.12
495.866	3382.14
496.235	3423.72
496.605	3456.94
496.974	3463.04
497.344	3512.76
497.713	3555.25
498.082	3564.51
498.452	3602.25
498.821	3597.5
499.19	3621.46
499.559	3689.93
499.928	3719.76
500.298	3713.66
500.667	3729.03
501.036	3759.08
501.405	3736.48
501.774	3774.22
502.143	3796.6
502.512	3826.88
502.88	3870.27
503.249	3884.28
503.618	3935.12
503.987	3922.47
504.356	3942.81
504.724	3976.48
505.093	3978.74
505.462	4060.99
505.83	4040.43
506.199	4060.77
506.567	4109.81
506.936	4089.24
507.304	4111.16
507.672	4198.84
508.041	4196.36
508.409	4196.58
508.777	4246.98
509.145	4296.47
509.514	4284.04
509.882	4319.07
510.25	4324.04
510.618	4378.73
510.986	4325.17
511.354	4393.19
511.722	4467.54
512.09	4471.15
512.458	4465.28
512.826	4527.65
513.193	4553.41
513.561	4562.45
513.929	4615.78
514.297	4644.71
514.664	4698.72
515.032	4669.79
515.4	4670.02
515.767	4715.89
516.135	4768.32
516.502	4744.82
516.869	4824.14
517.237	4820.52
517.604	4853.97
517.972	4916.79
518.339	4983.46
518.706	4948.88
519.073	4981.87
519.44	4987.07
519.808	5084.92
520.175	5036.79
520.542	5106.17
520.909	5122.66
521.276	5161.08
521.643	5194.07
522.009	5271.81
522.376	5268.19
522.743	5270.68
523.11	5366.5
523.477	5394.75
523.843	5382.54
524.21	5465.7
524.577	5543.67
524.943	5575.76
525.31	5557.68
525.676	5654.85
526.043	5584.12
526.409	5649.88
526.776	5713.38
527.142	5760.84
527.508	5790.67
527.874	5835.86
528.241	5819.37
528.607	5845.13
528.973	5919.25
529.339	5928.06
529.705	5926.93
530.071	6019.36
530.437	5991.79
530.803	6069.3
531.169	6148.85
531.535	6057.78
531.901	6150.21
532.267	6209.41
532.632	6199.47
532.998	6223.42
533.364	6312.01
533.73	6279.24
534.095	6367.6
534.461	6414.38
534.826	6463.42
535.192	6439.69
535.557	6456.19
535.923	6477.65
536.288	6519.01
536.653	6528.05
537.019	6589.97
537.384	6598.56
537.749	6624.54
538.114	6623.87
538.479	6701.38
538.845	6700.47
539.21	6713.81
539.575	6773.24
539.94	6752.9
540.305	6796.74
540.67	6829.51
541.034	6887.59
541.399	6890.75
541.764	6898.21
542.129	6978.43
542.494	6955.16
542.858	7017.98
543.223	6994.03
543.587	7051.88
543.952	7078.09
544.316	7125.1
544.681	7095.04
545.045	7116.96
545.41	7195.38
545.774	7201.93
546.138	7177.75
546.503	7273.79
546.867	7271.76
547.231	7301.14
547.595	7347.69
547.959	7368.03
548.324	7380.46
548.688	7396.73
549.052	7417.29
549.416	7484.63
549.779	7434.47
550.143	7492.77
550.507	7533.22
550.871	7603.95
551.235	7566.21
551.599	7682.14
551.962	7673.56
552.326	7723.27
552.689	7763.27
553.053	7724.18
553.417	7785.87
553.78	7830.61
554.143	7844.17
554.507	7906.54
554.87	7966.65
555.234	7960.55
555.597	7947.22
555.96	8034.68
556.323	8048.91
556.686	8029.03
557.05	8116.03
557.413	8131.17
557.776	8118.52
558.139	8149.02
558.502	8250.49
558.865	8334.78
559.228	8263.6
559.59	8261.34
559.953	8335.23
560.316	8376.14
560.679	8379.75
561.041	8436.02
561.404	8512.63
561.767	8528.22
562.129	8524.83
562.492	8614.55
562.854	8606.41
563.217	8637.82
563.579	8636.69
563.941	8688.9
564.304	8815.45
564.666	8810.25
565.028	8847.76
565.39	8886.18
565.753	8905.61
566.115	8933.64
566.477	8988.77
566.839	9025.61
567.201	9117.81
567.563	9072.39
567.925	9144.25
568.287	9097.25
568.648	9152.39
569.01	9208.88
569.372	9237.81
569.734	9271.03
570.095	9366.84
570.457	9388.54
570.819	9361.65
571.18	9373.4
571.542	9420.4
571.903	9406.17
572.265	9483.68
572.626	9487.74
572.987	9512.38
573.349	9618.14
573.71	9619.72
574.071	9707.4
574.432	9704.69
574.794	9704.91
575.155	9713.95
575.516	9699.72
575.877	9733.39
576.238	9784.91
576.599	9841.63
576.96	9860.62
577.32	9834.85
577.681	9855.87
578.042	9922.76
578.403	9925.93
578.763	9866.27
579.124	9929.99
579.485	9967.96
579.845	10007.73
580.206	10005.7
580.566	9941.97
580.927	10035.53
581.287	10060.61
581.648	10012.93
582.008	10043.44
582.368	9963.44
582.728	9998.24
583.089	10039.82
583.449	10056.32
583.809	10048.63
584.169	10046.83
584.529	10066.26
584.889	10164.11
585.249	10094.06
585.609	10075.07
585.969	10161.4
586.329	10094.06
586.688	10158.46
587.048	10151.23
587.408	10086.6
587.768	10158.46
588.127	10143.77
588.487	10155.07
588.846	10160.95
589.206	10101.29
589.565	10163.89
589.925	10145.13
590.284	10170.21
590.643	10114.4
591.003	10183.32
591.362	10144.68
591.721	10184
592.08	10182.19
592.44	10207.27
592.799	10176.77
593.158	10172.25
593.517	10223.77
593.876	10212.25
594.235	10249.31
594.593	10226.03
594.952	10271.23
595.311	10212.92
595.67	10192.81
596.029	10240.95
596.387	10271.23
596.746	10282.98
597.104	10230.78
597.463	10205.24
597.822	10304.45
598.18	10263.54
598.538	10292.47
598.897	10296.99
599.255	10224.67
599.613	10280.04
599.972	10270.32
600.33	10249.98
600.688	10310.32
601.046	10307.61
601.404	10350.77
601.762	10397.33
602.12	10348.97
602.478	10354.61
602.836	10387.38
603.194	10352.13
603.552	10304.22
603.91	10293.6
604.268	10368.63
604.625	10351.68
604.983	10400.49
605.341	10292.24
605.698	10421.73
606.056	10400.04
606.413	10374.5
606.771	10412.24
607.128	10442.75
607.485	10387.38
607.843	10401.17
608.2	10439.13
608.557	10483.88
608.914	10419.02
609.272	10539.92
609.629	10484.1
609.986	10539.69
610.343	10459.24
610.7	10535.4
611.057	10520.03
611.414	10546.47
611.771	10500.83
612.127	10585.8
612.484	10625.34
612.841	10619.24
613.198	10616.3
613.554	10572.46
613.911	10642.97
614.267	10686.36
614.624	10639.35
614.98	10637.32
615.337	10680.71
615.693	10647.26
616.05	10699.92
616.406	10715.06
616.762	10732.68
617.118	10667.37
617.475	10659.01
617.831	10762.74
618.187	10682.06
618.543	10762.97
618.899	10766.13
619.255	10797.09
619.611	10776.07
619.967	10793.7
620.323	10825.34
620.678	10789.86
621.034	10748.05
621.39	10812.91
621.746	10783.3
622.101	10826.47
622.457	10827.37
622.812	10891.78
623.168	10868.73
623.523	10888.16
623.879	10834.38
624.234	10767.71
624.589	10770.42
624.945	10892.91
625.3	10773.59
625.655	10819.46
626.01	10813.13
626.365	10823.75
626.72	10864.21
627.075	10787.37
627.43	10849.97
627.785	10833.25
628.14	10786.47
628.495	10842.51
628.85	10819.24
629.205	10847.48
629.559	10889.52
629.914	10805.9
630.269	10793.47
630.623	10815.17
630.978	10754.83
631.332	10795.51
631.687	10823.3
632.041	10732.68
632.396	10800.48
632.75	10805.9
633.104	10807.03
633.459	10732.68
633.813	10749.41
634.167	10667.83
634.521	10749.18
634.875	10734.72
635.229	10764.1
635.583	10715.96
635.937	10651.1
636.291	10686.58
636.645	10628.05
636.999	10637.09
637.352	10706.24
637.706	10578.56
638.06	10662.18
638.413	10584.44
638.767	10657.88
639.121	10609.75
639.474	10554.84
639.828	10493.82
640.181	10587.83
640.534	10491.79
640.888	10520.26
641.241	10517.32
641.594	10510.09
641.947	10566.59
642.301	10545.57
642.654	10581.73
643.007	10533.59
643.36	10528.85
643.713	10492.46
644.066	10608.85
644.419	10457.89
644.771	10411.11
645.124	10323.66
645.477	10286.14
645.83	10203.43
646.182	10201.62
646.535	10173.15
646.888	10215.86
647.24	10211.57
647.593	10226.71
647.945	10253.6
648.298	10172.7
648.65	10113.49
649.002	10159.82
649.355	10093.15
649.707	10151.46
650.059	10226.48
650.411	10317.78
650.763	10282.3
651.115	10357.33
651.467	10398.68
651.819	10418.57
652.171	10401.17
652.523	10369.98
652.875	10363.2
653.227	10308.06
653.578	10428.96
653.93	10368.17
654.282	10390.77
654.633	10357.55
654.985	10294.5
655.337	10341.28
655.688	10325.46
656.039	10378.12
656.391	10256.31
656.742	10402.3
657.094	10374.05
657.445	10376.31
657.796	10346.25
658.147	10292.24
658.498	10329.08
658.849	10342.64
659.2	10361.85
659.551	10289.76
659.902	10318.01
660.253	10325.01
660.604	10405.01
660.955	10287.27
661.306	10369.3
661.656	10274.16
662.007	10334.28
662.358	10313.49
662.708	10328.4
663.059	10294.73
663.409	10273.26
663.76	10344.67
664.11	10351.45
664.461	10416.99
664.811	10392.13
665.161	10363.43
665.511	10318.01
665.862	10389.42
666.212	10357.1
666.562	10413.37
666.912	10245.69
667.262	10279.59
667.612	10312.36
667.962	10259.93
668.312	10242.08
668.662	10360.04
669.011	10299.93
669.361	10341.73
669.711	10267.39
670.06	10249.08
670.41	10265.13
670.76	10235.07
671.109	10290.44
671.459	10201.85
671.808	10248.18
672.157	10250.66
672.507	10189.2
672.856	10193.94
673.205	10242.98
673.554	10280.04
673.904	10166.15
674.253	10267.39
674.602	10186.48
674.951	10128.86
675.3	10059.26
675.649	10155.98
675.998	10125.47
676.346	10222.41
676.695	10165.92
677.044	10127.95
677.393	10135.41
677.741	10170.44
678.09	10136.54
678.438	10076.43
678.787	10079.59
679.135	10158.46
679.484	10000.73
679.832	10060.84
680.181	9957.34
680.529	10064.9
680.877	9991.69
681.225	9961.4
681.573	10038.92
681.922	9952.82
682.27	9962.31
682.618	9958.02
682.966	9963.44
683.314	9997.79
683.661	9925.47
684.009	9891.8
684.357	9843.89
684.705	9879.82
685.053	9825.14
685.4	9807.74
685.748	9737.23
686.095	9745.14
686.443	9679.38
686.79	9720.73
687.138	9703.11
687.485	9660.17
687.832	9633.73
688.18	9641.41
688.527	9642.32
688.874	9544.69
689.221	9592.37
689.568	9568.19
689.915	9517.57
690.262	9520.29
690.609	9501.08
690.956	9423.79
691.303	9460.63
691.65	9420.63
691.997	9418.82
692.344	9353.06
692.69	9317.13
693.037	9358.48
693.383	9220.86
693.73	9311.03
694.077	9240.97
694.423	9246.62
694.769	9232.84
695.116	9213.63
695.462	9117.81
695.808	9114.2
696.155	9130.92
696.501	9099.05
696.847	9060.86
697.193	9056.57
697.539	9010.02
697.885	8979.06
698.231	8982.67
698.577	8881.89
698.923	8871.72
699.269	8859.06
699.614	8837.82
699.96	8784.49
700.306	8841.43
700.651	8740.87
700.997	8741.78
701.342	8705.17
701.688	8690.03
702.033	8684.6
702.379	8619.07
702.724	8537.94
703.069	8639.41
703.415	8522.57
703.76	8541.78
704.105	8476.47
704.45	8490.71
704.795	8410.03
705.14	8379.53
705.485	8459.52
705.83	8405.97
706.175	8369.81
706.52	8355.8
706.865	8350.37
707.209	8350.37
707.554	8261.11
707.899	8303.14
708.243	8193.54
708.588	8167.78
708.932	8144.73
709.277	8143.83
709.621	8206.2
709.966	8117.61
710.31	8092.3
710.654	8055.47
710.998	8087.78
711.342	8090.95
711.687	8078.74
712.031	8039.42
712.375	7939.99
712.719	8029.93
713.063	7973.21
713.407	8036.03
713.75	7937.28
714.094	7931.4
714.438	7934.34
714.782	7965.53
715.125	7919.65
715.469	7920.55
715.812	7924.4
716.156	7883.95
716.499	7866.77
716.843	7854.79
717.186	7843.04
717.53	7850.27
717.873	7846.66
718.216	7855.92
718.559	7799.2
718.902	7698.87
719.246	7851.86
719.589	7735.93
719.932	7775.7
720.275	7715.59
720.617	7709.49
720.96	7762.37
721.303	7778.41
721.646	7723.5
721.989	7690.28
722.331	7713.55
722.674	7671.3
723.016	7732.99
723.359	7699.77
723.701	7688.02
724.044	7682.59
724.386	7603.95
724.729	7702.71
725.071	7709.49
725.413	7677.17
725.755	7626.78
726.097	7650.51
726.439	7604.86
726.782	7624.74
727.124	7612.09
727.465	7572.32
727.807	7540
728.149	7573.44
728.491	7622.26
728.833	7591.75
729.175	7622.48
729.516	7574.35
729.858	7601.92
730.199	7582.48
730.541	7516.95
730.882	7535.93
731.224	7543.39
731.565	7488.93
731.906	7568.7
732.248	7569.83
732.589	7542.71
732.93	7514.01
733.271	7558.3
733.612	7469.94
733.953	7521.69
734.294	7508.81
734.635	7521.69
734.976	7532.54
735.317	7493
735.658	7452.32
735.999	7507.46
736.339	7446.44
736.68	7522.82
737.021	7459.32
737.361	7465.88
737.702	7495.71
738.042	7455.71
738.383	7502.26
738.723	7506.1
739.063	7424.07
739.404	7425.65
739.744	7466.78
740.084	7428.59
740.424	7482.37
740.764	7443.28
741.104	7420.91
741.444	7460.23
741.784	7438.31
742.124	7417.52
742.464	7439.89
742.804	7464.3
743.143	7412.09
743.483	7423.39
743.823	7399.66
744.162	7468.81
744.502	7446.44
744.841	7420.91
745.181	7409.61
745.52	7371.19
745.86	7365.54
746.199	7359.44
746.538	7385.65
746.877	7396.27
747.216	7382.94
747.556	7407.35
747.895	7389.49
748.234	7358.08
748.573	7389.72
748.911	7359.89
749.25	7367.12
749.589	7356.05
749.928	7337.74
750.267	7325.77
750.605	7342.26
750.944	7332.55
751.283	7284.86
751.621	7417.06
751.96	7276.73
752.298	7335.49
752.636	7318.31
752.975	7226.34
753.313	7336.62
753.651	7311.08
753.989	7222.95
754.327	7313.79
754.666	7183.17
755.004	7173.23
755.342	7236.96
755.679	7217.52
756.017	7188.14
756.355	7232.21
756.693	7224.3
757.031	7149.95
757.368	7152.44
757.706	7158.09
758.044	7112.89
758.381	7140.91
758.719	7093.01
759.056	7149.05
759.394	7086.68
759.731	7050.75
760.068	7027.92
760.405	7039.67
760.743	7013.01
761.08	7032.67
761.417	7013.91
761.754	6880.58
762.091	6964.87
762.428	6924.2
762.765	6861.37
763.102	6944.08
763.438	6865.89
763.775	6885.55
764.112	6882.62
764.449	6898.21
764.785	6864.31
765.122	6804.65
765.458	6763.75
765.795	6728.72
766.131	6757.42
766.467	6753.81
766.804	6701.38
767.14	6660.93
767.476	6679.23
767.812	6624.54
768.148	6645.56
768.485	6603.07
768.821	6592
769.157	6573.47
769.492	6568.95
769.828	6558.78
770.164	6434.49
770.5	6488.05
770.836	6451.44
771.171	6442.18
771.507	6386.81
771.842	6340.48
772.178	6409.41
772.513	6385.23
772.849	6326.92
773.184	6321.73
773.519	6291.67
773.855	6265.68
774.19	6259.58
774.525	6263.2
774.86	6213.25
775.195	6201.05
775.53	6192.92
775.865	6160.15
776.2	6126.48
776.535	6154.73
776.87	6077.44
777.205	6082.86
777.539	5989.31
777.874	6032.47
778.209	6001.51
778.543	5981.85
778.878	5956.99
779.212	5961.28
779.547	5923.32
779.881	5979.36
780.215	5867.95
780.55	5909.53
780.884	5830.44
781.218	5924.67
781.552	5835.19
781.886	5810.1
782.22	5716.09
782.554	5802.19
782.888	5763.78
783.222	5675.19
783.556	5679.48
783.889	5659.82
784.223	5629.32
784.557	5650.33
784.89	5623.44
785.224	5627.73
785.557	5576.44
785.891	5622.76
786.224	5517.68
786.558	5559.26
786.891	5577.57
787.224	5506.61
787.557	5494.86
787.891	5482.65
788.224	5491.24
788.557	5429.32
788.89	5427.06
789.223	5449.43
789.556	5333.5
789.888	5360.4
790.221	5360.17
790.554	5272.94
790.887	5340.28
791.219	5260.51
791.552	5248.08
791.884	5260.74
792.217	5262.55
792.549	5239.95
792.882	5184.36
793.214	5199.27
793.546	5201.98
793.879	5150.23
794.211	5130.8
794.543	5103.91
794.875	5108.43
795.207	5100.97
795.539	5079.73
795.871	5085.15
796.203	5041.31
796.535	5020.74
796.867	5021.87
797.198	5029.33
797.53	4966.06
797.862	4987.98
798.193	4960.18
798.525	4929.9
798.856	5000.63
799.188	4923.35
799.519	4898.71
799.85	4888.54
800.182	4863.69
800.513	4873.18
800.844	4847.87
801.175	4864.82
801.506	4855.32
801.837	4829.34
802.168	4791.15
802.499	4764.25
802.83	4746.4
803.161	4741.43
803.491	4769.68
803.822	4780.75
804.153	4726.29
804.483	4686.74
804.814	4683.8
805.145	4663.46
805.475	4705.05
805.805	4624.6
806.136	4613.3
806.466	4625.73
806.796	4641.32
807.126	4574.43
807.457	4606.52
807.787	4612.17
808.117	4566.74
808.447	4564.71
808.777	4562
809.107	4571.72
809.436	4542.34
809.766	4504.6
810.096	4523.13
810.426	4486.75
810.755	4489.91
811.085	4513.41
811.414	4477.48
811.744	4432.74
812.073	4440.87
812.403	4469.57
812.732	4388.9
813.061	4456.92
813.39	4362
813.719	4409.23
814.049	4395.45
814.378	4384.15
814.707	4361.33
815.036	4304.38
815.365	4370.14
815.693	4319.75
816.022	4270.71
816.351	4283.36
816.68	4265.51
817.008	4273.87
817.337	4266.87
817.665	4223.25
817.994	4246.98
818.322	4228.45
818.651	4238.39
818.979	4237.49
819.307	4205.85
819.636	4185.51
819.964	4190.71
820.292	4176.02
820.62	4208.79
820.948	4205.62
821.276	4207.43
821.604	4164.04
821.932	4216.02
822.259	4241.1
822.587	4155.46
822.915	4172.63
823.243	4219.41
823.57	4169.92
823.898	4122.01
824.225	4157.26
824.553	4152.97
824.88	4123.14
825.207	4204.95
825.535	4130.6
825.862	4171.95
826.189	4138.28
826.516	4163.14
826.843	4183.93
827.17	4164.72
827.497	4192.52
827.824	4103.71
828.151	4165.85
828.478	4162.46
828.805	4171.73
829.131	4131.05
829.458	4137.15
829.785	4145.06
830.111	4097.6
830.438	4136.47
830.764	4135.12
831.09	4122.01
831.417	4124.95
831.743	4187.77
832.069	4180.09
832.395	4140.31
832.722	4125.85
833.048	4122.01
833.374	4133.99
833.7	4098.51
834.026	4107.77
834.351	4130.37
834.677	4113.42
835.003	4052.63
835.329	4138.96
835.654	4086.08
835.98	4083.82
836.306	4070.03
836.631	4060.99
836.956	4107.1
837.282	4066.87
837.607	4022.8
837.932	4014.89
838.258	4047.89
838.583	4049.92
838.908	3997.49
839.233	4026.87
839.558	4055.12
839.883	4012.18
840.208	3987.55
840.533	4020.32
840.858	3970.38
841.182	3981.22
841.507	4009.47
841.832	3946.65
842.156	3969.25
842.481	3980.55
842.805	3983.93
843.13	3961.11
843.454	3945.97
843.778	3950.49
844.103	3892.19
844.427	3951.17
844.751	3892.64
845.075	3911.39
845.399	3923.6
845.723	3870.72
846.047	3869.59
846.371	3836.59
846.695	3828.01
847.019	3812.64
847.343	3802.02
847.666	3788.46
847.99	3764.28
848.313	3782.13
848.637	3753.66
848.96	3790.49
849.284	3743.94
849.607	3709.37
849.931	3729.93
850.254	3645.19
850.577	3676.6
850.9	3639.31
851.223	3651.29
851.546	3618.75
851.869	3602.25
852.192	3639.99
852.515	3581.91
852.838	3592.53
853.161	3576.26
853.483	3557.28
853.806	3555.02
854.129	3545.75
854.451	3534.68
854.774	3527
855.096	3529.48
855.419	3483.38
855.741	3475.7
856.063	3482.48
856.385	3442.93
856.708	3438.19
857.03	3425.98
857.352	3452.42
857.674	3421.69
857.996	3450.62
858.318	3379.66
858.64	3402.03
858.961	3412.88
859.283	3345.53
859.605	3396.83
859.926	3365.65
860.248	3369.49
860.57	3365.19
860.891	3333.33
861.212	3367
861.534	3319.77
861.855	3284.97
862.176	3341.47
862.498	3292.88
862.819	3342.6
863.14	3322.94
863.461	3273.9
863.782	3303.05
864.103	3310.73
864.424	3293.11
864.745	3320.9
865.065	3276.16
865.386	3238.87
865.707	3267.57
866.027	3268.02
866.348	3237.74
866.668	3255.82
866.989	3259.43
867.309	3206.33
867.63	3204.52
867.95	3232.32
868.27	3188.02
868.59	3245.88
868.91	3232.54
869.23	3169.04
869.55	3221.47
869.87	3186.22
870.19	3202.26
870.51	3193.67
870.83	3191.19
871.15	3177.4
871.469	3181.24
871.789	3159.1
872.109	3186.67
872.428	3152.54
872.748	3138.08
873.067	3159.78
873.386	3115.26
873.706	3148.02
874.025	3124.07
874.344	3147.35
874.663	3150.96
874.982	3116.39
875.301	3173.56
875.62	3077.74
875.939	3113
876.258	3130.4
876.577	3115.48
876.896	3103.51
877.214	3117.52
877.533	3105.31
877.852	3071.19
878.17	3097.86
878.489	3079.1
878.807	3074.81
879.125	3107.57
879.444	3084.07
879.762	3059.21
880.08	3078.65
880.398	3023.96
880.716	3051.76
881.034	3030.97
881.352	3033.23
881.67	3049.72
881.988	3021.47
882.306	2998.42
882.624	3062.6
882.941	2984.64
883.259	2980.12
883.577	2976.05
883.894	2997.97
884.212	3006.33
884.529	2968.37
884.846	2967.46
885.164	2955.26
885.481	2910.29
885.798	2960.91
886.115	2949.39
886.432	2934.24
886.75	2933.11
887.067	2891.31
887.383	2864.64
887.7	2921.82
888.017	2916.39
888.334	2898.77
888.651	2880.24
888.967	2855.6
889.284	2834.81
889.6	2839.11
889.917	2844.53
890.233	2845.43
890.55	2833.68
890.866	2835.49
891.182	2807.69
891.498	2815.38
891.815	2807.47
892.131	2796.85
892.447	2773.12
892.763	2786.23
893.079	2746.68
893.395	2773.8
893.71	2788.03
894.026	2756.85
894.342	2758.88
894.657	2739.9
894.973	2720.69
895.289	2737.41
895.604	2725.89
895.92	2707.13
896.235	2725.66
896.55	2727.7
896.865	2686.79
897.181	2680.92
897.496	2679.79
897.811	2665.33
898.126	2666.91
898.441	2659.22
898.756	2632.33
899.071	2651.31
899.386	2611.32
899.7	2610.19
900.015	2615.16
900.33	2597.3
900.644	2572.67
900.959	2555.72
901.273	2546.91
901.588	2534.03
901.902	2522.96
902.216	2539
902.531	2545.55
902.845	2513.46
903.159	2504.88
903.473	2533.8
903.787	2475.95
904.101	2479.12
904.415	2480.47
904.729	2506.46
905.042	2460.13
905.356	2482.05
905.67	2474.6
905.984	2458.1
906.297	2476.86
906.611	2404.54
906.924	2444.31
907.237	2431.66
907.551	2396.86
907.864	2433.24
908.177	2386.69
908.491	2403.86
908.804	2383.98
909.117	2397.54
909.43	2369.51
909.743	2339.91
910.056	2336.07
910.368	2350.31
910.681	2332.68
910.994	2320.48
911.307	2309.18
911.619	2291.32
911.932	2253.58
912.244	2285.9
912.557	2306.24
912.869	2275.96
913.181	2266.47
913.494	2255.39
913.806	2248.39
914.118	2226.47
914.43	2243.19
914.742	2224.43
915.054	2198.67
915.366	2203.19
915.678	2202.06
915.99	2171.78
916.302	2166.36
916.613	2187.37
916.925	2156.86
917.236	2181.95
917.548	2132.46
917.859	2150.31
918.171	2134.27
918.482	2115.06
918.794	2101.27
919.105	2103.31
919.416	2080.03
919.727	2120.93
920.038	2087.26
920.349	2075.74
920.66	2059.69
920.971	2090.65
921.282	2054.72
921.593	2048.39
921.903	2061.73
922.214	2052.23
922.525	2039.13
922.835	2005.68
923.146	2045.91
923.456	2052.69
923.767	1965.68
924.077	2015.17
924.387	1993.03
924.697	1983.54
925.008	1966.81
925.318	1962.29
925.628	1994.38
925.938	1947.38
926.248	1945.12
926.558	1936.08
926.867	1906.25
927.177	1912.58
927.487	1924.33
927.796	1899.47
928.106	1901.28
928.416	1896.98
928.725	1883.43
929.034	1894.95
929.344	1906.7
929.653	1894.72
929.962	1897.44
930.271	1854.5
930.581	1848.85
930.89	1840.49
931.199	1846.82
931.508	1809.98
931.817	1842.3
932.125	1811.11
932.434	1810.21
932.743	1762.75
933.051	1810.66
933.36	1778.12
933.669	1761.85
933.977	1753.71
934.286	1765.91
934.594	1770.89
934.902	1766.82
935.21	1759.36
935.519	1767.95
935.827	1749.19
936.135	1736.76
936.443	1703.99
936.751	1716.88
937.059	1723.66
937.367	1731.34
937.674	1703.54
937.982	1712.58
938.29	1730.21
938.597	1682.75
938.905	1683.2
939.213	1662.19
939.52	1695.41
939.827	1662.87
940.135	1655.63
940.442	1642.53
940.749	1680.04
941.056	1628.52
941.363	1640.72
941.67	1631.23
941.977	1617.44
942.284	1603.43
942.591	1626.71
942.898	1596.88
943.205	1627.39
943.511	1588.97
943.818	1554.85
944.125	1573.15
944.431	1592.13
944.738	1613.38
945.044	1565.92
945.35	1564.34
945.657	1537.22
945.963	1564.56
946.269	1531.34
946.575	1510.55
946.881	1532.02
947.187	1547.61
947.493	1529.54
947.799	1508.75
948.105	1497.45
948.41	1480.72
948.716	1491.8
949.022	1493.6
949.327	1500.16
949.633	1482.76
949.938	1518.69
950.244	1453.38
950.549	1478.01
950.854	1442.31
951.16	1465.81
951.465	1498.12
951.77	1457.67
952.075	1454.74
952.38	1466.94
952.685	1460.39
952.99	1453.15
953.294	1420.16
953.599	1402.99
953.904	1407.51
954.209	1388.07
954.513	1413.15
954.818	1388.97
955.122	1406.6
955.426	1376.55
955.731	1377
956.035	1362.76
956.339	1379.48
956.643	1379.71
956.948	1340.84
957.252	1339.94
957.556	1395.3
957.86	1368.86
958.163	1349.88
958.467	1346.94
958.771	1346.26
959.075	1330.22
959.378	1321.18
959.682	1319.6
959.985	1315.98
960.289	1324.8
960.592	1293.61
960.896	1308.07
961.199	1308.3
961.502	1294.06
961.805	1273.27
962.108	1275.53
962.411	1277.11
962.714	1284.57
963.017	1264.91
963.32	1266.04
963.623	1292.93
963.926	1251.8
964.228	1226.95
964.531	1257
964.833	1260.62
965.136	1247.96
965.438	1253.39
965.741	1210.22
966.043	1245.25
966.345	1231.69
966.648	1235.08
966.95	1204.57
967.252	1195.76
967.554	1202.99
967.856	1220.62
968.158	1203.67
968.46	1220.39
968.761	1180.84
969.063	1209.32
969.365	1208.64
969.666	1179.94
969.968	1139.72
970.269	1158.25
970.571	1151.24
970.872	1170.9
971.174	1137
971.475	1120.73
971.776	1158.25
972.077	1150.34
972.378	1162.31
972.679	1161.18
972.98	1155.31
973.281	1138.59
973.582	1124.12
973.883	1123.45
974.183	1131.35
974.484	1127.06
974.785	1112.6
975.085	1113.05
975.386	1106.95
975.686	1087.29
975.986	1078.02
976.287	1099.72
976.587	1108.76
976.887	1090.9
977.187	1094.97
977.487	1059.04
977.787	1061.3
978.087	1049.77
978.387	1066.27
978.687	1063.33
978.987	1050
979.286	1042.09
979.586	1040.51
979.885	1055.65
980.185	1046.38
980.484	1019.04
980.784	1020.62
981.083	1037.12
981.382	1019.72
981.682	1022.2
981.981	993.73
982.28	1013.84
982.579	1016.33
982.878	998.48
983.177	1019.94
983.475	998.7
983.774	995.99
984.073	1010.23
984.372	1016.78
984.67	1004.35
984.969	989.89
985.267	1013.17
985.566	996.89
985.864	976.56
986.162	973.39
986.461	959.38
986.759	975.65
987.057	940.85
987.355	967.52
987.653	968.42
987.951	961.19
988.249	991.92
988.547	956.44
988.844	945.6
989.142	955.99
989.44	977.01
989.737	934.98
990.035	938.82
990.332	937.24
990.63	894.75
990.927	923
991.224	931.81
991.521	917.57
991.819	912.6
992.116	897.91
992.413	909.67
992.71	913.96
993.006	890.46
993.303	906.28
993.6	922.09
993.897	904.47
994.193	883.68
994.49	892.72
994.787	903.11
995.083	862.66
995.379	866.73
995.676	881.19
995.972	858.14
996.268	873.06
996.565	857.46
996.861	840.29
997.157	864.69
997.453	866.05
997.749	849.78
998.044	844.58
998.34	870.12
998.636	838.48
998.932	870.8
999.227	843.45
999.523	839.61
999.818	834.19
1000.114	804.13
1000.409	833.06
1000.704	813.17
1001	812.72
1001.295	841.64
1001.59	824.7
1001.885	812.04
1002.18	789.89
1002.475	788.76
1002.77	820.4
1003.065	802.55
1003.359	770.91
1003.654	765.94
1003.949	813.62
1004.243	791.93
1004.538	793.51
1004.832	800.97
1005.127	782.44
1005.421	757.58
1005.715	766.17
1006.009	771.82
1006.304	756.22
1006.598	763.45
1006.892	754.64
1007.186	754.19
1007.48	753.96
1007.773	752.16
1008.067	753.29
1008.361	758.26
1008.655	755.55
1008.948	728.43
1009.242	734.3
1009.535	754.42
1009.829	753.74
1010.122	721.2
1010.415	702.21
1010.708	717.58
1011.001	715.55
1011.295	706.05
1011.588	703.34
1011.881	712.61
1012.173	726.39
1012.466	703.12
1012.759	715.09
1013.052	689.33
1013.344	719.61
1013.637	710.35
1013.93	678.03
1014.222	698.15
1014.514	665.83
1014.807	681.42
1015.099	676
1015.391	691.59
1015.683	675.77
1015.976	679.61
1016.268	666.73
1016.56	679.39
1016.851	634.87
1017.143	659.95
1017.435	652.05
1017.727	659.73
1018.018	654.3
1018.31	637.58
1018.602	660.86
1018.893	660.63
1019.185	647.98
1019.476	661.76
1019.767	627.64
1020.058	628.54
1020.35	642.33
1020.641	644.81
1020.932	638.94
1021.223	636.68
1021.514	613.4
1021.804	633.74
1022.095	632.61
1022.386	613.4
1022.677	627.86
1022.967	606.62
1023.258	587.19
1023.548	611.59
1023.839	589.67
1024.129	590.35
1024.419	605.04
1024.709	605.27
1025	577.02
1025.29	583.57
1025.58	589
1025.87	591.26
1026.16	566.85
1026.449	595.32
1026.739	584.02
1027.029	573.63
1027.319	585.83
1027.608	571.14
1027.898	582.89
1028.187	549.9
1028.477	554.65
1028.766	561.88
1029.055	567.3
1029.344	560.75
1029.634	565.95
1029.923	545.16
1030.212	557.58
1030.501	533.4
1030.79	545.83
1031.078	548.09
1031.367	532.73
1031.656	563.46
1031.945	563.69
1032.233	550.35
1032.522	537.02
1032.81	519.85
1033.099	512.61
1033.387	527.08
1033.675	533.86
1033.963	534.08
1034.251	526.85
1034.54	519.62
1034.828	517.81
1035.116	509.22
1035.403	516.91
1035.691	506.06
1035.979	509
1036.267	499.05
1036.554	518.94
1036.842	520.3
1037.129	530.01
1037.417	506.74
1037.704	492.5
1037.992	490.92
1038.279	516
1038.566	510.81
1038.853	510.81
1039.14	510.81
