Data from mousepad_grey_FLMS001491_00050.txt Node
Date: Wed Feb 08 14:29:30 GMT 2017
User: dcchb
Spectrometer: FLMS00149
Trigger mode: 0
Integration Time (sec): 2.000000E-2
Scans to average: 10
Electric dark correction enabled: true
Nonlinearity correction enabled: false
Boxcar width: 0
XAxis mode: Wavelengths
Number of Pixels in Spectrum: 2048
>>>>>Begin Spectral Data<<<<<
341.393	-3.5
341.776	-3.5
342.16	-3.5
342.543	-64.07
342.927	-44.63
343.31	-76.5
343.693	-68.81
344.077	-63.39
344.46	-67.46
344.843	-66.55
345.226	-41.69
345.61	-28.36
345.993	-15.25
346.376	-11.19
346.759	16.61
347.142	13.9
347.525	47.12
347.908	59.77
348.291	83.73
348.674	95.93
349.057	122.14
349.44	137.74
349.823	156.72
350.206	189.49
350.588	179.09
350.971	191.07
351.354	206.89
351.737	241.91
352.119	251.41
352.502	254.12
352.884	276.49
353.267	247.56
353.65	276.04
354.032	283.95
354.414	283.95
354.797	308.81
355.179	295.7
355.562	318.3
355.944	297.73
356.326	308.81
356.709	322.36
357.091	327.56
357.473	321.69
357.855	335.02
358.238	329.6
358.62	351.52
359.002	342.25
359.384	346.09
359.766	355.81
360.148	336.6
360.53	322.36
360.912	311.97
361.294	312.42
361.676	319.2
362.057	299.31
362.439	319.65
362.821	315.58
363.203	307
363.584	300.9
363.966	318.07
364.348	323.27
364.729	316.71
365.111	285.98
365.493	291.4
365.874	311.97
366.256	317.62
366.637	288.92
367.019	291.86
367.4	302.7
367.781	303.83
368.163	286.21
368.544	313.78
368.925	307.9
369.306	290.05
369.688	302.03
370.069	314.91
370.45	289.6
370.831	290.05
371.212	288.24
371.593	287.79
371.974	291.63
372.355	294.79
372.736	291.86
373.117	290.95
373.498	305.87
373.879	307.9
374.26	304.74
374.641	306.32
375.021	298.41
375.402	299.77
375.783	322.14
376.163	313.1
376.544	311.07
376.925	306.09
377.305	312.2
377.686	316.04
378.066	288.69
378.447	300.22
378.827	325.75
379.208	307
379.588	318.97
379.968	326.66
380.349	321.91
380.729	305.64
381.109	332.53
381.489	346.32
381.87	319.65
382.25	327.34
382.63	339.09
383.01	299.99
383.39	319.88
383.77	328.47
384.15	341.57
384.53	326.43
384.91	342.93
385.29	335.02
385.67	326.66
386.049	325.75
386.429	334.12
386.809	331.86
387.189	338.18
387.568	337.28
387.948	334.57
388.328	340.67
388.707	345.19
389.087	348.13
389.466	362.36
389.846	347.9
390.225	347.45
390.605	358.52
390.984	348.8
391.363	342.7
391.743	339.54
392.122	360.78
392.501	354.23
392.881	359.88
393.26	350.61
393.639	360.33
394.018	338.18
394.397	335.25
394.776	370.95
395.155	365.75
395.534	380.67
395.913	374.11
396.292	351.97
396.671	375.24
397.05	373.44
397.429	382.7
397.808	371.85
398.186	368.24
398.565	372.98
398.944	383.38
399.323	379.09
399.701	392.87
400.08	379.99
400.458	391.52
400.837	389.71
401.215	398.07
401.594	405.53
401.972	407.79
402.351	397.62
402.729	395.36
403.107	410.95
403.486	403.94
403.864	402.81
404.242	417.5
404.62	397.39
404.999	404.4
405.377	397.39
405.755	392.65
406.133	424.06
406.511	386.09
406.889	407.79
407.267	427.67
407.645	389.03
408.023	431.51
408.401	432.64
408.779	418.63
409.156	447.33
409.534	445.53
409.912	438.75
410.29	438.29
410.667	436.49
411.045	457.95
411.422	460.44
411.8	466.77
412.178	474.68
412.555	483.26
412.933	455.24
413.31	475.13
413.687	482.81
414.065	480.55
414.442	490.5
414.819	446.88
415.197	477.84
415.574	477.16
415.951	491.4
416.328	509.93
416.705	483.94
417.082	484.62
417.46	508.35
417.837	501.34
418.214	496.82
418.591	513.32
418.967	524.62
419.344	514
419.721	523.72
420.098	542.25
420.475	531.4
420.852	542.02
421.228	522.59
421.605	540.44
421.982	534.56
422.358	545.86
422.735	568.01
423.111	567.33
423.488	562.13
423.864	537.5
424.241	543.38
424.617	574.79
424.994	572.53
425.37	545.41
425.746	564.17
426.123	575.92
426.499	586.99
426.875	592.41
427.251	580.44
427.627	599.19
428.003	633.99
428.379	603.71
428.756	621.11
429.132	614.33
429.507	625.18
429.883	606.88
430.259	608.01
430.635	602.58
431.011	642.58
431.387	650.04
431.763	646.2
432.138	659.08
432.514	649.36
432.89	691.39
433.265	675.8
433.641	676.71
434.016	669.93
434.392	681.68
434.767	707.21
435.143	699.76
435.518	707.21
435.894	714.44
436.269	708.57
436.644	730.94
437.02	725.07
437.395	736.36
437.77	736.82
438.145	725.07
438.52	746.99
438.895	767.32
439.271	744.73
439.646	762.35
440.021	783.82
440.395	782.01
440.77	744.5
441.145	783.6
441.52	772.75
441.895	803.26
442.27	805.97
442.645	789.02
443.019	809.58
443.394	823.37
443.769	815.01
444.143	812.97
444.518	815.46
444.892	807.32
445.267	818.17
445.641	817.72
446.016	841.9
446.39	826.53
446.764	827.21
447.139	843.48
447.513	859.3
447.887	865.85
448.262	857.94
448.636	843.03
449.01	886.42
449.384	840.77
449.758	860.2
450.132	885.29
450.506	880.54
450.88	889.36
451.254	893.42
451.628	900.88
452.002	897.26
452.376	917.15
452.75	922.57
453.123	922.35
453.497	931.16
453.871	932.74
454.244	973.19
454.618	956.92
454.992	991.95
455.365	978.62
455.739	1010.26
456.112	993.99
456.486	994.21
456.859	1021.78
457.232	1024.72
457.606	1037.15
457.979	1021.78
458.352	1052.74
458.725	1067.88
459.099	1086.64
459.472	1102.23
459.845	1102.23
460.218	1116.92
460.591	1106.52
460.964	1118.5
461.337	1158.95
461.71	1126.19
462.083	1173.42
462.456	1153.53
462.829	1186.3
463.201	1184.49
463.574	1195.79
463.947	1203.02
464.32	1252.96
464.692	1221.78
465.065	1227.65
465.438	1262.68
465.81	1292.06
466.183	1264.94
466.555	1300.64
466.928	1279.4
467.3	1314.43
467.672	1334.77
468.045	1354.88
468.417	1375.67
468.789	1380.87
469.161	1406.4
469.534	1416.8
469.906	1391.26
470.278	1454.99
470.65	1429.91
471.022	1489.57
471.394	1503.8
471.766	1522.33
472.138	1540.19
472.51	1560.75
472.882	1562.56
473.253	1566.63
473.625	1557.59
473.997	1608.21
474.369	1631.26
474.74	1610.69
475.112	1662.22
475.484	1713.51
475.855	1727.53
476.227	1737.69
476.598	1792.16
476.97	1771.14
477.341	1818.14
477.713	1810.46
478.084	1883.68
478.455	1873.96
478.827	1909.44
479.198	1933.17
479.569	1966.39
479.94	1974.3
480.311	1997.12
480.682	2052.71
481.053	2089.32
481.424	2123
481.795	2139.04
482.166	2180.17
482.537	2188.76
482.908	2246.38
483.279	2267.62
483.65	2277.34
484.021	2304.69
484.391	2361.86
484.762	2407.06
485.133	2394.63
485.503	2447.28
485.874	2461.97
486.244	2509.2
486.615	2540.16
486.985	2552.59
487.356	2585.81
487.726	2617.45
488.097	2681.17
488.467	2655.86
488.837	2716.2
489.207	2773.37
489.578	2765.69
489.948	2805.24
490.318	2828.29
490.688	2875.07
491.058	2864.67
491.428	2908.06
491.798	2918.23
492.168	2989.19
492.538	3001.62
492.908	3036.64
493.278	3041.61
493.648	3072.35
494.017	3106.47
494.387	3151.67
494.757	3129.52
495.126	3206.36
495.496	3174.72
495.866	3194.83
496.235	3285.9
496.605	3255.85
496.974	3318.44
497.344	3354.83
497.713	3340.82
498.082	3373.36
498.452	3356.41
498.821	3399.12
499.19	3438.21
499.559	3454.94
499.928	3497.42
500.298	3510.53
500.667	3568.61
501.036	3540.13
501.405	3568.61
501.774	3515.95
502.143	3601.83
502.512	3648.38
502.88	3611.77
503.249	3687.93
503.618	3672.56
503.987	3736.51
504.356	3724.08
504.724	3751.88
505.093	3775.38
505.462	3767.25
505.83	3784.65
506.199	3849.5
506.567	3870.29
506.936	3922.95
507.304	3919.11
507.672	3960.01
508.041	3943.96
508.409	3953.23
508.777	4030.74
509.145	4004.53
509.514	4039.33
509.882	4074.13
510.25	4099.89
510.618	4093.56
510.986	4122.26
511.354	4186.67
511.722	4174.92
512.09	4247.01
512.458	4246.56
512.826	4256.27
513.193	4282.71
513.561	4268.48
513.929	4331.3
514.297	4369.94
514.664	4388.47
515.032	4397.06
515.4	4443.61
515.767	4485.42
516.135	4475.02
516.502	4525.19
516.869	4592.99
517.237	4569.26
517.604	4526.1
517.972	4639.77
518.339	4632.99
518.706	4703.94
519.073	4660.78
519.44	4734.68
519.808	4771.74
520.175	4772.64
520.542	4825.75
520.909	4844.96
521.276	4842.25
521.643	4919.31
522.009	4976.93
522.376	4954.78
522.743	4982.13
523.11	5030.94
523.477	5068.68
523.843	5119.98
524.21	5201.78
524.577	5153.88
524.943	5207.43
525.31	5209.92
525.676	5274.78
526.043	5303.02
526.409	5328.11
526.776	5383.93
527.142	5375.79
527.508	5453.3
527.874	5480.87
528.241	5499.18
528.607	5525.84
528.973	5529.69
529.339	5589.8
529.705	5573.07
530.071	5669.79
530.437	5667.53
530.803	5740.3
531.169	5766.29
531.535	5752.5
531.901	5803.12
532.267	5846.96
532.632	5836.8
532.998	5909.56
533.364	5887.64
533.73	5918.15
534.095	6012.61
534.461	6022.1
534.826	6072.72
535.192	6062.55
535.557	6092.38
535.923	6115.66
536.288	6134.41
536.653	6148.65
537.019	6136.22
537.384	6189.78
537.749	6277.01
538.114	6243.34
538.479	6278.59
538.845	6330.12
539.21	6319.95
539.575	6358.59
539.94	6369.44
540.305	6437.91
540.67	6380.96
541.034	6421.19
541.399	6513.16
541.764	6507.29
542.129	6522.2
542.494	6513.39
542.858	6644.68
543.223	6544.12
543.587	6644.91
543.952	6670.9
544.316	6666.83
544.681	6651.69
545.045	6692.37
545.41	6801.74
545.774	6742.31
546.138	6782.99
546.503	6828.86
546.867	6825.24
547.231	6923.77
547.595	6953.38
547.959	6913.6
548.324	6929.87
548.688	6955.41
549.052	7017.33
549.416	7031.79
549.779	6995.64
550.143	7038.12
550.507	7142.52
550.871	7198.34
551.235	7140.72
551.599	7215.06
551.962	7258.91
552.326	7259.58
552.689	7303.65
553.053	7203.99
553.417	7316.98
553.78	7378.9
554.143	7307.49
554.507	7375.06
554.87	7471.1
555.234	7472.46
555.597	7448.5
555.96	7515.4
556.323	7556.52
556.686	7568.73
557.05	7590.87
557.413	7672.23
557.776	7604.21
558.139	7714.03
558.502	7725.33
558.865	7727.82
559.228	7834.26
559.59	7805.56
559.953	7871.32
560.316	7949.51
560.679	7985.21
561.041	7895.5
561.404	7983.41
561.767	8050.07
562.129	8039
562.492	8112.89
562.854	8142.95
563.217	8149.73
563.579	8116.51
563.941	8215.72
564.304	8240.12
564.666	8269.05
565.028	8363.96
565.39	8326.9
565.753	8357.86
566.115	8441.92
566.477	8404.86
566.839	8468.59
567.201	8490.96
567.563	8488.03
567.925	8558.08
568.287	8580.9
568.648	8632.65
569.01	8676.95
569.372	8762.14
569.734	8762.82
570.095	8691.86
570.457	8811.18
570.819	8769.6
571.18	8765.76
571.542	8808.69
571.903	8870.61
572.265	8897.28
572.626	8954.45
572.987	8980.89
573.349	9070.83
573.71	9015.47
574.071	9095.92
574.432	9113.09
574.794	9158.52
575.155	9224.73
575.516	9096.15
575.877	9194.22
576.238	9138.63
576.599	9198.29
576.96	9210.49
577.32	9230.83
577.681	9266.08
578.042	9298.63
578.403	9341.34
578.763	9293.2
579.124	9378.4
579.485	9367.55
579.845	9393.31
580.206	9366.87
580.566	9417.72
580.927	9393.09
581.287	9491.61
581.648	9331.17
582.008	9468.34
582.368	9455.23
582.728	9476.02
583.089	9404.84
583.449	9493.65
583.809	9441.9
584.169	9528.45
584.529	9476.7
584.889	9587.43
585.249	9529.58
585.609	9479.86
585.969	9583.36
586.329	9520.31
586.688	9495.23
587.048	9538.39
587.408	9537.26
587.768	9572.29
588.127	9598.96
588.487	9557.6
588.846	9608.9
589.206	9516.92
589.565	9585.4
589.925	9552.86
590.284	9536.13
590.643	9519.86
591.003	9620.65
591.362	9639.41
591.721	9579.07
592.08	9622.91
592.44	9539.75
592.799	9587.88
593.158	9622.91
593.517	9530.94
593.876	9594.66
594.235	9608.45
594.593	9604.61
594.952	9577.26
595.311	9550.14
595.67	9644.61
596.029	9703.59
596.387	9674.21
596.746	9659.29
597.104	9575
597.463	9623.81
597.822	9639.41
598.18	9680.76
598.538	9616.81
598.897	9697.71
599.255	9648.67
599.613	9806.18
599.972	9694.1
600.33	9740.87
600.688	9691.16
601.046	9727.09
601.404	9739.97
601.762	9746.52
602.12	9752.85
602.478	9864.94
602.836	9750.37
603.194	9665.62
603.552	9703.36
603.91	9706.52
604.268	9718.73
604.625	9780.19
604.983	9817.26
605.341	9668.11
605.698	9785.84
606.056	9780.42
606.413	9743.59
606.771	9819.74
607.128	9766.86
607.485	9784.04
607.843	9793.98
608.2	9846.41
608.557	9850.7
608.914	9826.97
609.272	9906.07
609.629	9890.02
609.986	9934.54
610.343	9866.52
610.7	9920.3
611.057	9893.41
611.414	9917.14
611.771	9946.74
612.127	9953.3
612.484	9983.35
612.841	10001.88
613.198	9976.57
613.554	9950.13
613.911	9986.74
614.267	10016.35
614.624	10048.89
614.98	10013.64
615.337	10059.96
615.693	10010.02
616.05	10029.45
616.406	10096.57
616.762	10075.1
617.118	10076.91
617.475	10122.11
617.831	10094.54
618.187	10040.53
618.543	10127.98
618.899	10187.64
619.255	10106.29
619.611	10113.75
619.967	10142.67
620.323	10158.49
620.678	10218.83
621.034	10183.8
621.39	10106.51
621.746	10134.54
622.101	10249.56
622.457	10134.08
622.812	10138.15
623.168	10206.85
623.523	10191.71
623.879	10221.54
624.234	10186.29
624.589	10218.83
624.945	10151.94
625.3	10256.57
625.655	10215.66
626.01	10147.19
626.365	10221.09
626.72	10205.72
627.075	10219.51
627.43	10237.58
627.785	10216.79
628.14	10224.02
628.495	10194.65
628.85	10196.68
629.205	10161.43
629.559	10193.74
629.914	10182.44
630.269	10210.69
630.623	10137.93
630.978	10108.32
631.332	10180.64
631.687	10225.38
632.041	10155.33
632.396	10174.08
632.75	10191.26
633.104	10168.43
633.459	10096.8
633.813	10118.72
634.167	10141.77
634.521	10077.81
634.875	10144.25
635.229	10100.19
635.583	10030.13
635.937	10104.93
636.291	10087.31
636.645	10030.58
636.999	10082.11
637.352	10108.1
637.706	10037.36
638.06	10105.84
638.413	9987.2
638.767	9994.65
639.121	10006.63
639.474	9945.16
639.828	10035.33
640.181	9987.2
640.534	9951.04
640.888	9974.77
641.241	9923.24
641.594	9906.75
641.947	9911.49
642.301	9950.36
642.654	9993.07
643.007	9986.97
643.36	9966.4
643.713	9859.51
644.066	10032.39
644.419	9857.71
644.771	9848.44
645.124	9779.06
645.477	9748.78
645.83	9664.49
646.182	9600.31
646.535	9601.22
646.888	9579.52
647.24	9572.06
647.593	9662.91
647.945	9604.61
648.298	9609.58
648.65	9553.99
649.002	9493.65
649.355	9610.93
649.707	9566.19
650.059	9638.96
650.411	9731.61
650.763	9796.69
651.115	9837.59
651.467	9796.47
651.819	9782.91
652.171	9779.29
652.523	9731.38
652.875	9820.42
653.227	9745.62
653.578	9859.97
653.93	9738.16
654.282	9815.9
654.633	9768.67
654.985	9754.88
655.337	9719.18
655.688	9704.72
656.039	9823.36
656.391	9785.39
656.742	9772.51
657.094	9775.45
657.445	9781.32
657.796	9829.01
658.147	9760.99
658.498	9778.16
658.849	9753.98
659.2	9780.19
659.551	9716.47
659.902	9758.27
660.253	9764.15
660.604	9767.77
660.955	9697.49
661.306	9782.91
661.656	9785.39
662.007	9768.9
662.358	9777.26
662.708	9797.6
663.059	9788.56
663.409	9704.26
663.76	9837.59
664.11	9769.8
664.461	9777.26
664.811	9726.64
665.161	9758.27
665.511	9757.82
665.862	9705.39
666.212	9827.88
666.562	9792.62
666.912	9735.9
667.262	9754.43
667.612	9753.98
667.962	9815
668.312	9771.61
668.662	9757.14
669.011	9727.77
669.361	9737.94
669.711	9686.41
670.06	9738.61
670.41	9657.03
670.76	9673.98
671.109	9678.95
671.459	9659.97
671.808	9673.98
672.157	9710.14
672.507	9675.79
672.856	9743.59
673.205	9691.38
673.554	9673.76
673.904	9626.3
674.253	9662.01
674.602	9665.4
674.951	9608.9
675.3	9432.63
675.649	9607.77
675.998	9575.68
676.346	9635.34
676.695	9662.46
677.044	9504.95
677.393	9500.88
677.741	9634.89
678.09	9565.29
678.438	9591.73
678.787	9558.96
679.135	9532.97
679.484	9504.27
679.832	9474.44
680.181	9480.32
680.529	9474.44
680.877	9446.64
681.225	9462.46
681.573	9510.37
681.922	9423.37
682.27	9431.28
682.618	9298.4
682.966	9373.43
683.314	9434.89
683.661	9311.51
684.009	9322.35
684.357	9240.77
684.705	9312.41
685.053	9291.17
685.4	9262.92
685.748	9274.45
686.095	9213.66
686.443	9224.05
686.79	9166.43
687.138	9214.79
687.485	9154.45
687.832	9156.93
688.18	9130.49
688.527	9099.08
688.874	9111.74
689.221	9069.71
689.568	8998.29
689.915	9013.44
690.262	8988.13
690.609	8988.8
690.956	8908.13
691.303	8947.45
691.65	8889.6
691.997	8904.29
692.344	8835.36
692.69	8838.98
693.037	8850.73
693.383	8786.1
693.73	8890.27
694.077	8751.75
694.423	8692.99
694.769	8650.28
695.116	8706.1
695.462	8687.57
695.808	8612.32
696.155	8637.17
696.501	8553.33
696.847	8532.32
697.193	8500.91
697.539	8533.67
697.885	8455.48
698.231	8373.9
698.577	8377.52
698.923	8395.15
699.269	8372.32
699.614	8309.5
699.96	8304.75
700.306	8342.27
700.651	8313.11
700.997	8254.59
701.342	8229.05
701.688	8245.55
702.033	8158.77
702.379	8189.05
702.724	8178.2
703.069	8159.22
703.415	8065.21
703.76	8026.12
704.105	8068.83
704.45	8077.41
704.795	7976.85
705.14	8026.57
705.485	7926.91
705.83	7910.64
706.175	7933.01
706.52	7929.4
706.865	7831.77
707.209	7843.97
707.554	7870.41
707.899	7822.28
708.243	7787.7
708.588	7766.01
708.932	7716.52
709.277	7723.75
709.621	7756.07
709.966	7639.23
710.31	7743.41
710.654	7534.6
710.998	7649.4
711.342	7664.09
711.687	7627.71
712.031	7620.48
712.375	7446.02
712.719	7605.79
713.063	7569.41
713.407	7556.07
713.75	7468.17
714.094	7552.91
714.438	7517.66
714.782	7549.07
715.125	7476.53
715.469	7491.67
715.812	7379.81
716.156	7400.82
716.499	7490.76
716.843	7446.24
717.186	7435.17
717.53	7422.52
717.873	7384.78
718.216	7361.5
718.559	7325.12
718.902	7328.73
719.246	7354.27
719.589	7373.25
719.932	7298
720.275	7339.13
720.617	7312.69
720.96	7280.83
721.303	7337.77
721.646	7295.29
721.989	7278.34
722.331	7250.77
722.674	7223.2
723.016	7314.27
723.359	7246.48
723.701	7293.03
724.044	7174.39
724.386	7215.52
724.729	7217.78
725.071	7207.38
725.413	7239.02
725.755	7237.21
726.097	7195.86
726.439	7186.59
726.782	7189.75
727.124	7250.09
727.465	7228.17
727.807	7124.45
728.149	7183.88
728.491	7198.34
728.833	7214.61
729.175	7145.69
729.516	7158.34
729.858	7152.02
730.199	7128.97
730.541	7127.61
730.882	7127.16
731.224	7135.74
731.565	7143.43
731.906	7184.56
732.248	7178.68
732.589	7098.01
732.93	7081.73
733.271	7090.32
733.612	7075.63
733.953	7183.88
734.294	7108.4
734.635	7086.25
734.976	7113.37
735.317	7095.97
735.658	7082.41
735.999	7121.96
736.339	7096.88
736.68	7119.02
737.021	7109.53
737.361	7109.53
737.702	7113.82
738.042	7083.09
738.383	7082.19
738.723	7136.87
739.063	7031.11
739.404	7093.03
739.744	7112.47
740.084	7056.2
740.424	7065.69
740.764	7029.53
741.104	7091
741.444	6998.57
741.784	7056.88
742.124	7077.44
742.464	6985.01
742.804	7031.34
743.143	7067.05
743.483	7044.22
743.823	7008.52
744.162	7074.5
744.502	7000.15
744.841	7021.17
745.181	7061.62
745.52	7039.02
745.86	7034.05
746.199	7039.25
746.538	7047.39
746.877	7032.92
747.216	7070.89
747.556	7049.42
747.895	6979.82
748.234	6981.17
748.573	7016.2
748.911	6992.47
749.25	6955.41
749.589	6960.61
749.928	7012.13
750.267	7008.74
750.605	6953.38
750.944	6975.52
751.283	6957.67
751.621	6987.95
751.96	6917.9
752.298	6938.91
752.636	6983.88
752.975	6901.85
753.313	6831.57
753.651	6890.78
753.989	6912.93
754.327	6927.39
754.666	6918.12
755.004	6868.63
755.342	6852.36
755.679	6815.3
756.017	6819.37
756.355	6776.66
756.693	6839.48
757.031	6821.85
757.368	6779.14
757.706	6805.13
758.044	6752.25
758.381	6750.44
758.719	6789.76
759.056	6744.79
759.394	6716.32
759.731	6685.13
760.068	6658.24
760.405	6688.75
760.743	6664.34
761.08	6652.82
761.417	6631.35
761.754	6615.76
762.091	6601.52
762.428	6608.98
762.765	6580.05
763.102	6608.75
763.438	6568.75
763.775	6548.19
764.112	6518.81
764.449	6508.42
764.785	6528.3
765.122	6472.49
765.458	6418.7
765.795	6443.79
766.131	6446.72
766.467	6375.54
766.804	6369.66
767.14	6338.03
767.476	6332.15
767.812	6369.44
768.148	6318.82
768.485	6234.3
768.821	6211.7
769.157	6250.34
769.492	6281.98
769.828	6224.58
770.164	6134.87
770.5	6169.22
770.836	6114.08
771.171	6157.69
771.507	6096.45
771.842	6070.01
772.178	6034.98
772.513	6109.33
772.849	6053.29
773.184	6009.67
773.519	5999.28
773.855	5969.22
774.19	5921.09
774.525	5918.15
774.86	5962.22
775.195	5942.56
775.53	5941.2
775.865	5888.77
776.2	5851.48
776.535	5820.07
776.87	5821.88
777.205	5800.64
777.539	5729.68
777.874	5753.18
778.209	5711.6
778.543	5681.32
778.878	5693.3
779.212	5639.74
779.547	5640.19
779.881	5584.6
780.215	5619.63
780.55	5632.73
780.884	5607.65
781.218	5529.23
781.552	5622.34
781.886	5524.94
782.22	5515
782.554	5474.32
782.888	5485.84
783.222	5436.35
783.556	5446.3
783.889	5384.15
784.223	5367.43
784.557	5342.8
784.89	5381.89
785.224	5334.44
785.557	5326.3
785.891	5312.74
786.224	5282.69
786.558	5271.61
786.891	5205.17
787.224	5247.43
787.557	5191.39
787.891	5233.87
788.224	5163.59
788.557	5164.5
788.89	5201.11
789.223	5167.21
789.556	5163.82
789.888	5085.18
790.221	5111.84
790.554	5030.26
790.887	5037.49
791.219	5002.24
791.552	5006.54
791.884	5058.74
792.217	5026.65
792.549	4965.63
792.882	4936.93
793.214	4906.42
793.546	4943.26
793.879	4922.24
794.211	4879.31
794.543	4909.59
794.875	4895.8
795.207	4869.14
795.539	4875.92
795.871	4863.71
796.203	4764.73
796.535	4784.85
796.867	4756.6
797.198	4731.29
797.53	4779.2
797.862	4756.15
798.193	4739.42
798.525	4767.9
798.856	4708.69
799.188	4651.52
799.519	4638.86
799.85	4642.7
800.182	4642.7
800.513	4652.87
800.844	4577.62
801.175	4630.05
801.506	4584.17
801.837	4541.01
802.168	4594.79
802.499	4584.85
802.83	4506.66
803.161	4532.65
803.491	4502.37
803.822	4543.27
804.153	4520.9
804.483	4482.03
804.814	4488.13
805.145	4457.17
805.475	4403.39
805.805	4449.94
806.136	4443.61
806.466	4432.09
806.796	4390.96
807.126	4363.16
807.457	4367
807.787	4388.02
808.117	4312.54
808.447	4318.42
808.777	4311.19
809.107	4316.16
809.436	4335.59
809.766	4300.11
810.096	4308.47
810.426	4281.13
810.755	4323.62
811.085	4252.88
811.414	4250.17
811.744	4225.76
812.073	4223.05
812.403	4215.82
812.732	4209.04
813.061	4227.8
813.39	4168.36
813.719	4154.58
814.049	4175.82
814.378	4159.33
814.707	4098.31
815.036	4160.46
815.365	4103.28
815.693	4116.16
816.022	4087.01
816.351	4089.27
816.68	4045.88
817.008	4079.55
817.337	4059.89
817.665	4047.46
817.994	4034.13
818.322	4035.94
818.651	4010.4
818.979	3994.13
819.307	4032.78
819.636	3987.13
819.964	4020.12
820.292	4005.88
820.62	4002.04
820.948	4031.65
821.276	3993.91
821.604	3974.02
821.932	3953
822.259	4006.56
822.587	3974.47
822.915	3991.87
823.243	3964.3
823.57	3990.29
823.898	3949.84
824.225	3989.16
824.553	3958.65
824.88	3992.32
825.207	4027.58
825.535	3988.93
825.862	3931.99
826.189	3972.44
826.516	3997.52
826.843	4009.5
827.17	3965.66
827.497	3981.93
827.824	3978.99
828.151	3992.32
828.478	3978.31
828.805	3959.56
829.131	3960.01
829.458	3969.05
829.785	3965.43
830.111	3950.07
830.438	3959.78
830.764	3984.87
831.09	3988.93
831.417	3948.71
831.743	3956.39
832.069	3929.28
832.395	3962.72
832.722	3967.24
833.048	3942.61
833.374	3970.4
833.7	3935.6
834.026	3963.4
834.351	3942.83
834.677	3921.37
835.003	3942.16
835.329	3956.39
835.654	3907.13
835.98	3885.43
836.306	3912.33
836.631	3925.89
836.956	3910.29
837.282	3898.99
837.607	3906
837.932	3857.41
838.258	3871.42
838.583	3873.46
838.908	3855.15
839.233	3851.09
839.558	3873.23
839.883	3804.08
840.208	3809.73
840.533	3844.31
840.858	3839.79
841.182	3832.1
841.507	3804.53
841.832	3811.54
842.156	3781.93
842.481	3791.88
842.805	3755.49
843.13	3787.13
843.454	3788.49
843.778	3753.69
844.103	3773.35
844.427	3734.25
844.751	3715.5
845.075	3756.62
845.399	3711.88
845.723	3720.47
846.047	3708.26
846.371	3670.3
846.695	3716.63
847.019	3644.54
847.343	3655.61
847.666	3640.02
847.99	3599.79
848.313	3612.67
848.637	3578.55
848.96	3574.71
849.284	3544.65
849.607	3547.36
849.931	3557.76
850.254	3512.79
850.577	3500.59
850.9	3450.64
851.223	3478.89
851.546	3490.87
851.869	3475.28
852.192	3469.63
852.515	3458.55
852.838	3411.32
853.161	3446.58
853.483	3419.91
853.806	3354.15
854.129	3389.63
854.451	3376.3
854.774	3362.74
855.096	3376.07
855.419	3348.5
855.741	3358.89
856.063	3334.26
856.385	3346.47
856.708	3316.41
857.03	3309.86
857.352	3360.48
857.674	3301.72
857.996	3298.33
858.318	3264.89
858.64	3275.51
858.961	3250.65
859.283	3214.49
859.605	3223.98
859.926	3228.5
860.248	3198.9
860.57	3216.75
860.891	3212.23
861.212	3209.29
861.534	3158.9
861.855	3195.74
862.176	3240.03
862.498	3159.8
862.819	3170.65
863.14	3171.56
863.461	3152.12
863.782	3142.86
864.103	3145.57
864.424	3129.75
864.745	3172.46
865.065	3120.03
865.386	3110.54
865.707	3094.04
866.027	3104.21
866.348	3077.55
866.668	3104.44
866.989	3099.92
867.309	3054.95
867.63	3118
867.95	3060.15
868.27	3079.13
868.59	3075.96
868.91	3081.61
869.23	3060.15
869.55	3037.1
869.87	3082.97
870.19	3090.2
870.51	3058.79
870.83	3068.05
871.15	3042.29
871.469	3032.35
871.789	3000.26
872.109	3003.42
872.428	2984.89
872.748	3026.93
873.067	3019.47
873.386	3021.28
873.706	2988.28
874.025	2985.8
874.344	3022.63
874.663	3011.79
874.982	3019.02
875.301	2965.91
875.62	2988.28
875.939	2972.69
876.258	2976.53
876.577	2995.97
876.896	2940.37
877.214	2971.79
877.533	2964.78
877.852	2914.61
878.17	2940.37
878.489	2910.77
878.807	2918.23
879.125	2910.09
879.444	2932.24
879.762	2928.17
880.08	2958.68
880.398	2930.66
880.716	2933.82
881.034	2891.79
881.352	2914.16
881.67	2894.27
881.988	2897.66
882.306	2860.15
882.624	2849.08
882.941	2870.09
883.259	2856.08
883.577	2842.3
883.894	2830.77
884.212	2866.93
884.529	2824.22
884.846	2798.01
885.164	2829.42
885.481	2820.83
885.798	2816.54
886.115	2783.54
886.432	2792.81
886.75	2811.56
887.067	2790.1
887.383	2788.29
887.7	2800.49
888.017	2780.83
888.334	2778.8
888.651	2789.19
888.967	2775.86
889.284	2756.2
889.6	2711.23
889.917	2699.03
890.233	2731.11
890.55	2705.35
890.866	2730.66
891.182	2702.19
891.498	2705.8
891.815	2724.56
892.131	2672.36
892.447	2675.75
892.763	2692.25
893.079	2664
893.395	2670.1
893.71	2646.6
894.026	2659.03
894.342	2653.83
894.657	2641.4
894.973	2614.28
895.289	2603.66
895.604	2605.02
895.92	2596.88
896.235	2615.41
896.55	2588.07
896.865	2573.38
897.181	2595.3
897.496	2593.27
897.811	2555.3
898.126	2569.31
898.441	2539.03
898.756	2529.76
899.071	2525.92
899.386	2527.05
899.7	2511.23
900.015	2539.71
900.33	2468.3
900.644	2486.15
900.959	2500.61
901.273	2457.22
901.588	2463.78
901.902	2440.05
902.216	2467.17
902.531	2440.27
902.845	2455.19
903.159	2407.51
903.473	2448.86
903.787	2412.48
904.101	2381.97
904.415	2376.1
904.729	2382.65
905.042	2392.37
905.356	2384.46
905.67	2374.29
905.984	2353.72
906.297	2367.96
906.611	2336.55
906.924	2356.21
907.237	2314.4
907.551	2353.95
907.864	2300.17
908.177	2297.91
908.491	2307.4
908.804	2320.73
909.117	2280.96
909.43	2260.62
909.743	2240.96
910.056	2275.99
910.368	2230.34
910.681	2219.72
910.994	2218.36
911.307	2211.35
911.619	2216.78
911.932	2216.78
912.244	2179.49
912.557	2186.72
912.869	2204.35
913.181	2167.29
913.494	2160.96
913.806	2182.2
914.118	2159.15
914.43	2115.76
914.742	2163.9
915.054	2128.42
915.366	2124.12
915.678	2130.23
915.99	2097.23
916.302	2076.44
916.613	2124.35
916.925	2073.96
917.236	2106.5
917.548	2069.89
917.859	2073.73
918.171	2058.14
918.482	2057.46
918.794	2027.63
919.105	2019.95
919.416	2001.42
919.727	2046.61
920.038	1997.12
920.349	2018.37
920.66	2003.45
920.971	2029.66
921.282	2034.64
921.593	1995.99
921.903	1957.8
922.214	1980.17
922.525	1944.92
922.835	1963.23
923.146	1944.92
923.456	1965.94
923.767	1931.81
924.077	1930.46
924.387	1916.9
924.697	1896.56
925.008	1876.45
925.318	1921.87
925.628	1894.98
925.938	1874.87
926.248	1868.31
926.558	1841.19
926.867	1853.62
927.177	1850.01
927.487	1821.99
927.796	1858.82
928.106	1840.29
928.416	1803.91
928.725	1856.56
929.034	1830.12
929.344	1802.33
929.653	1816.34
929.962	1790.12
930.271	1786.73
930.581	1793.51
930.89	1774.76
931.199	1753.74
931.508	1782.44
931.817	1788.09
932.125	1738.15
932.434	1754.19
932.743	1707.19
933.051	1725.27
933.36	1695.21
933.669	1724.14
933.977	1682.78
934.286	1712.61
934.594	1699.96
934.902	1695.89
935.21	1713.74
935.519	1680.29
935.827	1678.26
936.135	1656.11
936.443	1650.01
936.751	1647.53
937.059	1664.25
937.367	1638.49
937.674	1628.77
937.982	1650.01
938.29	1637.13
938.597	1634.87
938.905	1584.25
939.213	1624.03
939.52	1565.95
939.827	1616.34
940.135	1619.51
940.442	1600.07
940.749	1595.33
941.056	1592.84
941.363	1574.76
941.67	1577.25
941.977	1534.08
942.284	1555.78
942.591	1543.35
942.898	1524.14
943.205	1531.6
943.511	1528.89
943.818	1523.01
944.125	1511.03
944.431	1505.61
944.738	1512.39
945.044	1492.73
945.35	1528.66
945.657	1486.18
945.963	1499.06
946.269	1498.83
946.575	1505.38
946.881	1464.26
947.187	1481.66
947.493	1469.45
947.799	1460.64
948.105	1466.06
948.41	1433.52
948.716	1445.27
949.022	1424.93
949.327	1432.17
949.633	1426.74
949.938	1430.58
950.244	1406.86
950.549	1412.05
950.854	1415.67
951.16	1403.92
951.465	1405.73
951.77	1390.81
952.075	1375.67
952.38	1372.96
952.685	1371.6
952.99	1380.19
953.294	1376.35
953.599	1386.07
953.904	1359.4
954.209	1361.89
954.513	1357.14
954.818	1334.77
955.122	1351.94
955.426	1349.91
955.731	1349.46
956.035	1333.64
956.339	1343.58
956.643	1332.96
956.948	1318.72
957.252	1307.65
957.556	1298.84
957.86	1288.21
958.163	1324.15
958.467	1280.76
958.771	1299.97
959.075	1282.34
959.378	1278.72
959.682	1276.69
959.985	1265.62
960.289	1271.27
960.592	1247.31
960.896	1268.1
961.199	1260.42
961.502	1271.04
961.805	1268.1
962.108	1265.84
962.411	1265.16
962.714	1232.17
963.017	1223.81
963.32	1229.01
963.623	1213.87
963.926	1205.96
964.228	1200.08
964.531	1209.12
964.833	1185.17
965.136	1215.67
965.438	1197.14
965.741	1187.88
966.043	1194.21
966.345	1200.08
966.648	1170.03
966.95	1202.79
967.252	1151.04
967.554	1154.43
967.856	1170.48
968.158	1153.98
968.46	1173.64
968.761	1155.56
969.063	1126.19
969.365	1127.31
969.666	1137.03
969.968	1135.22
970.269	1132.74
970.571	1122.8
970.872	1128.9
971.174	1112.4
971.475	1148.33
971.776	1118.28
972.077	1108.33
972.378	1070.59
972.679	1093.87
972.98	1086.19
973.281	1089.35
973.582	1103.13
973.883	1087.54
974.183	1094.77
974.484	1088.9
974.785	1082.57
975.085	1098.84
975.386	1061.1
975.686	1068.56
975.986	1057.71
976.287	1048.9
976.587	1051.16
976.887	1056.58
977.187	1055
977.487	1043.02
977.787	1046.19
978.087	1018.39
978.387	1044.61
978.687	1034.89
978.987	1046.64
979.286	1017.71
979.586	1005.96
979.885	1021.56
980.185	1006.64
980.484	1027.2
980.784	999.18
981.083	979.97
981.382	1004.61
981.682	988.34
981.981	1013.42
982.28	981.1
982.579	977.49
982.878	978.84
983.177	994.89
983.475	975.91
983.774	970.93
984.073	961.67
984.372	960.31
984.67	949.47
984.969	977.71
985.267	942.24
985.566	932.52
985.864	942.91
986.162	960.31
986.461	958.28
986.759	942.46
987.057	961.22
987.355	926.19
987.653	915.12
987.951	948.56
988.249	920.99
988.547	918.28
988.844	896.13
989.142	904.27
989.44	891.84
989.737	908.11
990.035	922.12
990.332	909.02
990.63	915.8
990.927	899.07
991.224	890.94
991.521	913.08
991.819	888.9
992.116	895
992.413	873.99
992.71	882.12
993.006	875.34
993.303	855.01
993.6	876.25
993.897	889.36
994.193	843.03
994.49	848.23
994.787	853.88
995.083	859.98
995.379	842.35
995.676	849.58
995.972	852.52
996.268	858.85
996.565	850.26
996.861	845.51
997.157	837.38
997.453	837.38
997.749	822.92
998.044	827.44
998.34	839.41
998.636	806.19
998.932	824.5
999.227	804.39
999.523	812.3
999.818	810.71
1000.114	794.44
1000.409	802.13
1000.704	803.26
1001	816.59
1001.295	793.31
1001.59	813.2
1001.885	808.45
1002.18	777.49
1002.475	791.5
1002.77	796.93
1003.065	793.76
1003.359	772.52
1003.654	761.67
1003.949	801
1004.243	754.67
1004.538	769.58
1004.832	788.79
1005.127	737.95
1005.421	772.97
1005.715	735.46
1006.009	761.22
1006.304	737.72
1006.598	755.57
1006.892	716.93
1007.186	753.99
1007.48	730.26
1007.773	744.5
1008.067	723.48
1008.361	703.6
1008.655	720.77
1008.948	721.22
1009.242	706.08
1009.535	721.22
1009.829	735.23
1010.122	699.08
1010.415	706.31
1010.708	714.67
1011.001	691.62
1011.295	686.42
1011.588	714.9
1011.881	721
1012.173	688.68
1012.466	695.24
1012.759	674.67
1013.052	670.83
1013.344	662.02
1013.637	672.41
1013.93	677.38
1014.222	675.58
1014.514	670.83
1014.807	675.58
1015.099	641.45
1015.391	682.81
1015.683	669.02
1015.976	648.91
1016.268	664.28
1016.56	651.85
1016.851	671.06
1017.143	638.74
1017.435	641
1017.727	656.14
1018.018	641.9
1018.31	637.16
1018.602	648.46
1018.893	618.85
1019.185	634.22
1019.476	636.93
1019.767	622.92
1020.058	620.44
1020.35	629.25
1020.641	633.54
1020.932	633.77
1021.223	596.03
1021.514	596.71
1021.804	592.19
1022.095	592.19
1022.386	597.16
1022.677	619.53
1022.967	605.52
1023.258	583.83
1023.548	607.55
1023.839	585.18
1024.129	600.1
1024.419	582.92
1024.709	583.6
1025	591.51
1025.29	575.24
1025.58	566.43
1025.87	563.26
1026.16	582.02
1026.449	566.88
1026.739	582.92
1027.029	588.57
1027.319	579.98
1027.608	589.02
1027.898	571.4
1028.187	585.63
1028.477	553.77
1028.766	561.68
1029.055	533.88
1029.344	532.98
1029.634	532.08
1029.923	528.01
1030.212	551.74
1030.501	535.01
1030.79	530.27
1031.078	550.61
1031.367	525.07
1031.656	537.73
1031.945	532.3
1032.233	510.83
1032.522	512.87
1032.81	508.35
1033.099	488.69
1033.387	532.53
1033.675	528.69
1033.963	525.75
1034.251	510.61
1034.54	508.12
1034.828	512.42
1035.116	520.33
1035.403	520.78
1035.691	497.5
1035.979	501.79
1036.267	510.16
1036.554	510.38
1036.842	502.25
1037.129	487.56
1037.417	491.4
1037.704	490.27
1037.992	501.34
1038.279	500.89
1038.566	483.72
1038.853	483.72
1039.14	483.72
