Data from mousepad_grey_FLMS001491_00026.txt Node
Date: Wed Feb 08 14:29:12 GMT 2017
User: dcchb
Spectrometer: FLMS00149
Trigger mode: 0
Integration Time (sec): 2.000000E-2
Scans to average: 10
Electric dark correction enabled: true
Nonlinearity correction enabled: false
Boxcar width: 0
XAxis mode: Wavelengths
Number of Pixels in Spectrum: 2048
>>>>>Begin Spectral Data<<<<<
341.393	3.84
341.776	3.84
342.16	3.84
342.543	-80
342.927	-89.26
343.31	-70.28
343.693	-83.39
344.077	-73.67
344.46	-40.45
344.843	-60.34
345.226	-49.49
345.61	-41.58
345.993	-8.14
346.376	-17.4
346.759	23.73
347.142	35.71
347.525	26.44
347.908	56.5
348.291	99.43
348.674	88.36
349.057	114.57
349.44	113.9
349.823	138.3
350.206	176.27
350.588	198.64
350.971	178.98
351.354	191.18
351.737	217.85
352.119	221.92
352.502	220.11
352.884	242.03
353.267	252.87
353.65	273.89
354.032	283.38
354.414	272.99
354.797	297.62
355.179	276.6
355.562	294
355.944	289.48
356.326	311.86
356.709	327.45
357.091	320.67
357.473	332.19
357.855	299.88
358.238	299.65
358.62	281.12
359.002	308.24
359.384	333.32
359.766	332.87
360.148	326.77
360.53	310.27
360.912	314.79
361.294	328.13
361.676	292.42
362.057	323.83
362.439	302.82
362.821	318.18
363.203	311.4
363.584	310.73
363.966	318.18
364.348	296.72
364.729	300.78
365.111	295.36
365.493	298.52
365.874	282.7
366.256	297.62
366.637	305.53
367.019	284.51
367.4	310.05
367.781	296.49
368.163	299.2
368.544	300.33
368.925	287.22
369.306	310.27
369.688	299.88
370.069	294.23
370.45	299.88
370.831	286.32
371.212	276.83
371.593	299.65
371.974	318.64
372.355	301.24
372.736	298.75
373.117	272.31
373.498	293.33
373.879	289.94
374.26	297.17
374.641	285.87
375.021	261.69
375.402	280.9
375.783	286.09
376.163	297.62
376.544	309.6
376.925	310.95
377.305	298.3
377.686	294.68
378.066	320.22
378.447	327.68
378.827	308.47
379.208	308.92
379.588	277.96
379.968	288.81
380.349	301.01
380.729	312.08
381.109	307.56
381.489	306.43
381.87	308.69
382.25	296.94
382.63	309.37
383.01	308.24
383.39	307.79
383.77	315.25
384.15	323.61
384.53	318.18
384.91	320.44
385.29	332.42
385.67	314.57
386.049	335.13
386.429	320.9
386.809	323.38
387.189	307.79
387.568	321.57
387.948	309.82
388.328	314.57
388.707	325.87
389.087	348.01
389.466	331.74
389.846	331.06
390.225	362.02
390.605	310.95
390.984	336.71
391.363	327.9
391.743	339.65
392.122	354.57
392.501	346.88
392.881	345.53
393.26	349.37
393.639	344.4
394.018	342.82
394.397	333.1
394.776	354.34
395.155	364.74
395.534	356.15
395.913	356.6
396.292	346.88
396.671	361.8
397.05	346.66
397.429	350.27
397.808	374.91
398.186	363.38
398.565	361.8
398.944	357.73
399.323	358.86
399.701	371.97
400.08	357.5
400.458	341.23
400.837	370.39
401.215	360.44
401.594	404.06
401.972	382.36
402.351	382.14
402.729	360.44
403.107	403.83
403.486	376.49
403.864	402.48
404.242	371.29
404.62	411.29
404.999	381.91
405.377	388.01
405.755	405.87
406.133	399.31
406.511	389.82
406.889	413.1
407.267	414.23
407.645	402.02
408.023	400.89
408.401	424.4
408.779	410.61
409.156	409.48
409.534	407.67
409.912	429.14
410.29	427.56
410.667	419.65
411.045	422.59
411.422	428.92
411.8	444.73
412.178	442.7
412.555	461.23
412.933	456.26
413.31	443.83
413.687	460.78
414.065	457.62
414.442	457.84
414.819	449.48
415.197	474.34
415.574	475.69
415.951	458.52
416.328	472.98
416.705	471.85
417.082	460.33
417.46	482.93
417.837	463.04
418.214	479.31
418.591	482.02
418.967	481.34
419.344	481.8
419.721	512.3
420.098	513.88
420.475	493.09
420.852	508.91
421.228	518.4
421.605	492.64
421.982	529.03
422.358	511.4
422.735	515.01
423.111	524.96
423.488	535.81
423.864	536.48
424.241	511.85
424.617	531.74
424.994	534.68
425.37	556.6
425.746	523.15
426.123	544.62
426.499	539.87
426.875	539.42
427.251	555.01
427.627	559.53
428.003	556.14
428.379	575.13
428.756	566.99
429.132	576.26
429.507	591.4
429.883	591.85
430.259	590.72
430.635	595.24
431.011	595.69
431.387	609.93
431.763	608.12
432.138	622.36
432.514	610.83
432.89	612.19
433.265	661.45
433.641	656.48
434.016	641.57
434.392	637.05
434.767	653.77
435.143	674.56
435.518	665.52
435.894	665.29
436.269	686.31
436.644	681.11
437.02	658.06
437.395	691.96
437.77	670.49
438.145	709.81
438.52	691.73
438.895	714.11
439.271	692.41
439.646	738.51
440.021	721.79
440.395	733.77
440.77	723.37
441.145	714.78
441.52	743.94
441.895	748.23
442.27	761.79
442.645	755.46
443.019	759.53
443.394	754.56
443.769	746.42
444.143	754.33
444.518	773.54
444.892	763.37
445.267	763.6
445.641	795.46
446.016	767.89
446.39	787.32
446.764	793.2
447.139	794.1
447.513	794.1
447.887	790.04
448.262	789.81
448.636	797.72
449.01	802.69
449.384	813.09
449.758	821.67
450.132	822.8
450.506	840.88
450.88	848.79
451.254	836.36
451.628	833.65
452.002	842.69
452.376	854.21
452.75	889.69
453.123	870.03
453.497	881.33
453.871	898.06
454.244	905.51
454.618	879.07
454.992	905.96
455.365	902.8
455.739	926.76
456.112	948.45
456.486	952.29
456.859	944.38
457.232	957.94
457.606	967.21
457.979	952.52
458.352	984.83
458.725	998.39
459.099	972.86
459.472	1003.59
459.845	1024.83
460.218	1030.03
460.591	1038.62
460.964	1033.42
461.337	1067.54
461.71	1088.56
462.083	1082.46
462.456	1077.03
462.829	1104.38
463.201	1112.74
463.574	1118.39
463.947	1102.34
464.32	1137.82
464.692	1126.75
465.065	1167.65
465.438	1163.59
465.81	1153.19
466.183	1223.7
466.555	1227.54
466.928	1197.48
467.3	1187.54
467.672	1216.69
468.045	1245.17
468.417	1250.14
468.789	1227.54
469.161	1256.69
469.534	1277.93
469.906	1322.9
470.278	1279.97
470.65	1330.36
471.022	1346.18
471.394	1407.19
471.766	1345.05
472.138	1443.58
472.51	1441.32
472.882	1469.79
473.253	1467.98
473.625	1479.51
473.997	1492.84
474.369	1526.06
474.74	1523.12
475.112	1537.36
475.484	1568.55
475.855	1580.3
476.227	1610.81
476.598	1634.31
476.97	1668.43
477.341	1704.81
477.713	1681.76
478.084	1710.92
478.455	1726.96
478.827	1749.33
479.198	1821.42
479.569	1777.58
479.94	1832.27
480.311	1867.52
480.682	1887.41
481.053	1923.79
481.424	1928.31
481.795	2002.21
482.166	1987.07
482.537	2007.18
482.908	2076.78
483.279	2066.39
483.65	2105.48
484.021	2151.81
484.391	2150
484.762	2139.15
485.133	2175.08
485.503	2199.04
485.874	2260.05
486.244	2270.45
486.615	2303.44
486.985	2341.18
487.356	2361.52
487.726	2367.17
488.097	2418.02
488.467	2410.11
488.837	2466.15
489.207	2494.85
489.578	2548.18
489.948	2550.22
490.318	2614.39
490.688	2595.19
491.058	2633.38
491.428	2649.87
491.798	2648.07
492.168	2711.57
492.538	2731.91
492.908	2770.1
493.278	2820.26
493.648	2798.12
494.017	2840.6
494.387	2851.68
494.757	2833.15
495.126	2908.85
495.496	2938.23
495.866	2947.49
496.235	2975.06
496.605	2977.1
496.974	2985.01
497.344	3043.76
497.713	3048.06
498.082	3071.33
498.452	3105
498.821	3139.58
499.19	3134.61
499.559	3134.38
499.928	3145.91
500.298	3179.8
500.667	3168.28
501.036	3199.69
501.405	3249.63
501.774	3256.86
502.143	3283.3
502.512	3297.99
502.88	3271.33
503.249	3339.8
503.618	3364.88
503.987	3355.62
504.356	3394.26
504.724	3415.73
505.093	3405.79
505.462	3426.58
505.83	3433.36
506.199	3478.1
506.567	3537.08
506.936	3535.73
507.304	3555.84
507.672	3538.21
508.041	3599.23
508.409	3621.83
508.777	3655.27
509.145	3672.45
509.514	3662.28
509.882	3743.86
510.25	3726.68
510.618	3766.91
510.986	3751.99
511.354	3754.7
511.722	3827.92
512.09	3833.12
512.458	3871.99
512.826	3864.76
513.193	3901.14
513.561	3892.33
513.929	3921.03
514.297	3939.56
514.664	3985.43
515.032	4013.91
515.4	4037.18
515.767	4071.76
516.135	4033.79
516.502	4035.37
516.869	4176.84
517.237	4159.66
517.604	4180.23
517.972	4190.4
518.339	4211.19
518.706	4216.39
519.073	4187.69
519.44	4275.82
519.808	4318.76
520.175	4303.62
520.542	4397.62
520.909	4375.03
521.276	4381.35
521.643	4478.3
522.009	4487.11
522.376	4497.73
522.743	4499.09
523.11	4563.95
523.477	4590.84
523.843	4609.37
524.21	4697.96
524.577	4673.1
524.943	4675.58
525.31	4724.4
525.676	4794.9
526.043	4814.56
526.409	4826.77
526.776	4885.52
527.142	4916.25
527.508	4890.04
527.874	4921.45
528.241	4982.47
528.607	4996.48
528.973	5049.81
529.339	5060.43
529.705	5104.95
530.071	5121
530.437	5147.44
530.803	5180.2
531.169	5217.72
531.535	5252.97
531.901	5261.56
532.267	5240.09
532.632	5297.26
532.998	5311.05
533.364	5274.89
533.73	5346.75
534.095	5391.04
534.461	5383.36
534.826	5452.51
535.192	5457.71
535.557	5547.2
535.923	5494.09
536.288	5577.25
536.653	5560.53
537.019	5602.79
537.384	5605.73
537.749	5629.91
538.114	5685.27
538.479	5687.08
538.845	5718.72
539.21	5702.67
539.575	5767.08
539.94	5770.02
540.305	5753.52
540.67	5819.28
541.034	5864.7
541.399	5814.31
541.764	5853.86
542.129	5892.95
542.494	5944.93
542.858	5964.36
543.223	5924.82
543.587	6011.59
543.952	6009.56
544.316	6078.03
544.681	6039.62
545.045	6064.93
545.41	6094.53
545.774	6168.43
546.138	6135.88
546.503	6136.56
546.867	6206.39
547.231	6212.27
547.595	6239.61
547.959	6269.67
548.324	6239.38
548.688	6246.16
549.052	6287.29
549.416	6332.49
549.779	6421.53
550.143	6407.97
550.507	6419.04
550.871	6433.73
551.235	6433.73
551.599	6489.32
551.962	6508.53
552.326	6524.8
552.689	6613.39
553.053	6590.56
553.417	6575.65
553.78	6734.51
554.143	6632.37
554.507	6672.59
554.87	6722.76
555.234	6720.95
555.597	6698.35
555.96	6774.29
556.323	6784.23
556.686	6855.86
557.05	6868.29
557.413	6815.41
557.776	6883.21
558.139	6982.19
558.502	6953.49
558.865	6963.66
559.228	7015.63
559.59	7068.29
559.953	7122.07
560.316	7083.2
560.679	7132.47
561.041	7202.52
561.404	7183.09
561.767	7255.63
562.129	7250.43
562.492	7318.68
562.854	7343.76
563.217	7350.09
563.579	7340.15
563.941	7452.23
564.304	7460.82
564.666	7497.66
565.028	7500.14
565.39	7522.29
565.753	7536.53
566.115	7577.43
566.477	7636.86
566.839	7646.58
567.201	7662.85
567.563	7632.57
567.925	7759.8
568.287	7786.91
568.648	7767.25
569.01	7827.82
569.372	7905.55
569.734	7844.31
570.095	7929.96
570.457	7918.21
570.819	7920.02
571.18	7924.76
571.542	8013.8
571.903	7978.32
572.265	8070.07
572.626	8061.26
572.987	8078.66
573.349	8073.69
573.71	8192.55
574.071	8141.03
574.432	8202.27
574.794	8299.44
575.155	8281.14
575.516	8230.29
575.877	8289.5
576.238	8296.28
576.599	8321.82
576.96	8277.75
577.32	8352.32
577.681	8375.82
578.042	8355.26
578.403	8353.9
578.763	8424.19
579.124	8444.98
579.485	8490.17
579.845	8527.91
580.206	8471.19
580.566	8413.11
580.927	8473.22
581.287	8496.73
581.648	8494.69
582.008	8585.31
582.368	8445.88
582.728	8536.72
583.089	8494.92
583.449	8558.65
583.809	8628.7
584.169	8623.05
584.529	8534.01
584.889	8630.06
585.249	8534.24
585.609	8567.01
585.969	8574.24
586.329	8610.4
586.688	8530.17
587.048	8581.47
587.408	8551.64
587.768	8583.73
588.127	8580.79
588.487	8536.72
588.846	8632.32
589.206	8592.32
589.565	8636.16
589.925	8626.89
590.284	8595.03
590.643	8692.88
591.003	8607.91
591.362	8642.48
591.721	8638.42
592.08	8656.5
592.44	8644.74
592.799	8672.09
593.158	8623.95
593.517	8640.45
593.876	8669.15
594.235	8652.43
594.593	8684.52
594.952	8713.22
595.311	8640.45
595.67	8680
596.029	8668.25
596.387	8707.34
596.746	8765.42
597.104	8651.98
597.463	8685.2
597.822	8722.26
598.18	8689.26
598.538	8691.3
598.897	8738.08
599.255	8638.64
599.613	8780.79
599.972	8730.17
600.33	8748.47
600.688	8702.6
601.046	8703.27
601.404	8805.64
601.762	8782.14
602.12	8747.11
602.478	8831.41
602.836	8740.11
603.194	8746.44
603.552	8798.19
603.91	8774.01
604.268	8759.32
604.625	8765.65
604.983	8794.57
605.341	8773.78
605.698	8804.74
606.056	8824.17
606.413	8822.37
606.771	8848.81
607.128	8862.37
607.485	8772.42
607.843	8799.77
608.2	8857.39
608.557	8897.62
608.914	8895.13
609.272	8921.35
609.629	8897.62
609.986	8939.2
610.343	8874.57
610.7	9051.74
611.057	8974.68
611.414	8920.9
611.771	8921.57
612.127	8964.28
612.484	8969.03
612.841	8990.05
613.198	8980.78
613.554	9032.53
613.911	9040.67
614.267	9026.66
614.624	9016.71
614.98	9037.95
615.337	9062.81
615.693	9042.93
616.05	8988.01
616.406	9086.99
616.762	9079.76
617.118	9069.14
617.475	9084.28
617.831	9103.49
618.187	9070.5
618.543	9096.94
618.899	9094.45
619.255	9090.38
619.611	9139.42
619.967	9183.26
620.323	9187.56
620.678	9120.21
621.034	9169.93
621.39	9210.15
621.746	9178.74
622.101	9217.38
622.457	9110.04
622.812	9160.66
623.168	9162.92
623.523	9151.17
623.879	9202.47
624.234	9146.43
624.589	9225.97
624.945	9194.79
625.3	9212.64
625.655	9211.96
626.01	9198.63
626.365	9173.32
626.72	9172.87
627.075	9214.45
627.43	9168.35
627.785	9151.85
628.14	9194.56
628.495	9143.26
628.85	9137.84
629.205	9191.4
629.559	9192.98
629.914	9161.12
630.269	9173.09
630.623	9158.4
630.978	9136.03
631.332	9172.41
631.687	9171.28
632.041	9133.32
632.396	9163.6
632.75	9112.75
633.104	9174.45
633.459	9122.25
633.813	9010.38
634.167	9039.54
634.521	9083.15
634.875	9096.94
635.229	9083.83
635.583	9066.88
635.937	9058.97
636.291	9061.46
636.645	9026.88
636.999	9028.69
637.352	9068.91
637.706	8988.24
638.06	9026.2
638.413	8965.64
638.767	9037.5
639.121	9014.9
639.474	8982.81
639.828	9011.51
640.181	9021.68
640.534	8937.62
640.888	8910.73
641.241	8977.84
641.594	8891.97
641.947	8973.78
642.301	8947.11
642.654	8943.04
643.007	8974.45
643.36	8955.02
643.713	8939.2
644.066	8978.3
644.419	8987.79
644.771	8811.75
645.124	8772.2
645.477	8791.18
645.83	8739.21
646.182	8705.31
646.535	8690.17
646.888	8713.22
647.24	8671.18
647.593	8729.26
647.945	8687.46
648.298	8668.02
648.65	8646.78
649.002	8589.83
649.355	8668.02
649.707	8684.07
650.059	8682.48
650.411	8818.07
650.763	8843.61
651.115	8894.23
651.467	8845.87
651.819	8858.52
652.171	8913.66
652.523	8850.61
652.875	8853.33
653.227	8823.5
653.578	8912.31
653.93	8889.48
654.282	8810.16
654.633	8787.57
654.985	8788.47
655.337	8847.68
655.688	8878.64
656.039	8851.97
656.391	8769.03
656.742	8814.46
657.094	8876.83
657.445	8922.25
657.796	8836.6
658.147	8826.66
658.498	8806.32
658.849	8885.19
659.2	8783.5
659.551	8762.03
659.902	8814.46
660.253	8769.49
660.604	8788.47
660.955	8809.71
661.306	8890.16
661.656	8814.01
662.007	8827.34
662.358	8821.69
662.708	8869.82
663.059	8796.38
663.409	8787.57
663.76	8864.4
664.11	8872.31
664.461	8874.57
664.811	8864.63
665.161	8821.24
665.511	8837.06
665.862	8824.4
666.212	8860.33
666.562	8847.22
666.912	8808.36
667.262	8807.68
667.612	8832.76
667.962	8852.87
668.312	8805.19
668.662	8767.68
669.011	8800.45
669.361	8840.9
669.711	8787.79
670.06	8786.66
670.41	8782.59
670.76	8822.37
671.109	8820.11
671.459	8764.74
671.808	8723.61
672.157	8830.05
672.507	8699.88
672.856	8659.43
673.205	8763.39
673.554	8768.81
673.904	8760
674.253	8787.11
674.602	8767.23
674.951	8585.99
675.3	8569.49
675.649	8642.94
675.998	8707.57
676.346	8756.61
676.695	8760.22
677.044	8682.03
677.393	8696.27
677.741	8714.35
678.09	8677.06
678.438	8662.82
678.787	8657.17
679.135	8625.76
679.484	8588.7
679.832	8569.49
680.181	8583.28
680.529	8611.98
680.877	8633.9
681.225	8534.01
681.573	8560.23
681.922	8524.97
682.27	8542.15
682.618	8546.89
682.966	8517.29
683.314	8546.89
683.661	8516.16
684.009	8434.81
684.357	8402.04
684.705	8383.06
685.053	8371.31
685.4	8355.49
685.748	8330.4
686.095	8332.66
686.443	8368.59
686.79	8369.05
687.138	8328.59
687.485	8311.87
687.832	8289.73
688.18	8308.48
688.527	8256.96
688.874	8199.33
689.221	8249.27
689.568	8173.57
689.915	8172.67
690.262	8149.39
690.609	8094.93
690.956	8080.24
691.303	8101.71
691.65	8075.27
691.997	8042.73
692.344	7989.85
692.69	8001.15
693.037	7984.2
693.383	7932.45
693.73	7941.49
694.077	7922.73
694.423	7928.83
694.769	7895.16
695.116	7880.92
695.462	7792.34
695.808	7765.22
696.155	7894.03
696.501	7750.08
696.847	7722.51
697.193	7708.72
697.539	7693.58
697.885	7643.87
698.231	7658.33
698.577	7629.18
698.923	7618.78
699.269	7565.9
699.614	7574.26
699.96	7504.44
700.306	7596.86
700.651	7470.54
700.997	7461.72
701.342	7471.22
701.688	7451.78
702.033	7366.81
702.379	7388.73
702.724	7359.35
703.069	7341.95
703.415	7294.27
703.76	7321.62
704.105	7274.84
704.45	7212.47
704.795	7230.77
705.14	7172.01
705.485	7202.3
705.83	7178.12
706.175	7129.3
706.52	7164.11
706.865	7115.29
707.209	7047.5
707.554	7058.12
707.899	7032.58
708.243	7007.27
708.588	7022.19
708.932	7016.54
709.277	6975.64
709.621	6957.33
709.966	6972.47
710.31	6998.69
710.654	6902.64
710.998	6856.99
711.342	6897.45
711.687	6929.54
712.031	6881.4
712.375	6808.18
712.719	6830.1
713.063	6838.69
713.407	6906.03
713.75	6776.32
714.094	6766.38
714.438	6821.74
714.782	6851.57
715.125	6732.03
715.469	6842.53
715.812	6767.96
716.156	6713.04
716.499	6737
716.843	6784.23
717.186	6688.19
717.53	6753.27
717.873	6729.99
718.216	6706.04
718.559	6689.54
718.902	6683.44
719.246	6697.68
719.589	6661.29
719.932	6662.42
720.275	6617
720.617	6671.01
720.96	6648.41
721.303	6678.47
721.646	6665.81
721.989	6613.16
722.331	6591.92
722.674	6557.79
723.016	6619.26
723.359	6584.91
723.701	6631.46
724.044	6590.11
724.386	6617.45
724.729	6573.16
725.071	6570.9
725.413	6596.21
725.755	6605.48
726.097	6531.13
726.439	6546.49
726.782	6536.78
727.124	6605.48
727.465	6502.88
727.807	6552.6
728.149	6570.22
728.491	6514.4
728.833	6569.09
729.175	6498.81
729.516	6514.4
729.858	6525.03
730.199	6542.88
730.541	6521.86
730.882	6469.89
731.224	6531.13
731.565	6513.28
731.906	6473.73
732.248	6553.73
732.589	6462.65
732.93	6523.9
733.271	6473.5
733.612	6496.33
733.953	6489.55
734.294	6523.9
734.635	6489.77
734.976	6481.19
735.317	6504.91
735.658	6430.79
735.999	6476.21
736.339	6487.06
736.68	6522.99
737.021	6516.21
737.361	6438.7
737.702	6469.43
738.042	6476.67
738.383	6479.15
738.723	6461.07
739.063	6479.6
739.404	6482.99
739.744	6483.22
740.084	6434.41
740.424	6423.11
740.764	6489.77
741.104	6474.86
741.444	6416.33
741.784	6435.99
742.124	6438.25
742.464	6429.21
742.804	6461.53
743.143	6412.94
743.483	6413.62
743.823	6425.14
744.162	6446.61
744.502	6476.21
744.841	6380.17
745.181	6424.69
745.52	6445.48
745.86	6402.09
746.199	6400.28
746.538	6392.6
746.877	6388.08
747.216	6500.39
747.556	6513.05
747.895	6433.28
748.234	6435.54
748.573	6391.24
748.911	6455.2
749.25	6460.17
749.589	6395.54
749.928	6386.72
750.267	6445.48
750.605	6391.92
750.944	6375.43
751.283	6345.6
751.621	6387.63
751.96	6398.93
752.298	6283.68
752.636	6383.11
752.975	6363.45
753.313	6295.88
753.651	6434.41
753.989	6281.19
754.327	6314.64
754.666	6255.65
755.004	6327.52
755.342	6349.89
755.679	6310.34
756.017	6253.39
756.355	6285.94
756.693	6290.46
757.031	6335.65
757.368	6288.2
757.706	6235.77
758.044	6230.57
758.381	6198.03
758.719	6222.44
759.056	6185.6
759.394	6195.32
759.731	6168.65
760.068	6172.72
760.405	6163
760.743	6132.04
761.08	6090.24
761.417	6061.08
761.754	6075.32
762.091	6073.51
762.428	6108.77
762.765	6000.97
763.102	6046.62
763.438	6036.23
763.775	5981.31
764.112	6010.01
764.449	5972.95
764.785	5977.02
765.122	5931.82
765.458	5907.19
765.795	5874.2
766.131	5959.17
766.467	5919.84
766.804	5906.06
767.14	5828.32
767.476	5832.16
767.812	5819.96
768.148	5812.5
768.485	5775.67
768.821	5748.55
769.157	5755.78
769.492	5758.72
769.828	5740.87
770.164	5692.96
770.5	5684.37
770.836	5686.63
771.171	5620.19
771.507	5649.34
771.842	5581.55
772.178	5611.15
772.513	5593.3
772.849	5544.71
773.184	5524.37
773.519	5499.06
773.855	5482.57
774.19	5524.83
774.525	5478.27
774.86	5464.94
775.195	5452.06
775.53	5437.37
775.865	5356.02
776.2	5351.95
776.535	5322.35
776.87	5309.24
777.205	5362.34
777.539	5296.36
777.874	5294.32
778.209	5283.25
778.543	5283.25
778.878	5240.54
779.212	5276.25
779.547	5210.48
779.881	5228.56
780.215	5177.72
780.55	5204.16
780.884	5153.31
781.218	5137.04
781.552	5160.77
781.886	5118.28
782.22	5049.13
782.554	5079.87
782.888	5021.34
783.222	4987.21
783.556	4992.41
783.889	4953.54
784.223	4946.31
784.557	4953.77
784.89	4952.19
785.224	4861.57
785.557	4885.97
785.891	4861.57
786.224	4919.42
786.558	4853.21
786.891	4870.15
787.224	4843.71
787.557	4787.9
787.891	4785.64
788.224	4772.3
788.557	4786.09
788.89	4791.51
789.223	4746.54
789.556	4723.94
789.888	4758.97
790.221	4759.65
790.554	4634.68
790.887	4683.72
791.219	4622.48
791.552	4669.26
791.884	4660.22
792.217	4623.83
792.549	4625.87
792.882	4552.42
793.214	4530.5
793.546	4572.76
793.879	4531.41
794.211	4499.09
794.543	4534.12
794.875	4471.75
795.207	4454.35
795.539	4504.06
795.871	4530.73
796.203	4456.15
796.535	4393.78
796.867	4435.14
797.198	4385.65
797.53	4372.99
797.862	4403.5
798.193	4358.3
798.525	4361.02
798.856	4345.65
799.188	4369.38
799.519	4292.54
799.85	4325.54
800.182	4285.54
800.513	4276.05
800.844	4266.55
801.175	4265.65
801.506	4246.22
801.837	4234.46
802.168	4213.9
802.499	4204.86
802.83	4178.87
803.161	4174.81
803.491	4158.76
803.822	4199.89
804.153	4162.15
804.483	4152.43
804.814	4112.66
805.145	4118.08
805.475	4080.8
805.805	4059.55
806.136	4067.92
806.466	4075.83
806.796	4051.42
807.126	4020.23
807.457	4055.49
807.787	4048.26
808.117	4018.43
808.447	4028.59
808.777	4006.45
809.107	4032.66
809.436	3985.43
809.766	4036.5
810.096	3954.92
810.426	3976.84
810.755	3962.61
811.085	3944.3
811.414	3926.45
811.744	3945.88
812.073	3948.6
812.403	3880.58
812.732	3894.59
813.061	3894.59
813.39	3880.8
813.719	3864.98
814.049	3883.06
814.378	3876.96
814.707	3866.34
815.036	3773.69
815.365	3826.57
815.693	3784.31
816.022	3798.77
816.351	3745.44
816.68	3759.9
817.008	3808.26
817.337	3734.82
817.665	3727.59
817.994	3724.65
818.322	3726.46
818.651	3729.62
818.979	3723.97
819.307	3741.82
819.636	3719.22
819.964	3688.49
820.292	3735.5
820.62	3702.05
820.948	3676.74
821.276	3716.96
821.604	3711.09
821.932	3693.69
822.259	3721.26
822.587	3690.75
822.915	3723.29
823.243	3681.71
823.57	3685.33
823.898	3683.29
824.225	3642.62
824.553	3639.68
824.88	3676.74
825.207	3691.88
825.535	3635.61
825.862	3659.11
826.189	3675.84
826.516	3671.54
826.843	3683.74
827.17	3711.09
827.497	3673.8
827.824	3704.54
828.151	3691.43
828.478	3676.51
828.805	3645.78
829.131	3636.51
829.458	3635.61
829.785	3645.33
830.111	3680.81
830.438	3664.99
830.764	3676.97
831.09	3660.47
831.417	3641.94
831.743	3643.07
832.069	3679
832.395	3622.28
832.722	3662.05
833.048	3626.35
833.374	3688.94
833.7	3675.84
834.026	3623.41
834.351	3651.2
834.677	3623.63
835.003	3666.57
835.329	3647.81
835.654	3621.37
835.98	3608.72
836.306	3593.58
836.631	3559.23
836.956	3591.09
837.282	3613.69
837.607	3610.53
837.932	3577.08
838.258	3635.38
838.583	3587.02
838.908	3594.26
839.233	3559.45
839.558	3580.47
839.883	3565.78
840.208	3529.85
840.533	3542.51
840.858	3537.53
841.182	3549.74
841.507	3593.58
841.832	3514.48
842.156	3515.84
842.481	3495.5
842.805	3469.51
843.13	3475.39
843.454	3498.44
843.778	3457.99
844.103	3468.16
844.427	3478.78
844.751	3452.56
845.075	3447.37
845.399	3421.15
845.723	3412.11
846.047	3428.84
846.371	3400.36
846.695	3369.85
847.019	3371.44
847.343	3377.54
847.666	3320.36
847.99	3354.04
848.313	3364.21
848.637	3313.13
848.96	3328.5
849.284	3322.17
849.607	3285.11
849.931	3278.56
850.254	3247.37
850.577	3226.13
850.9	3233.81
851.223	3211.89
851.546	3262.29
851.869	3212.8
852.192	3220.93
852.515	3203.08
852.838	3168.28
853.161	3169.41
853.483	3162.63
853.806	3104.55
854.129	3143.19
854.451	3103.65
854.774	3065.23
855.096	3086.47
855.419	3102.74
855.741	3042.41
856.063	3042.63
856.385	3072.24
856.708	3041.95
857.03	3050.32
857.352	3054.83
857.674	3015.51
857.996	3019.81
858.318	3037.21
858.64	3008.51
858.961	3004.67
859.283	2975.51
859.605	3031.56
859.926	2991.56
860.248	2971
860.57	2962.63
860.891	2964.22
861.212	3003.54
861.534	2955.85
861.855	2907.72
862.176	2980.26
862.498	2957.89
862.819	2953.59
863.14	2920.83
863.461	2935.06
863.782	2962.41
864.103	2920.83
864.424	2891.22
864.745	2928.74
865.065	2904.33
865.386	2866.59
865.707	2857.33
866.027	2894.39
866.348	2876.31
866.668	2843.54
866.989	2826.82
867.309	2854.84
867.63	2852.35
867.95	2875.4
868.27	2832.69
868.59	2847.16
868.91	2848.96
869.23	2827.95
869.55	2799.02
869.87	2860.94
870.19	2802.64
870.51	2818.46
870.83	2832.47
871.15	2790.21
871.469	2819.13
871.789	2824.33
872.109	2796.31
872.428	2785.46
872.748	2763.09
873.067	2780.27
873.386	2799.02
873.706	2820.26
874.025	2763.77
874.344	2786.37
874.663	2797.67
874.982	2788.63
875.301	2764.45
875.62	2724.9
875.939	2755.63
876.258	2777.78
876.577	2751.11
876.896	2713.15
877.214	2702.53
877.533	2746.37
877.852	2733.71
878.17	2768.29
878.489	2712.7
878.807	2709.31
879.125	2754.28
879.444	2695.07
879.762	2701.85
880.08	2684.22
880.398	2705.69
880.716	2701.4
881.034	2653.94
881.352	2664.56
881.67	2671.34
881.988	2712.02
882.306	2669.76
882.624	2664.11
882.941	2664.56
883.259	2681.51
883.577	2660.95
883.894	2621.63
884.212	2633.15
884.529	2653.49
884.846	2629.54
885.164	2602.42
885.481	2587.5
885.798	2622.98
886.115	2560.16
886.432	2595.86
886.75	2574.85
887.067	2599.03
887.383	2575.75
887.7	2617.11
888.017	2577.79
888.334	2580.05
888.651	2571.68
888.967	2566.71
889.284	2532.36
889.6	2535.3
889.917	2526.26
890.233	2503.21
890.55	2522.19
890.866	2531.68
891.182	2509.09
891.498	2475.42
891.815	2474.06
892.131	2500.95
892.447	2496.88
892.763	2505.7
893.079	2481.74
893.395	2450.56
893.71	2439.71
894.026	2441.74
894.342	2468.18
894.657	2446.04
894.973	2441.29
895.289	2428.41
895.604	2425.25
895.92	2392.71
896.235	2396.77
896.55	2404.91
896.865	2393.16
897.181	2412.14
897.496	2377.11
897.811	2391.12
898.126	2365.81
898.441	2380.5
898.756	2373.72
899.071	2322.88
899.386	2322.2
899.7	2293.5
900.015	2295.08
900.33	2289.21
900.644	2306.15
900.959	2331.69
901.273	2284.91
901.588	2259.6
901.902	2304.35
902.216	2276.78
902.531	2277.68
902.845	2244.91
903.159	2246.95
903.473	2248.3
903.787	2263.22
904.101	2230.22
904.415	2219.6
904.729	2198.81
905.042	2177.12
905.356	2188.42
905.67	2218.7
905.984	2179.6
906.297	2205.82
906.611	2159.94
906.924	2134.18
907.237	2161.53
907.551	2161.53
907.864	2141.19
908.177	2121.07
908.491	2142.99
908.804	2136.44
909.117	2102.77
909.43	2111.81
909.743	2098.93
910.056	2092.83
910.368	2099.15
910.681	2044.24
910.994	2066.16
911.307	2083.56
911.619	2053.73
911.932	2053.28
912.244	2064.8
912.557	2024.13
912.869	2032.49
913.181	2004.47
913.494	2011.47
913.806	1980.51
914.118	1997.91
914.43	1989.55
914.742	1987.29
915.054	1995.43
915.366	1977.12
915.678	1927.18
915.99	1958.82
916.302	1959.95
916.613	1935.99
916.925	1961.76
917.236	1931.93
917.548	1933.28
917.859	1917.01
918.171	1932.6
918.482	1894.41
918.794	1908.65
919.105	1897.35
919.416	1870.69
919.727	1858.71
920.038	1890.57
920.349	1882.21
920.66	1846.51
920.971	1848.09
921.282	1848.99
921.593	1835.66
921.903	1823.23
922.214	1824.13
922.525	1839.73
922.835	1769.67
923.146	1809.44
923.456	1801.53
923.767	1780.29
924.077	1799.05
924.387	1787.75
924.697	1770.57
925.008	1781.65
925.318	1750.69
925.628	1781.65
925.938	1769.22
926.248	1740.07
926.558	1752.27
926.867	1732.61
927.177	1699.84
927.487	1723.57
927.796	1728.54
928.106	1684.93
928.416	1700.97
928.725	1691.93
929.034	1734.42
929.344	1691.48
929.653	1689
929.962	1676.34
930.271	1646.06
930.581	1650.58
930.89	1672.95
931.199	1629.79
931.508	1635.21
931.817	1658.26
932.125	1645.38
932.434	1620.75
932.743	1623.91
933.051	1594.53
933.36	1613.74
933.669	1581.65
933.977	1597.92
934.286	1575.55
934.594	1581.2
934.902	1568.55
935.21	1572.61
935.519	1575.78
935.827	1576.91
936.135	1544.59
936.443	1537.59
936.751	1540.3
937.059	1542.11
937.367	1506.63
937.674	1523.12
937.982	1498.94
938.29	1512.95
938.597	1512.73
938.905	1498.72
939.213	1516.57
939.52	1489.45
939.827	1479.74
940.135	1464.37
940.442	1467.53
940.749	1492.39
941.056	1482.45
941.363	1450.58
941.67	1448.78
941.977	1450.36
942.284	1440.19
942.591	1441.77
942.898	1473.63
943.205	1461.66
943.511	1465.05
943.818	1421.43
944.125	1411.04
944.431	1390.92
944.738	1414.2
945.044	1425.27
945.35	1400.87
945.657	1390.25
945.963	1414.43
946.269	1397.03
946.575	1388.21
946.881	1359.96
947.187	1395.67
947.493	1366.07
947.799	1347.99
948.105	1373.07
948.41	1354.54
948.716	1353.41
949.022	1343.92
949.327	1318.38
949.633	1326.52
949.938	1349.57
950.244	1306.18
950.549	1329.68
950.854	1316.35
951.16	1300.98
951.465	1314.99
951.77	1291.72
952.075	1304.15
952.38	1300.08
952.685	1310.47
952.99	1280.42
953.294	1274.99
953.599	1280.87
953.904	1283.36
954.209	1283.81
954.513	1269.12
954.818	1259.4
955.122	1258.72
955.426	1256.24
955.731	1252.4
956.035	1244.04
956.339	1267.31
956.643	1226.18
956.948	1225.5
957.252	1230.48
957.556	1232.96
957.86	1192.74
958.163	1242.91
958.467	1234.77
958.771	1196.58
959.075	1202
959.378	1206.75
959.682	1203.13
959.985	1180.08
960.289	1185.51
960.592	1167.88
960.896	1154.32
961.199	1174.43
961.502	1187.54
961.805	1176.92
962.108	1170.14
962.411	1154.32
962.714	1133.53
963.017	1145.28
963.32	1131.95
963.623	1150.48
963.926	1159.29
964.228	1122
964.531	1130.37
964.833	1131.72
965.136	1108.9
965.438	1091.95
965.741	1131.72
966.043	1122
966.345	1115
966.648	1084.27
966.95	1114.32
967.252	1076.81
967.554	1110.71
967.856	1101.44
968.158	1096.02
968.46	1056.02
968.761	1086.53
969.063	1073.87
969.365	1079.52
969.666	1040.65
969.968	1063.93
970.269	1038.62
970.571	1053.31
970.872	1057.37
971.174	1044.04
971.475	1029.35
971.776	1050.14
972.077	1033.42
972.378	1028.9
972.679	1011.72
972.98	1040.2
973.281	1009.01
973.582	1023.93
973.883	1025.51
974.183	1009.69
974.484	986.64
974.785	984.38
975.085	1007.66
975.386	1019.41
975.686	1010.37
975.986	1018.96
976.287	971.73
976.587	993.19
976.887	986.64
977.187	987.32
977.487	989.8
977.787	982.35
978.087	988.22
978.387	980.99
978.687	986.19
978.987	991.39
979.286	953.42
979.586	963.36
979.885	942.57
980.185	950.71
980.484	949.13
980.784	935.57
981.083	920.65
981.382	932.18
981.682	935.12
981.981	936.92
982.28	948.68
982.579	918.62
982.878	917.94
983.177	916.36
983.475	926.98
983.774	917.49
984.073	897.15
984.372	910.71
984.67	907.32
984.969	890.37
985.267	892.18
985.566	916.81
985.864	879.3
986.162	891.73
986.461	872.52
986.759	875.68
987.057	881.33
987.355	861.45
987.653	849.24
987.951	869.13
988.249	888.79
988.547	850.83
988.844	853.31
989.142	860.54
989.44	864.38
989.737	869.58
990.035	853.31
990.332	861.67
990.63	849.7
990.927	863.03
991.224	845.63
991.521	852.18
991.819	839.98
992.116	840.43
992.413	818.51
992.71	834.55
993.006	837.72
993.303	835.46
993.6	830.03
993.897	827.1
994.193	830.26
994.49	831.84
994.787	813.09
995.083	787.78
995.379	811.05
995.676	797.72
995.972	802.92
996.268	777.61
996.565	795.69
996.861	795.23
997.157	795.69
997.453	766.99
997.749	774.22
998.044	769.25
998.34	788.91
998.636	780.54
998.932	761.56
999.227	761.34
999.523	756.82
999.818	752.97
1000.114	791.17
1000.409	762.92
1000.704	750.71
1001	735.12
1001.295	733.77
1001.59	748.23
1001.885	750.04
1002.18	732.41
1002.475	730.38
1002.77	728.79
1003.065	746.2
1003.359	717.95
1003.654	725.18
1003.949	719.08
1004.243	724.5
1004.538	707.33
1004.832	724.5
1005.127	729.25
1005.421	714.33
1005.715	711.62
1006.009	725.86
1006.304	706.2
1006.598	690.38
1006.892	700.55
1007.186	690.83
1007.48	705.74
1007.773	695.57
1008.067	690.6
1008.361	666.42
1008.655	705.29
1008.948	681.56
1009.242	680.43
1009.535	664.39
1009.829	687.44
1010.122	673.65
1010.415	683.6
1010.708	647.67
1011.001	658.51
1011.295	668.23
1011.588	635.46
1011.881	649.47
1012.173	676.14
1012.466	667.55
1012.759	663.71
1013.052	646.99
1013.344	630.27
1013.637	631.62
1013.93	628.46
1014.222	637.5
1014.514	630.94
1014.807	629.81
1015.099	651.28
1015.391	625.75
1015.683	641.57
1015.976	635.01
1016.268	627.55
1016.56	618.06
1016.851	609.25
1017.143	626.2
1017.435	631.85
1017.727	651.96
1018.018	650.15
1018.31	596.82
1018.602	598.4
1018.893	591.85
1019.185	598.85
1019.476	611.51
1019.767	603.83
1020.058	618.06
1020.35	589.14
1020.641	581.45
1020.932	588.01
1021.223	603.6
1021.514	571.74
1021.804	583.04
1022.095	605.41
1022.386	577.39
1022.677	578.74
1022.967	560.66
1023.258	576.48
1023.548	571.06
1023.839	583.04
1024.129	567.67
1024.419	545.3
1024.709	559.08
1025	543.26
1025.29	552.53
1025.58	561.34
1025.87	530.38
1026.16	537.84
1026.449	579.87
1026.739	531.06
1027.029	554.56
1027.319	533.77
1027.608	558.86
1027.898	547.33
1028.187	558.4
1028.477	538.06
1028.766	525.18
1029.055	528.35
1029.344	530.83
1029.634	520.89
1029.923	529.93
1030.212	514.79
1030.501	527.9
1030.79	530.38
1031.078	514.11
1031.367	513.21
1031.656	481.12
1031.945	529.93
1032.233	486.77
1032.522	522.47
1032.81	519.99
1033.099	505.3
1033.387	503.26
1033.675	496.03
1033.963	499.87
1034.251	479.76
1034.54	491.74
1034.828	494.68
1035.116	507.78
1035.403	514.79
1035.691	507.33
1035.979	495.35
1036.267	483.6
1036.554	498.97
1036.842	473.66
1037.129	486.54
1037.417	479.99
1037.704	449.25
1037.992	468.46
1038.279	463.04
1038.566	479.54
1038.853	479.54
1039.14	479.54
