Data from mousepad_grey_FLMS001491_00001.txt Node
Date: Wed Feb 08 14:28:53 GMT 2017
User: dcchb
Spectrometer: FLMS00149
Trigger mode: 0
Integration Time (sec): 2.000000E-2
Scans to average: 10
Electric dark correction enabled: true
Nonlinearity correction enabled: false
Boxcar width: 0
XAxis mode: Wavelengths
Number of Pixels in Spectrum: 2048
>>>>>Begin Spectral Data<<<<<
341.393	-5.14
341.776	-5.14
342.16	-5.14
342.543	-39.49
342.927	-61.18
343.31	-74.07
343.693	-69.09
344.077	-70.22
344.46	-57.57
344.843	-55.31
345.226	-48.53
345.61	-28.64
345.993	-11.47
346.376	-1.53
346.759	5.25
347.142	40.73
347.525	42.54
347.908	52.48
348.291	63.78
348.674	92.94
349.057	118.7
349.44	113.27
349.823	115.76
350.206	138.36
350.588	178.36
350.971	175.19
351.354	204.57
351.737	221.29
352.119	223.33
352.502	243.44
352.884	257.68
353.267	272.59
353.65	280.5
354.032	251.58
354.414	277.79
354.797	290.44
355.179	308.07
355.562	308.75
355.944	292.48
356.326	294.29
356.709	305.81
357.091	306.04
357.473	320.05
357.855	323.21
358.238	325.92
358.62	324.57
359.002	316.21
359.384	306.49
359.766	311.91
360.148	300.39
360.53	322.31
360.912	327.51
361.294	325.92
361.676	328.86
362.057	309.88
362.439	312.36
362.821	298.35
363.203	307.17
363.584	297.68
363.966	318.69
364.348	291.12
364.729	308.75
365.111	291.12
365.493	287.73
365.874	294.51
366.256	277.56
366.637	307.17
367.019	286.83
367.4	313.72
367.781	293.16
368.163	296.32
368.544	294.06
368.925	283.66
369.306	308.3
369.688	276.66
370.069	317.79
370.45	295.42
370.831	304.91
371.212	287.05
371.593	266.94
371.974	298.35
372.355	294.96
372.736	305.13
373.117	287.96
373.498	304
373.879	302.42
374.26	269.88
374.641	289.54
375.021	284.57
375.402	306.72
375.783	303.1
376.163	305.36
376.544	304.91
376.925	326.38
377.305	305.36
377.686	291.12
378.066	311.01
378.447	304.23
378.827	312.82
379.208	301.52
379.588	305.81
379.968	308.07
380.349	324.57
380.729	323.66
381.109	297
381.489	294.51
381.87	319.37
382.25	312.14
382.63	301.74
383.01	310.78
383.39	338.58
383.77	331.8
384.15	311.69
384.53	319.37
384.91	311.23
385.29	321.4
385.67	321.18
386.049	326.38
386.429	328.86
386.809	339.93
387.189	337
387.568	329.31
387.948	328.64
388.328	355.75
388.707	349.2
389.087	346.26
389.466	327.28
389.846	325.47
390.225	330.44
390.605	329.99
390.984	341.06
391.363	350.56
391.743	360.27
392.122	341.74
392.501	357.34
392.881	348.52
393.26	336.32
393.639	352.14
394.018	339.71
394.397	358.92
394.776	355.3
395.155	362.08
395.534	341.74
395.913	338.8
396.292	357.79
396.671	361.63
397.05	380.84
397.429	366.37
397.808	372.7
398.186	366.6
398.565	353.27
398.944	352.36
399.323	361.63
399.701	372.93
400.08	369.54
400.458	391.91
400.837	367.73
401.215	384
401.594	363.21
401.972	362.08
402.351	390.55
402.729	373.15
403.107	385.81
403.486	375.19
403.864	376.77
404.242	407.73
404.62	387.39
404.999	387.62
405.377	372.7
405.755	409.76
406.133	384.23
406.511	407.73
406.889	402.53
407.267	411.57
407.645	386.26
408.023	417.67
408.401	402.98
408.779	425.58
409.156	417.22
409.534	412.02
409.912	424.45
410.29	421.29
410.667	414.51
411.045	431.01
411.422	440.72
411.8	428.29
412.178	447.28
412.555	460.61
412.933	439.59
413.31	454.96
413.687	451.12
414.065	456.09
414.442	439.37
414.819	444.79
415.197	471.68
415.574	477.33
415.951	462.87
416.328	472.36
416.705	468.97
417.082	460.38
417.46	464.45
417.837	472.59
418.214	468.29
418.591	480.27
418.967	485.02
419.344	492.7
419.721	475.75
420.098	501.29
420.475	482.98
420.852	499.25
421.228	496.09
421.605	487.95
421.982	506.48
422.358	513.49
422.735	521.17
423.111	514.17
423.488	522.98
423.864	534.96
424.241	514.17
424.617	523.88
424.994	540.61
425.37	534.73
425.746	548.29
426.123	527.73
426.499	521.17
426.875	549.42
427.251	566.37
427.627	567.05
428.003	575.63
428.379	567.05
428.756	546.03
429.132	586.93
429.507	590.32
429.883	557.56
430.259	572.92
430.635	602.07
431.011	588.52
431.387	598.68
431.763	620.83
432.138	610.66
432.514	614.96
432.89	615.86
433.265	625.12
433.641	629.64
434.016	628.51
434.392	640.49
434.767	629.42
435.143	662.64
435.518	658.57
435.894	651.79
436.269	659.7
436.644	651.34
437.02	664.9
437.395	653.82
437.77	675.74
438.145	691.56
438.52	690.89
438.895	696.76
439.271	705.57
439.646	733.37
440.021	730.88
440.395	725.69
440.77	708.96
441.145	711.68
441.52	720.72
441.895	750.77
442.27	723.88
442.645	731.11
443.019	738.57
443.394	760.71
443.769	753.26
444.143	741.73
444.518	754.84
444.892	713.94
445.267	766.82
445.641	774.5
446.016	779.92
446.39	793.03
446.764	798
447.139	772.92
447.513	771.34
447.887	765.01
448.262	800.49
448.636	774.73
449.01	821.96
449.384	825.35
449.758	812.01
450.132	825.35
450.506	807.49
450.88	844.55
451.254	833.25
451.628	823.09
452.002	849.53
452.376	803.88
452.75	860.37
453.123	886.59
453.497	873.71
453.871	859.24
454.244	872.58
454.618	892.91
454.992	891.11
455.365	896.3
455.739	924.55
456.112	946.25
456.486	930.88
456.859	936.53
457.232	934.5
457.606	933.14
457.979	981.73
458.352	976.3
458.725	972.69
459.099	1014.95
459.472	1025.11
459.845	1021.95
460.218	1030.31
460.591	1018.56
460.964	1028.28
461.337	1070.08
461.71	1046.81
462.083	1082.97
462.456	1080.48
462.829	1098.33
463.201	1106.47
463.574	1101.04
463.947	1121.16
464.32	1118.45
464.692	1127.71
465.065	1104.21
465.438	1175.84
465.81	1172.23
466.183	1182.17
466.555	1181.49
466.928	1212.68
467.3	1200.93
467.672	1223.3
468.045	1208.39
468.417	1243.19
468.789	1263.3
469.161	1243.64
469.534	1306.91
469.906	1328.84
470.278	1292.9
470.65	1291.1
471.022	1332.22
471.394	1384.2
471.766	1363.18
472.138	1386.23
472.51	1412.9
472.882	1413.58
473.253	1403.86
473.625	1477.76
473.997	1489.28
474.369	1496.51
474.74	1511.43
475.112	1523.18
475.484	1534.93
475.855	1595.04
476.227	1555.27
476.598	1612.67
476.97	1623.97
477.341	1651.31
477.713	1710.52
478.084	1670.75
478.455	1723.18
478.827	1710.52
479.198	1806.56
479.569	1776.51
479.94	1821.48
480.311	1839.56
480.682	1853.12
481.053	1874.81
481.424	1960.46
481.795	1948.03
482.166	1976.05
482.537	1989.83
482.908	2025.77
483.279	2060.34
483.65	2057.63
484.021	2132.2
484.391	2134.01
484.762	2140.79
485.133	2197.74
485.503	2192.09
485.874	2218.76
486.244	2251.3
486.615	2301.69
486.985	2313.44
487.356	2352.99
487.726	2377.17
488.097	2400.45
488.467	2404.29
488.837	2469.6
489.207	2529.03
489.578	2535.13
489.948	2549.82
490.318	2550.72
490.688	2565.64
491.058	2618.52
491.428	2653.55
491.798	2682.7
492.168	2704.17
492.538	2725.18
492.908	2765.41
493.278	2784.39
493.648	2774.22
494.017	2814.9
494.387	2838.85
494.757	2910.71
495.126	2921.11
495.496	2845.86
495.866	2929.92
496.235	2951.39
496.605	2990.26
496.974	3018.73
497.344	3035
497.713	3051.73
498.082	3068
498.452	3060.54
498.821	3095.57
499.19	3127.43
499.559	3139.86
499.928	3163.14
500.298	3184.61
500.667	3203.14
501.036	3206.98
501.405	3245.17
501.774	3283.59
502.143	3276.35
502.512	3303.92
502.88	3352.06
503.249	3296.47
503.618	3353.19
503.987	3400.19
504.356	3407.65
504.724	3387.54
505.093	3412.4
505.462	3423.47
505.83	3434.32
506.199	3474.99
506.567	3503.24
506.936	3524.71
507.304	3571.49
507.672	3561.09
508.041	3632.05
508.409	3627.08
508.777	3623.69
509.145	3687.42
509.514	3688.32
509.882	3736.23
510.25	3705.72
510.618	3729
510.986	3741.88
511.354	3771.26
511.722	3837.92
512.09	3840.86
512.458	3860.97
512.826	3880.41
513.193	3910.24
513.561	3933.74
513.929	3965.6
514.297	3976.45
514.664	4039.27
515.032	4044.02
515.4	4038.82
515.767	4081.98
516.135	4089.89
516.502	4072.49
516.869	4177.12
517.237	4210.12
517.604	4170.34
517.972	4204.92
518.339	4249.44
518.706	4252.83
519.073	4284.69
519.44	4303.45
519.808	4331.47
520.175	4355.42
520.542	4390
520.909	4444.91
521.276	4437
521.643	4429.09
522.009	4513.38
522.376	4528.75
522.743	4569.43
523.11	4557.68
523.477	4589.99
523.843	4672.93
524.21	4735.75
524.577	4728.52
524.943	4733.94
525.31	4774.39
525.676	4856.43
526.043	4834.73
526.409	4815.52
526.776	4888.52
527.142	4928.74
527.508	4949.08
527.874	4999.02
528.241	5019.13
528.607	5027.72
528.973	5057.78
529.339	5075.63
529.705	5095.52
530.071	5169.19
530.437	5202.86
530.803	5183.65
531.169	5247.15
531.535	5258.68
531.901	5305.45
532.267	5305.91
532.632	5297.54
532.998	5361.05
533.364	5367.15
533.73	5423.87
534.095	5499.8
534.461	5493.02
534.826	5492.12
535.192	5498.44
535.557	5559.68
535.923	5575.5
536.288	5560.81
536.653	5616.41
537.019	5559.46
537.384	5623.19
537.749	5691.43
538.114	5696.63
538.479	5706.57
538.845	5762.39
539.21	5746.35
539.575	5779.34
539.94	5832.22
540.305	5830.19
540.67	5786.8
541.034	5903.86
541.399	5911.77
541.764	5927.58
542.129	5992.44
542.494	5978.2
542.858	5994.7
543.223	6036.73
543.587	6025.66
543.952	6086.22
544.316	6087.35
544.681	6051.42
545.045	6162.15
545.41	6168.26
545.774	6151.08
546.138	6173.45
546.503	6275.6
546.867	6236.95
547.231	6340.45
547.595	6304.75
547.959	6330.29
548.324	6336.61
548.688	6380.91
549.052	6402.6
549.416	6415.71
549.779	6483.5
550.143	6439.44
550.507	6517.17
550.871	6519.21
551.235	6504.97
551.599	6589.94
551.962	6594.69
552.326	6657.28
552.689	6663.16
553.053	6650.5
553.417	6674.91
553.78	6739.31
554.143	6755.81
554.507	6773.21
554.87	6768.01
555.234	6900.21
555.597	6868.58
555.96	6897.5
556.323	6901.12
556.686	6916.03
557.05	6933.89
557.413	6978.18
557.776	6961.46
558.139	7016.82
558.502	6984.28
558.865	7067.67
559.228	7068.57
559.59	7136.37
559.953	7184.73
560.316	7288.23
560.679	7232.18
561.041	7243.71
561.404	7289.13
561.767	7358.51
562.129	7361.9
562.492	7403.7
562.854	7399.18
563.217	7438.5
563.579	7450.03
563.941	7494.1
564.304	7538.62
564.666	7568.45
565.028	7589.01
565.39	7606.18
565.753	7638.73
566.115	7642.34
566.477	7732.73
566.839	7774.99
567.201	7750.36
567.563	7744.94
567.925	7809.79
568.287	7860.41
568.648	7852.73
569.01	8001.2
569.372	7939.06
569.734	7948.32
570.095	8035.55
570.457	8035.55
570.819	8033.07
571.18	8054.08
571.542	8068.09
571.903	8163.68
572.265	8157.13
572.626	8147.86
572.987	8155.55
573.349	8209.56
573.71	8257.01
574.071	8258.14
574.432	8270.8
574.794	8338.82
575.155	8350.8
575.516	8372.49
575.877	8430.8
576.238	8366.39
576.599	8439.61
576.96	8457.69
577.32	8468.76
577.681	8459.04
578.042	8507.18
578.403	8516.44
578.763	8497.46
579.124	8599.38
579.485	8560.06
579.845	8615.2
580.206	8591.24
580.566	8581.98
580.927	8578.14
581.287	8618.81
581.648	8597.8
582.008	8615.2
582.368	8665.59
582.728	8644.57
583.089	8622.43
583.449	8652.71
583.809	8660.62
584.169	8628.98
584.529	8707.17
584.889	8743.78
585.249	8671.92
585.609	8701.97
585.969	8705.82
586.329	8710.79
586.688	8712.37
587.048	8720.96
587.408	8699.49
587.768	8733.84
588.127	8720.05
588.487	8674.18
588.846	8760.73
589.206	8702.43
589.565	8739.49
589.925	8780.62
590.284	8743.33
590.643	8750.11
591.003	8790.11
591.362	8844.12
591.721	8778.58
592.08	8736.1
592.44	8784.46
592.799	8790.11
593.158	8868.3
593.517	8819.71
593.876	8765.7
594.235	8811.35
594.593	8815.87
594.952	8840.95
595.311	8741.75
595.67	8840.95
596.029	8853.83
596.387	8889.09
596.746	8869.88
597.104	8801.86
597.463	8781.75
597.822	8854.74
598.18	8843.67
598.538	8839.15
598.897	8910.33
599.255	8882.31
599.613	8918.47
599.972	8928.18
600.33	8935.19
600.688	8838.69
601.046	8939.03
601.404	8918.92
601.762	8893.16
602.12	8932.93
602.478	8928.18
602.836	8902.87
603.194	8938.35
603.552	8960.27
603.91	8875.3
604.268	8955.53
604.625	8980.39
604.983	9016.09
605.341	8969.76
605.698	8950.78
606.056	9010.89
606.413	8983.55
606.771	9028.29
607.128	9071
607.485	9031.23
607.843	9045.24
608.2	9041.4
608.557	9064.68
608.914	9093.38
609.272	9099.7
609.629	9141.51
609.986	9155.52
610.343	9105.35
610.7	9136.54
611.057	9147.16
611.414	9148.52
611.771	9108.29
612.127	9169.76
612.484	9123.43
612.841	9176.76
613.198	9159.59
613.554	9229.19
613.911	9249.53
614.267	9238.68
614.624	9202.07
614.98	9270.1
615.337	9253.15
615.693	9282.98
616.05	9200.27
616.406	9282.75
616.762	9318.68
617.118	9277.78
617.475	9228.51
617.831	9323.2
618.187	9362.07
618.543	9345.12
618.899	9308.29
619.255	9348.06
619.611	9322.75
619.967	9361.84
620.323	9368.85
620.678	9328.62
621.034	9332.69
621.39	9344.22
621.746	9273.26
622.101	9440.94
622.457	9336.53
622.812	9331.79
623.168	9326.59
623.523	9414.27
623.879	9382.86
624.234	9360.71
624.589	9419.7
624.945	9438.9
625.3	9423.31
625.655	9376.76
626.01	9425.35
626.365	9375.4
626.72	9432.35
627.075	9367.27
627.43	9400.94
627.785	9382.86
628.14	9406.59
628.495	9409.75
628.85	9393.26
629.205	9365.69
629.559	9401.39
629.914	9429.41
630.269	9412.92
630.623	9370.21
630.978	9319.36
631.332	9390.77
631.687	9387.61
632.041	9319.59
632.396	9419.7
632.75	9388.51
633.104	9372.47
633.459	9318
633.813	9303.09
634.167	9341.51
634.521	9308.96
634.875	9330.88
635.229	9316.87
635.583	9320.49
635.937	9279.13
636.291	9240.04
636.645	9321.17
636.999	9302.41
637.352	9368.85
637.706	9211.34
638.06	9321.85
638.413	9252.92
638.767	9295.63
639.121	9234.39
639.474	9218.35
639.828	9212.47
640.181	9204.56
640.534	9248.85
640.888	9210.89
641.241	9153.49
641.594	9189.65
641.947	9240.04
642.301	9179.7
642.654	9185.8
643.007	9209.31
643.36	9182.64
643.713	9141.96
644.066	9197.33
644.419	9169.08
644.771	9105.35
645.124	9043.21
645.477	9002.98
645.83	8908.52
646.182	8989.65
646.535	8889.77
646.888	8887.96
647.24	8904.68
647.593	8921.63
647.945	8871.01
648.298	8901.07
648.65	8864.46
649.002	8800.05
649.355	8869.2
649.707	8848.19
650.059	8882.76
650.411	9008.18
650.763	9059.03
651.115	9103.09
651.467	9125.47
651.819	9151.45
652.171	9101.06
652.523	9057.67
652.875	9070.33
653.227	9053.83
653.578	9083.21
653.93	9101.29
654.282	9019.48
654.633	8935.87
654.985	9081.17
655.337	9059.25
655.688	9014.06
656.039	9032.36
656.391	9091.34
656.742	9047.73
657.094	9099.48
657.445	9090.21
657.796	9036.43
658.147	9006.83
658.498	9035.75
658.849	9030.78
659.2	9099.03
659.551	8994.62
659.902	9128.86
660.253	9100.16
660.604	9089.54
660.955	9033.94
661.306	9075.98
661.656	9065.13
662.007	9012.93
662.358	9047.28
662.708	9037.56
663.059	9009.31
663.409	9031.91
663.76	8972.7
664.11	9090.66
664.461	9012.7
664.811	9065.13
665.161	9020.38
665.511	9042.3
665.862	9027.39
666.212	9071.46
666.562	9047.95
666.912	9027.84
667.262	9023.77
667.612	8997.11
667.962	9078.24
668.312	8966.83
668.662	9066.26
669.011	9040.27
669.361	9006.15
669.711	9019.93
670.06	9012.25
670.41	8961.4
670.76	8972.7
671.109	8971.8
671.459	8995.53
671.808	8974.06
672.157	8993.72
672.507	8948.97
672.856	8948.97
673.205	8968.86
673.554	9009.99
673.904	8928.41
674.253	9043.89
674.602	8979.48
674.951	8807.96
675.3	8809.77
675.649	8973.83
675.998	8971.8
676.346	8909.88
676.695	8935.19
677.044	8856.09
677.393	8934.51
677.741	8901.29
678.09	8875.08
678.438	8848.19
678.787	8871.24
679.135	8923.66
679.484	8822.65
679.832	8843.21
680.181	8758.47
680.529	8890.22
680.877	8755.76
681.225	8784.68
681.573	8807.96
681.922	8716.44
682.27	8680.96
682.618	8704.01
682.966	8720.96
683.314	8758.7
683.661	8695.87
684.009	8661.98
684.357	8673.73
684.705	8667.17
685.053	8628.98
685.4	8685.25
685.748	8572.26
686.095	8559.15
686.443	8546.72
686.79	8558.02
687.138	8529.1
687.485	8576.33
687.832	8531.81
688.18	8501.53
688.527	8530.45
688.874	8482.32
689.221	8434.86
689.568	8385.6
689.915	8366.84
690.262	8426.73
690.609	8439.38
690.956	8359.38
691.303	8319.61
691.65	8312.61
691.997	8363.9
692.344	8250.69
692.69	8214.76
693.037	8237.58
693.383	8109
693.73	8173.85
694.077	8110.58
694.423	8140.41
694.769	8140.86
695.116	8107.87
695.462	8099.96
695.808	8024.93
696.155	8038.26
696.501	8020.64
696.847	7992.16
697.193	7973.63
697.539	7981.32
697.885	7968.89
698.231	7869.45
698.577	7860.19
698.923	7843.24
699.269	7823.58
699.614	7786.29
699.96	7729.57
700.306	7738.61
700.651	7675.33
700.997	7655.9
701.342	7722.79
701.688	7675.56
702.033	7603.92
702.379	7626.3
702.724	7588.78
703.069	7555.56
703.415	7500.88
703.76	7579.29
704.105	7458.84
704.45	7552.4
704.795	7461.33
705.14	7382.24
705.485	7383.37
705.83	7396.47
706.175	7378.62
706.52	7334.78
706.865	7304.72
707.209	7313.76
707.554	7309.24
707.899	7271.96
708.243	7212.97
708.588	7233.09
708.932	7197.83
709.277	7218.85
709.621	7213.2
709.966	7167.33
710.31	7185.18
710.654	7090.72
710.998	7142.92
711.342	7181.56
711.687	7184.27
712.031	7105.18
712.375	7085.29
712.719	7123.49
713.063	7058.18
713.407	7026.76
713.75	7028.8
714.094	7013.66
714.438	6978.63
714.782	7012.3
715.125	6997.84
715.469	7011.4
715.812	6997.61
716.156	6956.71
716.499	7006.65
716.843	6923.04
717.186	6958.29
717.53	6907.9
717.873	6977.95
718.216	6966.88
718.559	6944.73
718.902	6845.3
719.246	6897.28
719.589	6856.37
719.932	6869.71
720.275	6852.31
720.617	6819.99
720.96	6859.54
721.303	6895.69
721.646	6863.15
721.989	6829.71
722.331	6835.58
722.674	6791.97
723.016	6852.31
723.359	6847.79
723.701	6787
724.044	6825.19
724.386	6758.52
724.729	6698.64
725.071	6777.73
725.413	6768.24
725.755	6763.04
726.097	6744.74
726.439	6706.77
726.782	6745.87
727.124	6770.05
727.465	6707
727.807	6713.55
728.149	6705.42
728.491	6749.26
728.833	6690.28
729.175	6708.13
729.516	6724.17
729.858	6731.4
730.199	6709.94
730.541	6716.49
730.882	6784.74
731.224	6668.58
731.565	6662.71
731.906	6676.04
732.248	6684.17
732.589	6699.32
732.93	6669.26
733.271	6664.74
733.612	6739.09
733.953	6661.8
734.294	6675.81
734.635	6617.06
734.976	6605.98
735.317	6616.38
735.658	6687.56
735.999	6696.83
736.339	6647.57
736.68	6663.61
737.021	6699.09
737.361	6603.05
737.702	6651.41
738.042	6617.51
738.383	6630.62
738.723	6650.73
739.063	6624.29
739.404	6659.32
739.744	6642.14
740.084	6649.15
740.424	6648.24
740.764	6657.28
741.104	6664.06
741.444	6585.65
741.784	6667.9
742.124	6612.54
742.464	6619.09
742.804	6637.17
743.143	6599.43
743.483	6640.11
743.823	6603.05
744.162	6623.39
744.502	6649.15
744.841	6544.97
745.181	6650.5
745.52	6593.33
745.86	6662.25
746.199	6621.35
746.538	6622.93
746.877	6657.51
747.216	6638.3
747.556	6586.32
747.895	6587
748.234	6597.4
748.573	6565.53
748.911	6622.71
749.25	6634.01
749.589	6593.1
749.928	6531.64
750.267	6583.61
750.605	6587.68
750.944	6546.78
751.283	6614.12
751.621	6582.71
751.96	6518.98
752.298	6547.23
752.636	6493.67
752.975	6539.55
753.313	6496.61
753.651	6508.81
753.989	6476.72
754.327	6493.45
754.666	6479.43
755.004	6495.93
755.342	6446.67
755.679	6405.76
756.017	6478.3
756.355	6453.45
756.693	6432.66
757.031	6399.66
757.368	6380.45
757.706	6436.5
758.044	6391.07
758.381	6426.1
758.719	6384.97
759.056	6383.84
759.394	6333.45
759.731	6290.74
760.068	6315.14
760.405	6337.97
760.743	6311.98
761.08	6309.5
761.417	6219.78
761.754	6240.57
762.091	6229.72
762.428	6212.32
762.765	6148.6
763.102	6203.06
763.438	6189.95
763.775	6128.03
764.112	6098.88
764.449	6125.77
764.785	6110.18
765.122	6130.52
765.458	6086.9
765.795	6081.48
766.131	6068.37
766.467	6012.78
766.804	5995.61
767.14	5962.84
767.476	5950.41
767.812	5979.79
768.148	5970.75
768.485	5926.23
768.821	5925.32
769.157	5882.61
769.492	5861.15
769.828	5857.53
770.164	5880.58
770.5	5831.54
770.836	5825.89
771.171	5765.33
771.507	5688.95
771.842	5720.81
772.178	5726.01
772.513	5742.5
772.849	5672
773.184	5695.27
773.519	5678.1
773.855	5639.91
774.19	5637.65
774.525	5639.23
774.86	5620.02
775.195	5572.11
775.53	5570.53
775.865	5570.08
776.2	5460.7
776.535	5462.29
776.87	5487.6
777.205	5449.18
777.539	5452.12
777.874	5391.1
778.209	5373.25
778.543	5392.23
778.878	5368.5
779.212	5338.22
779.547	5333.48
779.881	5323.31
780.215	5297.32
780.55	5288.28
780.884	5283.53
781.218	5250.31
781.552	5300.26
781.886	5245.34
782.22	5178.45
782.554	5242.18
782.888	5143.2
783.222	5136.19
783.556	5123.54
783.889	5123.54
784.223	5043.99
784.557	5111.33
784.89	5099.13
785.224	5028.62
785.557	5029.75
785.891	5020.94
786.224	5047.38
786.558	4951.34
786.891	4941.62
787.224	4952.47
787.557	4915.18
787.891	4961.51
788.224	4895.97
788.557	4906.37
788.89	4896.65
789.223	4894.39
789.556	4835.86
789.888	4855.97
790.221	4763.55
790.554	4788.18
790.887	4763.77
791.219	4757.9
791.552	4727.84
791.884	4765.81
792.217	4725.13
792.549	4702.53
792.882	4692.36
793.214	4704.79
793.546	4694.17
793.879	4649.88
794.211	4619.6
794.543	4651.01
794.875	4646.04
795.207	4633.83
795.539	4626.15
795.871	4581.63
796.203	4521.52
796.535	4557.22
796.867	4531.24
797.198	4553.38
797.53	4512.93
797.862	4479.03
798.193	4508.64
798.525	4444.69
798.856	4496.21
799.188	4436.55
799.519	4420.73
799.85	4335.54
800.182	4410.34
800.513	4419.6
800.844	4341.19
801.175	4385.7
801.506	4420.73
801.837	4357
802.168	4336.21
802.499	4319.04
802.83	4310.23
803.161	4306.38
803.491	4299.6
803.822	4295.99
804.153	4339.38
804.483	4280.62
804.814	4217.57
805.145	4185.71
805.475	4251.92
805.805	4145.71
806.136	4165.14
806.466	4195.2
806.796	4213.05
807.126	4175.77
807.457	4128.08
807.787	4101.64
808.117	4104.36
808.447	4103.45
808.777	4105.26
809.107	4110.91
809.436	4114.3
809.766	4120.85
810.096	4104.81
810.426	4092.83
810.755	4054.41
811.085	4046.96
811.414	4052.15
811.744	4077.46
812.073	3991.82
812.403	4036.33
812.732	3961.99
813.061	3993.4
813.39	3938.94
813.719	3959.73
814.049	3964.47
814.378	3957.47
814.707	3925.38
815.036	3946.62
815.365	3888.99
815.693	3954.75
816.022	3939.61
816.351	3873.4
816.68	3874.98
817.008	3903.23
817.337	3866.17
817.665	3848.99
817.994	3855.55
818.322	3846.51
818.651	3888.99
818.979	3826.17
819.307	3860.07
819.636	3820.3
819.964	3784.36
820.292	3821.88
820.62	3801.99
820.948	3807.19
821.276	3798.6
821.604	3830.69
821.932	3827.07
822.259	3808.77
822.587	3796.57
822.915	3817.58
823.243	3798.83
823.57	3756.79
823.898	3781.2
824.225	3806.06
824.553	3779.17
824.88	3816
825.207	3796.11
825.535	3787.98
825.862	3773.06
826.189	3761.99
826.516	3773.29
826.843	3797.24
827.17	3783.01
827.497	3811.93
827.824	3831.37
828.151	3834.98
828.478	3780.3
828.805	3835.89
829.131	3800.41
829.458	3745.04
829.785	3766.29
830.111	3790.01
830.438	3762.9
830.764	3757.02
831.09	3784.36
831.417	3778.71
831.743	3783.91
832.069	3733.52
832.395	3745.27
832.722	3768.54
833.048	3781.43
833.374	3733.74
833.7	3754.99
834.026	3697.13
834.351	3768.09
834.677	3747.75
835.003	3781.2
835.329	3770.58
835.654	3758.38
835.98	3670.24
836.306	3735.1
836.631	3726.29
836.956	3681.09
837.282	3705.04
837.607	3704.37
837.932	3729.68
838.258	3700.3
838.583	3738.49
838.908	3688.1
839.233	3707.53
839.558	3686.06
839.883	3685.16
840.208	3679.28
840.533	3660.53
840.858	3670.69
841.182	3650.58
841.507	3650.36
841.832	3629.57
842.156	3581.66
842.481	3637.47
842.805	3614.42
843.13	3564.26
843.454	3604.03
843.778	3569.45
844.103	3572.62
844.427	3582.79
844.751	3580.08
845.075	3572.84
845.399	3543.92
845.723	3588.21
846.047	3523.35
846.371	3557.7
846.695	3499.4
847.019	3493.3
847.343	3481.55
847.666	3463.02
847.99	3448.78
848.313	3465.28
848.637	3443.13
848.96	3419.85
849.284	3410.59
849.607	3390.7
849.931	3402.9
850.254	3365.39
850.577	3370.14
850.9	3324.26
851.223	3369.46
851.546	3317.26
851.869	3268.22
852.192	3292.63
852.515	3309.57
852.838	3286.52
853.161	3246.52
853.483	3241.55
853.806	3263.7
854.129	3298.05
854.451	3260.08
854.774	3224.38
855.096	3162.91
855.419	3172.63
855.741	3217.37
856.063	3208.33
856.385	3177.6
856.708	3158.17
857.03	3185.51
857.352	3159.52
857.674	3151.16
857.996	3163.59
858.318	3111.61
858.64	3137.38
858.961	3101.22
859.283	3063.7
859.605	3086.3
859.926	3084.27
860.248	3067.77
860.57	3081.11
860.891	3087.43
861.212	3045.63
861.534	3032.52
861.855	3027.55
862.176	3042.46
862.498	3031.84
862.819	3047.66
863.14	3007.89
863.461	3050.6
863.782	3019.41
864.103	3042.69
864.424	3034.33
864.745	3043.14
865.065	2990.26
865.386	2960.2
865.707	3014.67
866.027	3011.73
866.348	3004.95
866.668	3002.69
866.989	2968.57
867.309	2937.15
867.63	2961.33
867.95	2945.29
868.27	2939.87
868.59	2942.8
868.91	2956.81
869.23	2952.07
869.55	2936.02
869.87	2947.32
870.19	2950.49
870.51	2919.75
870.83	2903.48
871.15	2933.99
871.469	2940.77
871.789	2893.99
872.109	2937.61
872.428	2884.27
872.748	2915.91
873.067	2882.24
873.386	2931.73
873.706	2894.44
874.025	2886.31
874.344	2877.04
874.663	2881.34
874.982	2857.83
875.301	2871.62
875.62	2869.81
875.939	2882.69
876.258	2853.99
876.577	2859.87
876.896	2857.61
877.214	2828.91
877.533	2839.53
877.852	2837.72
878.17	2846.54
878.489	2856.03
878.807	2817.84
879.125	2827.33
879.444	2847.21
879.762	2815.35
880.08	2808.57
880.398	2792.07
880.716	2813.54
881.034	2750.49
881.352	2789.81
881.67	2753.2
881.988	2799.3
882.306	2784.84
882.624	2752.98
882.941	2770.83
883.259	2739.19
883.577	2740.55
883.894	2783.71
884.212	2740.78
884.529	2744.17
884.846	2707.1
885.164	2722.92
885.481	2698.74
885.798	2713.88
886.115	2710.04
886.432	2692.42
886.75	2682.92
887.067	2690.16
887.383	2701.68
887.7	2697.16
888.017	2677.95
888.334	2663.26
888.651	2690.16
888.967	2666.43
889.284	2659.2
889.6	2647.67
889.917	2594.56
890.233	2644.73
890.55	2640.89
890.866	2644.05
891.182	2660.78
891.498	2617.16
891.815	2619.2
892.131	2584.85
892.447	2594.34
892.763	2576.03
893.079	2569.93
893.395	2596.37
893.71	2557.28
894.026	2567.9
894.342	2541.91
894.657	2527.45
894.973	2539.42
895.289	2538.52
895.604	2523.83
895.92	2497.62
896.235	2484.28
896.55	2532.19
896.865	2493.32
897.181	2458.52
897.496	2483.83
897.811	2449.71
898.126	2468.69
898.441	2486.77
898.756	2440.9
899.071	2387.56
899.386	2413.1
899.7	2406.32
900.015	2433.66
900.33	2423.04
900.644	2411.74
900.959	2398.64
901.273	2391.86
901.588	2372.65
901.902	2388.02
902.216	2369.71
902.531	2366.32
902.845	2371.07
903.159	2319.32
903.473	2365.64
903.787	2327.23
904.101	2330.16
904.415	2306.66
904.729	2287.91
905.042	2260.34
905.356	2299.66
905.67	2312.31
905.984	2313.22
906.297	2305.76
906.611	2259.88
906.924	2279.54
907.237	2246.55
907.551	2251.07
907.864	2263.05
908.177	2219.89
908.491	2240
908.804	2206.55
909.117	2181.02
909.43	2222.6
909.743	2178.98
910.056	2170.85
910.368	2155.48
910.681	2166.1
910.994	2157.06
911.307	2164.97
911.619	2149.83
911.932	2112.09
912.244	2122.49
912.557	2132.2
912.869	2102.37
913.181	2098.08
913.494	2106.44
913.806	2092.66
914.118	2078.42
914.43	2093.56
914.742	2060.57
915.054	2091.07
915.366	2065.99
915.678	2076.16
915.99	2021.02
916.302	2027.57
916.613	1993.9
916.925	1993.22
917.236	2004.52
917.548	1985.99
917.859	2003.62
918.171	2018.31
918.482	1993.9
918.794	1982.83
919.105	2000.23
919.416	1938.31
919.727	1946.22
920.038	1941.02
920.349	1950.06
920.66	1941.25
920.971	1934.47
921.282	1939.89
921.593	1931.53
921.903	1941.47
922.214	1918.88
922.525	1896.05
922.835	1891.31
923.146	1893.11
923.456	1886.79
923.767	1868.03
924.077	1882.27
924.387	1822.83
924.697	1860.57
925.008	1821.48
925.318	1848.6
925.628	1867.8
925.938	1845.66
926.248	1808.6
926.558	1807.24
926.867	1807.24
927.177	1804.98
927.487	1798.65
927.796	1759.56
928.106	1776.28
928.416	1753.23
928.725	1766.34
929.034	1774.02
929.344	1779.9
929.653	1746.68
929.962	1753
930.271	1753.23
930.581	1714.36
930.89	1729.5
931.199	1744.64
931.508	1731.08
931.817	1755.04
932.125	1720.01
932.434	1720.01
932.743	1690.86
933.051	1699.45
933.36	1700.12
933.669	1686.11
933.977	1691.99
934.286	1653.57
934.594	1667.36
934.902	1641.14
935.21	1655.15
935.519	1622.39
935.827	1665.78
936.135	1644.98
936.443	1587.81
936.751	1594.14
937.059	1579
937.367	1601.82
937.674	1593.91
937.982	1556.85
938.29	1550.52
938.597	1585.1
938.905	1552.56
939.213	1568.83
939.52	1579
939.827	1563.41
940.135	1542.84
940.442	1567.92
940.749	1528.6
941.056	1536.06
941.363	1506.46
941.67	1509.62
941.977	1500.58
942.284	1486.57
942.591	1520.92
942.898	1504.65
943.205	1483.41
943.511	1503.75
943.818	1484.99
944.125	1483.18
944.431	1495.61
944.738	1472.33
945.044	1480.7
945.35	1470.3
945.657	1445.89
945.963	1433.69
946.269	1454.93
946.575	1435.72
946.881	1418.78
947.187	1418.78
947.493	1448.83
947.799	1431.66
948.105	1433.01
948.41	1399.57
948.716	1408.83
949.022	1395.95
949.327	1404.99
949.633	1386.01
949.938	1369.29
950.244	1401.83
950.549	1388.49
950.854	1363.64
951.16	1360.7
951.465	1375.16
951.77	1332.45
952.075	1362.51
952.38	1358.66
952.685	1356.63
952.99	1331.77
953.294	1331.55
953.599	1348.04
953.904	1327.71
954.209	1328.16
954.513	1285.45
954.818	1297.65
955.122	1305.11
955.426	1304.43
955.731	1289.74
956.035	1327.71
956.339	1288.61
956.643	1296.52
956.948	1274.37
957.252	1298.1
957.556	1268.27
957.86	1268.5
958.163	1242.06
958.467	1267.59
958.771	1249.97
959.075	1252.9
959.378	1253.81
959.682	1243.64
959.985	1219.69
960.289	1231.89
960.592	1219.23
960.896	1242.51
961.199	1207.71
961.502	1226.24
961.805	1215.17
962.108	1208.84
962.411	1199.57
962.714	1197.54
963.017	1207.48
963.32	1183.08
963.623	1202.96
963.926	1200.25
964.228	1192.34
964.531	1188.5
964.833	1198.9
965.136	1182.4
965.438	1166.81
965.741	1152.79
966.043	1127.26
966.345	1149.63
966.648	1151.21
966.95	1140.82
967.252	1132.46
967.554	1143.53
967.856	1135.85
968.158	1111.89
968.46	1126.35
968.761	1125.9
969.063	1117.54
969.365	1143.76
969.666	1124.32
969.968	1092.91
970.269	1115.73
970.571	1122.51
970.872	1121.83
971.174	1128.84
971.475	1089.52
971.776	1105.34
972.077	1067.83
972.378	1082.74
972.679	1084.1
972.98	1069.63
973.281	1093.81
973.582	1062.85
973.883	1056.53
974.183	1064.21
974.484	1046.58
974.785	1056.3
975.085	1027.15
975.386	1052.91
975.686	1047.71
975.986	1013.82
976.287	1038.22
976.587	1014.72
976.887	1048.84
977.187	1043.42
977.487	1049.29
977.787	1025.79
978.087	1024.44
978.387	1017.88
978.687	994.61
978.987	1004.55
979.286	1012.69
979.586	995.96
979.885	997.09
980.185	1027.15
980.484	990.09
980.784	993.02
981.083	982.86
981.382	985.34
981.682	976.98
981.981	1001.84
982.28	948.05
982.579	960.48
982.878	953.25
983.177	978.34
983.475	960.03
983.774	957.32
984.073	961.84
984.372	943.53
984.67	957.55
984.969	936.98
985.267	936.76
985.566	942.63
985.864	927.94
986.162	921.84
986.461	942.4
986.759	910.99
987.057	920.94
987.355	906.02
987.653	927.26
987.951	936.98
988.249	939.24
988.547	905.57
988.844	894.04
989.142	916.19
989.44	892.69
989.737	907.83
990.035	886.59
990.332	896.98
990.63	870.54
990.927	890.88
991.224	884.1
991.521	870.32
991.819	887.49
992.116	885.68
992.413	855.4
992.71	869.86
993.006	849.3
993.303	860.6
993.6	836.42
993.897	856.53
994.193	845.91
994.49	842.97
994.787	841.16
995.083	852.69
995.379	851.79
995.676	831.45
995.972	848.4
996.268	852.46
996.565	811.79
996.861	836.19
997.157	805.46
997.453	808.17
997.749	827.61
998.044	809.07
998.34	816.31
998.636	788.28
998.932	798.45
999.227	787.61
999.523	806.81
999.818	779.7
1000.114	773.6
1000.409	803.88
1000.704	775.63
1001	802.75
1001.295	767.72
1001.59	776.31
1001.885	766.14
1002.18	777.44
1002.475	759.81
1002.77	756.19
1003.065	770.66
1003.359	770.43
1003.654	781.73
1003.949	742.86
1004.243	746.03
1004.538	755.97
1004.832	750.55
1005.127	759.13
1005.421	730.43
1005.715	727.72
1006.009	722.98
1006.304	758.45
1006.598	710.77
1006.892	726.37
1007.186	716.2
1007.48	737.21
1007.773	734.27
1008.067	700.6
1008.361	689.08
1008.655	710.09
1008.948	695.63
1009.242	710.32
1009.535	686.82
1009.829	703.77
1010.122	679.36
1010.415	719.13
1010.708	668.29
1011.001	702.64
1011.295	691.79
1011.588	671
1011.881	665.8
1012.173	663.99
1012.466	680.04
1012.759	658.34
1013.052	684.78
1013.344	681.62
1013.637	663.99
1013.93	668.06
1014.222	649.53
1014.514	668.06
1014.807	649.98
1015.099	670.32
1015.391	640.72
1015.683	644.79
1015.976	665.35
1016.268	642.53
1016.56	634.62
1016.851	654.05
1017.143	626.93
1017.435	655.86
1017.727	659.02
1018.018	616.31
1018.31	614.28
1018.602	643.2
1018.893	605.46
1019.185	609.76
1019.476	641.17
1019.767	621.06
1020.058	632.36
1020.35	624.9
1020.641	614.05
1020.932	608.18
1021.223	591.91
1021.514	600.49
1021.804	591.23
1022.095	593.94
1022.386	591.45
1022.677	601.85
1022.967	570.89
1023.258	580.15
1023.548	589.87
1023.839	586.48
1024.129	596.42
1024.419	598.01
1024.709	582.41
1025	568.4
1025.29	562.53
1025.58	575.18
1025.87	555.97
1026.16	573.6
1026.449	558.91
1026.739	574.73
1027.029	562.3
1027.319	574.05
1027.608	558.91
1027.898	553.49
1028.187	570.89
1028.477	528.86
1028.766	559.36
1029.055	557.78
1029.344	542.64
1029.634	544.9
1029.923	545.58
1030.212	538.35
1030.501	525.01
1030.79	546.71
1031.078	527.27
1031.367	531.34
1031.656	518.91
1031.945	559.82
1032.233	522.53
1032.522	517.11
1032.81	519.14
1033.099	520.72
1033.387	537.22
1033.675	532.92
1033.963	508.74
1034.251	505.81
1034.54	496.99
1034.828	485.47
1035.116	512.81
1035.403	511
1035.691	493.15
1035.979	486.15
1036.267	504.22
1036.554	497.67
1036.842	472.59
1037.129	488.18
1037.417	502.19
1037.704	474.39
1037.992	489.54
1038.279	478.01
1038.566	495.41
1038.853	495.41
1039.14	495.41
