Data from mousepad_grey_FLMS001491_00096.txt Node
Date: Wed Feb 08 14:30:13 GMT 2017
User: dcchb
Spectrometer: FLMS00149
Trigger mode: 0
Integration Time (sec): 2.000000E-2
Scans to average: 10
Electric dark correction enabled: true
Nonlinearity correction enabled: false
Boxcar width: 0
XAxis mode: Wavelengths
Number of Pixels in Spectrum: 2048
>>>>>Begin Spectral Data<<<<<
341.393	-15.21
341.776	-15.21
342.16	-15.21
342.543	-36.68
342.927	-40.52
343.31	-57.24
343.693	-54.76
344.077	-55.44
344.46	-52.95
344.843	-48.88
345.226	-46.17
345.61	-28.54
345.993	-17.02
346.376	-16.12
346.759	15.75
347.142	30.21
347.525	32.02
347.908	39.7
348.291	73.15
348.674	84.9
349.057	101.4
349.44	138.46
349.823	144.11
350.206	150.43
350.588	182.52
350.971	167.83
351.354	205.57
351.737	196.99
352.119	252.13
352.502	253.48
352.884	261.39
353.267	276.08
353.65	269.07
354.032	277.89
354.414	285.35
354.797	287.61
355.179	307.72
355.562	311.56
355.944	302.07
356.326	336.64
356.709	313.59
357.091	304.55
357.473	316.53
357.855	317.44
358.238	331.67
358.62	328.73
359.002	339.58
359.384	324.21
359.766	326.7
360.148	315.4
360.53	331.9
360.912	314.95
361.294	315.18
361.676	303.2
362.057	313.82
362.439	317.89
362.821	329.64
363.203	312.24
363.584	307.27
363.966	307.27
364.348	287.83
364.729	311.33
365.111	311.11
365.493	315.18
365.874	300.71
366.256	318.79
366.637	293.26
367.019	293.71
367.4	280.15
367.781	289.87
368.163	283.54
368.544	294.84
368.925	320.37
369.306	303.65
369.688	287.61
370.069	302.97
370.45	285.8
370.831	283.76
371.212	283.54
371.593	291.67
371.974	300.71
372.355	311.56
372.736	287.83
373.117	280.6
373.498	292.58
373.879	286.25
374.26	288.96
374.641	287.38
375.021	274.5
375.402	323.31
375.783	327.38
376.163	307.49
376.544	304.78
376.925	314.27
377.305	326.47
377.686	314.27
378.066	305.91
378.447	292.58
378.827	338.23
379.208	299.36
379.588	314.95
379.968	319.02
380.349	330.54
380.729	306.36
381.109	323.76
381.489	309.3
381.87	300.94
382.25	333.25
382.63	323.31
383.01	340.94
383.39	317.66
383.77	327.15
384.15	349.98
384.53	348.39
384.91	338
385.29	311.79
385.67	327.6
386.049	327.15
386.429	352.24
386.809	330.77
387.189	330.32
387.568	338.23
387.948	326.93
388.328	341.84
388.707	333.93
389.087	340.71
389.466	345.01
389.846	338.45
390.225	351.56
390.605	357.89
390.984	328.51
391.363	362.63
391.743	359.47
392.122	373.48
392.501	350.65
392.881	370.09
393.26	348.39
393.639	350.88
394.018	348.39
394.397	352.91
394.776	348.17
395.155	355.63
395.534	344.78
395.913	366.47
396.292	381.61
396.671	350.88
397.05	364.89
397.429	359.02
397.808	364.67
398.186	362.86
398.565	389.52
398.944	398.79
399.323	385
399.701	370.77
400.08	384.78
400.458	399.69
400.837	380.26
401.215	383.42
401.594	389.75
401.972	379.35
402.351	401.27
402.729	414.83
403.107	400.37
403.486	400.82
403.864	414.38
404.242	439.92
404.62	404.66
404.999	413.25
405.377	398.34
405.755	421.61
406.133	402.86
406.511	442.63
406.889	423.65
407.267	435.4
407.645	425.23
408.023	437.21
408.401	432.91
408.779	434.95
409.156	418.45
409.534	423.87
409.912	457.77
410.29	456.87
410.667	466.13
411.045	448.05
411.422	447.15
411.8	465.45
412.178	470.88
412.555	464.78
412.933	467.94
413.31	491.44
413.687	452.35
414.065	476.98
414.442	478.56
414.819	502.52
415.197	487.83
415.574	497.54
415.951	491.44
416.328	487.15
416.705	487.37
417.082	500.93
417.46	506.81
417.837	520.14
418.214	491.44
418.591	514.72
418.967	512.68
419.344	520.82
419.721	528.5
420.098	525.79
420.475	519.92
420.852	520.14
421.228	531.21
421.605	535.28
421.982	528.96
422.358	540.93
422.735	536.19
423.111	569.41
423.488	550.88
423.864	564.43
424.241	570.08
424.617	554.27
424.994	551.55
425.37	562.17
425.746	589.97
426.123	585
426.499	596.98
426.875	592.23
427.251	598.56
427.627	590.2
428.003	594.49
428.379	596.07
428.756	608.27
429.132	644.66
429.507	625.9
429.883	642.62
430.259	632.46
430.635	640.14
431.011	657.09
431.387	636.97
431.763	663.41
432.138	654.15
432.514	677.65
432.89	668.61
433.265	671.32
433.641	678.1
434.016	686.92
434.392	686.47
434.767	702.28
435.143	684.21
435.518	727.14
435.894	717.2
436.269	704.09
436.644	726.46
437.02	757.42
437.395	782.28
437.77	736.18
438.145	744.32
438.52	779.12
438.895	771.66
439.271	770.98
439.646	779.12
440.021	796.97
440.395	792
440.77	781.83
441.145	788.38
441.52	785.45
441.895	801.26
442.27	809.17
442.645	793.81
443.019	817.76
443.394	824.77
443.769	828.38
444.143	799.91
444.518	835.61
444.892	812.34
445.267	831.55
445.641	846.01
446.016	867.48
446.39	863.64
446.764	850.98
447.139	848.49
447.513	851.43
447.887	892.11
448.262	879.91
448.636	883.3
449.01	904.31
449.384	895.27
449.758	889.62
450.132	915.16
450.506	918.32
450.88	924.42
451.254	901.83
451.628	921.26
452.002	938.89
452.376	929.4
452.75	943.63
453.123	961.94
453.497	984.76
453.871	1002.84
454.244	1003.29
454.618	993.8
454.992	1028.15
455.365	1014.59
455.739	1010.52
456.112	1026.8
456.486	1046.91
456.859	1050.07
457.232	1068.38
457.606	1047.13
457.979	1065.66
458.352	1104.53
458.725	1112.22
459.099	1109.5
459.472	1131.43
459.845	1117.87
460.218	1162.84
460.591	1165.1
460.964	1158.09
461.337	1156.51
461.71	1184.76
462.083	1220.69
462.456	1191.08
462.829	1203.97
463.201	1219.33
463.574	1222.04
463.947	1251.42
464.32	1281.25
464.692	1285.09
465.065	1278.31
465.438	1297.97
465.81	1323.06
466.183	1358.31
466.555	1351.31
466.928	1373.9
467.3	1360.35
467.672	1408.48
468.045	1424.3
468.417	1429.04
468.789	1418.42
469.161	1456.16
469.534	1457.07
469.906	1472.21
470.278	1492.55
470.65	1475.37
471.022	1560.34
471.394	1555.14
471.766	1579.77
472.138	1636.04
472.51	1591.75
472.882	1632.65
473.253	1668.81
473.625	1680.34
473.997	1678.98
474.369	1705.2
474.74	1737.74
475.112	1792.65
475.484	1769.6
475.855	1809.83
476.227	1795.36
476.598	1879.2
476.97	1885.08
477.341	1887.56
477.713	1943.83
478.084	1944.29
478.455	1962.14
478.827	2004.62
479.198	2048.24
479.569	2056.15
479.94	2084.39
480.311	2115.81
480.682	2165.75
481.053	2223.15
481.424	2252.3
481.795	2281.45
482.166	2302.47
482.537	2323.26
482.908	2361
483.279	2344.95
483.65	2404.16
484.021	2456.14
484.391	2468.11
484.762	2521.22
485.133	2551.5
485.503	2591.95
485.874	2608.22
486.244	2629.92
486.615	2680.54
486.985	2694.32
487.356	2761.44
487.726	2773.19
488.097	2821.78
488.467	2799.18
488.837	2861.1
489.207	2930.47
489.578	2934.09
489.948	2977.93
490.318	3018.38
490.688	3029
491.058	3115.78
491.428	3126.63
491.798	3167.3
492.168	3133.63
492.538	3232.61
492.908	3218.38
493.278	3297.47
493.648	3281.65
494.017	3350.12
494.387	3367.3
494.757	3393.74
495.126	3439.61
495.496	3450.69
495.866	3437.58
496.235	3487.75
496.605	3518.71
496.974	3531.36
497.344	3541.76
497.713	3582.89
498.082	3606.84
498.452	3643.45
498.821	3715.54
499.19	3721.41
499.559	3734.29
499.928	3717.8
500.298	3786.27
500.667	3774.52
501.036	3818.13
501.405	3832.82
501.774	3861.75
502.143	3846.38
502.512	3923.22
502.88	3929.77
503.249	3952.37
503.618	3995.53
503.987	3972.71
504.356	4005.47
504.724	4060.61
505.093	4071.91
505.462	4053.38
505.83	4121.4
506.199	4148.97
506.567	4200.95
506.936	4181.74
507.304	4205.69
507.672	4228.52
508.041	4293.15
508.409	4340.38
508.777	4343.77
509.145	4375.86
509.514	4371.34
509.882	4385.35
510.25	4440.26
510.618	4473.48
510.986	4459.7
511.354	4531.11
511.722	4557.55
512.09	4606.36
512.458	4590.32
512.826	4636.64
513.193	4643.65
513.561	4687.72
513.929	4713.7
514.297	4784.21
514.664	4751.22
515.032	4748.05
515.4	4856.98
515.767	4890.2
516.135	4881.38
516.502	4868.95
516.869	4985.56
517.237	4999.57
517.604	4965.9
517.972	5056.07
518.339	5031.44
518.706	5026.69
519.073	5099.23
519.44	5184.88
519.808	5145.1
520.175	5183.75
520.542	5255.84
520.909	5260.81
521.276	5297.64
521.643	5373.57
522.009	5405.66
522.376	5395.04
522.743	5419.67
523.11	5479.11
523.477	5541.48
523.843	5568.37
524.21	5627.8
524.577	5707.12
524.943	5696.05
525.31	5748.25
525.676	5794.81
526.043	5799.1
526.409	5820.12
526.776	5912.77
527.142	5884.29
527.508	6004.97
527.874	6025.99
528.241	6008.81
528.607	6033.22
528.973	6131.75
529.339	6130.39
529.705	6164.51
530.071	6172.65
530.437	6239.99
530.803	6289.03
531.169	6313.66
531.535	6346.43
531.901	6361.34
532.267	6389.37
532.632	6480.44
532.998	6446.54
533.364	6461.45
533.73	6516.37
534.095	6608.57
534.461	6586.42
534.826	6655.57
535.192	6666.19
535.557	6720.66
535.923	6717.27
536.288	6771.5
536.653	6759.75
537.019	6781.67
537.384	6814.21
537.749	6862.35
538.114	6792.29
538.479	6852.86
538.845	6968.11
539.21	6904.61
539.575	6998.84
539.94	6997.26
540.305	7072.96
540.67	7052.17
541.034	7069.8
541.399	7127.65
541.764	7100.53
542.129	7137.59
542.494	7250.59
542.858	7188.44
543.223	7262.79
543.587	7310.92
543.952	7265.05
544.316	7369.23
544.681	7336.01
545.045	7380.75
545.41	7396.57
545.774	7466.4
546.138	7487.87
546.503	7485.16
546.867	7530.13
547.231	7609.9
547.595	7578.49
547.959	7665.94
548.324	7647.86
548.688	7664.36
549.052	7758.6
549.416	7725.38
549.779	7749.33
550.143	7717.24
550.507	7865.03
550.871	7838.14
551.235	7908.42
551.599	7942.09
551.962	7946.61
552.326	7984.58
552.689	8023
553.053	7988.42
553.417	8005.37
553.78	8200.62
554.143	8167.4
554.507	8171.01
554.87	8172.37
555.234	8329.2
555.597	8235.42
555.96	8268.41
556.323	8354.51
556.686	8351.35
557.05	8354.06
557.413	8460.5
557.776	8480.61
558.139	8492.14
558.502	8527.61
558.865	8529.2
559.228	8641.06
559.59	8642.19
559.953	8689.87
560.316	8740.72
560.679	8748.63
561.041	8860.94
561.404	8842.18
561.767	8879.24
562.129	8864.78
562.492	9034.04
562.854	8924.67
563.217	8951.11
563.579	9085.11
563.941	9103.19
564.304	9040.6
564.666	9169.63
565.028	9218.44
565.39	9266.35
565.753	9240.82
566.115	9284.88
566.477	9336.86
566.839	9358.1
567.201	9434.03
567.563	9504.09
567.925	9480.58
568.287	9514.48
568.648	9542.5
569.01	9599.9
569.372	9686.23
569.734	9625.44
570.095	9668.6
570.457	9715.61
570.819	9741.82
571.18	9813.91
571.542	9822.95
571.903	9809.84
572.265	9880.8
572.626	9877.64
572.987	9929.61
573.349	9997.18
573.71	10000.8
574.071	10010.51
574.432	10037.63
574.794	10201.02
575.155	10164.18
575.516	10095.03
575.877	10254.58
576.238	10206.21
576.599	10210.73
576.96	10242.37
577.32	10271.3
577.681	10284.63
578.042	10237.85
578.403	10325.99
578.763	10309.94
579.124	10397.17
579.485	10457.28
579.845	10453.67
580.206	10372.99
580.566	10422.25
580.927	10425.87
581.287	10439.65
581.648	10450.05
582.008	10546.09
582.368	10466.32
582.728	10536.6
583.089	10415.47
583.449	10498.64
583.809	10502.03
584.169	10548.8
584.529	10542.03
584.889	10606.66
585.249	10557.84
585.609	10549.93
585.969	10630.16
586.329	10597.62
586.688	10542.48
587.048	10612.31
587.408	10586.09
587.768	10590.84
588.127	10597.84
588.487	10554.45
588.846	10652.53
589.206	10601.46
589.565	10652.53
589.925	10681.23
590.284	10632.87
590.643	10613.66
591.003	10645.53
591.362	10670.16
591.721	10673.32
592.08	10648.24
592.44	10658.18
592.799	10704.51
593.158	10694.34
593.517	10652.53
593.876	10764.84
594.235	10702.47
594.593	10728.01
594.952	10772.75
595.311	10719.42
595.67	10677.16
596.029	10775.24
596.387	10813.66
596.746	10805.75
597.104	10780.66
597.463	10798.74
597.822	10775.47
598.18	10743.83
598.538	10808.23
598.897	10885.07
599.255	10771.4
599.613	10900.43
599.972	10833.09
600.33	10859.53
600.688	10828.57
601.046	10808.68
601.404	10899.76
601.762	10854.56
602.12	10956.03
602.478	10903.15
602.836	10904.73
603.194	10831.96
603.552	10843.71
603.91	10872.19
604.268	10922.81
604.625	10885.29
604.983	10959.19
605.341	10858.85
605.698	10928.46
606.056	10984.73
606.413	10954.22
606.771	10935.91
607.128	11002.13
607.485	10910.83
607.843	10972.75
608.2	10997.15
608.557	10997.15
608.914	11002.13
609.272	11056.36
609.629	11037.61
609.986	11076.7
610.343	11034.89
610.7	11148.56
611.057	11115.8
611.414	11128
611.771	11120.54
612.127	11155.34
612.484	11117.83
612.841	11189.47
613.198	11208
613.554	11194.89
613.911	11217.94
614.267	11274.66
614.624	11258.62
614.98	11220.65
615.337	11324.83
615.693	11277.15
616.05	11261.1
616.406	11375.45
616.762	11322.57
617.118	11305.39
617.475	11334.09
617.831	11334.32
618.187	11369.35
618.543	11389.69
618.899	11398.73
619.255	11431.49
619.611	11352.85
619.967	11397.82
620.323	11497.25
620.678	11383.81
621.034	11350.82
621.39	11424.04
621.746	11426.07
622.101	11521.21
622.457	11374.09
622.812	11453.64
623.168	11490.25
623.523	11386.75
623.879	11507.2
624.234	11370.48
624.589	11518.04
624.945	11478.05
625.3	11542
625.655	11534.99
626.01	11487.76
626.365	11453.64
626.72	11501.77
627.075	11470.59
627.43	11453.87
627.785	11457.26
628.14	11443.02
628.495	11480.98
628.85	11475.79
629.205	11469.01
629.559	11568.66
629.914	11432.85
630.269	11496.35
630.623	11438.27
630.978	11456.13
631.332	11496.58
631.687	11549.23
632.041	11450.02
632.396	11439.85
632.75	11427.2
633.104	11404.6
633.459	11393.3
633.813	11373.42
634.167	11370.25
634.521	11404.6
634.875	11323.47
635.229	11364.83
635.583	11273.53
635.937	11326.19
636.291	11366.41
636.645	11318.5
636.999	11301.1
637.352	11333.87
637.706	11249.35
638.06	11363.47
638.413	11293.87
638.767	11261.78
639.121	11267.66
639.474	11187.21
639.828	11207.54
640.181	11263.59
640.534	11275.57
640.888	11221.56
641.241	11138.17
641.594	11223.59
641.947	11178.84
642.301	11143.14
642.654	11163.25
643.007	11171.16
643.36	11168.9
643.713	11126.87
644.066	11154.66
644.419	11137.49
644.771	11057.04
645.124	11013.43
645.477	10970.94
645.83	10841.68
646.182	10831.51
646.535	10761
646.888	10819.53
647.24	10772.08
647.593	10852.98
647.945	10915.8
648.298	10796.26
648.65	10792.87
649.002	10776.82
649.355	10838.06
649.707	10779.53
650.059	10855.69
650.411	10991.05
650.763	10907.21
651.115	11157.6
651.467	11087.77
651.819	11010.49
652.171	11058.4
652.523	10995.57
652.875	11064.27
653.227	11008.68
653.578	11127.55
653.93	11057.49
654.282	11017.27
654.633	10992.63
654.985	11021.33
655.337	11025.4
655.688	10997.61
656.039	11112.63
656.391	10927.1
656.742	11042.12
657.094	10992.86
657.445	11032.63
657.796	11062.46
658.147	11011.84
658.498	11042.12
658.849	10997.15
659.2	10991.28
659.551	10954.9
659.902	11073.76
660.253	10994.89
660.604	11068.11
660.955	10915.35
661.306	11015.23
661.656	10954.22
662.007	10993.99
662.358	11011.84
662.708	10996.25
663.059	10945.63
663.409	10940.66
663.76	11017.49
664.11	10958.96
664.461	11063.37
664.811	11027.89
665.161	10954.9
665.511	10928.91
665.862	10969.58
666.212	11047.77
666.562	10938.17
666.912	10985.63
667.262	10989.92
667.612	10968.45
667.962	10970.94
668.312	10989.7
668.662	10978.4
669.011	10998.06
669.361	11017.49
669.711	10985.4
670.06	10935.46
670.41	10876.93
670.76	10924.39
671.109	10957.16
671.459	10895.91
671.808	10898.85
672.157	10961.22
672.507	10890.49
672.856	10852.98
673.205	10934.11
673.554	10913.09
673.904	10875.8
674.253	10942.69
674.602	10948.57
674.951	10835.35
675.3	10671.29
675.649	10845.07
675.998	10849.14
676.346	10871.06
676.695	10877.84
677.044	10737.05
677.393	10808.01
677.741	10844.62
678.09	10688.46
678.438	10771.17
678.787	10815.46
679.135	10815.92
679.484	10711.74
679.832	10775.69
680.181	10715.58
680.529	10749.25
680.877	10748.57
681.225	10687.11
681.573	10740.66
681.922	10674.9
682.27	10605.07
682.618	10707.22
682.966	10619.99
683.314	10592.65
683.661	10640.78
684.009	10577.73
684.357	10503.83
684.705	10537.96
685.053	10588.8
685.4	10555.36
685.748	10454.57
686.095	10444.63
686.443	10401.69
686.79	10396.94
687.138	10430.62
687.485	10523.04
687.832	10368.02
688.18	10335.93
688.527	10298.42
688.874	10316.49
689.221	10307.91
689.568	10292.09
689.915	10267
690.262	10224.75
690.609	10185.65
690.956	10106.56
691.303	10121.25
691.65	10151.75
691.997	10114.24
692.344	10037.86
692.69	10042.83
693.037	9987.46
693.383	9993.56
693.73	9955.83
694.077	9916.05
694.423	9928.03
694.769	9888.03
695.116	9846.22
695.462	9831.54
695.808	9794.7
696.155	9842.38
696.501	9771.42
696.847	9720.8
697.193	9621.82
697.539	9665.44
697.885	9645.33
698.231	9607.13
698.577	9531.43
698.923	9611.43
699.269	9530.07
699.614	9505.22
699.96	9461.15
700.306	9464.54
700.651	9447.14
700.997	9433.81
701.342	9381.6
701.688	9344.77
702.033	9310.42
702.379	9372.79
702.724	9247.82
703.069	9271.32
703.415	9178.67
703.76	9215.73
704.105	9238.1
704.45	9212.12
704.795	9157.65
705.14	9103.19
705.485	9102.51
705.83	9025.45
706.175	9066.13
706.52	9024.32
706.865	9015.06
707.209	8975.96
707.554	8970.31
707.899	8977.32
708.243	8932.8
708.588	8860.94
708.932	8842.86
709.277	8808.51
709.621	8823.65
709.966	8770.09
710.31	8776.87
710.654	8759.25
710.998	8724.45
711.342	8773.48
711.687	8713.6
712.031	8672.7
712.375	8651.23
712.719	8646.26
713.063	8641.28
713.407	8684.67
713.75	8637.89
714.094	8633.83
714.438	8563.32
714.782	8651.23
715.125	8591.57
715.469	8617.33
715.812	8551.79
716.156	8492.36
716.499	8534.62
716.843	8542.53
717.186	8545.47
717.53	8502.76
717.873	8540.27
718.216	8480.38
718.559	8434.51
718.902	8387.28
719.246	8356.77
719.589	8428.86
719.932	8409.88
720.275	8377.11
720.617	8389.09
720.96	8349.54
721.303	8406.26
721.646	8388.18
721.989	8365.13
722.331	8321.74
722.674	8328.98
723.016	8363.33
723.359	8345.92
723.701	8335.3
724.044	8259.15
724.386	8250.79
724.729	8306.83
725.071	8311.35
725.413	8268.19
725.755	8254.18
726.097	8269.54
726.439	8207.85
726.782	8286.49
727.124	8214.18
727.465	8198.13
727.807	8216.66
728.149	8213.05
728.491	8192.93
728.833	8256.21
729.175	8244.23
729.516	8210.56
729.858	8183.67
730.199	8166.04
730.541	8177.79
730.882	8113.39
731.224	8175.53
731.565	8130.11
731.906	8194.29
732.248	8129.43
732.589	8103.45
732.93	8072.26
733.271	8121.52
733.612	8145.48
733.953	8148.64
734.294	8088.53
734.635	8096.21
734.976	8116.55
735.317	8130.11
735.658	8105.25
735.999	8114.74
736.339	8103.45
736.68	8146.16
737.021	8031.36
737.361	8006.72
737.702	8066.16
738.042	8101.19
738.383	8148.64
738.723	8093.28
739.063	8051.92
739.404	8067.06
739.744	8057.12
740.084	8012.37
740.424	8039.94
740.764	7971.47
741.104	8031.36
741.444	8066.16
741.784	8023.67
742.124	8028.64
742.464	7983
742.804	8015.54
743.143	8039.04
743.483	8010.57
743.823	8006.05
744.162	8004.92
744.502	8011.7
744.841	7976.22
745.181	8037.23
745.52	7968.31
745.86	8007.85
746.199	7954.52
746.538	7941.87
746.877	7983.67
747.216	7949.55
747.556	8008.08
747.895	8008.76
748.234	7897.35
748.573	7949.55
748.911	7917.01
749.25	7950.23
749.589	7890.34
749.928	7974.86
750.267	7933.28
750.605	7927.4
750.944	7880.4
751.283	7862.77
751.621	7850.8
751.96	7878.82
752.298	7857.35
752.636	7863
752.975	7821.19
753.313	7847.41
753.651	7874.52
753.989	7764.92
754.327	7775.32
754.666	7743.45
755.004	7745.49
755.342	7801.98
755.679	7763.57
756.017	7778.03
756.355	7710.01
756.693	7680.18
757.031	7712.27
757.368	7614.64
757.706	7682.67
758.044	7634.53
758.381	7659.84
758.719	7616.9
759.056	7652.84
759.394	7601.31
759.731	7594.31
760.068	7558.15
760.405	7508.21
760.743	7469.11
761.08	7500.52
761.417	7469.79
761.754	7495.1
762.091	7377.81
762.428	7402.22
762.765	7376.91
763.102	7439.51
763.438	7393.63
763.775	7361.32
764.112	7346.85
764.449	7314.77
764.785	7329
765.122	7318.83
765.458	7252.17
765.795	7285.16
766.131	7185.05
766.467	7195.45
766.804	7168.78
767.14	7122
767.476	7167.42
767.812	7107.54
768.148	7073.64
768.485	7051.72
768.821	7080.42
769.157	7018.28
769.492	6998.84
769.828	7022.34
770.164	6944.15
770.5	6904.38
770.836	6944.83
771.171	6866.87
771.507	6929.01
771.842	6870.03
772.178	6799.52
772.513	6795.68
772.849	6733.54
773.184	6764.5
773.519	6806.08
773.855	6709.13
774.19	6651.73
774.525	6685.18
774.86	6680.43
775.195	6697.83
775.53	6658.29
775.865	6583.71
776.2	6550.72
776.535	6572.19
776.87	6538.06
777.205	6501.23
777.539	6520.44
777.874	6480.66
778.209	6436.6
778.543	6400.21
778.878	6357.95
779.212	6380.1
779.547	6366.77
779.881	6331.51
780.215	6370.84
780.55	6318.63
780.884	6284.51
781.218	6259.65
781.552	6275.7
781.886	6216.04
782.22	6190.28
782.554	6205.42
782.888	6164.97
783.222	6151.63
783.556	6060.56
783.889	6080.9
784.223	6042.71
784.557	6003.61
784.89	6080.45
785.224	5996.16
785.557	5982.6
785.891	5954.12
786.224	5975.14
786.558	5961.81
786.891	5837.06
787.224	5879.77
787.557	5883.84
787.891	5864.86
788.224	5846.56
788.557	5848.36
788.89	5825.31
789.223	5810.17
789.556	5758.65
789.888	5743.28
790.221	5712.77
790.554	5722.04
790.887	5707.12
791.219	5659.44
791.552	5684.3
791.884	5635.94
792.217	5629.16
792.549	5634.13
792.882	5566.11
793.214	5543.06
793.546	5536.28
793.879	5509.84
794.211	5544.19
794.543	5532.89
794.875	5476.62
795.207	5491.08
795.539	5465.32
795.871	5433.23
796.203	5392.56
796.535	5401.14
796.867	5390.3
797.198	5346.46
797.53	5376.29
797.862	5344.87
798.193	5362.95
798.525	5268.49
798.856	5315.72
799.188	5275.5
799.519	5263.97
799.85	5218.78
800.182	5238.89
800.513	5214.48
800.844	5167.48
801.175	5195.5
801.506	5188.27
801.837	5143.97
802.168	5178.78
802.499	5118.21
802.83	5077.54
803.161	5088.61
803.491	5080.47
803.822	5063.75
804.153	5026.24
804.483	5025.79
804.814	5016.75
805.145	5055.84
805.475	5007.48
805.805	4991.66
806.136	4993.92
806.466	4964.54
806.796	4973.36
807.126	4947.37
807.457	4923.64
807.787	4906.24
808.117	4902.63
808.447	4901.5
808.777	4924.55
809.107	4882.06
809.436	4915.51
809.766	4837.77
810.096	4814.72
810.426	4795.51
810.755	4851.1
811.085	4815.85
811.414	4819.24
811.744	4778.56
812.073	4815.17
812.403	4771.56
812.732	4760.71
813.061	4744.44
813.39	4695.4
813.719	4669.19
814.049	4753.48
814.378	4729.75
814.707	4668.51
815.036	4687.49
815.365	4659.69
815.693	4653.82
816.022	4624.21
816.351	4610.2
816.68	4610.88
817.008	4612.69
817.337	4586.02
817.665	4559.58
817.994	4532.01
818.322	4546.93
818.651	4501.73
818.979	4541.5
819.307	4546.93
819.636	4545.57
819.964	4521.17
820.292	4476.42
820.62	4523.43
820.948	4555.52
821.276	4544.89
821.604	4539.92
821.932	4509.42
822.259	4513.71
822.587	4541.73
822.915	4523.43
823.243	4502.41
823.57	4478.68
823.898	4479.81
824.225	4463.77
824.553	4496.31
824.88	4477.78
825.207	4515.74
825.535	4480.94
825.862	4474.39
826.189	4463.99
826.516	4495.18
826.843	4529.53
827.17	4456.76
827.497	4487.95
827.824	4467.16
828.151	4494.73
828.478	4499.02
828.805	4502.18
829.131	4492.47
829.458	4474.39
829.785	4457.67
830.111	4456.31
830.438	4492.47
830.764	4516.19
831.09	4465.57
831.417	4428.97
831.743	4480.72
832.069	4462.41
832.395	4439.13
832.722	4482.07
833.048	4455.18
833.374	4446.14
833.7	4419.02
834.026	4463.09
834.351	4478
834.677	4462.64
835.003	4469.42
835.329	4449.08
835.654	4408.63
835.98	4458.8
836.306	4407.95
836.631	4403.66
836.956	4421.28
837.282	4421.06
837.607	4421.96
837.932	4386.93
838.258	4366.14
838.583	4390.55
838.908	4346.71
839.233	4343.32
839.558	4304.22
839.883	4345.58
840.208	4304.45
840.533	4354.84
840.858	4325.92
841.182	4285.69
841.507	4334.5
841.832	4297.44
842.156	4288.63
842.481	4329.31
842.805	4327.73
843.13	4263.55
843.454	4231.68
843.778	4229.87
844.103	4263.32
844.427	4259.7
844.751	4264.45
845.075	4224.9
845.399	4257.67
845.723	4178.12
846.047	4246.15
846.371	4159.14
846.695	4165.7
847.019	4133.83
847.343	4112.82
847.666	4100.16
847.99	4076.88
848.313	4101.74
848.637	4067.17
848.96	4071.69
849.284	4022.2
849.607	4050.22
849.931	4019.26
850.254	4009.54
850.577	3976.77
850.9	3951.24
851.223	3932.26
851.546	3904.01
851.869	3896.55
852.192	3897.68
852.515	3833.73
852.838	3861.07
853.161	3881.86
853.483	3856.55
853.806	3818.81
854.129	3845.03
854.451	3786.72
854.774	3856.1
855.096	3796.44
855.419	3760.96
855.741	3764.35
856.063	3768.64
856.385	3779.27
856.708	3756.89
857.03	3706.95
857.352	3768.87
857.674	3705.37
857.996	3700.4
858.318	3710.57
858.64	3635.09
858.961	3652.26
859.283	3661.98
859.605	3649.78
859.926	3679.61
860.248	3649.55
860.57	3602.32
860.891	3625.37
861.212	3660.17
861.534	3612.72
861.855	3614.98
862.176	3624.47
862.498	3612.94
862.819	3590.8
863.14	3589.21
863.461	3578.37
863.782	3570.23
864.103	3579.27
864.424	3552.83
864.745	3529.78
865.065	3517.35
865.386	3547.86
865.707	3488.88
866.027	3544.47
866.348	3488.43
866.668	3513.28
866.989	3549.44
867.309	3481.19
867.63	3497.24
867.95	3525.71
868.27	3522.32
868.59	3481.87
868.91	3468.31
869.23	3455.66
869.55	3477.13
869.87	3460.86
870.19	3492.27
870.51	3437.35
870.83	3469.44
871.15	3425.83
871.469	3439.61
871.789	3449.1
872.109	3434.87
872.428	3423.12
872.748	3432.38
873.067	3386.06
873.386	3412.04
873.706	3378.37
874.025	3387.41
874.344	3374.76
874.663	3436.45
874.982	3383.57
875.301	3381.99
875.62	3364.81
875.939	3421.76
876.258	3405.26
876.577	3367.75
876.896	3387.18
877.214	3356.68
877.533	3376.56
877.852	3330.92
878.17	3364.81
878.489	3310.58
878.807	3339.5
879.125	3311.48
879.444	3337.02
879.762	3338.15
880.08	3347.19
880.398	3295.89
880.716	3311.71
881.034	3294.31
881.352	3304.48
881.67	3263.35
881.988	3260.63
882.306	3274.87
882.624	3247.53
882.941	3252.95
883.259	3246.17
883.577	3228.09
883.894	3241.65
884.212	3223.57
884.529	3248.88
884.846	3249.79
885.164	3202.56
885.481	3210.69
885.798	3202.56
886.115	3205.27
886.432	3205.49
886.75	3174.08
887.067	3200.3
887.383	3122.11
887.7	3134.99
888.017	3150.13
888.334	3165.04
888.651	3168.21
888.967	3145.84
889.284	3115.1
889.6	3112.62
889.917	3098.15
890.233	3079.4
890.55	3076.91
890.866	3076.91
891.182	3047.98
891.498	3113.07
891.815	3032.62
892.131	3060.87
892.447	3024.71
892.763	3040.08
893.079	3038.95
893.395	3012.05
893.71	3012.28
894.026	2989.23
894.342	3002.11
894.657	2973.64
894.973	2971.15
895.289	2996.46
895.604	2963.24
895.92	2970.92
896.235	2945.16
896.55	2930.47
896.865	2934.77
897.181	2903.81
897.496	2905.62
897.811	2956.24
898.126	2882.79
898.441	2880.76
898.756	2885.73
899.071	2874.2
899.386	2844.37
899.7	2823.13
900.015	2808.22
900.33	2777.26
900.644	2816.8
900.959	2817.03
901.273	2783.13
901.588	2825.84
901.902	2759.63
902.216	2778.84
902.531	2746.98
902.845	2755.34
903.159	2763.92
903.473	2740.42
903.787	2732.96
904.101	2700.65
904.415	2699.52
904.729	2708.78
905.042	2691.61
905.356	2668.33
905.67	2672.4
905.984	2684.6
906.297	2657.71
906.611	2692.06
906.924	2674.66
907.237	2650.03
907.551	2641.67
907.864	2633.76
908.177	2619.07
908.491	2606.41
908.804	2596.92
909.117	2614.32
909.43	2549.24
909.743	2585.85
910.056	2579.75
910.368	2524.83
910.681	2511.73
910.994	2548.56
911.307	2541.56
911.619	2548.79
911.932	2535.46
912.244	2516.47
912.557	2488.23
912.869	2480.09
913.181	2476.02
913.494	2463.37
913.806	2470.37
914.118	2455.46
914.43	2424.95
914.742	2424.05
915.054	2414.1
915.366	2398.06
915.678	2408.68
915.99	2380.21
916.302	2368.45
916.613	2385.18
916.925	2359.42
917.236	2370.94
917.548	2351.05
917.859	2367.78
918.171	2331.17
918.482	2324.84
918.794	2346.99
919.105	2334.56
919.416	2320.32
919.727	2316.48
920.038	2286.2
920.349	2275.58
920.66	2293.43
920.971	2262.69
921.282	2266.54
921.593	2259.98
921.903	2216.14
922.214	2245.52
922.525	2219.53
922.835	2212.3
923.146	2195.35
923.456	2208.23
923.767	2210.49
924.077	2205.75
924.387	2158.29
924.697	2172.75
925.008	2137.73
925.318	2148.12
925.628	2118.29
925.938	2147.44
926.248	2128.69
926.558	2121.23
926.867	2108.8
927.177	2116.48
927.487	2106.54
927.796	2100.21
928.106	2090.27
928.416	2057.28
928.725	2075.81
929.034	2052.08
929.344	2036.26
929.653	2046.2
929.962	2055.47
930.271	2030.61
930.581	2016.15
930.89	2044.62
931.199	1996.94
931.508	1993.32
931.817	2007.33
932.125	1978.41
932.434	1998.29
932.743	1936.38
933.051	1938.86
933.36	1953.55
933.669	1937.73
933.977	1942.03
934.286	1940.44
934.594	1934.34
934.902	1925.3
935.21	1899.54
935.519	1917.62
935.827	1908.35
936.135	1899.77
936.443	1871.29
936.751	1898.86
937.059	1831.07
937.367	1871.29
937.674	1857.06
937.982	1873.55
938.29	1826.55
938.597	1840.11
938.905	1800.11
939.213	1848.92
939.52	1799.2
939.827	1808.02
940.135	1816.38
940.442	1794.68
940.749	1771.63
941.056	1789.71
941.363	1772.76
941.67	1783.39
941.977	1759.21
942.284	1761.24
942.591	1747.45
942.898	1753.78
943.205	1756.49
943.511	1749.04
943.818	1716.95
944.125	1690.73
944.431	1722.6
944.738	1721.01
945.044	1701.58
945.35	1680.56
945.657	1697.74
945.963	1686.89
946.269	1693.22
946.575	1698.19
946.881	1693.9
947.187	1649.6
947.493	1680.11
947.799	1672.65
948.105	1644.41
948.41	1637.4
948.716	1655.71
949.022	1609.6
949.327	1639.89
949.633	1610.28
949.938	1614.58
950.244	1591.07
950.549	1592.88
950.854	1616.38
951.16	1572.54
951.465	1583.62
951.77	1595.37
952.075	1573.67
952.38	1571.64
952.685	1558.08
952.99	1572.32
953.294	1553.33
953.599	1560.34
953.904	1539.1
954.209	1509.49
954.513	1527.12
954.818	1516.95
955.122	1536.84
955.426	1557.63
955.731	1518.08
956.035	1498.87
956.339	1502.04
956.643	1495.48
956.948	1508.59
957.252	1440.57
957.556	1477.86
957.86	1471.08
958.163	1443.73
958.467	1488.03
958.771	1453.68
959.075	1458.65
959.378	1444.64
959.682	1436.28
959.985	1412.1
960.289	1430.85
960.592	1397.18
960.896	1422.72
961.199	1419.78
961.502	1421.81
961.805	1431.98
962.108	1383.62
962.411	1429.72
962.714	1388.82
963.017	1369.38
963.32	1395.15
963.623	1367.35
963.926	1389.27
964.228	1354.02
964.531	1354.47
964.833	1342.27
965.136	1358.76
965.438	1340.23
965.741	1332.32
966.043	1328.71
966.345	1344.3
966.648	1302.49
966.95	1347.01
967.252	1308.14
967.554	1304.08
967.856	1293.68
968.158	1290.06
968.46	1273.34
968.761	1282.16
969.063	1282.83
969.365	1290.06
969.666	1280.57
969.968	1236.73
970.269	1263.85
970.571	1276.73
970.872	1263.62
971.174	1260.24
971.475	1234.7
971.776	1268.37
972.077	1215.04
972.378	1238.77
972.679	1241.25
972.98	1216.17
973.281	1194.93
973.582	1220.91
973.883	1244.19
974.183	1203.29
974.484	1188.15
974.785	1194.47
975.085	1193.57
975.386	1188.82
975.686	1217.07
975.986	1206.68
976.287	1185.66
976.587	1179.56
976.887	1184.98
977.187	1192.44
977.487	1197.86
977.787	1170.52
978.087	1144.76
978.387	1136.4
978.687	1150.63
978.987	1141.14
979.286	1119.45
979.586	1148.6
979.885	1152.44
980.185	1144.31
980.484	1141.59
980.784	1134.59
981.083	1097.53
981.382	1143.85
981.682	1098.88
981.981	1121.48
982.28	1102.73
982.579	1105.44
982.878	1100.01
983.177	1093.23
983.475	1100.92
983.774	1095.95
984.073	1052.33
984.372	1072.9
984.67	1073.57
984.969	1080.58
985.267	1085.1
985.566	1086
985.864	1050.07
986.162	1058.21
986.461	1056.17
986.759	1071.09
987.057	1041.94
987.355	1017.98
987.653	1050.07
987.951	1015.5
988.249	1031.31
988.547	1034.03
988.844	1015.04
989.142	1025.21
989.44	1028.38
989.737	1018.21
990.035	992.45
990.332	1014.59
990.63	977.76
990.927	998.32
991.224	1004.87
991.521	992.22
991.819	978.43
992.116	1004.87
992.413	975.04
992.71	975.95
993.006	967.14
993.303	950.64
993.6	948.61
993.897	961.94
994.193	949.73
994.49	957.42
994.787	967.36
995.083	943.41
995.379	958.1
995.676	952.45
995.972	952.45
996.268	914.71
996.565	924.42
996.861	942.96
997.157	935.27
997.453	942.73
997.749	927.59
998.044	903.86
998.34	928.72
998.636	920.58
998.932	895.27
999.227	923.07
999.523	867.48
999.818	901.6
1000.114	881.49
1000.409	867.03
1000.704	887.59
1001	839.91
1001.295	885.33
1001.59	875.39
1001.885	868.38
1002.18	847.36
1002.475	861.83
1002.77	855.95
1003.065	866.35
1003.359	856.4
1003.654	860.7
1003.949	856.63
1004.243	857.76
1004.538	850.75
1004.832	842.39
1005.127	836.74
1005.421	839.68
1005.715	827.7
1006.009	832.22
1006.304	819.34
1006.598	822.05
1006.892	813.92
1007.186	795.39
1007.48	814.37
1007.773	786.58
1008.067	795.39
1008.361	789.97
1008.655	770.53
1008.948	799
1009.242	774.37
1009.535	765.56
1009.829	761.49
1010.122	776.63
1010.415	768.95
1010.708	759.23
1011.001	752
1011.295	771.21
1011.588	767.14
1011.881	761.72
1012.173	768.04
1012.466	740.7
1012.759	747.03
1013.052	769.85
1013.344	754.03
1013.637	746.12
1013.93	748.84
1014.222	745.45
1014.514	718.1
1014.807	733.47
1015.099	715.16
1015.391	721.27
1015.683	738.22
1015.976	722.62
1016.268	705.45
1016.56	719.01
1016.851	721.94
1017.143	701.83
1017.435	697.54
1017.727	709.52
1018.018	706.58
1018.31	710.19
1018.602	691.44
1018.893	713.36
1019.185	694.37
1019.476	685.11
1019.767	688.05
1020.058	689.18
1020.35	696.63
1020.641	686.47
1020.932	679.23
1021.223	665.67
1021.514	665.67
1021.804	650.31
1022.095	667.71
1022.386	644.66
1022.677	645.79
1022.967	658.22
1023.258	640.59
1023.548	653.47
1023.839	646.92
1024.129	647.37
1024.419	644.66
1024.709	629.07
1025	625.45
1025.29	634.49
1025.58	622.74
1025.87	624.55
1026.16	633.59
1026.449	608.05
1026.739	626.13
1027.029	620.7
1027.319	594.72
1027.608	606.69
1027.898	605.11
1028.187	616.41
1028.477	598.56
1028.766	605.79
1029.055	605.56
1029.344	590.2
1029.634	584.77
1029.923	594.26
1030.212	583.87
1030.501	593.81
1030.79	580.48
1031.078	568.28
1031.367	592.23
1031.656	578.67
1031.945	591.1
1032.233	575.28
1032.522	563.98
1032.81	561.95
1033.099	556.98
1033.387	553.81
1033.675	549.75
1033.963	550.88
1034.251	539.8
1034.54	556.75
1034.828	549.07
1035.116	537.54
1035.403	538.22
1035.691	541.16
1035.979	545.23
1036.267	561.27
1036.554	542.74
1036.842	537.32
1037.129	558.78
1037.417	538.45
1037.704	534.38
1037.992	513.81
1038.279	523.98
1038.566	521.27
1038.853	521.27
1039.14	521.27
