Data from mousepad_grey_FLMS001491_00069.txt Node
Date: Wed Feb 08 14:29:47 GMT 2017
User: dcchb
Spectrometer: FLMS00149
Trigger mode: 0
Integration Time (sec): 2.000000E-2
Scans to average: 10
Electric dark correction enabled: true
Nonlinearity correction enabled: false
Boxcar width: 0
XAxis mode: Wavelengths
Number of Pixels in Spectrum: 2048
>>>>>Begin Spectral Data<<<<<
341.393	-3.57
341.776	-3.57
342.16	-3.57
342.543	-59.62
342.927	-73.18
343.31	-67.3
343.693	-49.22
344.077	-70.46
344.46	-63.91
344.843	-33.18
345.226	-48.77
345.61	-49.9
345.993	-12.16
346.376	-4.25
346.759	7.95
347.142	51.57
347.525	39.82
347.908	58.57
348.291	64.9
348.674	71.23
349.057	105.12
349.44	120.49
349.823	139.02
350.206	155.07
350.588	167.95
350.971	181.28
351.354	217.44
351.737	224.22
352.119	237.78
352.502	249.53
352.884	235.74
353.267	262.41
353.65	288.4
354.032	291.11
354.414	292.24
354.797	279.13
355.179	305.12
355.562	317.32
355.944	309.41
356.326	315.97
356.709	313.93
357.091	307.15
357.473	347.15
357.855	303.76
358.238	296.53
358.62	333.82
359.002	333.59
359.384	326.14
359.766	325.91
360.148	327.04
360.53	322.29
360.912	306.93
361.294	329.3
361.676	307.6
362.057	318.68
362.439	304.89
362.821	324.55
363.203	305.35
363.584	308.73
363.966	305.35
364.348	312.8
364.729	306.93
365.111	322.52
365.493	313.25
365.874	302.86
366.256	288.62
366.637	299.47
367.019	300.37
367.4	294.27
367.781	289.07
368.163	294.95
368.544	277.78
368.925	308.96
369.306	302.86
369.688	296.53
370.069	298.57
370.45	286.59
370.831	321.39
371.212	297.66
371.593	286.36
371.974	294.5
372.355	281.84
372.736	279.13
373.117	303.76
373.498	300.6
373.879	301.5
374.26	312.8
374.641	299.24
375.021	280.49
375.402	303.54
375.783	323.42
376.163	308.28
376.544	312.35
376.925	310.77
377.305	310.09
377.686	302.18
378.066	326.59
378.447	293.37
378.827	323.65
379.208	309.64
379.588	307.83
379.968	316.19
380.349	320.26
380.729	326.81
381.109	315.06
381.489	320.71
381.87	324.33
382.25	328.4
382.63	319.58
383.01	317.77
383.39	310.32
383.77	324.33
384.15	306.25
384.53	342.41
384.91	332.91
385.29	321.39
385.67	320.03
386.049	346.02
386.429	313.25
386.809	334.04
387.189	324.33
387.568	344.67
387.948	323.65
388.328	335.63
388.707	344.67
389.087	337.66
389.466	327.04
389.846	367.04
390.225	345.57
390.605	359.13
390.984	358.23
391.363	355.97
391.743	367.94
392.122	363.2
392.501	366.36
392.881	363.42
393.26	345.34
393.639	361.84
394.018	381.73
394.397	348.96
394.776	372.46
395.155	365.68
395.534	374.72
395.913	349.64
396.292	361.16
396.671	372.46
397.05	375.63
397.429	400.03
397.808	369.75
398.186	355.06
398.565	375.4
398.944	365.23
399.323	389.86
399.701	393.25
400.08	383.08
400.458	382.41
400.837	389.18
401.215	392.35
401.594	395.29
401.972	396.87
402.351	388.05
402.729	395.96
403.107	414.27
403.486	399.35
403.864	391.44
404.242	412.46
404.62	419.92
404.999	412.69
405.377	424.66
405.755	421.73
406.133	420.82
406.511	428.73
406.889	402.52
407.267	406.36
407.645	438.45
408.023	431.44
408.401	401.61
408.779	448.17
409.156	446.58
409.534	446.81
409.912	443.19
410.29	444.32
410.667	443.65
411.045	452.23
411.422	448.62
411.8	469.63
412.178	471.89
412.555	493.59
412.933	480.71
413.31	477.32
413.687	496.3
414.065	488.17
414.442	482.74
414.819	465.11
415.197	482.97
415.574	501.72
415.951	515.96
416.328	504.89
416.705	507.83
417.082	513.25
417.46	497.88
417.837	514.83
418.214	507.6
418.591	507.15
418.967	522.97
419.344	519.35
419.721	521.38
420.098	532.23
420.475	551.21
420.852	517.77
421.228	517.77
421.605	537.43
421.982	556.41
422.358	554.38
422.735	553.25
423.111	560.03
423.488	576.52
423.864	549.18
424.241	579.69
424.617	580.14
424.994	555.73
425.37	565.45
425.746	590.08
426.123	594.15
426.499	591.89
426.875	603.64
427.251	612
427.627	627.82
428.003	592.8
428.379	621.72
428.756	609.97
429.132	594.38
429.507	606.58
429.883	651.55
430.259	647.93
430.635	642.74
431.011	640.93
431.387	643.64
431.763	677.09
432.138	681.61
432.514	671.89
432.89	666.69
433.265	695.84
433.641	679.12
434.016	697.88
434.392	683.87
434.767	720.25
435.143	728.61
435.518	734.71
435.894	725.22
436.269	742.62
436.644	756.41
437.02	763.64
437.395	757.76
437.77	761.38
438.145	762.06
438.52	752.79
438.895	762.51
439.271	787.14
439.646	797.54
440.021	802.28
440.395	810.42
440.77	797.08
441.145	807.7
441.52	820.59
441.895	809.51
442.27	840.25
442.645	815.61
443.019	832.11
443.394	811.32
443.769	862.17
444.143	803.19
444.518	836.63
444.892	863.3
445.267	855.16
445.641	850.87
446.016	833.47
446.39	877.53
446.764	870.53
447.139	885.22
447.513	879.34
447.887	886.8
448.262	895.39
448.636	919.57
449.01	895.84
449.384	910.3
449.758	934.48
450.132	922.73
450.506	952.79
450.88	923.86
451.254	925.67
451.628	947.81
452.002	970.86
452.376	950.53
452.75	967.25
453.123	972.45
453.497	973.58
453.871	950.75
454.244	997.08
454.618	1039.79
454.992	1018.55
455.365	1052.44
455.739	1040.47
456.112	1056.74
456.486	1061.48
456.859	1077.98
457.232	1086.57
457.606	1095.15
457.979	1088.38
458.352	1139.22
458.725	1127.24
459.099	1118.88
459.472	1159.11
459.845	1155.27
460.218	1181.93
460.591	1179.22
460.964	1164.76
461.337	1196.17
461.71	1202.27
462.083	1240.46
462.456	1230.97
462.829	1228.71
463.201	1266.45
463.574	1254.02
463.947	1281.14
464.32	1281.14
464.692	1299.44
465.065	1300.35
465.438	1322.95
465.81	1351.19
466.183	1351.42
466.555	1391.87
466.928	1365.43
467.3	1373.79
467.672	1389.84
468.045	1450.85
468.417	1435.26
468.789	1436.61
469.161	1436.39
469.534	1511.64
469.906	1502.83
470.278	1505.77
470.65	1546.67
471.022	1559.1
471.394	1589.83
471.766	1564.75
472.138	1595.93
472.51	1625.08
472.882	1633.67
473.253	1665.76
473.625	1711.86
473.997	1730.39
474.369	1718.87
474.74	1760.67
475.112	1780.11
475.484	1781.46
475.855	1838.86
476.227	1849.03
476.598	1872.08
476.97	1874.12
477.341	1915.02
477.713	1969.26
478.084	1979.88
478.455	2020.55
478.827	2038.18
479.198	2049.93
479.569	2096.71
479.94	2164.51
480.311	2154.34
480.682	2186.65
481.053	2254.22
481.424	2277.27
481.795	2301
482.166	2341.68
482.537	2339.64
482.908	2337.61
483.279	2401.79
483.65	2452.63
484.021	2483.14
484.391	2510.48
484.762	2507.77
485.133	2540.54
485.503	2560.43
485.874	2611.95
486.244	2647.2
486.615	2717.49
486.985	2736.47
487.356	2793.19
487.726	2824.6
488.097	2825.96
488.467	2868.22
488.837	2914.32
489.207	2942.11
489.578	2969
489.948	2999.74
490.318	3040.64
490.688	3062.56
491.058	3086.51
491.428	3099.17
491.798	3180.98
492.168	3201.31
492.538	3218.71
492.908	3259.17
493.278	3272.72
493.648	3311.37
494.017	3345.27
494.387	3369.9
494.757	3404.47
495.126	3446.51
495.496	3449.9
495.866	3489.67
496.235	3485.6
496.605	3525.83
496.974	3566.28
497.344	3626.16
497.713	3614.86
498.082	3618.48
498.452	3684.47
498.821	3698.02
499.19	3736.89
499.559	3757.01
499.928	3787.06
500.298	3793.84
500.667	3793.16
501.036	3799.26
501.405	3845.82
501.774	3886.95
502.143	3937.79
502.512	3900.5
502.88	3937.11
503.249	3989.09
503.618	4008.52
503.987	4004.23
504.356	4014.17
504.724	4044.68
505.093	4070.22
505.462	4112.48
505.83	4140.95
506.199	4169.2
506.567	4173.94
506.936	4239.93
507.304	4243.55
507.672	4242.87
508.041	4298.69
508.409	4348.4
508.777	4330.32
509.145	4361.51
509.514	4392.24
509.882	4453.03
510.25	4406.03
510.618	4456.42
510.986	4484.9
511.354	4518.57
511.722	4579.81
512.09	4590.88
512.458	4596.31
512.826	4665.23
513.193	4688.28
513.561	4698.9
513.929	4721.73
514.297	4746.58
514.664	4785.91
515.032	4794.04
515.4	4839.92
515.767	4898.67
516.135	4923.3
516.502	4917.43
516.869	4952
517.237	4982.51
517.604	5002.85
517.972	5037.88
518.339	5058.67
518.706	5083.75
519.073	5187.93
519.44	5164.2
519.808	5183.18
520.175	5176.18
520.542	5283.07
520.909	5288.94
521.276	5313.12
521.643	5351.77
522.009	5388.38
522.376	5450.75
522.743	5477.64
523.11	5502.72
523.477	5561.7
523.843	5592.44
524.21	5631.53
524.577	5647.58
524.943	5728.71
525.31	5813.67
525.676	5807.35
526.043	5845.31
526.409	5848.7
526.776	5869.72
527.142	5920.34
527.508	5969.38
527.874	6002.6
528.241	6039.66
528.607	6084.4
528.973	6097.51
529.339	6138.19
529.705	6234
530.071	6215.92
530.437	6263.61
530.803	6279.43
531.169	6358.29
531.535	6352.19
531.901	6356.94
532.267	6409.82
532.632	6491.62
532.998	6477.39
533.364	6513.77
533.73	6559.64
534.095	6618.63
534.461	6645.52
534.826	6694.1
535.192	6683.71
535.557	6702.69
535.923	6722.13
536.288	6750.15
536.653	6847.55
537.019	6779.53
537.384	6850.48
537.749	6863.59
538.114	6880.31
538.479	7019.74
538.845	6969.58
539.21	6950.82
539.575	6966.64
539.94	7020.2
540.305	7096.35
540.67	7036.02
541.034	7099.29
541.399	7146.52
541.764	7182.45
542.129	7260.19
542.494	7245.73
542.858	7236.69
543.223	7285.27
543.587	7347.42
543.952	7344.93
544.316	7392.84
544.681	7381.32
545.045	7423.12
545.41	7396.46
545.774	7506.51
546.138	7530.24
546.503	7527.3
546.867	7560.3
547.231	7614.76
547.595	7657.02
547.959	7714.19
548.324	7707.41
548.688	7697.24
549.052	7738.6
549.416	7772.95
549.779	7769.33
550.143	7829.89
550.507	7790.8
550.871	7941.08
551.235	7878.03
551.599	7916.22
551.962	7976.56
552.326	8051.81
552.689	8066.72
553.053	8052.26
553.417	8077.12
553.78	8189.21
554.143	8143.11
554.507	8106.72
554.87	8211.8
555.234	8316.66
555.597	8259.71
555.96	8250.45
556.323	8310.33
556.686	8364.12
557.05	8428.75
557.413	8403.44
557.776	8513.49
558.139	8526.37
558.502	8529.76
558.865	8498.8
559.228	8640.04
559.59	8626.48
559.953	8666.26
560.316	8682.07
560.679	8779.02
561.041	8814.05
561.404	8882.52
561.767	8916.42
562.129	8915.06
562.492	9006.59
562.854	8963.87
563.217	8995.96
563.579	9107.83
563.941	9078
564.304	9188.05
564.666	9175.39
565.028	9205.45
565.39	9291.1
565.753	9264.66
566.115	9336.75
566.477	9337.42
566.839	9340.59
567.201	9467.59
567.563	9458.32
567.925	9530.87
568.287	9560.02
568.648	9577.87
569.01	9595.72
569.372	9656.06
569.734	9618.32
570.095	9728.83
570.457	9724.76
570.819	9794.59
571.18	9826.68
571.542	9814.02
571.903	9880.23
572.265	9953.23
572.626	9957.52
572.987	9964.07
573.349	9958.2
573.71	10037.07
574.071	10075.03
574.432	10147.8
574.794	10141.24
575.155	10163.16
575.516	10070.06
575.877	10170.17
576.238	10253.56
576.599	10267.57
576.96	10206.55
577.32	10245.87
577.681	10329.04
578.042	10282.03
578.403	10364.52
578.763	10353.22
579.124	10345.76
579.485	10446.55
579.845	10376.94
580.206	10434.57
580.566	10410.84
580.927	10469.6
581.287	10519.09
581.648	10491.97
582.008	10508.01
582.368	10539.65
582.728	10525.19
583.089	10421.46
583.449	10504.62
583.809	10551.63
584.169	10519.09
584.529	10486.09
584.889	10634.11
585.249	10628.92
585.609	10557.5
585.969	10691.29
586.329	10568.58
586.688	10570.84
587.048	10549.82
587.408	10580.78
587.768	10658.52
588.127	10572.65
588.487	10604.96
588.846	10627.11
589.206	10603.15
589.565	10638.63
589.925	10753.21
590.284	10605.19
590.643	10630.05
591.003	10639.08
591.362	10703.72
591.721	10640.89
592.08	10665.98
592.44	10687.22
592.799	10667.56
593.158	10669.14
593.517	10680.89
593.876	10647.22
594.235	10722.25
594.593	10714.11
594.952	10697.61
595.311	10684.51
595.67	10679.99
596.029	10751.17
596.387	10728.12
596.746	10738.07
597.104	10719.08
597.463	10760.66
597.822	10750.04
598.18	10748.91
598.538	10709.37
598.897	10781.91
599.255	10718.86
599.613	10789.82
599.972	10766.54
600.33	10789.14
600.688	10750.49
601.046	10856.25
601.404	10862.58
601.762	10831.85
602.12	10890.38
602.478	10890.83
602.836	10875.46
603.194	10805.41
603.552	10867.78
603.91	10825.75
604.268	10844.73
604.625	10832.07
604.983	10923.14
605.341	10856.25
605.698	10912.52
606.056	10909.59
606.413	10941
606.771	10946.42
607.128	10954.56
607.485	10888.8
607.843	10951.62
608.2	11034.55
608.557	11052.86
608.914	11027.78
609.272	11102.35
609.629	11064.16
609.986	11147.55
610.343	11119.07
610.7	11109.58
611.057	11074.1
611.414	11177.15
611.771	11112.07
612.127	11141.9
612.484	11153.2
612.841	11193.19
613.198	11144.38
613.554	11162.23
613.911	11223.25
614.267	11153.42
614.624	11185.28
614.98	11166.08
615.337	11261.89
615.693	11264.6
616.05	11265.28
616.406	11288.79
616.762	11285.4
617.118	11206.08
617.475	11255.34
617.831	11293.3
618.187	11315.45
618.543	11335.11
618.899	11380.76
619.255	11331.04
619.611	11326.07
619.967	11322.68
620.323	11384.15
620.678	11392.96
621.034	11277.26
621.39	11330.82
621.746	11351.83
622.101	11512.96
622.457	11396.8
622.812	11370.82
623.168	11408.1
623.523	11402.45
623.879	11355.45
624.234	11321.55
624.589	11439.29
624.945	11473.64
625.3	11441.1
625.655	11472.96
626.01	11427.54
626.365	11424.15
626.72	11427.76
627.075	11372.62
627.43	11456.46
627.785	11450.81
628.14	11461.21
628.495	11435.22
628.85	11464.83
629.205	11376.92
629.559	11487.2
629.914	11412.4
630.269	11367.88
630.623	11361.55
630.978	11421.21
631.332	11426.86
631.687	11446.52
632.041	11383.02
632.396	11324.72
632.75	11309.35
633.104	11404.26
633.459	11345.51
633.813	11299.18
634.167	11285.4
634.521	11296.02
634.875	11300.76
635.229	11303.02
635.583	11224.61
635.937	11364.26
636.291	11285.62
636.645	11237.71
636.999	11201.33
637.352	11285.62
637.706	11220.99
638.06	11234.1
638.413	11235.45
638.767	11180.09
639.121	11260.99
639.474	11114.78
639.828	11113.2
640.181	11167.21
640.534	11204.49
640.888	11108.9
641.241	11058.28
641.594	11180.54
641.947	11125.17
642.301	11165.17
642.654	11162.01
643.007	11115.23
643.36	11154.1
643.713	11035.91
644.066	11095.12
644.419	11046.98
644.771	11078.85
645.124	10927.21
645.477	10909.59
645.83	10903.48
646.182	10779.87
646.535	10819.42
646.888	10776.93
647.24	10716.6
647.593	10826.88
647.945	10785.97
648.298	10728.12
648.65	10718.63
649.002	10665.07
649.355	10679.99
649.707	10730.16
650.059	10719.08
650.411	10872.98
650.763	10947.1
651.115	11030.94
651.467	10952.97
651.819	10988.45
652.171	11010.37
652.523	10891.96
652.875	10906.65
653.227	10896.93
653.578	10983.26
653.93	10920.43
654.282	10946.42
654.633	10966.99
654.985	10930.83
655.337	10928.79
655.688	10872.52
656.039	10949.58
656.391	10830.27
656.742	10884.05
657.094	10902.13
657.445	10912.07
657.796	10870.94
658.147	10872.98
658.498	10934.9
658.849	10915.46
659.2	10913.2
659.551	10943.26
659.902	10930.15
660.253	10928.12
660.604	10946.65
660.955	10902.81
661.306	10931.28
661.656	10865.52
662.007	10858.29
662.358	10870.72
662.708	10900.09
663.059	10868.01
663.409	10731.96
663.76	10880.43
664.11	10865.29
664.461	10841.11
664.811	10897.38
665.161	10876.59
665.511	10873.43
665.862	10903.48
666.212	10982.58
666.562	10921.11
666.912	10904.61
667.262	10938.74
667.612	10836.14
667.962	10926.76
668.312	10857.38
668.662	10897.16
669.011	10844.05
669.361	10884.95
669.711	10898.51
670.06	10814.22
670.41	10836.59
670.76	10709.14
671.109	10868.01
671.459	10837.5
671.808	10856.25
672.157	10831.17
672.507	10809.93
672.856	10698.07
673.205	10739.42
673.554	10798.63
673.904	10807.67
674.253	10843.37
674.602	10797.27
674.951	10599.99
675.3	10571.52
675.649	10714.79
675.998	10671.85
676.346	10755.47
676.695	10763.6
677.044	10678.18
677.393	10656.49
677.741	10672.3
678.09	10743.71
678.438	10623.04
678.787	10654.23
679.135	10670.04
679.484	10625.07
679.832	10629.59
680.181	10621.23
680.529	10651.51
680.877	10546.66
681.225	10569.71
681.573	10636.82
681.922	10527.22
682.27	10524.06
682.618	10487.68
682.966	10507.56
683.314	10534.68
683.661	10395.25
684.009	10441.8
684.357	10394.35
684.705	10337.85
685.053	10418.75
685.4	10337.85
685.748	10336.04
686.095	10267.79
686.443	10221.69
686.79	10230.73
687.138	10265.76
687.485	10258.53
687.832	10224.86
688.18	10297.85
688.527	10126.1
688.874	10200
689.221	10154.58
689.568	10128.59
689.915	10193.22
690.262	10070.29
690.609	10131.08
690.956	10091.75
691.303	9948.48
691.65	9906.9
691.997	10046.56
692.344	9942.83
692.69	9894.02
693.037	9908.48
693.383	9843.85
693.73	9871.87
694.077	9806.79
694.423	9731.31
694.769	9733.8
695.116	9680.47
695.462	9710.97
695.808	9673.91
696.155	9701.48
696.501	9654.03
696.847	9546.01
697.193	9495.61
697.539	9608.83
697.885	9454.94
698.231	9440.02
698.577	9421.04
698.923	9426.01
699.269	9428.04
699.614	9316.41
699.96	9420.13
700.306	9323.87
700.651	9288.61
700.997	9256.3
701.342	9185.34
701.688	9202.51
702.033	9200.25
702.379	9156.64
702.724	9110.54
703.069	9144.66
703.415	9067.15
703.76	9069.41
704.105	9061.5
704.45	8958.9
704.795	9019.24
705.14	8912.8
705.485	8898.57
705.83	8864.44
706.175	8861.05
706.52	8927.72
706.865	8827.61
707.209	8867.83
707.554	8791.22
707.899	8863.76
708.243	8780.6
708.588	8779.7
708.932	8668.52
709.277	8702.41
709.621	8650.21
709.966	8616.54
710.31	8709.64
710.654	8535.86
710.998	8566.14
711.342	8641.62
711.687	8567.05
712.031	8571.34
712.375	8497.45
712.719	8547.16
713.063	8526.6
713.407	8543.77
713.75	8508.52
714.094	8496.32
714.438	8454.74
714.782	8415.64
715.125	8397.56
715.469	8429.2
715.812	8386.26
716.156	8410.44
716.499	8401.63
716.843	8395.75
717.186	8359.37
717.53	8437.33
717.873	8392.59
718.216	8309.88
718.559	8352.14
718.902	8278.92
719.246	8309.88
719.589	8270.79
719.932	8233.5
720.275	8256.55
720.617	8303.1
720.96	8266.72
721.303	8286.15
721.646	8218.58
721.989	8118.7
722.331	8233.72
722.674	8187.62
723.016	8190.34
723.359	8154.86
723.701	8173.61
724.044	8121.86
724.386	8096.55
724.729	8109.21
725.071	8120.96
725.413	8183.78
725.755	8144.69
726.097	8109.43
726.439	8058.81
726.782	8132.26
727.124	8145.82
727.465	8103.11
727.807	8074.86
728.149	8081.41
728.491	8101.3
728.833	8120.28
729.175	8047.74
729.516	8031.7
729.858	8061.75
730.199	8077.8
730.541	8048.87
730.882	8009.55
731.224	8076.21
731.565	7995.09
731.906	8037.35
732.248	8004.58
732.589	8082.54
732.93	7978.59
733.271	7938.59
733.612	8016.78
733.953	8018.14
734.294	7908.31
734.635	7945.82
734.976	8012.94
735.317	7978.59
735.658	7941.3
735.999	7919.83
736.339	7958.48
736.68	7994.18
737.021	7923
737.361	7951.25
737.702	7977.46
738.042	7992.15
738.383	7948.53
738.723	7968.42
739.063	7885.94
739.404	7948.99
739.744	7920.51
740.084	7826.05
740.424	7921.64
740.764	7851.14
741.104	7973.84
741.444	7900.63
741.784	7857.46
742.124	7890
742.464	7923.68
742.804	7809.33
743.143	7889.1
743.483	7870.57
743.823	7844.58
744.162	7866.95
744.502	7849.78
744.841	7777.01
745.181	7823.57
745.52	7809.55
745.86	7876.45
746.199	7873.28
746.538	7832.15
746.877	7843.45
747.216	7831.25
747.556	7839.16
747.895	7849.55
748.234	7813.85
748.573	7781.08
748.911	7803.45
749.25	7796.45
749.589	7772.27
749.928	7711.03
750.267	7762.32
750.605	7754.41
750.944	7792.15
751.283	7793.74
751.621	7765.26
751.96	7692.5
752.298	7728.88
752.636	7744.02
752.975	7723.68
753.313	7644.14
753.651	7674.87
753.989	7688.43
754.327	7638.71
754.666	7570.92
755.004	7647.98
755.342	7616.79
755.679	7705.38
756.017	7544.93
756.355	7612.05
756.693	7610.92
757.031	7592.84
757.368	7541.76
757.706	7564.82
758.044	7521.88
758.381	7577.92
758.719	7492.95
759.056	7511.71
759.394	7469.9
759.731	7475.78
760.068	7405.5
760.405	7413.18
760.743	7352.84
761.08	7405.05
761.417	7374.76
761.754	7316.46
762.091	7345.84
762.428	7266.97
762.765	7282.79
763.102	7304.48
763.438	7301.09
763.775	7207.31
764.112	7240.98
764.449	7222
764.785	7200.08
765.122	7066.07
765.458	7090.03
765.795	7151.94
766.131	7095.9
766.467	7095.68
766.804	6996.47
767.14	7068.33
767.476	7080.53
767.812	6953.31
768.148	7019.52
768.485	6991.95
768.821	6918.73
769.157	6869.24
769.492	6925.06
769.828	6913.53
770.164	6853.42
770.5	6844.83
770.836	6876.92
771.171	6809.35
771.507	6798.28
771.842	6735.23
772.178	6656.59
772.513	6677.83
772.849	6680.54
773.184	6676.7
773.519	6670.15
773.855	6583.6
774.19	6635.8
774.525	6579.3
774.86	6589.93
775.195	6564.16
775.53	6482.58
775.865	6517.39
776.2	6471.96
776.535	6427.67
776.87	6433.77
777.205	6406.43
777.539	6351.51
777.874	6345.86
778.209	6283.72
778.543	6309.26
778.878	6273.32
779.212	6281.23
779.547	6212.31
779.881	6292.53
780.215	6168.92
780.55	6244.62
780.884	6201.01
781.218	6190.84
781.552	6159.2
781.886	6132.31
782.22	6097.96
782.554	6038.98
782.888	6022.93
783.222	6005.08
783.556	5978.19
783.889	5962.6
784.223	5889.61
784.557	5943.84
784.89	5957.63
785.224	5970.73
785.557	5843.28
785.891	5865.88
786.224	5855.48
786.558	5817.97
786.891	5856.84
787.224	5781.81
787.557	5808.48
787.891	5745.65
788.224	5743.39
788.557	5701.36
788.89	5727.35
789.223	5703.85
789.556	5690.06
789.888	5660.46
790.221	5601.7
790.554	5565.32
790.887	5584.3
791.219	5564.87
791.552	5590.18
791.884	5523.96
792.217	5527.58
792.549	5519.22
792.882	5468.15
793.214	5482.84
793.546	5508.6
793.879	5500.91
794.211	5386.57
794.543	5391.99
794.875	5406
795.207	5421.82
795.539	5369.39
795.871	5413.23
796.203	5383.18
796.535	5269.73
796.867	5314.7
797.198	5286.68
797.53	5260.92
797.862	5220.7
798.193	5279.68
798.525	5191.54
798.856	5245.55
799.188	5153.13
799.519	5150.42
799.85	5160.58
800.182	5161.26
800.513	5159.23
800.844	5079.91
801.175	5112.9
801.506	5138.44
801.837	5114.03
802.168	5041.72
802.499	5033.58
802.83	5009.63
803.161	4999.23
803.491	4996.75
803.822	4956.97
804.153	4956.3
804.483	4990.42
804.814	4925.79
805.145	4911.1
805.475	4932.57
805.805	4932.57
806.136	4884.89
806.466	4868.61
806.796	4909.74
807.126	4816.19
807.457	4842.4
807.787	4871.55
808.117	4811.89
808.447	4796.3
808.777	4858.67
809.107	4787.94
809.436	4768.96
809.766	4781.84
810.096	4773.25
810.426	4720.37
810.755	4745.91
811.085	4714.27
811.414	4732.57
811.744	4670.2
812.073	4666.59
812.403	4675.63
812.732	4680.6
813.061	4691.9
813.39	4625.46
813.719	4607.6
814.049	4629.75
814.378	4625.01
814.707	4604.67
815.036	4593.14
815.365	4552.01
815.693	4533.26
816.022	4568.74
816.351	4525.12
816.68	4525.35
817.008	4540.49
817.337	4500.04
817.665	4477.44
817.994	4490.55
818.322	4481.96
818.651	4455.97
818.979	4376.65
819.307	4484.67
819.636	4489.42
819.964	4446.03
820.292	4422.52
820.62	4472.69
820.948	4394.73
821.276	4441.73
821.604	4461.39
821.932	4432.69
822.259	4394.5
822.587	4367.16
822.915	4390.89
823.243	4425.24
823.57	4411
823.898	4423.65
824.225	4375.29
824.553	4407.38
824.88	4338.46
825.207	4401.51
825.535	4381.85
825.862	4422.3
826.189	4398.12
826.516	4437.89
826.843	4417.55
827.17	4421.85
827.497	4427.27
827.824	4398.57
828.151	4405.12
828.478	4406.03
828.805	4444.67
829.131	4403.54
829.458	4373.94
829.785	4366.26
830.111	4383.43
830.438	4365.13
830.764	4369.64
831.09	4393.83
831.417	4392.47
831.743	4379.14
832.069	4417.78
832.395	4373.71
832.722	4417.33
833.048	4391.57
833.374	4391.57
833.7	4380.04
834.026	4350.89
834.351	4369.42
834.677	4355.41
835.003	4345.69
835.329	4343.43
835.654	4355.63
835.98	4331.68
836.306	4299.82
836.631	4333.94
836.956	4338.69
837.282	4318.35
837.607	4310.21
837.932	4316.54
838.258	4318.12
838.583	4265.47
838.908	4307.27
839.233	4276.09
839.558	4279.03
839.883	4262.3
840.208	4236.77
840.533	4231.12
840.858	4260.5
841.182	4273.83
841.507	4228.63
841.832	4218.91
842.156	4213.94
842.481	4191.8
842.805	4166.94
843.13	4161.29
843.454	4236.54
843.778	4155.41
844.103	4143.89
844.427	4173.49
844.751	4163.77
845.075	4142.31
845.399	4120.39
845.723	4092.14
846.047	4128.52
846.371	4060.5
846.695	4076.32
847.019	4062.99
847.343	4058.24
847.666	4020.73
847.99	3983.67
848.313	4015.3
848.637	3992.48
848.96	3970.11
849.284	3974.85
849.607	3929.66
849.931	3924.46
850.254	3921.52
850.577	3912.71
850.9	3907.06
851.223	3888.53
851.546	3858.25
851.869	3820.73
852.192	3815.76
852.515	3806.27
852.838	3760.62
853.161	3776.44
853.483	3800.39
853.806	3755.88
854.129	3738.25
854.451	3756.33
854.774	3697.57
855.096	3701.41
855.419	3674.52
855.741	3713.62
856.063	3655.99
856.385	3694.63
856.708	3685.82
857.03	3659.61
857.352	3607.63
857.674	3631.81
857.996	3641.75
858.318	3637.91
858.64	3634.07
858.961	3598.14
859.283	3577.8
859.605	3565.6
859.926	3591.81
860.248	3556.56
860.57	3548.88
860.891	3539.61
861.212	3534.64
861.534	3479.95
861.855	3528.09
862.176	3515.2
862.498	3561.08
862.819	3525.6
863.14	3497.13
863.461	3531.02
863.782	3517.92
864.103	3528.09
864.424	3498.48
864.745	3465.04
865.065	3460.52
865.386	3452.61
865.707	3471.14
866.027	3470.91
866.348	3450.8
866.668	3470.91
866.989	3416.9
867.309	3442.66
867.63	3414.19
867.95	3424.36
868.27	3430.23
868.59	3396.79
868.91	3369.67
869.23	3417.35
869.55	3356.56
869.87	3423
870.19	3362.67
870.51	3376.9
870.83	3402.89
871.15	3361.99
871.469	3381.65
871.789	3376.22
872.109	3360.63
872.428	3327.64
872.748	3389.11
873.067	3334.64
873.386	3366.73
873.706	3310.46
874.025	3319.96
874.344	3289.9
874.663	3316.34
874.982	3283.8
875.301	3323.57
875.62	3291.93
875.939	3318.37
876.258	3305.04
876.577	3281.76
876.896	3272.27
877.214	3287.19
877.533	3267.3
877.852	3277.47
878.17	3291.48
878.489	3275.66
878.807	3269.56
879.125	3256
879.444	3244.48
879.762	3216
880.08	3220.07
880.398	3225.04
880.716	3226.17
881.034	3232.73
881.352	3210.35
881.67	3210.35
881.988	3184.14
882.306	3187.53
882.624	3214.42
882.941	3158.15
883.259	3174.65
883.577	3146.85
883.894	3182.33
884.212	3173.97
884.529	3155.67
884.846	3173.07
885.164	3131.49
885.481	3150.47
885.798	3116.12
886.115	3104.37
886.432	3127.19
886.75	3105.27
887.067	3093.97
887.383	3051.26
887.7	3084.93
888.017	3084.26
888.334	3114.76
888.651	3066.18
888.967	3064.59
889.284	3046.52
889.6	3047.19
889.917	3007.65
890.233	3026.63
890.55	2991.83
890.866	3006.74
891.182	2987.76
891.498	3005.39
891.815	2934.43
892.131	2975.78
892.447	2953.41
892.763	2933.75
893.079	2973.52
893.395	2956.12
893.71	2969
894.026	2989.79
894.342	2919.74
894.657	2931.94
894.973	2925.39
895.289	2889.68
895.604	2896.46
895.92	2895.56
896.235	2874.09
896.55	2877.71
896.865	2870.93
897.181	2855.11
897.496	2825.5
897.811	2843.81
898.126	2824.37
898.441	2858.72
898.756	2782.34
899.071	2798.84
899.386	2801.32
899.7	2793.42
900.015	2752.06
900.33	2771.49
900.644	2744.83
900.959	2752.06
901.273	2760.87
901.588	2757.03
901.902	2685.85
902.216	2704.38
902.531	2704.38
902.845	2683.36
903.159	2684.49
903.473	2703.02
903.787	2642.01
904.101	2657.6
904.415	2662.8
904.729	2613.31
905.042	2610.14
905.356	2595
905.67	2641.33
905.984	2607.66
906.297	2640.42
906.611	2580.09
906.924	2587.32
907.237	2586.19
907.551	2552.52
907.864	2555.91
908.177	2571.5
908.491	2569.47
908.804	2555.23
909.117	2517.04
909.43	2517.72
909.743	2462.58
910.056	2514.78
910.368	2465.97
910.681	2463.03
910.994	2505.51
911.307	2460.54
911.619	2457.15
911.932	2470.94
912.244	2451.5
912.557	2438.85
912.869	2397.04
913.181	2428.23
913.494	2400.21
913.806	2399.98
914.118	2410.83
914.43	2345.29
914.742	2365.86
915.054	2378.06
915.366	2324.28
915.678	2337.38
915.99	2331.05
916.302	2330.15
916.613	2309.59
916.925	2297.38
917.236	2329.7
917.548	2284.28
917.859	2306.65
918.171	2291.06
918.482	2275.69
918.794	2262.81
919.105	2298.29
919.416	2246.54
919.727	2259.19
920.038	2252.41
920.349	2269.59
920.66	2206.31
920.971	2209.02
921.282	2171.06
921.593	2171.51
921.903	2175.58
922.214	2192.3
922.525	2169.48
922.835	2152.3
923.146	2158.18
923.456	2179.65
923.767	2144.39
924.077	2136.94
924.387	2148.23
924.697	2131.29
925.008	2084.73
925.318	2103.04
925.628	2111.63
925.938	2094
926.248	2044.96
926.558	2071.4
926.867	2045.86
927.177	2019.88
927.487	2010.84
927.796	2023.94
928.106	2025.75
928.416	1999.54
928.725	1991.85
929.034	2013.55
929.344	1983.95
929.653	2001.57
929.962	2012.87
930.271	1958.18
930.581	1971.29
930.89	1962.93
931.199	1938.3
931.508	1942.59
931.817	1958.18
932.125	1955.25
932.434	1954.57
932.743	1916.15
933.051	1889.94
933.36	1905.98
933.669	1918.86
933.977	1904.85
934.286	1873.89
934.594	1878.64
934.902	1860.33
935.21	1901.91
935.519	1860.33
935.827	1904.17
936.135	1862.82
936.443	1850.16
936.751	1853.78
937.059	1808.36
937.367	1807.45
937.674	1818.53
937.982	1835.47
938.29	1792.76
938.597	1786.89
938.905	1750.73
939.213	1783.72
939.52	1761.35
939.827	1778.3
940.135	1761.58
940.442	1759.54
940.749	1769.94
941.056	1738.75
941.363	1750.05
941.67	1744.86
941.977	1725.19
942.284	1715.03
942.591	1682.71
942.898	1696.04
943.205	1690.17
943.511	1688.81
943.818	1704.18
944.125	1657.17
944.431	1665.99
944.738	1685.42
945.044	1669.38
945.35	1659.66
945.657	1634.12
945.963	1660.56
946.269	1645.87
946.575	1634.8
946.881	1625.76
947.187	1635.71
947.493	1593.9
947.799	1595.71
948.105	1594.58
948.41	1567.23
948.716	1639.77
949.022	1579.89
949.327	1596.16
949.633	1556.39
949.938	1589.15
950.244	1584.86
950.549	1553.9
950.854	1556.16
951.16	1560.91
951.465	1567.68
951.77	1527.69
952.075	1540.34
952.38	1508.03
952.685	1517.97
952.99	1502.15
953.294	1536.5
953.599	1485.2
953.904	1524.75
954.209	1490.4
954.513	1494.47
954.818	1501.92
955.122	1491.98
955.426	1489.49
955.731	1469.16
956.035	1438.2
956.339	1457.86
956.643	1448.37
956.948	1430.97
957.252	1444.3
957.556	1469.83
957.86	1436.84
958.163	1428.03
958.467	1401.59
958.771	1394.58
959.075	1404.3
959.378	1411.76
959.682	1384.19
959.985	1383.96
960.289	1396.84
960.592	1368.59
960.896	1392.55
961.199	1358.88
961.502	1359.78
961.805	1371.98
962.108	1358.2
962.411	1372.89
962.714	1358.2
963.017	1386.22
963.32	1346.9
963.623	1366.33
963.926	1327.92
964.228	1310.06
964.531	1293.12
964.833	1324.3
965.136	1313.91
965.438	1328.6
965.741	1309.16
966.043	1322.72
966.345	1277.3
966.648	1305.32
966.95	1303.96
967.252	1302.38
967.554	1289.5
967.856	1286.79
968.158	1268.03
968.46	1269.84
968.761	1251.31
969.063	1264.19
969.365	1262.61
969.666	1230.29
969.968	1224.64
970.269	1217.19
970.571	1241.14
970.872	1243.17
971.174	1225.32
971.475	1260.12
971.776	1220.12
972.077	1233.23
972.378	1201.59
972.679	1191.65
972.98	1214.7
973.281	1183.51
973.582	1195.27
973.883	1181.71
974.183	1159.33
974.484	1188.26
974.785	1178.32
975.085	1164.98
975.386	1177.64
975.686	1150.07
975.986	1165.21
976.287	1152.78
976.587	1155.04
976.887	1153.23
977.187	1142.61
977.487	1137.64
977.787	1155.72
978.087	1106
978.387	1124.08
978.687	1118.88
978.987	1088.6
979.286	1105.1
979.586	1121.37
979.885	1117.75
980.185	1099.22
980.484	1088.38
980.784	1084.53
981.083	1106.68
981.382	1097.19
981.682	1095.38
981.981	1079.56
982.28	1080.47
982.579	1080.01
982.878	1100.13
983.177	1055.38
983.475	1062.84
983.774	1042.05
984.073	1050.64
984.372	1032.56
984.67	1046.79
984.969	1024.65
985.267	1017.64
985.566	1041.6
985.864	1007.93
986.162	1036.63
986.461	1010.86
986.759	1032.33
987.057	1011.09
987.355	1022.61
987.653	1024.42
987.951	1012.67
988.249	1007.93
988.547	987.14
988.844	998.89
989.142	1002.95
989.44	969.28
989.737	986.01
990.035	981.71
990.332	985.55
990.63	987.36
990.927	999.79
991.224	991.43
991.521	979.23
991.819	974.03
992.116	943.52
992.413	945.55
992.71	950.53
993.006	965.89
993.303	921.15
993.6	962.5
993.897	946.01
994.193	949.85
994.49	944.88
994.787	926.8
995.083	937.19
995.379	904.65
995.676	922.5
995.972	912.33
996.268	908.72
996.565	911.2
996.861	918.89
997.157	912.11
997.453	919.34
997.749	906.69
998.044	911.66
998.34	877.76
998.636	902.62
998.932	885.67
999.227	883.18
999.523	877.99
999.818	853.35
1000.114	855.84
1000.409	866.91
1000.704	879.34
1001	853.81
1001.295	868.04
1001.59	858.32
1001.885	876.4
1002.18	863.07
1002.475	830.3
1002.77	837.08
1003.065	834.37
1003.359	812.9
1003.654	817.42
1003.949	827.14
1004.243	835.27
1004.538	809.51
1004.832	822.17
1005.127	801.38
1005.421	802.96
1005.715	801.83
1006.009	831.88
1006.304	806.12
1006.598	788.95
1006.892	789.4
1007.186	782.17
1007.48	782.62
1007.773	763.64
1008.067	759.57
1008.361	767.48
1008.655	767.48
1008.948	771.1
1009.242	736.29
1009.535	783.07
1009.829	769.97
1010.122	794.37
1010.415	768.38
1010.708	736.07
1011.001	754.15
1011.295	750.76
1011.588	738.55
1011.881	738.78
1012.173	728.16
1012.466	735.16
1012.759	735.84
1013.052	753.69
1013.344	720.93
1013.637	706.01
1013.93	677.54
1014.222	718.67
1014.514	692.91
1014.807	695.84
1015.099	700.36
1015.391	678.22
1015.683	696.52
1015.976	680.93
1016.268	684.54
1016.56	700.36
1016.851	689.52
1017.143	692.45
1017.435	687.93
1017.727	706.92
1018.018	686.35
1018.31	696.07
1018.602	662.17
1018.893	672.34
1019.185	643.42
1019.476	671.89
1019.767	692.68
1020.058	655.39
1020.35	645.22
1020.641	669.4
1020.932	659.01
1021.223	661.95
1021.514	638.44
1021.804	654.26
1022.095	633.92
1022.386	634.6
1022.677	623.3
1022.967	646.13
1023.258	611.55
1023.548	604.55
1023.839	626.24
1024.129	599.12
1024.419	600.48
1024.709	605.22
1025	641.38
1025.29	577.65
1025.58	606.81
1025.87	611.33
1026.16	610.65
1026.449	610.42
1026.739	601.61
1027.029	612.68
1027.319	585.34
1027.608	590.76
1027.898	590.99
1028.187	567.94
1028.477	588.5
1028.766	580.59
1029.055	589.63
1029.344	570.87
1029.634	576.75
1029.923	560.25
1030.212	544.66
1030.501	557.99
1030.79	569.52
1031.078	576.07
1031.367	567.03
1031.656	569.74
1031.945	560.25
1032.233	552.57
1032.522	560.48
1032.81	535.17
1033.099	538.11
1033.387	536.75
1033.675	532.68
1033.963	566.36
1034.251	544.21
1034.54	540.82
1034.828	548.28
1035.116	535.62
1035.403	536.53
1035.691	526.13
1035.979	537.2
1036.267	514.83
1036.554	536.98
1036.842	518.22
1037.129	503.31
1037.417	503.76
1037.704	516.19
1037.992	524.55
1038.279	527.49
1038.566	522.51
1038.853	522.51
1039.14	522.51
