Data from mousepad_grey_FLMS001491_00038.txt Node
Date: Wed Feb 08 14:29:21 GMT 2017
User: dcchb
Spectrometer: FLMS00149
Trigger mode: 0
Integration Time (sec): 2.000000E-2
Scans to average: 10
Electric dark correction enabled: true
Nonlinearity correction enabled: false
Boxcar width: 0
XAxis mode: Wavelengths
Number of Pixels in Spectrum: 2048
>>>>>Begin Spectral Data<<<<<
341.393	-31.68
341.776	-31.68
342.16	-31.68
342.543	-65.58
342.927	-32.36
343.31	-81.85
343.693	-54.96
344.077	-71.9
344.46	-81.85
344.843	-68.74
345.226	-36.65
345.61	-33.49
345.993	3.12
346.376	3.57
346.759	13.06
347.142	22.56
347.525	29.79
347.908	66.62
348.291	66.17
348.674	105.94
349.057	118.6
349.44	129.9
349.823	126.28
350.206	136
350.588	165.6
350.971	217.81
351.354	200.63
351.737	239.05
352.119	240.63
352.502	227.07
352.884	262.55
353.267	281.76
353.65	268.88
354.032	272.49
354.414	288.76
354.797	298.25
355.179	279.27
355.562	310.91
355.944	289.67
356.326	327.86
356.709	311.59
357.091	320.63
357.473	328.08
357.855	323.11
358.238	326.28
358.62	338.25
359.002	335.32
359.384	337.8
359.766	322.66
360.148	325.15
360.53	328.76
360.912	340.97
361.294	306.39
361.676	310.01
362.057	342.77
362.439	312.72
362.821	304.36
363.203	293.28
363.584	294.19
363.966	301.87
364.348	294.64
364.729	291.25
365.111	282.66
365.493	290.35
365.874	288.99
366.256	301.64
366.637	295.32
367.019	287.18
367.4	291.48
367.781	288.99
368.163	288.54
368.544	284.92
368.925	296
369.306	304.36
369.688	289.89
370.069	296.22
370.45	314.98
370.831	298.25
371.212	288.54
371.593	293.51
371.974	308.2
372.355	283.57
372.736	314.07
373.117	291.7
373.498	288.99
373.879	285.83
374.26	315.88
374.641	292.83
375.021	282.89
375.402	303.23
375.783	314.3
376.163	299.61
376.544	327.63
376.925	297.58
377.305	278.14
377.686	321.76
378.066	305.03
378.447	305.26
378.827	300.29
379.208	313.4
379.588	324.02
379.968	307.52
380.349	305.94
380.729	306.39
381.109	303.45
381.489	325.6
381.87	305.49
382.25	317.01
382.63	313.4
383.01	319.72
383.39	323.34
383.77	307.29
384.15	325.15
384.53	338.93
384.91	329.44
385.29	319.05
385.67	318.82
386.049	336.67
386.429	324.69
386.809	341.19
387.189	332.83
387.568	325.15
387.948	345.49
388.328	327.63
388.707	331.93
389.087	317.24
389.466	336.67
389.846	345.49
390.225	335.32
390.605	325.37
390.984	329.44
391.363	334.64
391.743	347.07
392.122	338.25
392.501	359.72
392.881	346.39
393.26	343.45
393.639	348.2
394.018	362.66
394.397	359.27
394.776	339.61
395.155	353.17
395.534	359.5
395.913	347.07
396.292	359.95
396.671	365.82
397.05	352.49
397.429	338.71
397.808	376.44
398.186	385.94
398.565	365.6
398.944	377.35
399.323	367.18
399.701	369.89
400.08	378.7
400.458	385.71
400.837	372.15
401.215	373.06
401.594	379.38
401.972	382.09
402.351	377.8
402.729	394.52
403.107	390.46
403.486	386.84
403.864	394.75
404.242	399.72
404.62	395.88
404.999	395.88
405.377	399.04
405.755	397.24
406.133	405.14
406.511	394.98
406.889	405.14
407.267	411.7
407.645	417.8
408.023	418.25
408.401	411.7
408.779	417.12
409.156	432.49
409.534	428.19
409.912	449.66
410.29	426.16
410.667	445.82
411.045	438.14
411.422	425.94
411.8	447.86
412.178	459.83
412.555	459.83
412.933	452.83
413.31	451.25
413.687	449.89
414.065	462.77
414.442	479.27
414.819	446.05
415.197	461.19
415.574	454.41
415.951	473.84
416.328	483.11
416.705	465.48
417.082	459.38
417.46	489.21
417.837	508.19
418.214	489.89
418.591	494.41
418.967	484.46
419.344	495.99
419.721	498.7
420.098	497.35
420.475	535.99
420.852	516.55
421.228	521.07
421.605	504.35
421.982	516.55
422.358	526.5
422.735	538.7
423.111	543.45
423.488	521.75
423.864	533.73
424.241	537.57
424.617	556.55
424.994	553.39
425.37	533.73
425.746	537.12
426.123	551.58
426.499	542.54
426.875	548.42
427.251	571.47
427.627	573.28
428.003	571.92
428.379	577.8
428.756	581.86
429.132	582.77
429.507	587.29
429.883	602.43
430.259	604.69
430.635	593.39
431.011	616.89
431.387	615.31
431.763	617.12
432.138	615.08
432.514	650.34
432.89	641.75
433.265	662.77
433.641	619.83
434.016	637.23
434.392	644.01
434.767	662.31
435.143	664.8
435.518	684.23
435.894	686.04
436.269	685.14
436.644	688.3
437.02	694.63
437.395	676.55
437.77	693.27
438.145	685.36
438.52	722.42
438.895	722.42
439.271	733.95
439.646	716.55
440.021	740.5
440.395	740.73
440.77	732.82
441.145	756.77
441.52	739.15
441.895	782.99
442.27	779.15
442.645	777.56
443.019	775.08
443.394	790.45
443.769	772.37
444.143	752.71
444.518	792.25
444.892	794.96
445.267	775.98
445.641	758.36
446.016	803.55
446.39	804.23
446.764	824.57
447.139	799.71
447.513	824.57
447.887	815.76
448.262	815.3
448.636	832.03
449.01	840.16
449.384	819.37
449.758	825.92
450.132	825.7
450.506	863.89
450.88	853.72
451.254	867.96
451.628	888.52
452.002	874.28
452.376	890.1
452.75	887.17
453.123	888.52
453.497	911.35
453.871	923.78
454.244	928.29
454.618	935.75
454.992	943.89
455.365	935.75
455.739	955.86
456.112	956.99
456.486	945.7
456.859	957.9
457.232	1020.04
457.606	983.43
457.979	1008.07
458.352	1014.17
458.725	1027.95
459.099	1030.66
459.472	1041.96
459.845	1075.86
460.218	1056.88
460.591	1061.62
460.964	1068.4
461.337	1085.35
461.71	1102.3
462.083	1126.26
462.456	1131.23
462.829	1121.28
463.201	1140.49
463.574	1149.08
463.947	1151.34
464.32	1169.64
464.692	1214.84
465.065	1193.82
465.438	1196.08
465.81	1210.55
466.183	1245.12
466.555	1251.45
466.928	1258.91
467.3	1273.6
467.672	1266.14
468.045	1309.75
468.417	1331.45
468.789	1330.32
469.161	1327.61
469.534	1386.59
469.906	1359.02
470.278	1385.23
470.65	1401.28
471.022	1404.67
471.394	1432.91
471.766	1451.44
472.138	1464.1
472.51	1483.53
472.882	1492.57
473.253	1517.66
473.625	1515.62
473.997	1560.37
474.369	1579.8
474.74	1571.67
475.112	1626.13
475.484	1650.99
475.855	1660.7
476.227	1657.54
476.598	1698.44
476.97	1733.7
477.341	1745.67
477.713	1780.25
478.084	1775.5
478.455	1815.73
478.827	1855.05
479.198	1862.06
479.569	1888.5
479.94	1929.4
480.311	1936.4
480.682	1978.66
481.053	2009.4
481.424	2056.17
481.795	2051.88
482.166	2099.34
482.537	2061.6
482.908	2162.61
483.279	2179.56
483.65	2183.18
484.021	2236.73
484.391	2266.34
484.762	2297.3
485.133	2299.78
485.503	2319.9
485.874	2346.11
486.244	2387.92
486.615	2448.71
486.985	2427.69
487.356	2507.69
487.726	2493
488.097	2557.86
488.467	2542.94
488.837	2608.93
489.207	2612.77
489.578	2676.5
489.948	2660.68
490.318	2704.97
490.688	2725.76
491.058	2783.61
491.428	2821.8
491.798	2827.91
492.168	2852.31
492.538	2909.26
492.908	2903.16
493.278	2934.8
493.648	2928.02
494.017	2985.19
494.387	3043.04
494.757	3040.78
495.126	3048.24
495.496	3076.49
495.866	3128.91
496.235	3117.62
496.605	3169.59
496.974	3166.2
497.344	3200.1
497.713	3183.83
498.082	3276.93
498.452	3298.85
498.821	3266.31
499.19	3316.48
499.559	3360.1
499.928	3372.07
500.298	3370.72
500.667	3418.4
501.036	3403.03
501.405	3414.78
501.774	3437.83
502.143	3515.12
502.512	3497.94
502.88	3550.82
503.249	3533.2
503.618	3574.1
503.987	3589.92
504.356	3616.36
504.724	3619.75
505.093	3591.5
505.462	3643.48
505.83	3648.45
506.199	3699.3
506.567	3774.1
506.936	3781.33
507.304	3830.14
507.672	3803.93
508.041	3790.14
508.409	3890.02
508.777	3849.8
509.145	3918.27
509.514	3902
509.882	3887.77
510.25	3970.02
510.618	4012.51
510.986	4001.21
511.354	4037.82
511.722	4084.6
512.09	4069.68
512.458	4114.65
512.826	4119.62
513.193	4155.55
513.561	4196.91
513.929	4195.78
514.297	4257.25
514.664	4276.91
515.032	4254.76
515.4	4307.41
515.767	4315.32
516.135	4325.04
516.502	4364.36
516.869	4458.82
517.237	4471.48
517.604	4456.56
517.972	4519.16
518.339	4510.8
518.706	4542.89
519.073	4563
519.44	4548.99
519.808	4603.45
520.175	4580.4
520.542	4682.77
520.909	4708.31
521.276	4705.82
521.643	4763.22
522.009	4795.99
522.376	4794.86
522.743	4839.6
523.11	4892.71
523.477	4943.56
523.843	4939.49
524.21	5012.48
524.577	5047.51
524.943	5099.26
525.31	5061.07
525.676	5104.46
526.043	5167.51
526.409	5177.22
526.776	5248.63
527.142	5283.43
527.508	5305.35
527.874	5316.88
528.241	5364.56
528.607	5380.16
528.973	5443.88
529.339	5396.2
529.705	5442.07
530.071	5533.37
530.437	5545.12
530.803	5570.43
531.169	5612.47
531.535	5579.92
531.901	5654.5
532.267	5665.8
532.632	5729.98
532.998	5723.42
533.364	5701.73
533.73	5762.52
534.095	5787.38
534.461	5828.05
534.826	5853.36
535.192	5909.18
535.557	5883.87
535.923	5911.67
536.288	5962.51
536.653	6008.61
537.019	5993.92
537.384	6016.07
537.749	6014.71
538.114	6068.5
538.479	6114.37
538.845	6098.33
539.21	6131.77
539.575	6151.66
539.94	6229.85
540.305	6273.24
540.67	6222.17
541.034	6258.55
541.399	6320.92
541.764	6292.67
542.129	6350.75
542.494	6360.24
542.858	6400.69
543.223	6399.56
543.587	6444.31
543.952	6433.23
544.316	6459.45
544.681	6511.42
545.045	6537.64
545.41	6563.17
545.774	6661.7
546.138	6580.58
546.503	6682.04
546.867	6624.87
547.231	6702.15
547.595	6731.31
547.959	6792.55
548.324	6784.41
548.688	6768.59
549.052	6842.04
549.416	6867.35
549.779	6821.02
550.143	6915.48
550.507	6896.05
550.871	6913.22
551.235	6990.51
551.599	7010.85
551.962	7028.02
552.326	7019.21
552.689	7089.71
553.053	7038.87
553.417	7110.05
553.78	7193.67
554.143	7143.72
554.507	7243.61
554.87	7226.66
555.234	7334.45
555.597	7257.17
555.96	7321.8
556.323	7305.08
556.686	7374.9
557.05	7419.65
557.413	7424.17
557.776	7449.71
558.139	7540.32
558.502	7554.34
558.865	7532.41
559.228	7656.25
559.59	7646.31
559.953	7638.17
560.316	7760.88
560.679	7635.24
561.041	7757.95
561.404	7823.03
561.767	7845.63
562.129	7776.93
562.492	7896.93
562.854	7967.66
563.217	7902.12
563.579	8013.76
563.941	8016.24
564.304	8065.28
564.666	8103.93
565.028	8126.52
565.39	8175.79
565.753	8183.92
566.115	8164.71
566.477	8237.93
566.839	8267.31
567.201	8271.6
567.563	8353.86
567.925	8345.95
568.287	8334.43
568.648	8381.88
569.01	8465.72
569.372	8564.03
569.734	8528.77
570.095	8527.19
570.457	8584.82
570.819	8643.35
571.18	8613.97
571.542	8630.92
571.903	8669.79
572.265	8722.44
572.626	8702.33
572.987	8741.42
573.349	8766.96
573.71	8814.19
574.071	8861.87
574.432	8859.61
574.794	8919.72
575.155	8927.41
575.516	8907.52
575.877	8956.11
576.238	8929.89
576.599	8975.09
576.96	9014.86
577.32	9059.15
577.681	9029.32
578.042	9032.04
578.403	9114.29
578.763	9157.91
579.124	9141.86
579.485	9111.13
579.845	9159.26
580.206	9146.38
580.566	9185.7
580.927	9198.13
581.287	9255.99
581.648	9227.51
582.008	9280.84
582.368	9225.93
582.728	9251.92
583.089	9213.27
583.449	9269.77
583.809	9295.31
584.169	9303.44
584.529	9288.07
584.889	9339.37
585.249	9314.97
585.609	9223.22
585.969	9305.48
586.329	9297.34
586.688	9271.8
587.048	9259.83
587.408	9349.77
587.768	9380.05
588.127	9294.18
588.487	9303.22
588.846	9386.38
589.206	9299.37
589.565	9356.32
589.925	9295.08
590.284	9299.83
590.643	9375.98
591.003	9447.17
591.362	9426.15
591.721	9378.69
592.08	9406.94
592.44	9367.17
592.799	9411.91
593.158	9362.2
593.517	9426.83
593.876	9420.27
594.235	9367.85
594.593	9428.18
594.952	9465.47
595.311	9425.7
595.67	9413.27
596.029	9588.41
596.387	9458.24
596.746	9441.52
597.104	9426.83
597.463	9434.51
597.822	9575.3
598.18	9464.57
598.538	9406.04
598.897	9546.6
599.255	9463.89
599.613	9587.05
599.972	9478.58
600.33	9579.14
600.688	9445.81
601.046	9566.71
601.404	9557.67
601.762	9512.7
602.12	9540.27
602.478	9609.65
602.836	9594.28
603.194	9520.16
603.552	9593.83
603.91	9511.57
604.268	9612.36
604.625	9593.6
604.983	9554.28
605.341	9502.31
605.698	9686.93
606.056	9570.55
606.413	9552.25
606.771	9601.29
607.128	9647.39
607.485	9594.06
607.843	9630.66
608.2	9679.25
608.557	9756.31
608.914	9693.26
609.272	9697.56
609.629	9725.35
609.986	9768.97
610.343	9751.11
610.7	9828.63
611.057	9779.36
611.414	9742.53
611.771	9761.06
612.127	9759.25
612.484	9792.02
612.841	9845.35
613.198	9843.54
613.554	9837.21
613.911	9858.23
614.267	9824.11
614.624	9837.67
614.98	9827.95
615.337	9983.65
615.693	9885.35
616.05	9893.26
616.406	9897.55
616.762	9971.9
617.118	9945.68
617.475	9918.11
617.831	9907.72
618.187	9953.37
618.543	9990.88
618.899	9990.2
619.255	9990.2
619.611	10043.31
619.967	10059.13
620.323	10038.34
620.678	9978.23
621.034	9982.75
621.39	9979.36
621.746	10013.03
622.101	10065.23
622.457	10039.02
622.812	10028.17
623.168	10065.68
623.523	10101.61
623.879	10067.72
624.234	9959.7
624.589	10101.61
624.945	10071.56
625.3	10095.29
625.655	10070.65
626.01	10041.28
626.365	10097.32
626.72	10060.94
627.075	10088.05
627.43	10030.88
627.785	10003.08
628.14	10050.09
628.495	10086.47
628.85	10055.29
629.205	9964.67
629.559	10051.67
629.914	9997.66
630.269	9991.11
630.623	10103.42
630.978	9956.76
631.332	10111.56
631.687	10021.16
632.041	10006.7
632.396	9999.24
632.75	10011.22
633.104	10009.64
633.459	9988.62
633.813	9949.53
634.167	9919.02
634.521	9959.7
634.875	9993.59
635.229	9935.97
635.583	9895.29
635.937	9898.91
636.291	9938.68
636.645	9943.88
636.999	9874.95
637.352	9943.2
637.706	9848.06
638.06	9905.46
638.413	9870.66
638.767	9827.72
639.121	9882.86
639.474	9773.71
639.828	9818.68
640.181	9809.19
640.534	9847.83
640.888	9794.73
641.241	9824.56
641.594	9772.13
641.947	9774.39
642.301	9795.86
642.654	9846.25
643.007	9839.47
643.36	9792.47
643.713	9793.37
644.066	9790.89
644.419	9733.71
644.771	9693.71
645.124	9681.06
645.477	9578.01
645.83	9554.73
646.182	9567.84
646.535	9452.36
646.888	9483.55
647.24	9494.62
647.593	9547.73
647.945	9549.99
648.298	9418.47
648.65	9445.58
649.002	9425.25
649.355	9470.22
649.707	9428.86
650.059	9552.93
650.411	9698.23
650.763	9613.72
651.115	9717.89
651.467	9718.57
651.819	9698.91
652.171	9619.14
652.523	9727.39
652.875	9631.79
653.227	9636.09
653.578	9716.54
653.93	9698.01
654.282	9612.36
654.633	9660.49
654.985	9718.57
655.337	9659.36
655.688	9700.95
656.039	9762.64
656.391	9644
656.742	9714.96
657.094	9692.58
657.445	9691.91
657.796	9619.37
658.147	9630.21
658.498	9640.83
658.849	9681.51
659.2	9673.38
659.551	9630.21
659.902	9661.4
660.253	9720.61
660.604	9638.8
660.955	9681.28
661.306	9708.63
661.656	9632.92
662.007	9614.39
662.358	9643.55
662.708	9690.78
663.059	9686.03
663.409	9648.29
663.76	9661.85
664.11	9686.93
664.461	9712.7
664.811	9695.97
665.161	9646.71
665.511	9623.43
665.862	9698.23
666.212	9626.37
666.562	9690.78
666.912	9684.45
667.262	9613.94
667.612	9688.06
667.962	9651.46
668.312	9643.09
668.662	9697.33
669.011	9717.89
669.361	9593.83
669.711	9607.39
670.06	9661.62
670.41	9607.84
670.76	9580.5
671.109	9646.94
671.459	9614.62
671.808	9637.67
672.157	9636.54
672.507	9497.79
672.856	9587.95
673.205	9554.73
673.554	9620.5
673.904	9596.54
674.253	9649.87
674.602	9550.67
674.951	9481.97
675.3	9395.42
675.649	9569.42
675.998	9542.08
676.346	9534.4
676.695	9598.35
677.044	9451.01
677.393	9572.59
677.741	9546.6
678.09	9494.85
678.438	9473.38
678.787	9497.79
679.135	9487.62
679.484	9386.6
679.832	9386.83
680.181	9400.61
680.529	9406.26
680.877	9392.25
681.225	9385.7
681.573	9493.04
681.922	9374.85
682.27	9340.5
682.618	9363.1
682.966	9316.77
683.314	9315.64
683.661	9384.12
684.009	9196.33
684.357	9267.96
684.705	9210.34
685.053	9272.71
685.4	9255.53
685.748	9186.61
686.095	9209.88
686.443	9161.3
686.79	9151.36
687.138	9211.47
687.485	9155.2
687.832	9075.2
688.18	9068.87
688.527	8948.87
688.874	9000.85
689.221	8986.84
689.568	8980.29
689.915	8983.22
690.262	8946.84
690.609	8992.49
690.956	8856.22
691.303	8871.81
691.65	8848.76
691.997	8808.09
692.344	8735.77
692.69	8783
693.037	8841.53
693.383	8677.92
693.73	8762.67
694.077	8722.21
694.423	8670.92
694.769	8615.1
695.116	8636.34
695.462	8641.31
695.808	8629.56
696.155	8578.04
696.501	8515.21
696.847	8550.02
697.193	8523.35
697.539	8489.23
697.885	8440.19
698.231	8473.41
698.577	8392.05
698.923	8382.11
699.269	8307.08
699.614	8310.93
699.96	8317.93
700.306	8304.15
700.651	8286.75
700.997	8233.41
701.342	8194.54
701.688	8232.51
702.033	8156.35
702.379	8183.02
702.724	8089.24
703.069	8185.73
703.415	7995.68
703.76	8047.66
704.105	8089.24
704.45	7980.31
704.795	8004.72
705.14	8010.37
705.485	7922.46
705.83	7889.24
706.175	7931.95
706.52	7890.6
706.865	7868.23
707.209	7867.1
707.554	7821.67
707.899	7907.32
708.243	7776.25
708.588	7767.89
708.932	7722.01
709.277	7744.39
709.621	7712.98
709.966	7693.54
710.31	7677.04
710.654	7625.97
710.998	7640.21
711.342	7710.49
711.687	7631.62
712.031	7583.49
712.375	7536.48
712.719	7587.33
713.063	7524.28
713.407	7564.73
713.75	7516.82
714.094	7499.2
714.438	7496.03
714.782	7499.2
715.125	7485.64
715.469	7478.41
715.812	7417.62
716.156	7405.41
716.499	7420.78
716.843	7385.75
717.186	7414.23
717.53	7448.35
717.873	7432.08
718.216	7411.06
718.559	7427.56
718.902	7348.46
719.246	7335.13
719.589	7415.13
719.932	7330.84
720.275	7306.88
720.617	7277.51
720.96	7322.02
721.303	7309.6
721.646	7341.01
721.989	7262.14
722.331	7310.95
722.674	7258.07
723.016	7288.81
723.359	7259.65
723.701	7304.85
724.044	7202.71
724.386	7189.6
724.729	7229.82
725.071	7284.29
725.413	7212.2
725.755	7296.49
726.097	7182.14
726.439	7167.23
726.782	7161.35
727.124	7167
727.465	7129.26
727.807	7179.66
728.149	7162.48
728.491	7163.39
728.833	7168.13
729.175	7122.26
729.516	7143.95
729.858	7196.15
730.199	7169.71
730.541	7110.73
730.882	7141.69
731.224	7168.36
731.565	7174.23
731.906	7113.89
732.248	7155.48
732.589	7030.51
732.93	7077.29
733.271	7059.88
733.612	7105.31
733.953	7148.92
734.294	7120.67
734.635	7027.8
734.976	7133.33
735.317	7054.91
735.658	7074.57
735.999	7075.25
736.339	7132.65
736.68	7152.31
737.021	7089.04
737.361	7093.56
737.702	7116.15
738.042	7097.4
738.383	7054.46
738.723	7097.62
739.063	7071.18
739.404	7157.96
739.744	7041.81
740.084	7076.38
740.424	7051.07
740.764	7030.06
741.104	7072.09
741.444	7010.62
741.784	7018.76
742.124	7092.43
742.464	7054.46
742.804	7020.56
743.143	7027.34
743.483	7006.1
743.823	7013.56
744.162	7058.76
744.502	7027.34
744.841	7033.67
745.181	7075.48
745.52	7044.52
745.86	7060.79
746.199	7043.39
746.538	7033.45
746.877	7038.87
747.216	7040.45
747.556	7025.08
747.895	7046.78
748.234	6939.89
748.573	6974.92
748.911	7003.84
749.25	7031.19
749.589	6992.32
749.928	6970.62
750.267	7031.19
750.605	6981.02
750.944	6988.7
751.283	6923.84
751.621	6979.44
751.96	6903.73
752.298	6925.65
752.636	6896.95
752.975	6948.93
753.313	6885.2
753.651	6959.32
753.989	6896.27
754.327	6931.98
754.666	6893.56
755.004	6882.26
755.342	6861.47
755.679	6803.17
756.017	6797.97
756.355	6898.76
756.693	6809.27
757.031	6824.41
757.368	6775.6
757.706	6825.54
758.044	6795.71
758.381	6802.94
758.719	6747.58
759.056	6733.57
759.394	6774.47
759.731	6732.44
760.068	6721.81
760.405	6690.4
760.743	6630.52
761.08	6666
761.417	6660.8
761.754	6683.4
762.091	6559.56
762.428	6568.82
762.765	6563.4
763.102	6520.92
763.438	6541.03
763.775	6545.55
764.112	6479.11
764.449	6524.76
764.785	6507.58
765.122	6530.86
765.458	6406.79
765.795	6470.97
766.131	6421.71
766.467	6398.66
766.804	6354.59
767.14	6363.86
767.476	6350.53
767.812	6275.05
768.148	6315.5
768.485	6316.4
768.821	6202.96
769.157	6264.2
769.492	6267.59
769.828	6248.15
770.164	6174.03
770.5	6125.22
770.836	6179.46
771.171	6134.26
771.507	6110.76
771.842	6158.44
772.178	6095.16
772.513	6083.64
772.849	6101.94
773.184	6021.95
773.519	6033.47
773.855	5959.57
774.19	5993.7
774.525	5940.14
774.86	5923.64
775.195	5917.54
775.53	5875.51
775.865	5920.03
776.2	5815.17
776.535	5789.41
776.87	5802.74
777.205	5787.38
777.539	5757.77
777.874	5750.77
778.209	5692.46
778.543	5684.78
778.878	5704.67
779.212	5674.16
779.547	5656.53
779.881	5696.08
780.215	5581.73
780.55	5569.53
780.884	5586.25
781.218	5612.47
781.552	5539.47
781.886	5559.81
782.22	5503.32
782.554	5540.38
782.888	5431.68
783.222	5467.38
783.556	5419.25
783.889	5439.14
784.223	5362.3
784.557	5372.25
784.89	5388.29
785.224	5354.39
785.557	5296.54
785.891	5300.38
786.224	5297.9
786.558	5360.04
786.891	5280.95
787.224	5230.1
787.557	5192.36
787.891	5202.76
788.224	5234.17
788.557	5196.66
788.89	5158.92
789.223	5142.65
789.556	5147.17
789.888	5122.53
790.221	5116.89
790.554	5088.86
790.887	5084.57
791.219	5077.11
791.552	5046.38
791.884	5009.54
792.217	5000.28
792.549	5007.51
792.882	4995.76
793.214	4980.39
793.546	4977.91
793.879	4932.03
794.211	4889.32
794.543	4899.72
794.875	4903.33
795.207	4893.39
795.539	4914.18
795.871	4880.96
796.203	4824.69
796.535	4850.68
796.867	4842.54
797.198	4764.8
797.53	4778.14
797.862	4729.78
798.193	4765.03
798.525	4718.03
798.856	4721.19
799.188	4629.89
799.519	4692.26
799.85	4637.58
800.182	4663.11
800.513	4680.06
800.844	4659.04
801.175	4638.93
801.506	4656.78
801.837	4600.97
802.168	4571.81
802.499	4581.53
802.83	4610.46
803.161	4576.79
803.491	4517.35
803.822	4543.79
804.153	4534.08
804.483	4471.03
804.814	4507.64
805.145	4530.23
805.475	4505.83
805.805	4408.88
806.136	4405.72
806.466	4464.47
806.796	4431.03
807.126	4394.42
807.457	4461.08
807.787	4431.48
808.117	4359.39
808.447	4377.47
808.777	4405.04
809.107	4364.81
809.436	4358.04
809.766	4361.2
810.096	4320.3
810.426	4308.09
810.755	4332.95
811.085	4320.07
811.414	4306.06
811.744	4262.67
812.073	4275.1
812.403	4243.24
812.732	4260.18
813.061	4254.08
813.39	4216.12
813.719	4212.05
814.049	4213.18
814.378	4236.23
814.707	4200.3
815.036	4206.4
815.365	4180.86
815.693	4130.92
816.022	4169.11
816.351	4114.2
816.68	4123.69
817.008	4101.54
817.337	4104.03
817.665	4062.9
817.994	4082.34
818.322	4077.36
818.651	4059.29
818.979	4091.38
819.307	4064.26
819.636	4010.25
819.964	4006.86
820.292	4031.72
820.62	4024.26
820.948	4018.61
821.276	4019.96
821.604	4014.54
821.932	4053.64
822.259	4021.55
822.587	4017.25
822.915	4000.98
823.243	4066.07
823.57	4011.83
823.898	4011.15
824.225	3982.45
824.553	3992.4
824.88	4033.07
825.207	4007.31
825.535	4011.6
825.862	3998.95
826.189	3970.02
826.516	4028.33
826.843	4016.8
827.17	3989.91
827.497	4044.15
827.824	4003.47
828.151	4043.69
828.478	4041.89
828.805	4012.73
829.131	4033.98
829.458	3998.72
829.785	3964.6
830.111	3968.44
830.438	4051.15
830.764	3976.35
831.09	4000.98
831.417	4049.12
831.743	4001.66
832.069	3984.26
832.395	3982.68
832.722	4024.94
833.048	3953.98
833.374	3957.59
833.7	3959.18
834.026	3961.66
834.351	3992.62
834.677	3993.07
835.003	4005.05
835.329	3957.37
835.654	3948.78
835.98	3900.19
836.306	3944.03
836.631	3942.68
836.956	3927.76
837.282	3967.76
837.607	3943.36
837.932	3939.74
838.258	3948.78
838.583	3900.65
838.908	3914.43
839.233	3853.87
839.558	3879.63
839.883	3859.07
840.208	3881.44
840.533	3879.86
840.858	3868.56
841.182	3859.74
841.507	3879.4
841.832	3873.3
842.156	3829.91
842.481	3834.89
842.805	3810.03
843.13	3857.48
843.454	3814.77
843.778	3803.47
844.103	3783.36
844.427	3773.19
844.751	3799.86
845.075	3797.15
845.399	3785.17
845.723	3753.76
846.047	3735
846.371	3739.52
846.695	3709.92
847.019	3672.86
847.343	3696.13
847.666	3724.83
847.99	3653.65
848.313	3653.19
848.637	3669.47
848.96	3610.94
849.284	3643.7
849.607	3572.07
849.931	3618.85
850.254	3507.66
850.577	3547.66
850.9	3549.02
851.223	3548.34
851.546	3525.29
851.869	3481
852.192	3521.9
852.515	3494.78
852.838	3449.36
853.161	3457.27
853.483	3471.96
853.806	3431.73
854.129	3413.43
854.451	3431.73
854.774	3433.09
855.096	3372.75
855.419	3371.17
855.741	3397.16
856.063	3365.97
856.385	3363.94
856.708	3347.44
857.03	3323.03
857.352	3352.19
857.674	3360.32
857.996	3324.39
858.318	3326.42
858.64	3295.92
858.961	3299.08
859.283	3300.89
859.605	3289.59
859.926	3298.85
860.248	3300.21
860.57	3256.6
860.891	3275.8
861.212	3202.59
861.534	3240.55
861.855	3226.09
862.176	3217.5
862.498	3219.31
862.819	3223.6
863.14	3212.08
863.461	3226.09
863.782	3182.25
864.103	3199.42
864.424	3179.08
864.745	3175.24
865.065	3179.54
865.386	3168.24
865.707	3166.2
866.027	3160.1
866.348	3171.17
866.668	3122.14
866.989	3173.89
867.309	3164.85
867.63	3118.97
867.95	3132.98
868.27	3100.89
868.59	3142.7
868.91	3101.8
869.23	3122.59
869.55	3084.62
869.87	3116.03
870.19	3089.59
870.51	3095.47
870.83	3091.18
871.15	3082.36
871.469	3094.11
871.789	3070.39
872.109	3032.19
872.428	3022.7
872.748	3072.42
873.067	3106.32
873.386	3072.19
873.706	3032.87
874.025	3074
874.344	3031.29
874.663	3068.35
874.982	3045.98
875.301	3034.68
875.62	3027
875.939	3007.34
876.258	2999.2
876.577	2998.07
876.896	2977.28
877.214	2998.3
877.533	2996.94
877.852	3005.08
878.17	3029.48
878.489	2998.75
878.807	2985.64
879.125	2989.26
879.444	2996.04
879.762	2984.51
880.08	2933.67
880.398	2977.73
880.716	2951.97
881.034	2929.82
881.352	2915.36
881.67	2937.51
881.988	2920.56
882.306	2962.82
882.624	2948.35
882.941	2888.7
883.259	2911.75
883.577	2865.42
883.894	2886.89
884.212	2885.76
884.529	2879.2
884.846	2881.92
885.164	2817.96
885.481	2884.85
885.798	2871.75
886.115	2871.29
886.432	2873.55
886.75	2868.81
887.067	2835.59
887.383	2849.83
887.7	2793.56
888.017	2833.56
888.334	2833.33
888.651	2813.89
888.967	2809.15
889.284	2783.16
889.6	2797.17
889.917	2803.73
890.233	2788.58
890.55	2746.78
890.866	2781.81
891.182	2749.94
891.498	2781.13
891.815	2773.22
892.131	2770.05
892.447	2767.57
892.763	2733.22
893.079	2699.55
893.395	2671.07
893.71	2752.65
894.026	2695.93
894.342	2702.03
894.657	2665.88
894.973	2664.07
895.289	2664.07
895.604	2683.73
895.92	2643.5
896.235	2626.33
896.55	2633.56
896.865	2638.53
897.181	2639.44
897.496	2612.09
897.811	2596.27
898.126	2607.57
898.441	2597.86
898.756	2574.35
899.071	2540.68
899.386	2596.05
899.7	2557.4
900.015	2554.92
900.33	2500.91
900.644	2512.43
900.959	2521.93
901.273	2535.71
901.588	2558.53
901.902	2498.2
902.216	2500.23
902.531	2476.5
902.845	2482.83
903.159	2476.05
903.473	2480.8
903.787	2464.98
904.101	2444.64
904.415	2442.61
904.729	2461.59
905.042	2421.81
905.356	2438.09
905.67	2407.8
905.984	2423.85
906.297	2403.51
906.611	2411.87
906.924	2394.7
907.237	2376.62
907.551	2401.48
907.864	2366
908.177	2359.22
908.491	2356.51
908.804	2310.18
909.117	2313.8
909.43	2345.88
909.743	2268.37
910.056	2283.06
910.368	2299.33
910.681	2264.98
910.994	2278.99
911.307	2293.91
911.619	2272.67
911.932	2265.43
912.244	2219.56
912.557	2231.31
912.869	2249.16
913.181	2246
913.494	2229.05
913.806	2199.45
914.118	2213.91
914.43	2206
914.742	2166.45
915.054	2183.18
915.366	2176.4
915.678	2119
915.99	2108.6
916.302	2166
916.613	2152.9
916.925	2156.74
917.236	2129.62
917.548	2128.94
917.859	2109.28
918.171	2110.18
918.482	2082.16
918.794	2080.35
919.105	2076.06
919.416	2065.67
919.727	2038.32
920.038	2046.23
920.349	2032.45
920.66	2033.8
920.971	2031.09
921.282	2006.23
921.593	2013.92
921.903	2020.24
922.214	1984.31
922.525	2013.46
922.835	1993.58
923.146	1996.29
923.456	1976.4
923.767	1972.56
924.077	1966.23
924.387	1959.68
924.697	1951.54
925.008	1950.64
925.318	1941.83
925.628	1947.03
925.938	1891.66
926.248	1914.71
926.558	1917.2
926.867	1912.68
927.177	1892.11
927.487	1886.91
927.796	1870.42
928.106	1905.9
928.416	1873.81
928.725	1838.55
929.034	1861.83
929.344	1869.29
929.653	1829.06
929.962	1808.5
930.271	1820.02
930.581	1837.42
930.89	1810.76
931.199	1806.01
931.508	1776.41
931.817	1813.47
932.125	1777.31
932.434	1786.13
932.743	1765.56
933.051	1775.28
933.36	1774.37
933.669	1765.11
933.977	1757.65
934.286	1749.52
934.594	1755.62
934.902	1712.68
935.21	1705.68
935.519	1740.25
935.827	1739.35
936.135	1735.96
936.443	1696.64
936.751	1695.28
937.059	1690.76
937.367	1703.19
937.674	1658.67
937.982	1649.63
938.29	1659.12
938.597	1659.12
938.905	1648.5
939.213	1662.96
939.52	1639.24
939.827	1689.63
940.135	1627.94
940.442	1639.24
940.749	1653.7
941.056	1645.11
941.363	1589.52
941.67	1593.81
941.977	1620.71
942.284	1593.14
942.591	1609.41
942.898	1570.09
943.205	1558.56
943.511	1584.77
943.818	1569.63
944.125	1555.85
944.431	1560.14
944.738	1548.84
945.044	1545.91
945.35	1521.27
945.657	1515.17
945.963	1515.17
946.269	1504.55
946.575	1546.58
946.881	1503.87
947.187	1502.29
947.493	1490.31
947.799	1528.05
948.105	1489.18
948.41	1455.51
948.716	1477.43
949.022	1465.68
949.327	1453.7
949.633	1451.22
949.938	1494.38
950.244	1431.11
950.549	1451.22
950.854	1423.2
951.16	1411.67
951.465	1458
951.77	1432.24
952.075	1397.89
952.38	1430.2
952.685	1394.72
952.99	1432.69
953.294	1389.98
953.599	1379.81
953.904	1380.26
954.209	1423.87
954.513	1399.92
954.818	1392.92
955.122	1356.76
955.426	1376.19
955.731	1341.84
956.035	1385.68
956.339	1360.83
956.643	1383.2
956.948	1354.5
957.252	1331.45
957.556	1329.87
957.86	1346.81
958.163	1330.09
958.467	1320.15
958.771	1330.77
959.075	1336.19
959.378	1337.78
959.682	1327.83
959.985	1340.49
960.289	1302.07
960.592	1302.97
960.896	1272.24
961.199	1295.06
961.502	1283.09
961.805	1283.77
962.108	1283.31
962.411	1279.47
962.714	1252.35
963.017	1255.97
963.32	1275.63
963.623	1278.12
963.926	1238.34
964.228	1265.46
964.531	1231.56
964.833	1254.61
965.136	1229.98
965.438	1204.67
965.741	1222.3
966.043	1208.51
966.345	1175.29
966.648	1225.46
966.95	1212.13
967.252	1198.12
967.554	1193.6
967.856	1192.92
968.158	1187.27
968.46	1206.48
968.761	1185.01
969.063	1176.88
969.365	1167.61
969.666	1169.87
969.968	1164.45
970.269	1151.11
970.571	1162.86
970.872	1154.96
971.174	1170.1
971.475	1138.01
971.776	1157.67
972.077	1138.68
972.378	1112.47
972.679	1123.32
972.98	1144.33
973.281	1119.93
973.582	1139.81
973.883	1117.89
974.183	1089.87
974.484	1088.52
974.785	1101.85
975.085	1105.24
975.386	1091.23
975.686	1095.52
975.986	1072.47
976.287	1079.93
976.587	1076.77
976.887	1084.9
977.187	1094.84
977.487	1074.28
977.787	1044
978.087	1090.55
978.387	1064.34
978.687	1071.79
978.987	1055.52
979.286	1051.68
979.586	1057.33
979.885	1020.27
980.185	1051.91
980.484	1026.15
980.784	1045.58
981.083	1032.47
981.382	1028.41
981.682	1010.1
981.981	1017.78
982.28	1012.36
982.579	1034.28
982.878	988.86
983.177	1015.3
983.475	992.7
983.774	1005.13
984.073	987.28
984.372	977.79
984.67	1003.1
984.969	969.88
985.267	952.93
985.566	949.76
985.864	985.24
986.162	954.51
986.461	968.07
986.759	952.47
987.057	950.89
987.355	949.09
987.653	957.22
987.951	957.67
988.249	938.92
988.547	935.3
988.844	929.42
989.142	942.08
989.44	932.36
989.737	928.97
990.035	934.17
990.332	941.85
990.63	925.13
990.927	917
991.224	897.79
991.521	890.1
991.819	890.33
992.116	919.71
992.413	909.76
992.71	884.23
993.006	889.2
993.303	897.34
993.6	885.36
993.897	896.21
994.193	875.19
994.49	872.7
994.787	863.89
995.083	872.03
995.379	867.51
995.676	868.18
995.972	850.78
996.268	861.86
996.565	866.6
996.861	860.05
997.157	861.63
997.453	848.3
997.749	858.01
998.044	856.66
998.34	865.92
998.636	841.74
998.932	829.99
999.227	806.49
999.523	811.01
999.818	817.79
1000.114	829.09
1000.409	804.23
1000.704	799.03
1001	800.39
1001.295	798.81
1001.59	813.95
1001.885	804.23
1002.18	804.23
1002.475	799.48
1002.77	814.17
1003.065	797.9
1003.359	792.03
1003.654	811.91
1003.949	772.59
1004.243	761.75
1004.538	788.64
1004.832	782.76
1005.127	766.94
1005.421	772.82
1005.715	765.81
1006.009	741.63
1006.304	746.15
1006.598	745.7
1006.892	767.4
1007.186	731.92
1007.48	769.88
1007.773	724.01
1008.067	720.84
1008.361	725.59
1008.655	735.31
1008.948	740.73
1009.242	712.71
1009.535	725.36
1009.829	688.08
1010.122	702.76
1010.415	702.76
1010.708	724.01
1011.001	717.45
1011.295	720.16
1011.588	706.15
1011.881	692.37
1012.173	705.25
1012.466	715.42
1012.759	730.79
1013.052	694.85
1013.344	692.37
1013.637	692.59
1013.93	684.46
1014.222	669.77
1014.514	677.23
1014.807	656.21
1015.099	681.52
1015.391	655.31
1015.683	651.92
1015.976	690.11
1016.268	670
1016.56	664.8
1016.851	650.79
1017.143	654.63
1017.435	679.94
1017.727	655.99
1018.018	648.3
1018.31	663.22
1018.602	652.6
1018.893	640.17
1019.185	652.6
1019.476	644.91
1019.767	638.13
1020.058	629.32
1020.35	632.71
1020.641	646.27
1020.932	608.3
1021.223	620.28
1021.514	584.8
1021.804	602.2
1022.095	612.6
1022.386	615.53
1022.677	614.4
1022.967	601.75
1023.258	600.62
1023.548	599.72
1023.839	566.5
1024.129	601.75
1024.419	598.81
1024.709	605.14
1025	587.74
1025.29	593.84
1025.58	589.55
1025.87	596.55
1026.16	568.76
1026.449	594.07
1026.739	573.05
1027.029	574.86
1027.319	571.47
1027.608	559.72
1027.898	576.67
1028.187	551.13
1028.477	554.97
1028.766	558.14
1029.055	578.02
1029.344	580.73
1029.634	530.11
1029.923	558.36
1030.212	561.3
1030.501	547.97
1030.79	568.08
1031.078	551.13
1031.367	535.54
1031.656	555.42
1031.945	525.82
1032.233	525.37
1032.522	527.18
1032.81	530.11
1033.099	551.81
1033.387	514.52
1033.675	518.81
1033.963	526.27
1034.251	525.14
1034.54	546.84
1034.828	535.31
1035.116	522.88
1035.403	542.54
1035.691	514.75
1035.979	501.64
1036.267	519.04
1036.554	515.65
1036.842	494.18
1037.129	508.19
1037.417	502.32
1037.704	508.19
1037.992	511.58
1038.279	486.72
1038.566	508.64
1038.853	508.64
1039.14	508.64
