Data from mousepad_grey_FLMS001491_00021.txt Node
Date: Wed Feb 08 14:29:11 GMT 2017
User: dcchb
Spectrometer: FLMS00149
Trigger mode: 0
Integration Time (sec): 2.000000E-2
Scans to average: 10
Electric dark correction enabled: true
Nonlinearity correction enabled: false
Boxcar width: 0
XAxis mode: Wavelengths
Number of Pixels in Spectrum: 2048
>>>>>Begin Spectral Data<<<<<
341.393	-0.85
341.776	-0.85
342.16	-0.85
342.543	-78.36
342.927	-80.85
343.31	-70
343.693	-69.09
344.077	-64.35
344.46	-57.34
344.843	-49.43
345.226	-31.58
345.61	-24.58
345.993	-36.1
346.376	-11.47
346.759	33.5
347.142	25.37
347.525	37.57
347.908	63.33
348.291	64.69
348.674	75.76
349.057	113.73
349.44	124.8
349.823	131.58
350.206	149.43
350.588	193.05
350.971	201.86
351.354	206.83
351.737	213.84
352.119	210.9
352.502	255.64
352.884	278.47
353.267	274.17
353.65	262.42
354.032	290.9
354.414	283.66
354.797	313.04
355.179	313.04
355.562	281.18
355.944	299.03
356.326	315.98
356.709	325.02
357.091	336.09
357.473	335.64
357.855	312.82
358.238	340.61
358.62	341.29
359.002	327.28
359.384	319.37
359.766	311.46
360.148	336.32
360.53	314.62
360.912	332.7
361.294	324.57
361.676	311.91
362.057	307.39
362.439	306.26
362.821	297
363.203	294.74
363.584	319.14
363.966	299.94
364.348	309.2
364.729	289.54
365.111	306.49
365.493	283.89
365.874	299.94
366.256	306.04
366.637	314.62
367.019	284.57
367.4	295.19
367.781	287.51
368.163	311.01
368.544	302.87
368.925	283.21
369.306	310.56
369.688	283.89
370.069	273.95
370.45	299.71
370.831	302.65
371.212	281.18
371.593	311.01
371.974	286.83
372.355	286.38
372.736	293.83
373.117	284.57
373.498	299.48
373.879	297.9
374.26	275.76
374.641	298.35
375.021	296.09
375.402	311.01
375.783	286.15
376.163	302.42
376.544	297.22
376.925	309.2
377.305	294.96
377.686	309.65
378.066	309.65
378.447	322.08
378.827	294.74
379.208	287.28
379.588	308.75
379.968	320.95
380.349	323.21
380.729	300.84
381.109	314.17
381.489	307.39
381.87	308.75
382.25	326.38
382.63	318.47
383.01	313.49
383.39	302.87
383.77	315.53
384.15	337.67
384.53	335.41
384.91	323.44
385.29	332.25
385.67	333.83
386.049	329.77
386.429	306.49
386.809	320.95
387.189	334.06
387.568	327.05
387.948	344.68
388.328	336.77
388.707	312.59
389.087	335.19
389.466	322.76
389.846	353.49
390.225	329.31
390.605	333.16
390.984	352.36
391.363	367.73
391.743	345.81
392.122	370.44
392.501	350.1
392.881	344.45
393.26	343.32
393.639	354.85
394.018	351.91
394.397	357.56
394.776	348.52
395.155	339.71
395.534	361.4
395.913	364.57
396.292	351.46
396.671	364.34
397.05	354.85
397.429	362.08
397.808	357.11
398.186	362.31
398.565	358.47
398.944	361.18
399.323	376.77
399.701	370.67
400.08	353.49
400.458	374.74
400.837	387.39
401.215	386.94
401.594	365.7
401.972	371.8
402.351	377.22
402.729	383.55
403.107	372.02
403.486	371.57
403.864	393.49
404.242	395.3
404.62	393.72
404.999	403.44
405.377	398.46
405.755	399.82
406.133	391.46
406.511	390.78
406.889	394.62
407.267	405.92
407.645	417.22
408.023	433.49
408.401	423.1
408.779	422.87
409.156	417.67
409.534	426.26
409.912	428.07
410.29	424.68
410.667	440.95
411.045	451.34
411.422	434.62
411.8	442.3
412.178	446.6
412.555	447.73
412.933	463.77
413.31	458.35
413.687	465.58
414.065	468.52
414.442	473.49
414.819	480.5
415.197	456.77
415.574	488.63
415.951	476.2
416.328	480.04
416.705	472.81
417.082	480.72
417.46	496.77
417.837	489.99
418.214	471.23
418.591	487.05
418.967	490.21
419.344	497.44
419.721	487.28
420.098	498.12
420.475	509.2
420.852	480.95
421.228	516.88
421.605	494.05
421.982	501.51
422.358	520.49
422.735	532.7
423.111	510.33
423.488	518.46
423.864	507.84
424.241	526.37
424.617	554.39
424.994	529.76
425.37	542.87
425.746	559.59
426.123	543.77
426.499	538.35
426.875	556.2
427.251	550.78
427.627	566.37
428.003	557.1
428.379	560.27
428.756	566.82
429.132	577.22
429.507	596.88
429.883	575.18
430.259	586.48
430.635	600.27
431.011	596.42
431.387	619.02
431.763	604.56
432.138	619.25
432.514	590.1
432.89	616.76
433.265	628.97
433.641	633.03
434.016	640.27
434.392	652.24
434.767	654.5
435.143	666.03
435.518	648.4
435.894	644.11
436.269	676.65
436.644	668.06
437.02	670.32
437.395	688.63
437.77	696.08
438.145	704.9
438.52	705.35
438.895	712.58
439.271	721.39
439.646	720.04
440.021	713.94
440.395	714.84
440.77	725.91
441.145	719.13
441.52	731.11
441.895	718.23
442.27	718.68
442.645	742.86
443.019	749.64
443.394	749.42
443.769	729.75
444.143	731.79
444.518	765.91
444.892	751.9
445.267	767.49
445.641	780.83
446.016	786.93
446.39	808.4
446.764	816.76
447.139	793.93
447.513	790.77
447.887	802.07
448.262	802.3
448.636	802.07
449.01	824.89
449.384	817.89
449.758	823.09
450.132	828.51
450.506	845.23
450.88	857.89
451.254	846.81
451.628	852.46
452.002	856.53
452.376	860.37
452.75	871.22
453.123	889.98
453.497	876.42
453.871	896.76
454.244	873.48
454.618	889.75
454.992	910.54
455.365	927.72
455.739	950.99
456.112	961.61
456.486	955.74
456.859	948.28
457.232	965.23
457.606	940.37
457.979	983.76
458.352	962.29
458.725	992.35
459.099	1000.71
459.472	1007.26
459.845	1010.65
460.218	1033.25
460.591	1024.21
460.964	1041.61
461.337	1061.27
461.71	1078.22
462.083	1085
462.456	1072.8
462.829	1107.15
463.201	1085.9
463.574	1100.59
463.947	1118.45
464.32	1148.5
464.692	1139.01
465.065	1163.87
465.438	1158.9
465.81	1175.62
466.183	1190.31
466.555	1223.3
466.928	1205.45
467.3	1241.38
467.672	1240.48
468.045	1249.97
468.417	1260.59
468.789	1244.54
469.161	1290.64
469.534	1309.85
469.906	1334.03
470.278	1362.73
470.65	1335.39
471.022	1354.6
471.394	1368.61
471.766	1389.62
472.138	1390.3
472.51	1434.37
472.882	1456.29
473.253	1454.26
473.625	1472.11
473.997	1496.51
474.369	1516.17
474.74	1522.95
475.112	1563.41
475.484	1557.53
475.855	1591.43
476.227	1589.85
476.598	1623.29
476.97	1657.87
477.341	1698.09
477.713	1707.58
478.084	1737.41
478.455	1732.21
478.827	1748.03
479.198	1772.44
479.569	1796.62
479.94	1814.25
480.311	1866.67
480.682	1894.02
481.053	1935.6
481.424	1957.29
481.795	1951.87
482.166	1955.26
482.537	2016.73
482.908	2023.28
483.279	2090.85
483.65	2099.21
484.021	2132.2
484.391	2116.84
484.762	2157.51
485.133	2211.07
485.503	2209.04
485.874	2274.57
486.244	2269.38
486.615	2314.35
486.985	2312.54
487.356	2369.94
487.726	2369.49
488.097	2453.1
488.467	2446.77
488.837	2466.66
489.207	2501.01
489.578	2500.56
489.948	2507.11
490.318	2604.06
490.688	2587.33
491.058	2616.94
491.428	2663.04
491.798	2659.65
492.168	2726.31
492.538	2742.81
492.908	2762.47
493.278	2800.66
493.648	2752.07
494.017	2833.43
494.387	2845.63
494.757	2868.23
495.126	2920.66
495.496	2905.52
495.866	2929.7
496.235	2974.44
496.605	2978.96
496.974	2991.62
497.344	3014.21
497.713	3068
498.082	3075.91
498.452	3099.64
498.821	3087.43
499.19	3152.06
499.559	3169.46
499.928	3167.43
500.298	3205.85
500.667	3195.23
501.036	3230.03
501.405	3251.72
501.774	3257.6
502.143	3299.4
502.512	3302.79
502.88	3313.42
503.249	3311.61
503.618	3359.74
503.987	3374.43
504.356	3366.75
504.724	3366.52
505.093	3424.6
505.462	3430.93
505.83	3460.76
506.199	3478.61
506.567	3507.76
506.936	3545.73
507.304	3572.17
507.672	3573.97
508.041	3585.05
508.409	3613.52
508.777	3679.06
509.145	3703.24
509.514	3650.36
509.882	3694.42
510.25	3718.6
510.618	3754.08
510.986	3757.92
511.354	3838.6
511.722	3822.33
512.09	3800.63
512.458	3825.94
512.826	3863.91
513.193	3916.79
513.561	3930.35
513.929	3945.04
514.297	3978.03
514.664	3995.43
515.032	4038.37
515.4	4032.49
515.767	4048.09
516.135	4076.79
516.502	4025.94
516.869	4133.96
517.237	4179.16
517.604	4150.68
517.972	4206.5
518.339	4162.21
518.706	4217.12
519.073	4213.05
519.44	4260.51
519.808	4352.48
520.175	4328.76
520.542	4402.2
520.909	4385.93
521.276	4391.35
521.643	4415.76
522.009	4496.44
522.376	4476.55
522.743	4484.91
523.11	4564.68
523.477	4575.98
523.843	4611.69
524.21	4684.68
524.577	4752.25
524.943	4675.64
525.31	4713.83
525.676	4738.46
526.043	4820.49
526.409	4850.78
526.776	4853.71
527.142	4903.2
527.508	4919.48
527.874	4954.73
528.241	4982.07
528.607	4978.23
528.973	5029.53
529.339	5044.22
529.705	5107.27
530.071	5118.79
530.437	5115.18
530.803	5127.15
531.169	5205.8
531.535	5248.73
531.901	5247.15
532.267	5258.9
532.632	5269.52
532.998	5300.03
533.364	5348.84
533.73	5375.06
534.095	5408.95
534.461	5415.06
534.826	5462.06
535.192	5487.82
535.557	5516.75
535.923	5478.56
536.288	5502.96
536.653	5563.75
537.019	5565.79
537.384	5625.9
537.749	5660.25
538.114	5685.56
538.479	5648.72
538.845	5695.27
539.21	5716.74
539.575	5722.62
539.94	5815.27
540.305	5776.85
540.67	5767.59
541.034	5867.47
541.399	5868.38
541.764	5894.36
542.129	5900.92
542.494	5930.52
542.858	5970.75
543.223	5925.1
543.587	6008.94
543.952	5983.4
544.316	6014.14
544.681	6049.61
545.045	6082.16
545.41	6102.49
545.774	6142.49
546.138	6124.19
546.503	6161.48
546.867	6189.5
547.231	6229.05
547.595	6266.78
547.959	6264.07
548.324	6251.64
548.688	6305.65
549.052	6388.36
549.416	6339.1
549.779	6311.98
550.143	6392.2
550.507	6423.16
550.871	6445.99
551.235	6463.39
551.599	6474.24
551.962	6484.86
552.326	6528.25
552.689	6521.01
553.053	6557.4
553.417	6553.33
553.78	6695.25
554.143	6643.05
554.507	6662.71
554.87	6703.16
555.234	6748.81
555.597	6714.91
555.96	6751.97
556.323	6863.6
556.686	6811.63
557.05	6843.72
557.413	6862.47
557.776	6845.98
558.139	6992.64
558.502	6951.74
558.865	7016.14
559.228	7026.54
559.59	7002.36
559.953	7072.86
560.316	7132.75
560.679	7140.43
561.041	7120.55
561.404	7223.6
561.767	7239.87
562.129	7222.24
562.492	7244.61
562.854	7326.64
563.217	7297.04
563.579	7330.71
563.941	7402.8
564.304	7456.13
564.666	7457.94
565.028	7441.67
565.39	7555.79
565.753	7566.86
566.115	7563.02
566.477	7656.58
566.839	7593.3
567.201	7655.45
567.563	7669.46
567.925	7807.53
568.287	7744.94
568.648	7739.74
569.01	7824.26
569.372	7874.2
569.734	7771.15
570.095	7912.16
570.457	7957.14
570.819	7920.75
571.18	7972.5
571.542	8002.33
571.903	8031.71
572.265	8025.61
572.626	8061.09
572.987	8126.4
573.349	8133.4
573.71	8120.07
574.071	8155.55
574.432	8245.26
574.794	8259.5
575.155	8260.86
575.516	8238.26
575.877	8258.37
576.238	8272.83
576.599	8293.4
576.96	8339.72
577.32	8282.32
577.681	8373.85
578.042	8388.76
578.403	8405.94
578.763	8428.76
579.124	8455.2
579.485	8446.39
579.845	8506.73
580.206	8448.42
580.566	8456.33
580.927	8453.85
581.287	8527.06
581.648	8442.09
582.008	8512.6
582.368	8539.72
582.728	8513.05
583.089	8503.34
583.449	8497.23
583.809	8568.64
584.169	8579.04
584.529	8520.06
584.889	8603.22
585.249	8551.7
585.609	8544.01
585.969	8675.31
586.329	8614.29
586.688	8622.88
587.048	8551.7
587.408	8573.16
587.768	8620.62
588.127	8616.33
588.487	8555.31
588.846	8610.45
589.206	8571.13
589.565	8590.79
589.925	8585.59
590.284	8604.12
590.643	8570.23
591.003	8650
591.362	8668.76
591.721	8661.07
592.08	8665.82
592.44	8698.36
592.799	8677.12
593.158	8650
593.517	8648.87
593.876	8699.26
594.235	8657.23
594.593	8702.88
594.952	8666.27
595.311	8653.84
595.67	8705.82
596.029	8716.66
596.387	8711.01
596.746	8746.72
597.104	8685.03
597.463	8706.49
597.822	8730.22
598.18	8698.58
598.538	8680.28
598.897	8802.31
599.255	8685.03
599.613	8755.08
599.972	8788.53
600.33	8752.59
600.688	8729.54
601.046	8726.15
601.404	8757.11
601.762	8853.61
602.12	8830.56
602.478	8765.25
602.836	8775.87
603.194	8742.2
603.552	8806.83
603.91	8750.79
604.268	8782.88
604.625	8785.14
604.983	8784.46
605.341	8771.35
605.698	8849.77
606.056	8837.34
606.413	8830.11
606.771	8851.12
607.128	8855.42
607.485	8768.41
607.843	8809.99
608.2	8941.52
608.557	8965.47
608.914	8801.18
609.272	8895.19
609.629	8918.92
609.986	8923.66
610.343	8904.68
610.7	8992.36
611.057	8896.77
611.414	8919.14
611.771	9000.27
612.127	8960.72
612.484	9006.37
612.841	8998.01
613.198	8986.26
613.554	8945.81
613.911	9070.1
614.267	8986.94
614.624	9016.32
614.98	9044.34
615.337	9065.81
615.693	9048.41
616.05	9044.11
616.406	9074.17
616.762	9069.87
617.118	9104.22
617.475	9053.38
617.831	9104.9
618.187	9088.63
618.543	9145.35
618.899	9161.17
619.255	9165.01
619.611	9125.47
619.967	9158.46
620.323	9193.04
620.678	9129.31
621.034	9118.23
621.39	9108.97
621.746	9142.64
622.101	9238.01
622.457	9102.19
622.812	9157.33
623.168	9167.05
623.523	9200.27
623.879	9270.55
624.234	9198.68
624.589	9238.46
624.945	9182.64
625.3	9214.73
625.655	9208.63
626.01	9160.72
626.365	9208.63
626.72	9207.72
627.075	9204.33
627.43	9135.64
627.785	9188.97
628.14	9224.22
628.495	9208.18
628.85	9161.4
629.205	9188.97
629.559	9195.52
629.914	9129.31
630.269	9205.69
630.623	9170.66
630.978	9110.78
631.332	9199.81
631.687	9207.27
632.041	9147.84
632.396	9181.96
632.75	9129.53
633.104	9150.78
633.459	9105.81
633.813	9078.46
634.167	9086.6
634.521	9141.96
634.875	9139.48
635.229	9104.68
635.583	8993.04
635.937	9100.38
636.291	9105.13
636.645	9079.14
636.999	9062.87
637.352	9098.57
637.706	8962.08
638.06	9094.05
638.413	9035.75
638.767	8962.08
639.121	9015.86
639.474	8959.37
639.828	8936.32
640.181	9013.38
640.534	8997.33
640.888	8948.3
641.241	8951.91
641.594	8951.23
641.947	9020.38
642.301	8985.58
642.654	8998.24
643.007	8965.24
643.36	8950.56
643.713	8984.9
644.066	8974.28
644.419	8876.89
644.771	8899.71
645.124	8784.23
645.477	8707.62
645.83	8710.34
646.182	8706.27
646.535	8659.26
646.888	8672.82
647.24	8630.79
647.593	8695.42
647.945	8746.27
648.298	8593.28
648.65	8618.81
649.002	8577.01
649.355	8713.05
649.707	8610.23
650.059	8722.31
650.411	8835.98
650.763	8779.94
651.115	8890.9
651.467	8909.88
651.819	8885.7
652.171	8858.58
652.523	8826.27
652.875	8834.4
653.227	8814.97
653.578	8932.7
653.93	8837.56
654.282	8798.92
654.633	8840.5
654.985	8793.05
655.337	8840.5
655.688	8869.2
656.039	8922.31
656.391	8772.48
656.742	8798.7
657.094	8870.33
657.445	8881.63
657.796	8809.54
658.147	8801.63
658.498	8777.9
658.849	8843.21
659.2	8819.49
659.551	8795.31
659.902	8866.04
660.253	8867.62
660.604	8866.04
660.955	8733.16
661.306	8836.66
661.656	8827.4
662.007	8821.75
662.358	8857.68
662.708	8849.32
663.059	8821.52
663.409	8792.37
663.76	8819.71
664.11	8821.75
664.461	8878.92
664.811	8842.31
665.161	8856.55
665.511	8791.24
665.862	8806.6
666.212	8848.86
666.562	8842.08
666.912	8877.34
667.262	8814.06
667.612	8780.62
667.962	8819.94
668.312	8819.03
668.662	8889.31
669.011	8841.63
669.361	8781.07
669.711	8782.2
670.06	8773.39
670.41	8735.42
670.76	8779.71
671.109	8777.45
671.459	8785.59
671.808	8772.48
672.157	8798.7
672.507	8694.52
672.856	8670.56
673.205	8690
673.554	8795.76
673.904	8749.66
674.253	8797.79
674.602	8786.49
674.951	8642.09
675.3	8538.14
675.649	8757.34
675.998	8693.61
676.346	8678.47
676.695	8741.52
677.044	8670.11
677.393	8675.99
677.741	8699.04
678.09	8672.37
678.438	8537.91
678.787	8659.26
679.135	8713.5
679.484	8588.31
679.832	8658.36
680.181	8577.68
680.529	8680.73
680.877	8574.97
681.225	8582.88
681.573	8591.47
681.922	8524.35
682.27	8501.75
682.618	8535.43
682.966	8519.38
683.314	8541.98
683.661	8511.92
684.009	8412.72
684.357	8410.68
684.705	8382.21
685.053	8429.89
685.4	8403
685.748	8378.14
686.095	8376.56
686.443	8314.41
686.79	8327.97
687.138	8357.12
687.485	8339.27
687.832	8301.08
688.18	8287.07
688.527	8277.58
688.874	8272.61
689.221	8236.45
689.568	8256.56
689.915	8212.04
690.262	8195.1
690.609	8186.96
690.956	8101.99
691.303	8113.74
691.65	8101.54
691.997	8076.91
692.344	8032.39
692.69	7991.26
693.037	7949.68
693.383	7996.68
693.73	7951.49
694.077	7888.21
694.423	7945.16
694.769	7889.57
695.116	7863.35
695.462	7845.5
695.808	7808.21
696.155	7816.12
696.501	7767.99
696.847	7728.67
697.193	7723.92
697.539	7801.89
697.885	7750.59
698.231	7612.96
698.577	7657.93
698.923	7566.41
699.269	7575.45
699.614	7524.6
699.96	7596.24
700.306	7499.97
700.651	7487.54
700.997	7452.06
701.342	7471.05
701.688	7406.42
702.033	7473.31
702.379	7376.13
702.724	7391.5
703.069	7351.95
703.415	7266.76
703.76	7285.06
704.105	7301.79
704.45	7239.19
704.795	7234.22
705.14	7238.28
705.485	7154.9
705.83	7178.4
706.175	7173.43
706.52	7144.05
706.865	7073.32
707.209	7185.86
707.554	7105.86
707.899	7104.95
708.243	7051.62
708.588	7029.02
708.932	7021.79
709.277	7001.23
709.621	6983.38
709.966	6952.64
710.31	6906.09
710.654	6911.29
710.998	6950.38
711.342	6927.56
711.687	6904.28
712.031	6876.26
712.375	6815.02
712.719	6896.82
713.063	6821.35
713.407	6838.07
713.75	6826.32
714.094	6803.49
714.438	6768.47
714.782	6808.24
715.125	6709.26
715.469	6805.75
715.812	6751.97
716.156	6736.6
716.499	6762.36
716.843	6728.24
717.186	6700.9
717.53	6732.99
717.873	6736.83
718.216	6720.56
718.559	6757.84
718.902	6629.71
719.246	6686.21
719.589	6632.65
719.932	6636.27
720.275	6653.67
720.617	6639.66
720.96	6662.93
721.303	6652.99
721.646	6653.21
721.989	6601.92
722.331	6634.01
722.674	6627
723.016	6624.29
723.359	6642.82
723.701	6636.04
724.044	6605.08
724.386	6528.92
724.729	6603.27
725.071	6578.41
725.413	6564.86
725.755	6566.89
726.097	6526.44
726.439	6516.04
726.782	6574.35
727.124	6554.01
727.465	6538.42
727.807	6502.94
728.149	6519.43
728.491	6515.59
728.833	6532.09
729.175	6482.15
729.516	6506.55
729.858	6518.3
730.199	6585.19
730.541	6535.7
730.882	6466.55
731.224	6564.86
731.565	6534.8
731.906	6516.04
732.248	6481.02
732.589	6494.35
732.93	6481.92
733.271	6467.46
733.612	6464.97
733.953	6494.8
734.294	6507.23
734.635	6481.69
734.976	6509.49
735.317	6465.42
735.658	6499.09
735.999	6457.06
736.339	6452.99
736.68	6495.48
737.021	6510.17
737.361	6422.26
737.702	6496.16
738.042	6468.81
738.383	6475.59
738.723	6477.63
739.063	6467.68
739.404	6445.31
739.744	6448.93
740.084	6456.61
740.424	6425.42
740.764	6470.85
741.104	6509.72
741.444	6484.18
741.784	6389.94
742.124	6455.93
742.464	6443.95
742.804	6399.66
743.143	6433.56
743.483	6422.49
743.823	6397.4
744.162	6420.68
744.502	6445.76
744.841	6399.44
745.181	6443.95
745.52	6474.24
745.86	6493.45
746.199	6421.58
746.538	6447.57
746.877	6449.6
747.216	6466.1
747.556	6429.04
747.895	6460.9
748.234	6377.06
748.573	6430.4
748.911	6478.08
749.25	6399.89
749.589	6417.06
749.928	6392.66
750.267	6405.09
750.605	6401.47
750.944	6377.97
751.283	6384.52
751.621	6424.07
751.96	6341.81
752.298	6391.98
752.636	6379.78
752.975	6391.3
753.313	6298.2
753.651	6325.99
753.989	6294.13
754.327	6333.45
754.666	6316.05
755.004	6263.85
755.342	6322.15
755.679	6333.45
756.017	6291.87
756.355	6292.77
756.693	6250.97
757.031	6321.92
757.368	6218.65
757.706	6250.51
758.044	6181.36
758.381	6273.11
758.719	6219.78
759.056	6233.11
759.394	6176.17
759.731	6160.12
760.068	6149.05
760.405	6130.29
760.743	6145.66
761.08	6077.18
761.417	6147.69
761.754	6135.04
762.091	6037.41
762.428	6066.79
762.765	6061.37
763.102	6043.97
763.438	6043.74
763.775	5997.64
764.112	6034.93
764.449	5980.24
764.785	5979.56
765.122	5954.25
765.458	5912.67
765.795	5966.23
766.131	5908.6
766.467	5918.32
766.804	5863.18
767.14	5803.75
767.476	5801.03
767.812	5801.26
768.148	5839
768.485	5781.15
768.821	5761.49
769.157	5742.5
769.492	5749.51
769.828	5723.75
770.164	5665.9
770.5	5715.39
770.836	5667.7
771.171	5620.25
771.507	5594.49
771.842	5629.51
772.178	5596.75
772.513	5632.22
772.849	5530.53
773.184	5483.08
773.519	5516.3
773.855	5502.51
774.19	5524.43
774.525	5447.6
774.86	5442.85
775.195	5444.89
775.53	5411.89
775.865	5433.13
776.2	5394.72
776.535	5311.78
776.87	5338.22
777.205	5348.39
777.539	5281.05
777.874	5272.46
778.209	5244.66
778.543	5258.68
778.878	5220.48
779.212	5196.53
779.547	5194.95
779.881	5213.7
780.215	5191.33
780.55	5218.22
780.884	5169.86
781.218	5147.49
781.552	5118.79
781.886	5102.3
782.22	5038.57
782.554	5040.83
782.888	5022.3
783.222	5016.65
783.556	5006.93
783.889	4980.49
784.223	4968.51
784.557	4971
784.89	4956.76
785.224	4866.6
785.557	4930.32
785.891	4869.76
786.224	4931
786.558	4866.14
786.891	4832.47
787.224	4855.07
787.557	4832.7
787.891	4794.28
788.224	4796.77
788.557	4787.28
788.89	4752.93
789.223	4782.53
789.556	4761.06
789.888	4756.77
790.221	4780.5
790.554	4696.66
790.887	4710.44
791.219	4664.57
791.552	4650.1
791.884	4637.9
792.217	4634.74
792.549	4606.26
792.882	4596.09
793.214	4579.6
793.546	4567.39
793.879	4500.73
794.211	4487.85
794.543	4529.2
794.875	4501.63
795.207	4512.71
795.539	4512.03
795.871	4541.63
796.203	4493.72
796.535	4437.68
796.867	4447.4
797.198	4381.18
797.53	4425.93
797.862	4362.2
798.193	4379.38
798.525	4389.32
798.856	4368.76
799.188	4293.05
799.519	4283.79
799.85	4297.8
800.182	4306.16
800.513	4289.66
800.844	4245.82
801.175	4265.71
801.506	4243.11
801.837	4216.22
802.168	4216.89
802.499	4164.92
802.83	4163.11
803.161	4217.57
803.491	4157.24
803.822	4225.26
804.153	4152.94
804.483	4137.8
804.814	4176.67
805.145	4086.05
805.475	4080.85
805.805	4074.07
806.136	4045.37
806.466	4061.42
806.796	4106.39
807.126	4084.92
807.457	4061.42
807.787	4022.1
808.117	4036.56
808.447	4056.67
808.777	4065.94
809.107	3979.84
809.436	4005.83
809.766	4008.54
810.096	3944.59
810.426	4009.67
810.755	3969.67
811.085	3942.33
811.414	3933.96
811.744	3915.43
812.073	3896.23
812.403	3903.68
812.732	3905.49
813.061	3895.55
813.39	3850.35
813.719	3866.62
814.049	3878.6
814.378	3862.78
814.707	3848.09
815.036	3822.55
815.365	3788.43
815.693	3786.85
816.022	3761.77
816.351	3802.22
816.68	3735.78
817.008	3788.88
817.337	3721.99
817.665	3727.64
817.994	3750.01
818.322	3765.38
818.651	3740.3
818.979	3711.15
819.307	3713.41
819.636	3689.9
819.964	3725.61
820.292	3710.92
820.62	3692.61
820.948	3699.39
821.276	3677.47
821.604	3661.2
821.932	3657.36
822.259	3710.69
822.587	3693.74
822.915	3664.82
823.243	3638.6
823.57	3663.46
823.898	3700.75
824.225	3698.04
824.553	3654.42
824.88	3666.4
825.207	3665.04
825.535	3662.33
825.862	3669.11
826.189	3679.06
826.516	3678.15
826.843	3711.82
827.17	3660.53
827.497	3662.56
827.824	3651.49
828.151	3717.92
828.478	3688.55
828.805	3654.88
829.131	3705.72
829.458	3634.09
829.785	3623.46
830.111	3658.04
830.438	3690.13
830.764	3629.34
831.09	3667.53
831.417	3668.89
831.743	3604.48
832.069	3646.51
832.395	3635.67
832.722	3661.2
833.048	3624.82
833.374	3655.1
833.7	3639.28
834.026	3655.78
834.351	3644.71
834.677	3601.54
835.003	3642.67
835.329	3651.94
835.654	3626.85
835.98	3607.87
836.306	3625.27
836.631	3613.29
836.956	3625.05
837.282	3614.2
837.607	3567.42
837.932	3588.21
838.258	3592.28
838.583	3603.58
838.908	3585.95
839.233	3578.49
839.558	3541.43
839.883	3524.71
840.208	3559.74
840.533	3514.99
840.858	3564.03
841.182	3521.09
841.507	3541.66
841.832	3524.71
842.156	3498.72
842.481	3523.58
842.805	3530.36
843.13	3489.23
843.454	3452.17
843.778	3462.11
844.103	3498.27
844.427	3408.1
844.751	3492.17
845.075	3412.17
845.399	3438.38
845.723	3423.7
846.047	3399.74
846.371	3390.93
846.695	3392.28
847.019	3371.04
847.343	3378.72
847.666	3305.51
847.99	3316.13
848.313	3329.01
848.637	3318.39
848.96	3317.03
849.284	3340.76
849.607	3292.63
849.931	3293.3
850.254	3267.32
850.577	3247.88
850.9	3233.42
851.223	3200.42
851.546	3244.49
851.869	3180.31
852.192	3225.96
852.515	3222.57
852.838	3181.67
853.161	3188.45
853.483	3166.53
853.806	3148.67
854.129	3155
854.451	3121.33
854.774	3133.08
855.096	3091.27
855.419	3096.02
855.741	3070.48
856.063	3098.28
856.385	3042.24
856.708	3077.94
857.03	3052.41
857.352	3068.22
857.674	3047.21
857.996	3031.16
858.318	3043.14
858.64	2999.07
858.961	3014.44
859.283	3029.81
859.605	3012.63
859.926	2986.64
860.248	3004.27
860.57	2964.95
860.891	2964.5
861.212	2967.21
861.534	2974.89
861.855	2926.76
862.176	2945.52
862.498	2914.78
862.819	2910.94
863.14	2905.97
863.461	2966.76
863.782	2916.82
864.103	2931.28
864.424	2936.25
864.745	2911.17
865.065	2889.47
865.386	2856.25
865.707	2882.92
866.027	2868.23
866.348	2887.44
866.668	2898.96
866.989	2830.94
867.309	2868
867.63	2844.95
867.95	2856.03
868.27	2852.86
868.59	2859.19
868.91	2827.33
869.23	2849.7
869.55	2833.88
869.87	2860.55
870.19	2809.25
870.51	2841.11
870.83	2837.04
871.15	2792.3
871.469	2792.53
871.789	2825.52
872.109	2808.34
872.428	2796.82
872.748	2797.95
873.067	2793.66
873.386	2826.2
873.706	2791.62
874.025	2763.6
874.344	2769.7
874.663	2783.94
874.982	2776.25
875.301	2782.58
875.62	2787.55
875.939	2732.87
876.258	2758.4
876.577	2749.81
876.896	2755.46
877.214	2767.67
877.533	2722.7
877.852	2743.49
878.17	2771.28
878.489	2730.15
878.807	2714.34
879.125	2724.73
879.444	2694.45
879.762	2745.3
880.08	2689.93
880.398	2729.48
880.716	2692.42
881.034	2694.9
881.352	2686.99
881.67	2661.23
881.988	2645.86
882.306	2662.36
882.624	2690.61
882.941	2630.5
883.259	2665.07
883.577	2656.94
883.894	2609.71
884.212	2608.58
884.529	2605.19
884.846	2636.15
885.164	2626.88
885.481	2628.91
885.798	2633.43
886.115	2566.32
886.432	2602.47
886.75	2593.66
887.067	2596.15
887.383	2537.16
887.7	2541.91
888.017	2581.23
888.334	2606.99
888.651	2588.01
888.967	2589.59
889.284	2539.88
889.6	2546.88
889.917	2499.88
890.233	2518.86
890.55	2528.58
890.866	2538.29
891.182	2516.15
891.498	2489.71
891.815	2486.09
892.131	2527.67
892.447	2452.65
892.763	2459.65
893.079	2507.56
893.395	2473.89
893.71	2473.66
894.026	2488.13
894.342	2428.24
894.657	2441.35
894.973	2414
895.289	2476.6
895.604	2443.38
895.92	2399.77
896.235	2376.27
896.55	2409.48
896.865	2409.26
897.181	2386.66
897.496	2396.15
897.811	2363.84
898.126	2406.32
898.441	2387.34
898.756	2346.44
899.071	2339.2
899.386	2357.96
899.7	2324.74
900.015	2347.34
900.33	2277.06
900.644	2306.44
900.959	2314.12
901.273	2312.76
901.588	2283.61
901.902	2273.9
902.216	2241.81
902.531	2287.23
902.845	2238.42
903.159	2268.92
903.473	2238.64
903.787	2233.22
904.101	2225.53
904.415	2249.26
904.729	2209.04
905.042	2203.61
905.356	2183.73
905.67	2178.76
905.984	2220.79
906.297	2216.5
906.611	2176.27
906.924	2178.53
907.237	2146.89
907.551	2168.36
907.864	2153.45
908.177	2140.11
908.491	2169.72
908.804	2106.22
909.117	2135.59
909.43	2136.5
909.743	2091.98
910.056	2110.74
910.368	2095.59
910.681	2060.34
910.994	2066.89
911.307	2073
911.619	2021.02
911.932	2029.61
912.244	2051.53
912.557	2007.24
912.869	2043.84
913.181	2045.88
913.494	1997.07
913.806	1984.41
914.118	1990.06
914.43	2001.59
914.742	2009.72
915.054	2000.91
915.366	1971.98
915.678	1958.65
915.99	1948.93
916.302	1943.28
916.613	1913.45
916.925	1914.58
917.236	1938.76
917.548	1927.69
917.859	1908.71
918.171	1917.29
918.482	1878.43
918.794	1917.52
919.105	1900.8
919.416	1876.84
919.727	1870.06
920.038	1895.83
920.349	1855.6
920.66	1840.23
920.971	1853.79
921.282	1861.25
921.593	1858.99
921.903	1835.49
922.214	1818.99
922.525	1842.27
922.835	1800.69
923.146	1782.38
923.456	1833.23
923.767	1795.72
924.077	1802.49
924.387	1773.34
924.697	1762.27
925.008	1762.5
925.318	1755.49
925.628	1785.55
925.938	1789.16
926.248	1754.36
926.558	1746.9
926.867	1721.59
927.177	1731.99
927.487	1718.88
927.796	1688.6
928.106	1692.44
928.416	1692.44
928.725	1679.79
929.034	1689.28
929.344	1695.38
929.653	1649.73
929.962	1675.49
930.271	1696.28
930.581	1655.61
930.89	1654.93
931.199	1668.04
931.508	1633.46
931.817	1624.65
932.125	1601.14
932.434	1636.85
932.743	1624.42
933.051	1620.13
933.36	1625.1
933.669	1574.93
933.977	1597.98
934.286	1573.8
934.594	1599.11
934.902	1587.13
935.21	1579.45
935.519	1585.33
935.827	1569.73
936.135	1531.54
936.443	1558.21
936.751	1545.1
937.059	1536.29
937.367	1545.33
937.674	1506.68
937.982	1515.72
938.29	1507.36
938.597	1531.32
938.905	1519.11
939.213	1495.84
939.52	1491.32
939.827	1504.65
940.135	1496.06
940.442	1460.13
940.749	1474.37
941.056	1494.03
941.363	1485.44
941.67	1468.04
941.977	1427.14
942.284	1443.86
942.591	1414.48
942.898	1441.83
943.205	1431.43
943.511	1444.31
943.818	1430.75
944.125	1433.47
944.431	1419.23
944.738	1415.39
945.044	1413.35
945.35	1411.32
945.657	1401.83
945.963	1384.2
946.269	1386.46
946.575	1371.77
946.881	1370.19
947.187	1379.91
947.493	1371.77
947.799	1365.67
948.105	1352.34
948.41	1319.34
948.716	1350.98
949.022	1328.84
949.327	1350.3
949.633	1322.73
949.938	1337.2
950.244	1336.52
950.549	1331.32
950.854	1306.01
951.16	1306.01
951.465	1328.84
951.77	1319.57
952.075	1305.11
952.38	1271.44
952.685	1310.98
952.99	1278.67
953.294	1285.67
953.599	1280.93
953.904	1251.32
954.209	1274.6
954.513	1271.89
954.818	1256.97
955.122	1237.54
955.426	1253.13
955.731	1235.73
956.035	1223.3
956.339	1221.49
956.643	1225.56
956.948	1203.87
957.252	1206.8
957.556	1220.82
957.86	1221.49
958.163	1208.84
958.467	1192.34
958.771	1205.45
959.075	1212.68
959.378	1195.05
959.682	1211.1
959.985	1199.35
960.289	1203.41
960.592	1188.05
960.896	1207.93
961.199	1186.92
961.502	1187.14
961.805	1160.7
962.108	1141.5
962.411	1169.74
962.714	1140.59
963.017	1148.05
963.32	1152.79
963.623	1128.16
963.926	1146.92
964.228	1137.43
964.531	1100.14
964.833	1128.39
965.136	1126.35
965.438	1122.51
965.741	1129.74
966.043	1124.09
966.345	1118.45
966.648	1098.56
966.95	1132
967.252	1106.47
967.554	1090.65
967.856	1091.33
968.158	1085.68
968.46	1066.47
968.761	1081.38
969.063	1064.21
969.365	1060.14
969.666	1074.15
969.968	1048.84
970.269	1050.65
970.571	1050.2
970.872	1061.27
971.174	1051.33
971.475	1058.56
971.776	1041.16
972.077	1029.86
972.378	1030.54
972.679	1049.97
972.98	1010.2
973.281	1017.43
973.582	1015.4
973.883	1033.93
974.183	999.13
974.484	1009.3
974.785	1002.06
975.085	1002.29
975.386	1016.53
975.686	1027.6
975.986	1008.39
976.287	1009.3
976.587	995.28
976.887	979.92
977.187	990.76
977.487	1002.74
977.787	995.06
978.087	979.24
978.387	1000.93
978.687	949.41
978.987	969.07
979.286	943.99
979.586	944.44
979.885	959.13
980.185	972.01
980.484	937.66
980.784	951.22
981.083	940.82
981.382	943.53
981.682	951.9
981.981	913.48
982.28	934.95
982.579	917.77
982.878	901.28
983.177	921.84
983.475	897.66
983.774	901.73
984.073	924.55
984.372	899.24
984.67	896.53
984.969	890.88
985.267	902.63
985.566	880.71
985.864	901.73
986.162	897.21
986.461	887.72
986.759	890.43
987.057	879.13
987.355	888.39
987.653	866.93
987.951	854.27
988.249	864.44
988.547	877.1
988.844	884.1
989.142	863.99
989.44	882.75
989.737	835.29
990.035	854.95
990.332	865.57
990.63	846.14
990.927	817.89
991.224	863.08
991.521	849.53
991.819	832.8
992.116	838.9
992.413	822.18
992.71	855.18
993.006	833.71
993.303	854.72
993.6	823.54
993.897	803.43
994.193	829.87
994.49	800.94
994.787	825.8
995.083	796.19
995.379	805.91
995.676	822.18
995.972	808.85
996.268	797.78
996.565	794.61
996.861	775.18
997.157	801.39
997.453	795.97
997.749	777.66
998.044	783.99
998.34	779.25
998.636	775.86
998.932	775.86
999.227	765.91
999.523	755.52
999.818	751.22
1000.114	774.27
1000.409	770.21
1000.704	739.47
1001	731.79
1001.295	758.23
1001.59	765.91
1001.885	732.69
1002.18	727.27
1002.475	751.22
1002.77	743.54
1003.065	724.56
1003.359	740.15
1003.654	741.28
1003.949	720.49
1004.243	709.42
1004.538	726.59
1004.832	748.96
1005.127	705.57
1005.421	712.81
1005.715	724.33
1006.009	704.67
1006.304	681.85
1006.598	695.41
1006.892	692.24
1007.186	706.48
1007.48	704.22
1007.773	686.82
1008.067	678.23
1008.361	685.24
1008.655	686.82
1008.948	687.27
1009.242	669.42
1009.535	680.72
1009.829	667.38
1010.122	656.76
1010.415	659.47
1010.708	659.02
1011.001	656.99
1011.295	638.23
1011.588	650.66
1011.881	666.48
1012.173	681.85
1012.466	647.27
1012.759	660.6
1013.052	647.27
1013.344	641.17
1013.637	627.16
1013.93	632.58
1014.222	657.67
1014.514	630.32
1014.807	630.55
1015.099	639.14
1015.391	645.46
1015.683	619.7
1015.976	649.3
1016.268	663.54
1016.56	617.44
1016.851	603.43
1017.143	623.09
1017.435	607.72
1017.727	620.15
1018.018	609.98
1018.31	607.95
1018.602	624.45
1018.893	606.82
1019.185	613.37
1019.476	612.7
1019.767	598.23
1020.058	598.01
1020.35	582.87
1020.641	598.23
1020.932	588.06
1021.223	600.49
1021.514	587.16
1021.804	591.91
1022.095	604.33
1022.386	585.13
1022.677	580.38
1022.967	561.85
1023.258	565.69
1023.548	557.1
1023.839	545.8
1024.129	579.93
1024.419	579.48
1024.709	560.72
1025	548.97
1025.29	540.61
1025.58	558.23
1025.87	540.16
1026.16	560.49
1026.449	558.23
1026.739	532.02
1027.029	551.45
1027.319	542.42
1027.608	551
1027.898	544.45
1028.187	524.11
1028.477	530.89
1028.766	545.8
1029.055	513.72
1029.344	542.87
1029.634	533.38
1029.923	491.12
1030.212	507.84
1030.501	500.61
1030.79	527.27
1031.078	500.83
1031.367	519.59
1031.656	477.33
1031.945	515.07
1032.233	516.88
1032.522	507.16
1032.81	495.41
1033.099	513.49
1033.387	506.71
1033.675	498.57
1033.963	511.23
1034.251	496.09
1034.54	481.63
1034.828	503.77
1035.116	496.77
1035.403	469.65
1035.691	488.41
1035.979	475.3
1036.267	494.51
1036.554	483.89
1036.842	479.82
1037.129	480.95
1037.417	506.94
1037.704	490.44
1037.992	460.38
1038.279	471.23
1038.566	461.51
1038.853	461.51
1039.14	461.51
