Data from mousepad_grey_FLMS001491_00035.txt Node
Date: Wed Feb 08 14:29:21 GMT 2017
User: dcchb
Spectrometer: FLMS00149
Trigger mode: 0
Integration Time (sec): 2.000000E-2
Scans to average: 10
Electric dark correction enabled: true
Nonlinearity correction enabled: false
Boxcar width: 0
XAxis mode: Wavelengths
Number of Pixels in Spectrum: 2048
>>>>>Begin Spectral Data<<<<<
341.393	0.55
341.776	0.55
342.16	0.55
342.543	-68.37
342.927	-37.19
343.31	-65.21
343.693	-104.98
344.077	-75.15
344.46	-57.53
344.843	-52.1
345.226	-32.67
345.61	-20.69
345.993	-7.58
346.376	26.54
346.759	24.96
347.142	13.88
347.525	51.4
347.908	57.27
348.291	76.26
348.674	68.12
349.057	97.5
349.44	132.07
349.823	127.55
350.206	157.16
350.588	165.07
350.971	189.92
351.354	220.88
351.737	212.97
352.119	241.22
352.502	238.51
352.884	236.7
353.267	245.29
353.65	276.02
354.032	300.2
354.414	296.59
354.797	280.09
355.179	309.47
355.562	296.14
355.944	306.76
356.326	338.17
356.709	310.83
357.091	324.38
357.473	330.26
357.855	320.99
358.238	323.25
358.62	323.03
359.002	322.12
359.384	331.62
359.766	340.65
360.148	321.22
360.53	329.13
360.912	331.16
361.294	327.77
361.676	318.96
362.057	334.33
362.439	322.8
362.821	319.64
363.203	302.24
363.584	304.72
363.966	321.67
364.348	310.83
364.729	310.15
365.111	296.59
365.493	323.93
365.874	326.87
366.256	286.65
366.637	281.22
367.019	301.79
367.4	275.35
367.781	282.58
368.163	285.52
368.544	306.31
368.925	281.67
369.306	299.53
369.688	301.56
370.069	300.66
370.45	307.21
370.831	299.07
371.212	302.46
371.593	306.31
371.974	279.19
372.355	292.97
372.736	303.14
373.117	309.92
373.498	284.39
373.879	295.46
374.26	308.11
374.641	314.89
375.021	308.34
375.402	304.27
375.783	286.87
376.163	299.53
376.544	302.69
376.925	324.61
377.305	310.83
377.686	316.7
378.066	303.37
378.447	317.6
378.827	316.25
379.208	309.24
379.588	294.55
379.968	324.38
380.349	295.01
380.729	330.71
381.109	320.77
381.489	301.33
381.87	323.48
382.25	299.07
382.63	323.03
383.01	333.65
383.39	315.12
383.77	328.23
384.15	310.83
384.53	325.97
384.91	310.6
385.29	322.35
385.67	323.48
386.049	304.05
386.429	323.03
386.809	349.69
387.189	341.11
387.568	318.06
387.948	334.33
388.328	346.53
388.707	325.51
389.087	337.49
389.466	330.71
389.846	322.58
390.225	328.45
390.605	358.73
390.984	333.42
391.363	344.5
391.743	362.12
392.122	334.1
392.501	335.91
392.881	339.75
393.26	363.71
393.639	351.28
394.018	363.03
394.397	343.14
394.776	348.56
395.155	353.76
395.534	357.83
395.913	367.32
396.292	360.99
396.671	358.73
397.05	366.19
397.429	368.22
397.808	363.71
398.186	357.15
398.565	376.36
398.944	371.39
399.323	356.02
399.701	368
400.08	371.61
400.458	371.16
400.837	369.13
401.215	372.97
401.594	382.01
401.972	401.67
402.351	388.79
402.729	383.82
403.107	379.98
403.486	405.96
403.864	379.3
404.242	391.95
404.62	394.44
404.999	408.9
405.377	419.97
405.755	405.29
406.133	417.04
406.511	405.74
406.889	415.23
407.267	424.72
407.645	394.21
408.023	401.44
408.401	429.92
408.779	427.21
409.156	449.8
409.534	431.5
409.912	430.14
410.29	415.68
410.667	434.21
411.045	438.28
411.422	429.69
411.8	436.47
412.178	431.95
412.555	435.34
412.933	467.88
413.31	472.85
413.687	455.91
414.065	487.54
414.442	483.02
414.819	445.28
415.197	471.72
415.574	464.95
415.951	461.56
416.328	483.7
416.705	484.15
417.082	468.56
417.46	480.76
417.837	485.06
418.214	488.22
418.591	494.1
418.967	497.03
419.344	516.47
419.721	497.49
420.098	483.48
420.475	511.05
420.852	504.94
421.228	511.72
421.605	520.76
421.982	518.96
422.358	533.87
422.735	522.57
423.111	492.74
423.488	531.38
423.864	520.09
424.241	546.3
424.617	537.94
424.994	544.27
425.37	556.92
425.746	534.32
426.123	558.05
426.499	551.04
426.875	561.44
427.251	564.6
427.627	558.73
428.003	557.82
428.379	598.28
428.756	583.36
429.132	581.78
429.507	590.37
429.883	604.83
430.259	606.86
430.635	596.47
431.011	620.42
431.387	621.33
431.763	638.27
432.138	623.36
432.514	642.34
432.89	650.48
433.265	642.34
433.641	651.38
434.016	643.92
434.392	643.7
434.767	666.97
435.143	675.56
435.518	664.94
435.894	672.4
436.269	677.82
436.644	686.63
437.02	680.76
437.395	692.74
437.77	698.84
438.145	702.45
438.52	702
438.895	723.24
439.271	719.63
439.646	722.57
440.021	719.18
440.395	739.97
440.77	747.65
441.145	747.42
441.52	752.85
441.895	761.43
442.27	760.76
442.645	774.09
443.019	791.94
443.394	769.12
443.769	772.73
444.143	776.35
444.518	779.06
444.892	768.67
445.267	800.98
445.641	786.29
446.016	803.92
446.39	810.25
446.764	799.63
447.139	789.91
447.513	822
447.887	824.48
448.262	830.13
448.636	821.55
449.01	817.7
449.384	860.19
449.758	832.62
450.132	838.95
450.506	855.22
450.88	883.92
451.254	850.7
451.628	889.57
452.002	856.8
452.376	885.5
452.75	868.55
453.123	895.67
453.497	897.25
453.871	897.02
454.244	922.79
454.618	914.43
454.992	931.6
455.365	941.77
455.739	935.89
456.112	966.63
456.486	961.66
456.859	975.67
457.232	1006.4
457.606	991.71
457.979	1005.27
458.352	1031.71
458.725	1036.68
459.099	1050.01
459.472	1069.68
459.845	1063.8
460.218	1068.77
460.591	1068.32
460.964	1093.86
461.337	1103.12
461.71	1102.67
462.083	1104.93
462.456	1133.4
462.829	1123.01
463.201	1141.76
463.574	1129.79
463.947	1159.84
464.32	1181.99
464.692	1214.76
465.065	1198.94
465.438	1215.66
465.81	1224.93
466.183	1247.98
466.555	1223.34
466.928	1245.26
467.3	1255.89
467.672	1245.49
468.045	1298.37
468.417	1299.5
468.789	1312.83
469.161	1330.23
469.534	1338.14
469.906	1362.55
470.278	1405.71
470.65	1381.08
471.022	1423.56
471.394	1419.72
471.766	1447.07
472.138	1464.02
472.51	1480.51
472.882	1501.3
473.253	1525.48
473.625	1521.41
473.997	1571.13
474.369	1565.71
474.74	1570.45
475.112	1647.29
475.484	1610.45
475.855	1659.49
476.227	1648.42
476.598	1696.33
476.97	1711.01
477.341	1743.78
477.713	1745.14
478.084	1771.58
478.455	1807.28
478.827	1814.06
479.198	1889.09
479.569	1885.92
479.94	1901.74
480.311	1938.58
480.682	1988.75
481.053	2042.76
481.424	2031.91
481.795	2038.01
482.166	2097.67
482.537	2118.24
482.908	2143.77
483.279	2128.86
483.65	2197.78
484.021	2241.62
484.391	2252.7
484.762	2268.74
485.133	2288.63
485.503	2317.1
485.874	2358.68
486.244	2366.36
486.615	2406.36
486.985	2457.44
487.356	2522.74
487.726	2491.56
488.097	2576.53
488.467	2561.84
488.837	2598.9
489.207	2630.31
489.578	2661.72
489.948	2682.29
490.318	2729.97
490.688	2727.48
491.058	2749.63
491.428	2787.14
491.798	2797.99
492.168	2870.53
492.538	2899.23
492.908	2940.81
493.278	2963.41
493.648	2987.14
494.017	3001.83
494.387	3006.8
494.757	3046.35
495.126	3081.15
495.496	3063.3
495.866	3139.9
496.235	3154.82
496.605	3159.34
496.974	3169.73
497.344	3200.24
497.713	3236.85
498.082	3215.38
498.452	3281.82
498.821	3284.53
499.19	3302.84
499.559	3341.48
499.928	3327.69
500.298	3377.64
500.667	3423.51
501.036	3416.28
501.405	3439.56
501.774	3435.49
502.143	3508.03
502.512	3501.7
502.88	3543.28
503.249	3537.63
503.618	3550.51
503.987	3574.47
504.356	3602.04
504.724	3612.21
505.093	3625.99
505.462	3647.46
505.83	3659.66
506.199	3701.02
506.567	3777.17
506.936	3766.78
507.304	3761.36
507.672	3806.78
508.041	3824.63
508.409	3887.91
508.777	3896.95
509.145	3917.06
509.514	3936.49
509.882	3931.75
510.25	3954.57
510.618	3987.79
510.986	3979.66
511.354	4040.67
511.722	4081.12
512.09	4090.61
512.458	4108.47
512.826	4135.58
513.193	4157.5
513.561	4175.36
513.929	4252.42
514.297	4221.68
514.664	4288.12
515.032	4309.36
515.4	4306.43
515.767	4338.97
516.135	4389.36
516.502	4356.37
516.869	4440.66
517.237	4451.51
517.604	4423.94
517.972	4456.25
518.339	4494.22
518.706	4578.96
519.073	4586.87
519.44	4567.21
519.808	4625.06
520.175	4609.24
520.542	4631.62
520.909	4707.32
521.276	4723.82
521.643	4810.14
522.009	4759.3
522.376	4849.46
522.743	4889.46
523.11	4908.22
523.477	4891.27
523.843	4940.53
524.21	5019.85
524.577	5018.72
524.943	5060.53
525.31	5081.55
525.676	5103.69
526.043	5162.45
526.409	5213.97
526.776	5227.76
527.142	5263.01
527.508	5331.94
527.874	5291.49
528.241	5319.28
528.607	5370.35
528.973	5406.74
529.339	5434.98
529.705	5464.14
530.071	5522.44
530.437	5512.04
530.803	5538.48
531.169	5625.71
531.535	5596.34
531.901	5597.47
532.267	5630.01
532.632	5682.89
532.998	5726.5
533.364	5780.29
533.73	5782.77
534.095	5763.56
534.461	5834.3
534.826	5875.65
535.192	5885.14
535.557	5900.73
535.923	5946.38
536.288	6001.3
536.653	5987.06
537.019	5974.41
537.384	6041.75
537.749	6099.37
538.114	6111.35
538.479	6131.92
538.845	6151.8
539.21	6118.81
539.575	6140.5
539.94	6200.61
540.305	6220.95
540.67	6193.38
541.034	6281.52
541.399	6294.62
541.764	6323.77
542.129	6350.44
542.494	6355.64
542.858	6396.77
543.223	6413.72
543.587	6498.23
543.952	6450.1
544.316	6512.7
544.681	6505.01
545.045	6549.31
545.41	6580.72
545.774	6601.96
546.138	6590.43
546.503	6604.67
546.867	6647.38
547.231	6728.06
547.595	6747.72
547.959	6732.35
548.324	6767.15
548.688	6805.57
549.052	6815.51
549.416	6798.79
549.779	6823.87
550.143	6877.66
550.507	6918.56
550.871	6926.02
551.235	6954.72
551.599	7048.95
551.962	7070.42
552.326	7129.63
552.689	7080.36
553.053	7135.73
553.417	7139.8
553.78	7213.02
554.143	7129.63
554.507	7242.62
554.87	7272.68
555.234	7261.38
555.597	7270.42
555.96	7272.45
556.323	7356.29
556.686	7381.83
557.05	7432.9
557.413	7449.62
557.776	7403.29
558.139	7523.52
558.502	7477.64
558.865	7603.74
559.228	7628.82
559.59	7626.57
559.953	7636.06
560.316	7686
560.679	7700.69
561.041	7768.03
561.404	7843.06
561.767	7821.36
562.129	7826.79
562.492	7907.69
562.854	7907.91
563.217	7839.89
563.579	7910.4
563.941	7992.21
564.304	8083.73
564.666	8100.68
565.028	8134.8
565.39	8140.45
565.753	8180.67
566.115	8243.5
566.477	8235.59
566.839	8233.1
567.201	8335.02
567.563	8289.15
567.925	8405.75
568.287	8428.8
568.648	8435.36
569.01	8461.12
569.372	8464.51
569.734	8468.35
570.095	8543.83
570.457	8641.91
570.819	8666.09
571.18	8651.4
571.542	8659.98
571.903	8654.79
572.265	8739.76
572.626	8804.16
572.987	8782.24
573.349	8786.76
573.71	8816.36
574.071	8863.59
574.432	8867.66
574.794	8965.51
575.155	8913.31
575.516	8884.39
575.877	8947.43
576.238	8933.65
576.599	8991.95
576.96	9003.25
577.32	8963.7
577.681	9093.42
578.042	9103.36
578.403	9069.24
578.763	9090.48
579.124	9074.89
579.485	9159.86
579.845	9249.8
580.206	9138.39
580.566	9144.49
580.927	9177.03
581.287	9252.96
581.648	9208.67
582.008	9174.77
582.368	9256.58
582.728	9257.93
583.089	9284.15
583.449	9232.17
583.809	9316.24
584.169	9288.22
584.529	9247.09
584.889	9368.44
585.249	9219.74
585.609	9218.84
585.969	9315.11
586.329	9325.96
586.688	9335.9
587.048	9326.63
587.408	9272.17
587.768	9365.73
588.127	9280.76
588.487	9248.9
588.846	9417.48
589.206	9291.15
589.565	9311.72
589.925	9370.47
590.284	9351.04
590.643	9364.6
591.003	9328.44
591.362	9370.93
591.721	9371.83
592.08	9414.77
592.44	9410.25
592.799	9422.68
593.158	9404.15
593.517	9386.07
593.876	9392.62
594.235	9441.43
594.593	9404.37
594.952	9429.46
595.311	9351.04
595.67	9401.21
596.029	9511.26
596.387	9513.52
596.746	9512.62
597.104	9469.91
597.463	9397.59
597.822	9512.84
598.18	9462
598.538	9453.18
598.897	9516.01
599.255	9440.98
599.613	9577.93
599.972	9495.67
600.33	9557.59
600.688	9502.22
601.046	9541.09
601.404	9527.98
601.762	9529.34
602.12	9625.16
602.478	9575.44
602.836	9624.25
603.194	9539.06
603.552	9555.33
603.91	9538.61
604.268	9591.26
604.625	9499.06
604.983	9610.24
605.341	9570.02
605.698	9632.39
606.056	9589.45
606.413	9603.24
606.771	9641.65
607.128	9697.47
607.485	9659.28
607.843	9656.57
608.2	9721.65
608.557	9630.13
608.914	9654.53
609.272	9782.44
609.629	9734.76
609.986	9724.36
610.343	9690.92
610.7	9793.51
611.057	9733.63
611.414	9759.84
611.771	9718.26
612.127	9830.35
612.484	9754.87
612.841	9810.46
613.198	9788.99
613.554	9795.77
613.911	9868.09
614.267	9849.78
614.624	9904.02
614.98	9916.9
615.337	9876.22
615.693	9916
616.05	9923.45
616.406	9905.38
616.762	9869.22
617.118	9952.83
617.475	9887.75
617.831	9977.69
618.187	9960.97
618.543	9977.92
618.899	10038.25
619.255	9888.2
619.611	9970.01
619.967	10031.7
620.323	10035.77
620.678	9998.71
621.034	10012.94
621.39	9969.55
621.746	10031.93
622.101	10102.88
622.457	10022.89
622.812	10038.93
623.168	10091.13
623.523	10078.93
623.879	10066.73
624.234	10040.51
624.589	10042.77
624.945	10117.12
625.3	10053.85
625.655	10042.09
626.01	10029.89
626.365	10118.7
626.72	10022.66
627.075	10027.63
627.43	10036.45
627.785	10024.24
628.14	10074.86
628.495	10121.41
628.85	10044.13
629.205	9977.69
629.559	9993.51
629.914	9981.08
630.269	10017.24
630.623	10059.5
630.978	9966.62
631.332	10064.69
631.687	10028.31
632.041	10025.37
632.396	10069.21
632.75	10079.83
633.104	9981.31
633.459	10021.98
633.813	10008.65
634.167	9877.35
634.521	10005.49
634.875	9995.09
635.229	9937.69
635.583	9880.07
635.937	9857.47
636.291	9906.51
636.645	9942.66
636.999	9920.97
637.352	9901.53
637.706	9895.88
638.06	9910.8
638.413	9865.83
638.767	9827.41
639.121	9900.63
639.474	9849.11
639.828	9833.74
640.181	9840.97
640.534	9833.29
640.888	9764.36
641.241	9855.21
641.594	9857.47
641.947	9859.05
642.301	9845.72
642.654	9818.82
643.007	9868.77
643.36	9783.34
643.713	9843.46
644.066	9865.83
644.419	9810.91
644.771	9716
645.124	9680.07
645.477	9647.75
645.83	9551.03
646.182	9524.14
646.535	9548.32
646.888	9522.56
647.24	9476.23
647.593	9565.27
647.945	9572.05
648.298	9445.05
648.65	9447.08
649.002	9441.21
649.355	9491.83
649.707	9440.75
650.059	9582.45
650.411	9566.85
650.763	9684.36
651.115	9684.59
651.467	9697.47
651.819	9752.16
652.171	9744.25
652.523	9683.69
652.875	9667.42
653.227	9618.6
653.578	9774.08
653.93	9676
654.282	9694.08
654.633	9670.58
654.985	9665.16
655.337	9630.58
655.688	9652.73
656.039	9680.07
656.391	9639.17
656.742	9661.31
657.094	9670.81
657.445	9694.08
657.796	9673.97
658.147	9702.22
658.498	9708.54
658.849	9659.73
659.2	9688.21
659.551	9591.49
659.902	9664.25
660.253	9624.25
660.604	9706.06
660.955	9609.11
661.306	9651.14
661.656	9756.45
662.007	9682.78
662.358	9648.88
662.708	9640.3
663.059	9650.92
663.409	9596.23
663.76	9649.79
664.11	9685.95
664.461	9659.28
664.811	9648.21
665.161	9647.3
665.511	9596.91
665.862	9686.62
666.212	9675.1
666.562	9663.12
666.912	9674.19
667.262	9673.29
667.612	9667.87
667.962	9604.82
668.312	9601.65
668.662	9663.8
669.011	9719.17
669.361	9647.75
669.711	9569.34
670.06	9630.81
670.41	9636.68
670.76	9643.69
671.109	9650.47
671.459	9590.13
671.808	9570.92
672.157	9589.45
672.507	9542.9
672.856	9646.85
673.205	9626.74
673.554	9619.96
673.904	9589.45
674.253	9654.08
674.602	9598.04
674.951	9430.59
675.3	9334.99
675.649	9569.11
675.998	9501.32
676.346	9521.43
676.695	9493.41
677.044	9444.14
677.393	9591.03
677.741	9499.96
678.09	9429.46
678.438	9495.44
678.787	9470.13
679.135	9483.47
679.484	9358.72
679.832	9460.42
680.181	9466.06
680.529	9438.72
680.877	9402.79
681.225	9367.08
681.573	9411.15
681.922	9376.12
682.27	9357.59
682.618	9439.85
682.966	9346.52
683.314	9360.08
683.661	9363.92
684.009	9286.63
684.357	9224.72
684.705	9212.96
685.053	9258.84
685.4	9216.58
685.748	9201.66
686.095	9134.77
686.443	9160.76
686.79	9129.8
687.138	9105.85
687.485	9142.46
687.832	9080.09
688.18	9023.82
688.527	9028.11
688.874	9051.84
689.221	9056.81
689.568	8990.37
689.915	8937.94
690.262	8976.59
690.609	8906.08
690.956	8928.23
691.303	8887.32
691.65	8919.64
691.997	8885.74
692.344	8776.14
692.69	8832.86
693.037	8796.03
693.383	8712.41
693.73	8732.98
694.077	8719.42
694.423	8674.9
694.769	8603.94
695.116	8593.32
695.462	8636.03
695.808	8602.36
696.155	8643.71
696.501	8566.65
696.847	8515.81
697.193	8472.19
697.539	8509.93
697.885	8446.43
698.231	8446.43
698.577	8374.12
698.923	8368.24
699.269	8374.79
699.614	8277.17
699.96	8259.54
700.306	8241.92
700.651	8240.79
700.997	8212.54
701.342	8248.7
701.688	8198.3
702.033	8128.47
702.379	8204.18
702.724	8147
703.069	8095.93
703.415	8020.68
703.76	8025.2
704.105	8017.97
704.45	8009.38
704.795	8011.19
705.14	7944.75
705.485	7979.1
705.83	7974.8
706.175	7900
706.52	7930.06
706.865	7897.74
707.209	7862.49
707.554	7816.84
707.899	7763.28
708.243	7759.44
708.588	7769.61
708.932	7736.62
709.277	7735.71
709.621	7667.47
709.966	7660.46
710.31	7669.5
710.654	7609.16
710.998	7663.85
711.342	7580.01
711.687	7552.89
712.031	7583.85
712.375	7610.52
712.719	7544.53
713.063	7604.64
713.407	7605.32
713.75	7545.44
714.094	7524.42
714.438	7495.5
714.782	7491.2
715.125	7476.96
715.469	7500.92
715.812	7449.17
716.156	7400.58
716.499	7489.85
716.843	7442.16
717.186	7356.06
717.53	7461.15
717.873	7432.67
718.216	7429.28
718.559	7422.28
718.902	7369.17
719.246	7395.16
719.589	7325.78
719.932	7304.77
720.275	7283.52
720.617	7329.85
720.96	7330.53
721.303	7288.27
721.646	7358.55
721.989	7293.69
722.331	7364.2
722.674	7248.5
723.016	7340.7
723.359	7244.88
723.701	7311.32
724.044	7217.08
724.386	7181.83
724.729	7263.64
725.071	7203.53
725.413	7199.23
725.755	7223.64
726.097	7208.72
726.439	7211.21
726.782	7156.07
727.124	7234.26
727.465	7195.39
727.807	7159.01
728.149	7211.89
728.491	7157.65
728.833	7184.54
729.175	7140.7
729.516	7187.71
729.858	7157.2
730.199	7181.83
730.541	7214.15
730.882	7181.6
731.224	7089.86
731.565	7081.49
731.906	7131.21
732.248	7134.37
732.589	7086.24
732.93	7152.91
733.271	7109.06
733.612	7121.72
733.953	7150.19
734.294	7107.71
734.635	7076.97
734.976	7109.29
735.317	7072
735.658	7090.53
735.999	7113.58
736.339	7086.47
736.68	7137.99
737.021	7080.14
737.361	7097.31
737.702	7091.21
738.042	7043.53
738.383	7087.6
738.723	7105.45
739.063	7060.7
739.404	7109.06
739.744	7110.87
740.084	7056.18
740.424	7058.22
740.764	7071.33
741.104	7054.38
741.444	7089.4
741.784	7055.05
742.124	7093.02
742.464	7074.72
742.804	7060.93
743.143	7016.19
743.483	7041.72
743.823	7006.69
744.162	7003.98
744.502	7041.04
744.841	7056.86
745.181	7026.81
745.52	7055.51
745.86	7026.35
746.199	7002.85
746.538	6984.1
746.877	6991.55
747.216	7022.51
747.556	7025.22
747.895	7049.41
748.234	6978.9
748.573	7023.42
748.911	6999.46
749.25	6976.41
749.589	6981.16
749.928	6939.13
750.267	6927.6
750.605	6952.91
750.944	6979.58
751.283	7006.24
751.621	6957.43
751.96	6907.04
752.298	6949.29
752.636	6939.58
752.975	6924.44
753.313	6918.34
753.651	6938
753.989	6895.96
754.327	6886.02
754.666	6880.82
755.004	6924.44
755.342	6859.35
755.679	6898
756.017	6831.33
756.355	6870.88
756.693	6848.28
757.031	6839.24
757.368	6808.96
757.706	6793.37
758.044	6750.66
758.381	6781.39
758.719	6744.1
759.056	6771.22
759.394	6737.1
759.731	6724.67
760.068	6714.95
760.405	6706.82
760.743	6631.34
761.08	6642.64
761.417	6599.47
761.754	6596.99
762.091	6629.53
762.428	6571.9
762.765	6541.62
763.102	6528.97
763.438	6500.04
763.775	6513.37
764.112	6512.7
764.449	6549.98
764.785	6512.24
765.122	6426.6
765.458	6427.27
765.795	6425.01
766.131	6445.81
766.467	6369.2
766.804	6356.77
767.14	6371.23
767.476	6374.17
767.812	6288.52
768.148	6308.63
768.485	6327.39
768.821	6262.53
769.157	6282.19
769.492	6237.9
769.828	6227.51
770.164	6191.57
770.5	6124.23
770.836	6142.08
771.171	6109.32
771.507	6124.46
771.842	6004.91
772.178	6069.54
772.513	6050.56
772.849	6071.8
773.184	6053.5
773.519	6022.09
773.855	5992.26
774.19	5969.43
774.525	5907.06
774.86	5971.69
775.195	5935.54
775.53	5879.27
775.865	5871.58
776.2	5871.58
776.535	5812.38
776.87	5796.33
777.205	5800.62
777.539	5761.76
777.874	5779.83
778.209	5730.34
778.543	5715.88
778.878	5716.56
779.212	5694.86
779.547	5661.19
779.881	5685.83
780.215	5578.94
780.55	5656
780.884	5570.35
781.218	5604.25
781.552	5568.99
781.886	5559.27
782.22	5556.11
782.554	5485.83
782.888	5509.56
783.222	5436.79
783.556	5467.07
783.889	5428.43
784.223	5404.25
784.557	5373.29
784.89	5423.01
785.224	5331.03
785.557	5368.09
785.891	5305.27
786.224	5321.77
786.558	5306.17
786.891	5273.86
787.224	5197.48
787.557	5194.99
787.891	5196.8
788.224	5193.18
788.557	5192.5
788.89	5191.83
789.223	5212.17
789.556	5174.2
789.888	5119.74
790.221	5122
790.554	5060.08
790.887	5043.13
791.219	5098.27
791.552	5000.42
791.884	5001.1
792.217	5037.48
792.549	5012.62
792.882	4960.87
793.214	4967.2
793.546	4971.27
793.879	4936.69
794.211	4932.4
794.543	4976.47
794.875	4901.89
795.207	4905.73
795.539	4869.58
795.871	4882.23
796.203	4863.02
796.535	4847.66
796.867	4807.66
797.198	4805.85
797.53	4785.96
797.862	4714.55
798.193	4824.83
798.525	4730.37
798.856	4726.98
799.188	4651.05
799.519	4623.25
799.85	4670.94
800.182	4674.55
800.513	4661.22
800.844	4663.03
801.175	4642.69
801.506	4646.98
801.837	4630.49
802.168	4584.16
802.499	4584.61
802.83	4562.69
803.161	4587.55
803.491	4543.26
803.822	4527.89
804.153	4505.97
804.483	4499.42
804.814	4501.22
805.145	4502.81
805.475	4514.56
805.805	4468.91
806.136	4456.93
806.466	4433.88
806.796	4448.57
807.126	4439.53
807.457	4373.54
807.787	4399.76
808.117	4351.17
808.447	4412.64
808.777	4428.46
809.107	4368.12
809.436	4319.99
809.766	4304.39
810.096	4347.78
810.426	4329.48
810.755	4342.58
811.085	4282.25
811.414	4258.97
811.744	4289.03
812.073	4234.34
812.403	4226.65
812.732	4192.98
813.061	4232.76
813.39	4213.77
813.719	4216.03
814.049	4248.35
814.378	4191.63
814.707	4171.29
815.036	4177.39
815.365	4105.75
815.693	4169.93
816.022	4152.76
816.351	4100.33
816.68	4123.61
817.008	4115.7
817.337	4075.25
817.665	4087
817.994	4093.55
818.322	4072.53
818.651	4076.6
818.979	4021.24
819.307	4039.99
819.636	3989.15
819.964	4039.31
820.292	4033.44
820.62	4076.83
820.948	4008.81
821.276	4037.51
821.604	4009.26
821.932	4028.69
822.259	4005.64
822.587	4000.67
822.915	3988.92
823.243	4036.6
823.57	4021.46
823.898	4039.77
824.225	3983.04
824.553	3964.29
824.88	4010.61
825.207	4025.98
825.535	4016.94
825.862	3999.77
826.189	4036.38
826.516	4029.15
826.843	4015.81
827.17	4001.12
827.497	4058.3
827.824	4012.42
828.151	4016.72
828.478	4023.27
828.805	3995.93
829.131	3990.28
829.458	3961.12
829.785	3969.94
830.111	4007
830.438	4010.84
830.764	4007
831.09	4038.41
831.417	3974.68
831.743	3971.07
832.069	4005.42
832.395	3987.56
832.722	4008.58
833.048	3984.4
833.374	4008.36
833.7	3971.29
834.026	3976.49
834.351	3977.17
834.677	3969.71
835.003	3996.38
835.329	3958.41
835.654	3971.52
835.98	3900.56
836.306	3957.96
836.631	3954.8
836.956	3955.7
837.282	3950.96
837.607	3939.66
837.932	3947.79
838.258	3926.32
838.583	3921.13
838.908	3892.43
839.233	3905.76
839.558	3882.93
839.883	3874.57
840.208	3893.33
840.533	3855.14
840.858	3863.05
841.182	3825.08
841.507	3840.22
841.832	3833.67
842.156	3836.61
842.481	3835.03
842.805	3841.58
843.13	3828.47
843.454	3804.07
843.778	3788.7
844.103	3795.03
844.427	3821.47
844.751	3785.76
845.075	3763.16
845.399	3714.35
845.723	3796.38
846.047	3752.77
846.371	3724.29
846.695	3711.19
847.019	3696.27
847.343	3693.11
847.666	3646.1
847.99	3679.1
848.313	3678.87
848.637	3646.78
848.96	3614.69
849.284	3595.94
849.607	3646.1
849.931	3607.24
850.254	3590.74
850.577	3553.9
850.9	3513
851.223	3539.67
851.546	3548.48
851.869	3530.85
852.192	3524.07
852.515	3519.78
852.838	3487.01
853.161	3436.17
853.483	3450.63
853.806	3467.58
854.129	3431.2
854.451	3390.52
854.774	3390.07
855.096	3400.46
855.419	3368.15
855.741	3404.3
856.063	3368.15
856.385	3333.8
856.708	3337.86
857.03	3350.97
857.352	3307.58
857.674	3301.48
857.996	3346.45
858.318	3311.88
858.64	3324.98
858.961	3336.96
859.283	3286.79
859.605	3275.49
859.926	3274.82
860.248	3258.77
860.57	3250.41
860.891	3273.91
861.212	3251.31
861.534	3191.65
861.855	3219.9
862.176	3210.64
862.498	3214.03
862.819	3251.54
863.14	3207.7
863.461	3230.97
863.782	3249.05
864.103	3180.35
864.424	3192.11
864.745	3165.21
865.065	3148.72
865.386	3189.62
865.707	3175.38
866.027	3192.11
866.348	3171.99
866.668	3141.26
866.989	3148.94
867.309	3138.77
867.63	3140.81
867.95	3092.67
868.27	3114.14
868.59	3117.53
868.91	3123.63
869.23	3122.5
869.55	3074.82
869.87	3085.89
870.19	3050.41
870.51	3105.55
870.83	3096.97
871.15	3120.47
871.469	3073.24
871.789	3079.34
872.109	3098.55
872.428	3055.39
872.748	3063.52
873.067	3036.63
873.386	3071.43
873.706	3041.83
874.025	3057.19
874.344	3064.88
874.663	3070.98
874.982	3040.92
875.301	3036.86
875.62	3021.04
875.939	3005.67
876.258	3005.67
876.577	3011.55
876.896	3028.27
877.214	2980.81
877.533	3007.7
877.852	2980.81
878.17	3027.59
878.489	2997.53
878.807	2985.56
879.125	2972.68
879.444	2972.68
879.762	2992.79
880.08	2940.81
880.398	2948.27
880.716	2967.03
881.034	2969.06
881.352	2959.12
881.67	2963.64
881.988	2944.88
882.306	2922.28
882.624	2951.43
882.941	2915.05
883.259	2910.98
883.577	2927.71
883.894	2855.39
884.212	2869.4
884.529	2881.83
884.846	2888.84
885.164	2875.05
885.481	2856.52
885.798	2900.36
886.115	2860.14
886.432	2823.75
886.75	2821.49
887.067	2843.87
887.383	2849.06
887.7	2881.15
888.017	2839.35
888.334	2817.88
888.651	2823.53
888.967	2779.69
889.284	2775.62
889.6	2763.19
889.917	2778.56
890.233	2783.98
890.55	2751.66
890.866	2747.37
891.182	2783.08
891.498	2713.7
891.815	2732.46
892.131	2733.59
892.447	2744.21
892.763	2710.08
893.079	2719.8
893.395	2716.86
893.71	2696.07
894.026	2685
894.342	2669.18
894.657	2705.34
894.973	2671.89
895.289	2667.83
895.604	2630.99
895.92	2668.73
896.235	2663.53
896.55	2640.93
896.865	2655.4
897.181	2614.27
897.496	2604.78
897.811	2609.07
898.126	2591.44
898.441	2599.13
898.756	2562.97
899.071	2555.06
899.386	2564.55
899.7	2557.32
900.015	2530.2
900.33	2541.5
900.644	2504.21
900.959	2528.62
901.273	2500.37
901.588	2504.44
901.902	2473.48
902.216	2509.64
902.531	2517.55
902.845	2487.94
903.159	2455.63
903.473	2476.64
903.787	2414.95
904.101	2445.01
904.415	2432.8
904.729	2447.49
905.042	2382.41
905.356	2414.5
905.67	2416.08
905.984	2428.96
906.297	2417.21
906.611	2386.93
906.924	2385.8
907.237	2384.44
907.551	2397.32
907.864	2396.42
908.177	2364.56
908.491	2357.55
908.804	2307.16
909.117	2310.09
909.43	2330.66
909.743	2294.05
910.056	2324.11
910.368	2331.34
910.681	2268.97
910.994	2258.12
911.307	2265.12
911.619	2250.66
911.932	2269.87
912.244	2237.78
912.557	2246.37
912.869	2222.64
913.181	2242.53
913.494	2220.61
913.806	2206.14
914.118	2209.76
914.43	2179.25
914.742	2169.08
915.054	2186.48
915.366	2176.99
915.678	2164.11
915.99	2158.69
916.302	2148.29
916.613	2132.25
916.925	2124.11
917.236	2125.69
917.548	2090.44
917.859	2108.74
918.171	2110.33
918.482	2088.63
918.794	2095.19
919.105	2093.15
919.416	2094.96
919.727	2071
920.038	2065.13
920.349	2019.25
920.66	2052.47
920.971	2065.13
921.282	2044.34
921.593	1998.92
921.903	1999.59
922.214	1992.14
922.525	1985.81
922.835	1998.24
923.146	2002.31
923.456	1962.99
923.767	1992.36
924.077	1941.52
924.387	1962.53
924.697	1932.93
925.008	1962.31
925.318	1945.13
925.628	1960.05
925.938	1937.9
926.248	1943.78
926.558	1921.86
926.867	1899.03
927.177	1922.76
927.487	1882.31
927.796	1882.76
928.106	1862.2
928.416	1834.63
928.725	1877.79
929.034	1847.28
929.344	1836.66
929.653	1828.53
929.962	1835.08
930.271	1823.33
930.581	1809.99
930.89	1801.18
931.199	1806.83
931.508	1793.5
931.817	1786.49
932.125	1803.44
932.434	1783.78
932.743	1763.89
933.051	1781.97
933.36	1767.28
933.669	1742.65
933.977	1751.47
934.286	1758.24
934.594	1711.01
934.902	1710.11
935.21	1707.17
935.519	1727.74
935.827	1724.57
936.135	1694.52
936.443	1703.78
936.751	1697
937.059	1680.51
937.367	1670.79
937.674	1679.83
937.982	1636.67
938.29	1664.69
938.597	1643.9
938.905	1645.25
939.213	1635.31
939.52	1615.2
939.827	1642.99
940.135	1633.95
940.442	1610.68
940.749	1655.65
941.056	1615.2
941.363	1616.1
941.67	1613.62
941.977	1627.85
942.284	1570.45
942.591	1592.6
942.898	1594.86
943.205	1598.02
943.511	1578.59
943.818	1586.72
944.125	1544.24
944.431	1546.05
944.738	1555.09
945.044	1557.57
945.35	1531.81
945.657	1499.95
945.963	1518.03
946.269	1498.82
946.575	1521.64
946.881	1519.38
947.187	1507.63
947.493	1494.52
947.799	1492.94
948.105	1505.82
948.41	1481.42
948.716	1470.12
949.022	1471.02
949.327	1487.97
949.633	1496.78
949.938	1472.83
950.244	1451.13
950.549	1447.97
950.854	1465.15
951.16	1439.38
951.465	1416.78
951.77	1413.85
952.075	1412.94
952.38	1430.8
952.685	1425.15
952.99	1410.91
953.294	1393.73
953.599	1405.49
953.904	1396.67
954.209	1394.19
954.513	1417.01
954.818	1374.3
955.122	1401.87
955.426	1342.44
955.731	1377.92
956.035	1354.64
956.339	1369.78
956.643	1354.41
956.948	1348.76
957.252	1327.75
957.556	1349.44
957.86	1348.09
958.163	1332.27
958.467	1342.89
958.771	1327.52
959.075	1316
959.378	1319.16
959.682	1308.99
959.985	1293.85
960.289	1290.01
960.592	1274.19
960.896	1297.92
961.199	1264.25
961.502	1258.37
961.805	1269.9
962.108	1245.49
962.411	1262.66
962.714	1271.48
963.017	1267.86
963.32	1240.52
963.623	1249.56
963.926	1246.85
964.228	1252.72
964.531	1238.48
964.833	1233.29
965.136	1217.69
965.438	1228.99
965.741	1209.78
966.043	1209.11
966.345	1214.3
966.648	1178.6
966.95	1212.72
967.252	1198.94
967.554	1167.75
967.856	1181.76
968.158	1177.7
968.46	1173.63
968.761	1185.15
969.063	1167.53
969.365	1163.01
969.666	1189.22
969.968	1162.78
970.269	1180.63
970.571	1138.15
970.872	1152.84
971.174	1163.01
971.475	1127.98
971.776	1141.31
972.077	1139.73
972.378	1123.91
972.679	1103.12
972.98	1119.17
973.281	1118.94
973.582	1117.13
973.883	1106.28
974.183	1111.71
974.484	1101.99
974.785	1086.85
975.085	1109.9
975.386	1099.28
975.686	1096.57
975.986	1090.69
976.287	1074.19
976.587	1064.93
976.887	1087.3
977.187	1056.57
977.487	1078.71
977.787	1074.19
978.087	1053.63
978.387	1070.35
978.687	1053.18
978.987	1053.4
979.286	1045.04
979.586	1063.57
979.885	1032.16
980.185	1032.16
980.484	1025.16
980.784	1032.61
981.083	1040.52
981.382	995.1
981.682	1015.89
981.981	1006.85
982.28	1043.69
982.579	998.04
982.878	997.59
983.177	994.65
983.475	975.89
983.774	977.02
984.073	969.11
984.372	1021.77
984.67	991.26
984.969	987.64
985.267	970.47
985.566	984.93
985.864	951.71
986.162	973.41
986.461	959.4
986.759	975.89
987.057	961.66
987.355	942.22
987.653	962.79
987.951	932.05
988.249	948.55
988.547	942.45
988.844	962.79
989.142	947.42
989.44	952.84
989.737	920.3
990.035	924.59
990.332	940.64
990.63	909.91
990.927	937.93
991.224	934.31
991.521	906.97
991.819	932.05
992.116	900.19
992.413	891.83
992.71	891.37
993.006	874.65
993.303	912.17
993.6	892.05
993.897	888.44
994.193	868.1
994.49	889.12
994.787	880.3
995.083	895.22
995.379	864.93
995.676	866.06
995.972	864.93
996.268	871.26
996.565	880.53
996.861	865.84
997.157	869.45
997.453	849.79
997.749	871.26
998.044	835.33
998.34	858.61
998.636	837.14
998.932	843.47
999.227	860.42
999.523	833.07
999.818	822.45
1000.114	817.7
1000.409	808.21
1000.704	821.32
1001	808.67
1001.295	816.57
1001.59	811.15
1001.885	815.44
1002.18	814.09
1002.475	793.98
1002.77	794.88
1003.065	816.12
1003.359	787.65
1003.654	793.07
1003.949	789.46
1004.243	786.74
1004.538	787.42
1004.832	767.99
1005.127	782.45
1005.421	753.75
1005.715	756.92
1006.009	780.42
1006.304	754.88
1006.598	742.68
1006.892	759.17
1007.186	754.88
1007.48	753.3
1007.773	740.42
1008.067	737.71
1008.361	735.67
1008.655	751.27
1008.948	756.92
1009.242	732.73
1009.535	702.91
1009.829	708.55
1010.122	729.8
1010.415	718.95
1010.708	711.72
1011.001	720.53
1011.295	703.81
1011.588	723.24
1011.881	687.09
1012.173	692.06
1012.466	709.23
1012.759	697.03
1013.052	699.29
1013.344	700.87
1013.637	683.7
1013.93	708.78
1014.222	708.78
1014.514	692.28
1014.807	674.21
1015.099	689.57
1015.391	684.37
1015.683	686.63
1015.976	678.73
1016.268	653.42
1016.56	667.2
1016.851	653.64
1017.143	652.51
1017.435	643.25
1017.727	645.51
1018.018	667.2
1018.31	651.61
1018.602	625.39
1018.893	633.98
1019.185	663.81
1019.476	633.08
1019.767	640.99
1020.058	646.86
1020.35	648.44
1020.641	627.43
1020.932	638.5
1021.223	608.9
1021.514	618.84
1021.804	621.1
1022.095	631.04
1022.386	611.38
1022.677	609.35
1022.967	615.45
1023.258	612.06
1023.548	604.15
1023.839	592.85
1024.129	608.67
1024.419	610.7
1024.709	598.95
1025	597.6
1025.29	605.73
1025.58	614.09
1025.87	586.98
1026.16	587.2
1026.449	575.9
1026.739	586.52
1027.029	544.49
1027.319	580.42
1027.608	579.07
1027.898	577.94
1028.187	562.34
1028.477	558.05
1028.766	555.11
1029.055	553.08
1029.344	567.32
1029.634	549.24
1029.923	573.64
1030.212	552.63
1030.501	544.72
1030.79	535.68
1031.078	525.73
1031.367	547.43
1031.656	551.72
1031.945	523.02
1032.233	540.65
1032.522	529.58
1032.81	527.54
1033.099	543.14
1033.387	530.71
1033.675	525.51
1033.963	513.08
1034.251	520.09
1034.54	520.09
1034.828	540.65
1035.116	527.99
1035.403	499.97
1035.691	511.27
1035.979	518.73
1036.267	513.98
1036.554	499.97
1036.842	493.87
1037.129	502.91
1037.417	502.23
1037.704	505.17
1037.992	496.36
1038.279	504.72
1038.566	481.22
1038.853	481.22
1039.14	481.22
