Data from mousepad_grey_FLMS001491_00094.txt Node
Date: Wed Feb 08 14:30:13 GMT 2017
User: dcchb
Spectrometer: FLMS00149
Trigger mode: 0
Integration Time (sec): 2.000000E-2
Scans to average: 10
Electric dark correction enabled: true
Nonlinearity correction enabled: false
Boxcar width: 0
XAxis mode: Wavelengths
Number of Pixels in Spectrum: 2048
>>>>>Begin Spectral Data<<<<<
341.393	-17.81
341.776	-17.81
342.16	-17.81
342.543	-40.86
342.927	-80.41
343.31	-59.84
343.693	-85.15
344.077	-60.75
344.46	-83.12
344.843	-32.05
345.226	-29.79
345.61	-52.16
345.993	-12.84
346.376	-11.71
346.759	3.66
347.142	46.82
347.525	53.37
347.908	49.76
348.291	66.03
348.674	87.95
349.057	119.81
349.44	113.03
349.823	137.89
350.206	155.29
350.588	166.14
350.971	186.48
351.354	206.59
351.737	228.74
352.119	228.96
352.502	230.54
352.884	228.74
353.267	272.13
353.65	269.87
354.032	266.7
354.414	292.01
354.797	300.83
355.179	286.59
355.562	281.39
355.944	318.45
356.326	289.98
356.709	312.8
357.091	319.13
357.473	344.21
357.855	302.63
358.238	314.16
358.62	304.22
359.002	309.19
359.384	326.81
359.766	332.24
360.148	322.75
360.53	336.08
360.912	289.98
361.294	317.55
361.676	306.93
362.057	311.22
362.439	320.26
362.821	311.67
363.203	316.87
363.584	293.14
363.966	306.93
364.348	317.55
364.729	294.27
365.111	298.34
365.493	294.72
365.874	310.77
366.256	301.05
366.637	307.6
367.019	276.65
367.4	310.09
367.781	308.96
368.163	299.92
368.544	292.69
368.925	279.81
369.306	308.73
369.688	288.85
370.069	275.74
370.45	286.36
370.831	299.92
371.212	296.98
371.593	297.89
371.974	284.1
372.355	302.86
372.736	287.49
373.117	296.98
373.498	293.59
373.879	303.76
374.26	272.58
374.641	281.39
375.021	300.6
375.402	281.16
375.783	302.63
376.163	285.01
376.544	319.58
376.925	308.28
377.305	331.79
377.686	291.56
378.066	290.66
378.447	318
378.827	306.02
379.208	314.61
379.588	314.84
379.968	296.53
380.349	321.62
380.729	308.51
381.109	314.38
381.489	314.16
381.87	318.68
382.25	338.79
382.63	302.18
383.01	316.64
383.39	318
383.77	333.82
384.15	312.58
384.53	333.59
384.91	325.23
385.29	311.9
385.67	329.07
386.049	329.3
386.429	306.25
386.809	336.76
387.189	338.34
387.568	343.31
387.948	331.56
388.328	339.69
388.707	327.72
389.087	326.14
389.466	356.64
389.846	314.16
390.225	348.51
390.605	333.82
390.984	339.02
391.363	343.08
391.743	348.28
392.122	358.68
392.501	363.65
392.881	375.63
393.26	338.79
393.639	342.18
394.018	365.46
394.397	365
394.776	350.32
395.155	353.71
395.534	371.78
395.913	360.48
396.292	368.39
396.671	347.83
397.05	401.39
397.429	350.54
397.808	349.86
398.186	385.34
398.565	376.53
398.944	370.65
399.323	384.44
399.701	377.21
400.08	406.59
400.458	388.28
400.837	376.98
401.215	375.17
401.594	387.6
401.972	402.29
402.351	373.82
402.729	391.67
403.107	404.33
403.486	401.61
403.864	408.39
404.242	412.23
404.62	401.84
404.999	405.68
405.377	418.56
405.755	405
406.133	412.69
406.511	414.04
406.889	427.15
407.267	411.11
407.645	399.81
408.023	437.09
408.401	420.82
408.779	409.98
409.156	432.12
409.534	446.58
409.912	430.77
410.29	450.88
410.667	450.88
411.045	470.31
411.422	445.23
411.8	455.17
412.178	462.18
412.555	459.69
412.933	482.29
413.31	460.37
413.687	489.75
414.065	472.12
414.442	459.69
414.819	488.84
415.197	501.05
415.574	484.55
415.951	466.02
416.328	461.73
416.705	491.33
417.082	484.1
417.46	483.42
417.837	478.45
418.214	504.21
418.591	513.93
418.967	531.1
419.344	510.31
419.721	533.81
420.098	533.36
420.475	518.22
420.852	530.88
421.228	527.71
421.605	535.85
421.982	529.75
422.358	544.21
422.735	542.85
423.111	537.2
423.488	557.99
423.864	573.81
424.241	568.61
424.617	578.33
424.994	563.42
425.37	551.67
425.746	575.62
426.123	586.69
426.499	600.25
426.875	572.23
427.251	574.04
427.627	601.16
428.003	590.99
428.379	595.51
428.756	592.57
429.132	619.69
429.507	636.41
429.883	624.43
430.259	628.27
430.635	636.86
431.011	640.03
431.387	638.22
431.763	671.66
432.138	654.94
432.514	643.19
432.89	673.7
433.265	663.75
433.641	674.37
434.016	681.38
434.392	677.54
434.767	693.81
435.143	710.08
435.518	717.54
435.894	740.59
436.269	706.92
436.644	722.28
437.02	732.45
437.395	708.72
437.77	754.37
438.145	737.2
438.52	761.38
438.895	756.41
439.271	727.71
439.646	777.65
440.021	771.32
440.395	779
440.77	752.34
441.145	779.68
441.52	807.7
441.895	796.18
442.27	777.2
442.645	797.31
443.019	794.82
443.394	816.29
443.769	811.32
444.143	823.07
444.518	841.38
444.892	816.29
445.267	830.08
445.641	846.35
446.016	816.97
446.39	852.9
446.764	862.84
447.139	848.38
447.513	865.78
447.887	857.19
448.262	865.78
448.636	873.24
449.01	882.05
449.384	917.98
449.758	886.8
450.132	912.33
450.506	894.48
450.88	921.83
451.254	922.73
451.628	917.98
452.002	945.78
452.376	930.19
452.75	937.42
453.123	954.82
453.497	963.18
453.871	960.7
454.244	989.39
454.618	994.37
454.992	994.37
455.365	1016.51
455.739	1037.3
456.112	1014.25
456.486	1048.6
456.859	1059.9
457.232	1078.66
457.606	1044.08
457.979	1091.77
458.352	1107.13
458.725	1094.48
459.099	1106
459.472	1113.01
459.845	1145.1
460.218	1138.32
460.591	1149.39
460.964	1146
461.337	1168.6
461.71	1204.76
462.083	1221.71
462.456	1229.39
462.829	1202.5
463.201	1242.95
463.574	1233.68
463.947	1253.12
464.32	1269.84
464.692	1259.44
465.065	1309.61
465.438	1294.47
465.81	1334.02
466.183	1310.29
466.555	1355.71
466.928	1374.92
467.3	1368.59
467.672	1376.5
468.045	1411.76
468.417	1403.4
468.789	1424.19
469.161	1436.61
469.534	1486.78
469.906	1481.59
470.278	1515.48
470.65	1532.66
471.022	1528.36
471.394	1544.18
471.766	1546.67
472.138	1594.35
472.51	1613.56
472.882	1605.2
473.253	1651.3
473.625	1647.91
473.997	1712.31
474.369	1715.7
474.74	1701.69
475.112	1771.3
475.484	1770.62
475.855	1796.83
476.227	1802.93
476.598	1861.01
476.97	1881.12
477.341	1906.21
477.713	1924.51
478.084	1954.57
478.455	2016.26
478.827	2016.71
479.198	2068.24
479.569	2068.69
479.94	2103.26
480.311	2132.19
480.682	2155.47
481.053	2200.66
481.424	2211.28
481.795	2252.86
482.166	2279.53
482.537	2318.17
482.908	2378.96
483.279	2400.43
483.65	2385.52
484.021	2474.1
484.391	2499.64
484.762	2494.67
485.133	2542.8
485.503	2564.04
485.874	2594.32
486.244	2663.93
486.615	2676.13
486.985	2697.6
487.356	2771.95
487.726	2744.15
488.097	2818.95
488.467	2834.32
488.837	2888.78
489.207	2925.62
489.578	2933.98
489.948	2995.22
490.318	3025.5
490.688	3033.63
491.058	3076.35
491.428	3077.02
491.798	3140.52
492.168	3194.99
492.538	3163.8
492.908	3230.69
493.278	3261.2
493.648	3314.31
494.017	3336.9
494.387	3342.55
494.757	3396.79
495.126	3399.28
495.496	3399.5
495.866	3486.05
496.235	3440.86
496.605	3529.22
496.974	3566.73
497.344	3541.87
497.713	3599.5
498.082	3632.04
498.452	3620.51
498.821	3655.54
499.19	3648.76
499.559	3740.73
499.928	3768.98
500.298	3758.14
500.667	3789.1
501.036	3801.52
501.405	3804.69
501.774	3832.94
502.143	3866.83
502.512	3885.36
502.88	3898.7
503.249	3968.98
503.618	3941.41
503.987	3992.71
504.356	3994.29
504.724	4010.56
505.093	4094.85
505.462	4051.91
505.83	4065.47
506.199	4143.21
506.567	4194.06
506.936	4188.63
507.304	4260.04
507.672	4171.91
508.041	4253.72
508.409	4305.69
508.777	4316.54
509.145	4344.11
509.514	4370.77
509.882	4405.12
510.25	4456.87
510.618	4504.33
510.986	4480.38
511.354	4483.31
511.722	4498.68
512.09	4565.12
512.458	4545.23
512.826	4657.32
513.193	4637.43
513.561	4674.72
513.929	4734.38
514.297	4730.99
514.664	4792.23
515.032	4809.86
515.4	4832.01
515.767	4850.76
516.135	4843.98
516.502	4884.66
516.869	4930.31
517.237	4986.35
517.604	4956.97
517.972	5032
518.339	5071.1
518.706	5075.16
519.073	5076.52
519.44	5124.88
519.808	5142.51
520.175	5213.46
520.542	5277.42
520.909	5260.7
521.276	5282.84
521.643	5363.97
522.009	5389.73
522.376	5381.37
522.743	5465.89
523.11	5473.57
523.477	5549.73
523.843	5633.79
524.21	5609.84
524.577	5693.9
524.943	5662.49
525.31	5692.77
525.676	5745.2
526.043	5789.95
526.409	5781.59
526.776	5871.98
527.142	5870.17
527.508	5982.03
527.874	6014.57
528.241	6020.9
528.607	6045.99
528.973	6107.9
529.339	6116.94
529.705	6120.11
530.071	6236.71
530.437	6277.17
530.803	6260.22
531.169	6294.11
531.535	6390.83
531.901	6332.08
532.267	6416.6
532.632	6472.87
532.998	6458.18
533.364	6483.94
533.73	6519.64
534.095	6556.48
534.461	6571.62
534.826	6646.65
535.192	6630.83
535.557	6658.4
535.923	6695.91
536.288	6828.79
536.653	6799.86
537.019	6747.44
537.384	6821.11
537.749	6870.14
538.114	6841.67
538.479	6899.75
538.845	6893.65
539.21	6913.53
539.575	6922.8
539.94	6969.12
540.305	7016.13
540.67	7015
541.034	7064.49
541.399	7120.53
541.764	7102.68
542.129	7157.37
542.494	7174.32
542.858	7206.86
543.223	7212.51
543.587	7319.85
543.952	7311.71
544.316	7313.97
544.681	7358.72
545.045	7353.75
545.41	7450.47
545.774	7419.96
546.138	7467.87
546.503	7503.35
546.867	7486.17
547.231	7544.02
547.595	7584.7
547.959	7597.81
548.324	7615.44
548.688	7699.5
549.052	7655.21
549.416	7779.05
549.779	7777.69
550.143	7791.93
550.507	7877.12
550.871	7875.09
551.235	7863.56
551.599	7887.07
551.962	7953.96
552.326	8013.39
552.689	8022.66
553.053	8005.93
553.417	8043.45
553.78	8148.98
554.143	8131.81
554.507	8155.53
554.87	8201.86
555.234	8332.93
555.597	8221.52
555.96	8384.68
556.323	8349.88
556.686	8331.8
557.05	8400.05
557.413	8452.93
557.776	8469.2
558.139	8506.94
558.502	8523.43
558.865	8465.36
559.228	8567.05
559.59	8669.87
559.953	8648.85
560.316	8728.4
560.679	8791.9
561.041	8762.98
561.404	8838.23
561.767	8910.54
562.129	8852.69
562.492	8937.43
562.854	8944.21
563.217	8923.42
563.579	8998.45
563.941	9047.94
564.304	9111.67
564.666	9186.47
565.028	9198.67
565.39	9230.31
565.753	9272.79
566.115	9305.56
566.477	9390.76
566.839	9270.31
567.201	9384.43
567.563	9459.45
567.925	9498.32
568.287	9559.79
568.648	9524.54
569.01	9546.01
569.372	9541.26
569.734	9601.15
570.095	9689.73
570.457	9786.45
570.819	9819.9
571.18	9797.75
571.542	9811.54
571.903	9813.12
572.265	9826.22
572.626	9874.81
572.987	9969.5
573.349	9987.12
573.71	9957.97
574.071	10071.64
574.432	10070.96
574.794	10125.43
575.155	10137.18
575.516	10094.01
575.877	10204.97
576.238	10201.13
576.599	10180.34
576.96	10232.09
577.32	10171.75
577.681	10245.2
578.042	10325.87
578.403	10309.38
578.763	10331.75
579.124	10324.97
579.485	10374.01
579.845	10375.59
580.206	10366.1
580.566	10436.15
580.927	10432.08
581.287	10442.93
581.648	10478.64
582.008	10478.18
582.368	10500.11
582.728	10515.47
583.089	10619.65
583.449	10489.48
583.809	10539.65
584.169	10498.3
584.529	10504.4
584.889	10534.23
585.249	10530.61
585.609	10548.47
585.969	10594.11
586.329	10586.88
586.688	10557.96
587.048	10578.97
587.408	10562.7
587.768	10559.99
588.127	10527
588.487	10604.06
588.846	10672.98
589.206	10562.7
589.565	10620.1
589.925	10610.16
590.284	10622.59
590.643	10660.1
591.003	10607
591.362	10658.29
591.721	10612.19
592.08	10657.39
592.44	10668.46
592.799	10728.57
593.158	10693.55
593.517	10665.52
593.876	10711.63
594.235	10649.71
594.593	10677.05
594.952	10717.05
595.311	10708.46
595.67	10704.85
596.029	10715.01
596.387	10773.54
596.746	10753.43
597.104	10736.71
597.463	10787.56
597.822	10784.17
598.18	10780.78
598.538	10709.82
598.897	10850.15
599.255	10705.98
599.613	10842.92
599.972	10887.44
600.33	10759.99
600.688	10808.8
601.046	10850.15
601.404	10917.72
601.762	10832.3
602.12	10886.31
602.478	10863.94
602.836	10861
603.194	10769.7
603.552	10852.19
603.91	10838.18
604.268	10900.32
604.625	10896.93
604.983	10907.55
605.341	10846.54
605.698	10953.2
606.056	10985.06
606.413	10983.48
606.771	10908.91
607.128	11019.41
607.485	10951.62
607.843	10883.82
608.2	11014.89
608.557	11072.29
608.914	10998.17
609.272	11122.69
609.629	11101.45
609.986	11104.16
610.343	11053.99
610.7	11175.34
611.057	11027.32
611.414	11102.35
611.771	11177.15
612.127	11181.44
612.484	11167.88
612.841	11117.94
613.198	11140.77
613.554	11192.97
613.911	11262.57
614.267	11181.9
614.624	11200.43
614.98	11204.95
615.337	11304.6
615.693	11308.22
616.05	11278.16
616.406	11328.78
616.762	11273.64
617.118	11298.28
617.475	11312.74
617.831	11376.47
618.187	11366.3
618.543	11323.13
618.899	11415.11
619.255	11413.75
619.611	11344.6
619.967	11427.31
620.323	11478.84
620.678	11406.07
621.034	11366.3
621.39	11385.05
621.746	11357.71
622.101	11501.89
622.457	11391.38
622.812	11463.24
623.168	11498.95
623.523	11477.25
623.879	11487.88
624.234	11388.22
624.589	11464.6
624.945	11503.02
625.3	11472.74
625.655	11521.55
626.01	11479.06
626.365	11449.46
626.72	11484.94
627.075	11463.47
627.43	11474.99
627.785	11424.15
628.14	11467.54
628.495	11423.24
628.85	11512.28
629.205	11394.09
629.559	11521.32
629.914	11378.95
630.269	11486.52
630.623	11379.18
630.978	11418.5
631.332	11450.81
631.687	11437.48
632.041	11419.63
632.396	11495.56
632.75	11469.12
633.104	11464.37
633.459	11318.84
633.813	11338.28
634.167	11437.03
634.521	11319.29
634.875	11391.38
635.229	11391.83
635.583	11287.43
635.937	11285.4
636.291	11298.28
636.645	11363.59
636.999	11350.7
637.352	11331.95
637.706	11236.58
638.06	11386.41
638.413	11295.11
638.767	11209.69
639.121	11275.9
639.474	11271.38
639.828	11269.35
640.181	11286.3
640.534	11213.08
640.888	11232.06
641.241	11216.7
641.594	11208.34
641.947	11168.56
642.301	11247.43
642.654	11241.33
643.007	11162.46
643.36	11215.11
643.713	11105.74
644.066	11211.27
644.419	11171.27
644.771	11051.05
645.124	11037.49
645.477	10968.57
645.83	10976.25
646.182	10856.71
646.535	10849.93
646.888	10841.79
647.24	10785.75
647.593	10881.79
647.945	10856.03
648.298	10845.63
648.65	10715.24
649.002	10785.97
649.355	10816.93
649.707	10729.25
650.059	10835.24
650.411	10983.93
650.763	11029.81
651.115	11088.11
651.467	11043.59
651.819	11033.2
652.171	11025.97
652.523	11079.75
652.875	11032.52
653.227	11020.32
653.578	11056.47
653.93	11022.35
654.282	11042.46
654.633	10972.41
654.985	11045.4
655.337	11033.88
655.688	11082.69
656.039	11039.3
656.391	10886.08
656.742	11024.61
657.094	10936.25
657.445	11027.32
657.796	10987.55
658.147	10988.68
658.498	11031.39
658.849	11102.58
659.2	11051.28
659.551	10948.46
659.902	11007.66
660.253	10971.28
660.604	11054.67
660.955	10973.77
661.306	10980.54
661.656	10975.12
662.007	10996.14
662.358	10994.33
662.708	10971.73
663.059	11014.67
663.409	10910.72
663.76	10961.11
664.11	10945.52
664.461	10949.36
664.811	11000.21
665.161	10971.96
665.511	11003.37
665.862	11000.66
666.212	10977.15
666.562	11028.9
666.912	10948.46
667.262	10935.8
667.612	10992.52
667.962	10972.64
668.312	10949.58
668.662	11073.42
669.011	10928.12
669.361	10933.77
669.711	10951.62
670.06	10924.95
670.41	10905.97
670.76	10855.58
671.109	11008.34
671.459	10973.77
671.808	10931.05
672.157	10918.63
672.507	10873.43
672.856	10899.19
673.205	10876.14
673.554	10926.99
673.904	10844.5
674.253	10958.4
674.602	10857.16
674.951	10761.34
675.3	10741.45
675.649	10802.47
675.998	10830.49
676.346	10828.46
676.695	10924.5
677.044	10729.03
677.393	10808.35
677.741	10806.76
678.09	10777.61
678.438	10781.23
678.787	10767.67
679.135	10828.91
679.484	10714.11
679.832	10770.38
680.181	10715.47
680.529	10806.09
680.877	10680.21
681.225	10640.21
681.573	10771.51
681.922	10686.99
682.27	10657.84
682.618	10659.42
682.966	10648.12
683.314	10651.29
683.661	10587.56
684.009	10529.93
684.357	10527
684.705	10541.69
685.053	10465.3
685.4	10491.52
685.748	10416.94
686.095	10470.05
686.443	10419.66
686.79	10365.87
687.138	10320.22
687.485	10376.04
687.832	10373.78
688.18	10366.78
688.527	10262.37
688.874	10270.96
689.221	10276.38
689.568	10306.89
689.915	10204.75
690.262	10244.07
690.609	10155.03
690.956	10100.12
691.303	10090.85
691.65	10113.67
691.997	10037.52
692.344	10014.24
692.69	10056.95
693.037	10077.97
693.383	9948.03
693.73	9983.51
694.077	9926.34
694.423	9942.15
694.769	9917.07
695.116	9868.71
695.462	9886.34
695.808	9784.42
696.155	9865.55
696.501	9736.28
696.847	9716.17
697.193	9694.7
697.539	9651.31
697.885	9602.05
698.231	9609.96
698.577	9524.31
698.923	9541.71
699.269	9445.67
699.614	9522.96
699.96	9470.98
700.306	9491.77
700.651	9399.57
700.997	9353.92
701.342	9347.14
701.688	9379.68
702.033	9301.27
702.379	9332
702.724	9281.61
703.069	9359.34
703.415	9141.5
703.76	9221.27
704.105	9226.24
704.45	9075.28
704.795	9109.18
705.14	9108.28
705.485	9066.92
705.83	9079.58
706.175	9050.43
706.52	9048.39
706.865	8976.53
707.209	9019.69
707.554	8865.35
707.899	8976.76
708.243	8892.69
708.588	8884.1
708.932	8862.41
709.277	8819.47
709.621	8818.34
709.966	8788.96
710.31	8813.6
710.654	8700.38
710.998	8741.51
711.342	8708.51
711.687	8728.85
712.031	8661.06
712.375	8673.49
712.719	8667.61
713.063	8639.36
713.407	8678.23
713.75	8601.17
714.094	8560.95
714.438	8559.14
714.782	8646.82
715.125	8537.45
715.469	8609.99
715.812	8515.3
716.156	8489.31
716.499	8584.45
716.843	8498.58
717.186	8510.55
717.53	8528.63
717.873	8544.68
718.216	8439.37
718.559	8487.28
718.902	8415.19
719.246	8464.23
719.589	8414.96
719.932	8391.69
720.275	8366.38
720.617	8348.98
720.96	8370.44
721.303	8390.1
721.646	8368.64
721.989	8327.96
722.331	8395.98
722.674	8286.15
723.016	8300.84
723.359	8328.18
723.701	8307.17
724.044	8329.77
724.386	8294.29
724.729	8295.19
725.071	8259.71
725.413	8289.32
725.755	8314.85
726.097	8275.08
726.439	8195.53
726.782	8217
727.124	8274.4
727.465	8179.49
727.807	8195.53
728.149	8198.92
728.491	8256.77
728.833	8178.81
729.175	8148.53
729.516	8146.95
729.858	8199.37
730.199	8117.34
730.541	8173.61
730.882	8141.98
731.224	8154.86
731.565	8146.95
731.906	8129.32
732.248	8148.08
732.589	8110.34
732.93	8090.45
733.271	8096.1
733.612	8130.68
733.953	8153.5
734.294	8098.81
734.635	8109.66
734.976	8124.12
735.317	8126.83
735.658	8083.22
735.999	8068.76
736.339	8014.07
736.68	8092.48
737.021	8121.18
737.361	8098.36
737.702	8040.28
738.042	8057.91
738.383	8047.51
738.723	8037.12
739.063	8047.97
739.404	8064.24
739.744	8073.73
740.084	8039.38
740.424	8038.93
740.764	8046.16
741.104	8080.96
741.444	8033.73
741.784	7999.15
742.124	8053.62
742.464	7986.5
742.804	8030.79
743.143	8031.02
743.483	8012.04
743.823	7933.85
744.162	7922.55
744.502	7916.44
744.841	7950.12
745.181	8017.91
745.52	7971.58
745.86	7977.69
746.199	7994.18
746.538	7944.92
746.877	7949.89
747.216	7954.41
747.556	7984.24
747.895	7950.34
748.234	7962.09
748.573	7909.21
748.911	7913.96
749.25	7933.62
749.589	7907.63
749.928	7880.97
750.267	7887.07
750.605	7910.57
750.944	7894.07
751.283	7886.39
751.621	7871.7
751.96	7873.28
752.298	7878.93
752.636	7874.86
752.975	7797.58
753.313	7784.92
753.651	7823.57
753.989	7777.24
754.327	7730.01
754.666	7770.01
755.004	7768.65
755.342	7720.74
755.679	7788.99
756.017	7773.17
756.355	7640.97
756.693	7676.9
757.031	7745.83
757.368	7670.58
757.706	7646.62
758.044	7601.2
758.381	7634.42
758.719	7577.24
759.056	7585.61
759.394	7637.13
759.731	7560.52
760.068	7507.87
760.405	7485.5
760.743	7517.81
761.08	7447.53
761.417	7502.44
761.754	7459.73
762.091	7475.1
762.428	7390.81
762.765	7380.64
763.102	7449.11
763.438	7362.33
763.775	7332.73
764.112	7356.01
764.449	7385.61
764.785	7284.82
765.122	7252.06
765.458	7230.36
765.795	7245.73
766.131	7222.9
766.467	7208.44
766.804	7207.76
767.14	7111.49
767.476	7115.56
767.812	7071.04
768.148	7119.4
768.485	7067.43
768.821	7025.85
769.157	6971.16
769.492	7023.81
769.828	6975
770.164	6943.36
770.5	6960.76
770.836	6891.84
771.171	6884.16
771.507	6948.79
771.842	6798.96
772.178	6834.89
772.513	6836.7
772.849	6813.87
773.184	6743.37
773.519	6781.78
773.855	6697.27
774.19	6710.15
774.525	6691.39
774.86	6694.1
775.195	6650.71
775.53	6642.13
775.865	6621.34
776.2	6569.59
776.535	6536.14
776.87	6516.93
777.205	6504.73
777.539	6422.02
777.874	6469.93
778.209	6422.25
778.543	6432.64
778.878	6376.37
779.212	6356.49
779.547	6289.37
779.881	6328.24
780.215	6366.2
780.55	6316.26
780.884	6302.7
781.218	6246.88
781.552	6274.68
781.886	6212.53
782.22	6181.35
782.554	6154.46
782.888	6175.47
783.222	6135.25
783.556	6130.5
783.889	6101.58
784.223	6075.14
784.557	6034.69
784.89	6050.05
785.224	6004.63
785.557	6018.87
785.891	5969.15
786.224	5973.44
786.558	5919.89
786.891	5935.03
787.224	5910.4
787.557	5848.48
787.891	5812.32
788.224	5792.43
788.557	5851.87
788.89	5827.46
789.223	5785.65
789.556	5765.54
789.888	5764.64
790.221	5733.9
790.554	5719.89
790.887	5702.72
791.219	5693
791.552	5651.19
791.884	5611.87
792.217	5582.04
792.549	5629.05
792.882	5534.13
793.214	5526.45
793.546	5573.91
793.879	5509.28
794.211	5516.73
794.543	5507.69
794.875	5496.62
795.207	5494.59
795.539	5483.97
795.871	5493.23
796.203	5423.18
796.535	5400.35
796.867	5417.98
797.198	5397.19
797.53	5375.72
797.862	5336.63
798.193	5361.03
798.525	5318.77
798.856	5311.32
799.188	5273.8
799.519	5279
799.85	5236.29
800.182	5233.13
800.513	5253.01
800.844	5199.23
801.175	5244.42
801.506	5169.17
801.837	5214.37
802.168	5156.74
802.499	5153.13
802.83	5148.83
803.161	5113.58
803.491	5089.4
803.822	5067.25
804.153	5072.45
804.483	5035.84
804.814	4996.52
805.145	5008.05
805.475	5012.11
805.805	4969.18
806.136	4928.5
806.466	4983.19
806.796	4944.77
807.126	4934.38
807.457	4948.84
807.787	4894.83
808.117	4931.21
808.447	4872
808.777	4933.25
809.107	4938.67
809.436	4859.35
809.766	4869.97
810.096	4846.24
810.426	4840.59
810.755	4825.9
811.085	4841.5
811.414	4798.79
811.744	4820.71
812.073	4748.84
812.403	4752.01
812.732	4738.9
813.061	4723.53
813.39	4723.31
813.719	4723.76
814.049	4728.73
814.378	4734.61
814.707	4665.46
815.036	4686.92
815.365	4704.78
815.693	4580.94
816.022	4613.48
816.351	4624.55
816.68	4608.96
817.008	4568.74
817.337	4589.3
817.665	4577.1
817.994	4610.99
818.322	4526.03
818.651	4540.94
818.979	4509.75
819.307	4523.54
819.636	4534.16
819.964	4489.64
820.292	4514.05
820.62	4557.21
820.948	4523.77
821.276	4487.61
821.604	4519.02
821.932	4500.04
822.259	4477.21
822.587	4562.86
822.915	4508.62
823.243	4492.58
823.57	4499.36
823.898	4474.28
824.225	4444.9
824.553	4474.73
824.88	4470.43
825.207	4495.29
825.535	4482.86
825.862	4526.7
826.189	4468.85
826.516	4510.66
826.843	4559.24
827.17	4497.1
827.497	4506.36
827.824	4505.91
828.151	4462.3
828.478	4497.1
828.805	4512.92
829.131	4468.17
829.458	4420.94
829.785	4452.13
830.111	4506.36
830.438	4488.29
830.764	4455.52
831.09	4475.18
831.417	4460.49
831.743	4467.27
832.069	4483.09
832.395	4435.18
832.722	4412.36
833.048	4448.74
833.374	4410.32
833.7	4417.1
834.026	4435.86
834.351	4469.08
834.677	4428.85
835.003	4431.79
835.329	4475.18
835.654	4424.33
835.98	4399.93
836.306	4423.65
836.631	4391.79
836.956	4392.24
837.282	4390.89
837.607	4378.91
837.932	4383.2
838.258	4340.95
838.583	4340.72
838.908	4349.53
839.233	4350.21
839.558	4312.47
839.883	4308.18
840.208	4317.89
840.533	4347.72
840.858	4276.99
841.182	4323.54
841.507	4288.97
841.832	4311.57
842.156	4279.93
842.481	4313.15
842.805	4293.04
843.13	4262.98
843.454	4246.94
843.778	4254.17
844.103	4235.19
844.427	4237.67
844.751	4211.91
845.075	4172.81
845.399	4242.19
845.723	4206.94
846.047	4192.02
846.371	4163.55
846.695	4167.16
847.019	4087.17
847.343	4117.45
847.666	4062.99
847.99	4089.65
848.313	4051.91
848.637	4042.2
848.96	4009.43
849.284	4038.81
849.607	4006.26
849.931	3961.29
850.254	3972.37
850.577	3956.1
850.9	3930.11
851.223	3884.69
851.546	3934.4
851.869	3894.63
852.192	3951.35
852.515	3883.1
852.838	3911.58
853.161	3837.68
853.483	3820.73
853.806	3824.35
854.129	3820.73
854.451	3779.15
854.774	3783.9
855.096	3804.24
855.419	3795.87
855.741	3794.97
856.063	3759.04
856.385	3784.58
856.708	3749.1
857.03	3683.11
857.352	3732.15
857.674	3728.08
857.996	3727.63
858.318	3644.47
858.64	3694.63
858.961	3650.12
859.283	3626.61
859.605	3640.17
859.926	3648.76
860.248	3660.51
860.57	3628.65
860.891	3609.66
861.212	3584.13
861.534	3601.53
861.855	3599.95
862.176	3574.19
862.498	3581.19
862.819	3635.2
863.14	3555.88
863.461	3581.64
863.782	3574.64
864.103	3576.22
864.424	3550.01
864.745	3575.99
865.065	3518.14
865.386	3546.39
865.707	3479.5
866.027	3538.48
866.348	3519.05
866.668	3511.81
866.989	3499.39
867.309	3481.76
867.63	3475.21
867.95	3494.19
868.27	3453.74
868.59	3506.16
868.91	3472.04
869.23	3447.41
869.55	3445.15
869.87	3462.32
870.19	3451.25
870.51	3475.88
870.83	3427.97
871.15	3441.08
871.469	3468.2
871.789	3446.51
872.109	3431.82
872.428	3443.79
872.748	3400.18
873.067	3404.92
873.386	3430.01
873.706	3399.73
874.025	3387.52
874.344	3408.31
874.663	3400.4
874.982	3351.82
875.301	3396.79
875.62	3375.32
875.939	3380.52
876.258	3362.89
876.577	3326.73
876.896	3356.79
877.214	3339.16
877.533	3345.72
877.852	3314.53
878.17	3346.4
878.489	3380.07
878.807	3359.28
879.125	3336
879.444	3286.51
879.762	3317.92
880.08	3342.78
880.398	3299.84
880.716	3269.33
881.034	3266.4
881.352	3283.8
881.67	3248.32
881.988	3244.48
882.306	3302.55
882.624	3250.13
882.941	3270.46
883.259	3230.47
883.577	3217.13
883.894	3207.19
884.212	3218.94
884.529	3238.6
884.846	3190.01
885.164	3182.11
885.481	3227.75
885.798	3216.91
886.115	3185.27
886.432	3166.74
886.75	3185.5
887.067	3169.45
887.383	3143.91
887.7	3120.41
888.017	3190.69
888.334	3145.72
888.651	3113.18
888.967	3110.47
889.284	3138.94
889.6	3103.01
889.917	3085.61
890.233	3069.34
890.55	3078.15
890.866	3087.19
891.182	3096.46
891.498	3082.45
891.815	3036.57
892.131	3036.8
892.447	3044.71
892.763	2988.44
893.079	3023.47
893.395	3018.49
893.71	3029.57
894.026	3009.45
894.342	2960.87
894.657	2977.37
894.973	2962.9
895.289	2947.54
895.604	2957.03
895.92	2923.36
896.235	2933.52
896.55	2894.43
896.865	2965.61
897.181	2937.59
897.496	2863.02
897.811	2918.38
898.126	2929.46
898.441	2888.1
898.756	2889.23
899.071	2872.96
899.386	2854.2
899.7	2854.2
900.015	2837.48
900.33	2802.45
900.644	2822.79
900.959	2790.7
901.273	2784.6
901.588	2829.8
901.902	2767.2
902.216	2780.53
902.531	2783.02
902.845	2766.98
903.159	2729.24
903.473	2731.27
903.787	2730.37
904.101	2741.89
904.415	2733.98
904.729	2762.46
905.042	2674.55
905.356	2687.88
905.67	2677.03
905.984	2668.67
906.297	2651.05
906.611	2646.75
906.924	2668.45
907.237	2645.85
907.551	2611.95
907.864	2629.58
908.177	2642.68
908.491	2626.41
908.804	2580.99
909.117	2587.32
909.43	2528.34
909.743	2545.96
910.056	2570.37
910.368	2548.68
910.681	2506.87
910.994	2520.88
911.307	2515.46
911.619	2505.51
911.932	2488.79
912.244	2491.5
912.557	2474.33
912.869	2509.13
913.181	2510.26
913.494	2441.33
913.806	2456.47
914.118	2469.13
914.43	2414.67
914.742	2419.64
915.054	2411.5
915.366	2369.47
915.678	2381.9
915.99	2350.72
916.302	2357.72
916.613	2391.84
916.925	2363.82
917.236	2361.79
917.548	2322.69
917.859	2328.12
918.171	2310.94
918.482	2332.86
918.794	2300.32
919.105	2337.83
919.416	2300.32
919.727	2280.43
920.038	2295.58
920.349	2258.74
920.66	2258.51
920.971	2227.55
921.282	2210.83
921.593	2231.4
921.903	2207.44
922.214	2210.38
922.525	2205.18
922.835	2233.66
923.146	2205.86
923.456	2174.67
923.767	2170.61
924.077	2170.61
924.387	2175.58
924.697	2177.39
925.008	2178.52
925.318	2162.25
925.628	2136.48
925.938	2130.61
926.248	2112.3
926.558	2077.95
926.867	2115.24
927.177	2094.68
927.487	2092.19
927.796	2051.97
928.106	2061.68
928.416	2057.16
928.725	2048.8
929.034	2059.42
929.344	2030.95
929.653	2052.64
929.962	2027.79
930.271	2017.16
930.581	1988.69
930.89	2011.97
931.199	2016.03
931.508	1976.26
931.817	2002.25
932.125	1975.13
932.434	2001.8
932.743	2013.77
933.051	1948.01
933.36	1939.43
933.669	1947.34
933.977	1924.74
934.286	1912.76
934.594	1941.46
934.902	1895.81
935.21	1883.83
935.519	1908.47
935.827	1906.66
936.135	1909.37
936.443	1877.06
936.751	1878.64
937.059	1887.9
937.367	1860.33
937.674	1837.51
937.982	1855.81
938.29	1828.24
938.597	1865.3
938.905	1809.71
939.213	1816.94
939.52	1809.26
939.827	1841.58
940.135	1803.16
940.442	1792.76
940.749	1763.61
941.056	1779.66
941.363	1737.62
941.67	1763.84
941.977	1774.23
942.284	1740.34
942.591	1747.12
942.898	1753.22
943.205	1744.63
943.511	1752.54
943.818	1737.85
944.125	1722.26
944.431	1726.32
944.738	1707.34
945.044	1703.27
945.35	1677.74
945.657	1691.07
945.963	1691.52
946.269	1660.34
946.575	1656.04
946.881	1665.08
947.187	1697.62
947.493	1666.44
947.799	1680.68
948.105	1644.97
948.41	1629.83
948.716	1627.34
949.022	1617.85
949.327	1634.58
949.633	1600
949.938	1587.35
950.244	1603.39
950.549	1565.42
950.854	1576.5
951.16	1588.48
951.465	1607.68
951.77	1581.24
952.075	1571.53
952.38	1537.4
952.685	1538.76
952.99	1571.98
953.294	1540.79
953.599	1545.76
953.904	1525.43
954.209	1541.02
954.513	1519.1
954.818	1534.47
955.122	1514.35
955.426	1515.26
955.731	1517.52
956.035	1487.01
956.339	1482.94
956.643	1504.64
956.948	1472.32
957.252	1461.7
957.556	1473.22
957.86	1470.96
958.163	1462.15
958.467	1442.26
958.771	1443.62
959.075	1446.33
959.378	1428.03
959.682	1435.71
959.985	1409.27
960.289	1408.82
960.592	1408.14
960.896	1394.81
961.199	1408.14
961.502	1396.84
961.805	1420.34
962.108	1394.81
962.411	1390.29
962.714	1376.28
963.017	1386.22
963.32	1360.01
963.623	1384.86
963.926	1380.12
964.228	1360.91
964.531	1359.33
964.833	1334.92
965.136	1327.92
965.438	1328.82
965.741	1324.98
966.043	1350.97
966.345	1329.27
966.648	1354.36
966.95	1299.44
967.252	1334.02
967.554	1322.27
967.856	1306.22
968.158	1297.41
968.46	1287.69
968.761	1293.12
969.063	1279.1
969.365	1286.34
969.666	1273
969.968	1234.59
970.269	1257.64
970.571	1270.97
970.872	1288.37
971.174	1255.15
971.475	1240.46
971.776	1259.9
972.077	1240.69
972.378	1221.48
972.679	1216.96
972.98	1236.85
973.281	1232.33
973.582	1252.66
973.883	1204.98
974.183	1224.19
974.484	1209.28
974.785	1206.56
975.085	1178.77
975.386	1210.18
975.686	1203.17
975.986	1178.09
976.287	1167.02
976.587	1153.91
976.887	1170.18
977.187	1174.25
977.487	1148.71
977.787	1172.89
978.087	1144.87
978.387	1140.13
978.687	1158.2
978.987	1125.66
979.286	1128.83
979.586	1140.35
979.885	1136.51
980.185	1129.28
980.484	1126.34
980.784	1106.68
981.083	1167.24
981.382	1101.93
981.682	1114.14
981.981	1117.53
982.28	1107.81
982.579	1104.19
982.878	1115.49
983.177	1085.89
983.475	1101.48
983.774	1079.11
984.073	1101.93
984.372	1064.2
984.67	1054.25
984.969	1053.35
985.267	1066.68
985.566	1039.11
985.864	1044.31
986.162	1078.43
986.461	1034.82
986.759	1032.11
987.057	1052.9
987.355	1032.56
987.653	1028.94
987.951	1057.87
988.249	1041.37
988.547	1026.23
988.844	1032.11
989.142	1008.15
989.44	993.91
989.737	1007.47
990.035	1001.37
990.332	996.63
990.63	976.29
990.927	983.52
991.224	975.16
991.521	984.42
991.819	979
992.116	1001.6
992.413	974.71
992.71	994.59
993.006	956.85
993.303	948.94
993.6	977.19
993.897	955.27
994.193	934.93
994.49	933.58
994.787	960.02
995.083	957.53
995.379	952.56
995.676	939.68
995.972	921.6
996.268	922.96
996.565	952.11
996.861	935.84
997.157	934.03
997.453	929.74
997.749	922.96
998.044	946.23
998.34	879.34
998.636	913.01
998.932	904.43
999.227	862.84
999.523	930.87
999.818	901.49
1000.114	872.34
1000.409	879.12
1000.704	886.57
1001	877.76
1001.295	850.64
1001.59	876.18
1001.885	870.75
1002.18	865.78
1002.475	868.27
1002.77	859.23
1003.065	853.81
1003.359	854.71
1003.654	851.09
1003.949	834.37
1004.243	836.63
1004.538	843.64
1004.832	829.4
1005.127	820.13
1005.421	816.74
1005.715	822.17
1006.009	818.1
1006.304	816.74
1006.598	812.9
1006.892	831.66
1007.186	835.5
1007.48	811.09
1007.773	785.78
1008.067	802.06
1008.361	800.47
1008.655	786.91
1008.948	782.85
1009.242	798.21
1009.535	763.86
1009.829	776.75
1010.122	776.75
1010.415	797.99
1010.708	770.42
1011.001	785.56
1011.295	765.45
1011.588	784.2
1011.881	764.77
1012.173	776.75
1012.466	748.05
1012.759	766.8
1013.052	748.5
1013.344	725.67
1013.637	743.98
1013.93	743.75
1014.222	720.48
1014.514	733.81
1014.807	722.28
1015.099	722.28
1015.391	716.41
1015.683	710.76
1015.976	705.79
1016.268	707.37
1016.56	679.35
1016.851	697.88
1017.143	699.91
1017.435	706.92
1017.727	693.13
1018.018	694.26
1018.31	686.8
1018.602	707.59
1018.893	686.35
1019.185	670.76
1019.476	673.47
1019.767	656.75
1020.058	659.91
1020.35	687.03
1020.641	658.1
1020.932	669.4
1021.223	649.06
1021.514	653.81
1021.804	652.68
1022.095	638.67
1022.386	635.51
1022.677	664.21
1022.967	640.03
1023.258	665.79
1023.548	637.31
1023.839	637.09
1024.129	656.3
1024.419	608.39
1024.709	621.04
1025	626.24
1025.29	613.36
1025.58	620.59
1025.87	630.53
1026.16	605.68
1026.449	623.08
1026.739	612.23
1027.029	603.19
1027.319	599.57
1027.608	616.3
1027.898	621.95
1028.187	591.44
1028.477	596.86
1028.766	593.02
1029.055	561.84
1029.344	587.82
1029.634	596.41
1029.923	544.66
1030.212	565.45
1030.501	543.98
1030.79	586.92
1031.078	567.71
1031.367	572.23
1031.656	570.65
1031.945	576.98
1032.233	554.6
1032.522	569.29
1032.81	576.3
1033.099	555.51
1033.387	562.29
1033.675	555.73
1033.963	546.69
1034.251	525.68
1034.54	559.35
1034.828	533.59
1035.116	543.98
1035.403	535.17
1035.691	541.72
1035.979	529.75
1036.267	529.07
1036.554	543.3
1036.842	532.23
1037.129	532.46
1037.417	522.74
1037.704	535.17
1037.992	550.76
1038.279	519.8
1038.566	512.35
1038.853	512.35
1039.14	512.35
