Data from mousepad_grey_FLMS001491_00008.txt Node
Date: Wed Feb 08 14:28:54 GMT 2017
User: dcchb
Spectrometer: FLMS00149
Trigger mode: 0
Integration Time (sec): 2.000000E-2
Scans to average: 10
Electric dark correction enabled: true
Nonlinearity correction enabled: false
Boxcar width: 0
XAxis mode: Wavelengths
Number of Pixels in Spectrum: 2048
>>>>>Begin Spectral Data<<<<<
341.393	-7.8
341.776	-7.8
342.16	-7.8
342.543	-55.7
342.927	-72.2
343.31	-65.65
343.693	-60.9
344.077	-62.03
344.46	-66.55
344.843	-44.86
345.226	-43.95
345.61	-26.78
345.993	-30.62
346.376	-4.86
346.759	-10.28
347.142	30.39
347.525	43.5
347.908	68.13
348.291	73.11
348.674	92.77
349.057	108.58
349.44	110.62
349.823	165.53
350.206	190.62
350.588	175.7
350.971	200.79
351.354	199.88
351.737	242.37
352.119	226.77
352.502	271.07
352.884	248.69
353.267	276.04
353.65	288.47
354.032	287.11
354.414	257.06
354.797	291.86
355.179	302.25
355.562	301.57
355.944	330.95
356.326	312.2
356.709	318.97
357.091	330.5
357.473	342.48
357.855	321.01
358.238	307.45
358.62	317.17
359.002	311.52
359.384	329.14
359.766	334.34
360.148	304.51
360.53	330.27
360.912	309.48
361.294	309.26
361.676	309.71
362.057	316.26
362.439	325.98
362.821	308.81
363.203	320.78
363.584	291.4
363.966	304.06
364.348	303.61
364.729	304.74
365.111	299.54
365.493	286.21
365.874	290.27
366.256	289.14
366.637	294.79
367.019	314.68
367.4	304.29
367.781	319.2
368.163	303.83
368.544	295.92
368.925	306.77
369.306	281.24
369.688	295.47
370.069	307.68
370.45	291.63
370.831	318.75
371.212	295.25
371.593	288.92
371.974	293.66
372.355	298.64
372.736	272.2
373.117	288.24
373.498	292.99
373.879	300.44
374.26	296.6
374.641	309.26
375.021	287.56
375.402	313.78
375.783	305.87
376.163	317.39
376.544	308.81
376.925	305.87
377.305	302.7
377.686	286.21
378.066	305.64
378.447	316.94
378.827	313.78
379.208	307.22
379.588	315.36
379.968	310.61
380.349	299.09
380.729	319.43
381.109	302.03
381.489	325.53
381.87	314
382.25	332.99
382.63	325.75
383.01	324.62
383.39	315.81
383.77	327.34
384.15	353.32
384.53	307.9
384.91	317.39
385.29	314.68
385.67	322.14
386.049	327.34
386.429	319.43
386.809	324.4
387.189	323.27
387.568	323.49
387.948	329.37
388.328	332.31
388.707	335.47
389.087	326.88
389.466	319.2
389.846	342.48
390.225	335.02
390.605	348.8
390.984	335.25
391.363	339.77
391.743	333.66
392.122	351.97
392.501	337.51
392.881	338.41
393.26	356.71
393.639	335.7
394.018	358.75
394.397	352.19
394.776	373.66
395.155	351.74
395.534	341.8
395.913	363.04
396.292	368.92
396.671	372.53
397.05	347.9
397.429	355.58
397.808	355.36
398.186	356.94
398.565	363.95
398.944	361.01
399.323	341.8
399.701	358.3
400.08	371.4
400.458	358.07
400.837	387
401.215	379.09
401.594	375.47
401.972	383.38
402.351	368.92
402.729	370.72
403.107	387.9
403.486	374.57
403.864	394.68
404.242	398.52
404.62	384.74
404.999	405.53
405.377	398.97
405.755	375.47
406.133	390.61
406.511	419.09
406.889	412.53
407.267	402.59
407.645	412.53
408.023	395.81
408.401	420.89
408.779	425.86
409.156	412.08
409.534	421.34
409.912	434.68
410.29	434
410.667	424.73
411.045	423.83
411.422	420.89
411.8	422.47
412.178	441.68
412.555	444.17
412.933	420.21
413.31	453.89
413.687	448.46
414.065	422.02
414.442	455.24
414.819	476.71
415.197	458.86
415.574	465.86
415.951	454.11
416.328	452.53
416.705	488.91
417.082	465.86
417.46	462.93
417.837	491.4
418.214	478.07
418.591	495.69
418.967	484.39
419.344	490.04
419.721	499.99
420.098	498.63
420.475	502.92
420.852	512.42
421.228	481.46
421.605	521.68
421.982	495.69
422.358	525.3
422.735	516.26
423.111	506.99
423.488	527.33
423.864	504.73
424.241	525.75
424.617	511.74
424.994	523.04
425.37	517.16
425.746	535.69
426.123	535.47
426.499	543.83
426.875	562.13
427.251	558.52
427.627	567.56
428.003	548.57
428.379	561.68
428.756	581.11
429.132	579.76
429.507	579.98
429.883	583.83
430.259	608.91
430.635	601.68
431.011	605.75
431.387	606.2
431.763	599.65
432.138	589.25
432.514	606.88
432.89	638.06
433.265	629.02
433.641	624.28
434.016	631.51
434.392	632.64
434.767	628.8
435.143	649.36
435.518	648.23
435.894	630.38
436.269	672.19
436.644	690.26
437.02	667.21
437.395	662.24
437.77	659.76
438.145	701.11
438.52	687.78
438.895	701.56
439.271	697.72
439.646	695.69
440.021	700.43
440.395	730.72
440.77	704.95
441.145	706.99
441.52	712.86
441.895	735.69
442.27	730.72
442.645	750.83
443.019	706.99
443.394	737.04
443.769	750.15
444.143	747.44
444.518	758.29
444.892	755.35
445.267	774.1
445.641	765.29
446.016	755.12
446.39	778.4
446.764	788.57
447.139	780.88
447.513	764.16
447.887	780.88
448.262	804.39
448.636	777.49
449.01	830.15
449.384	816.59
449.758	833.76
450.132	821.79
450.506	803.48
450.88	832.18
451.254	842.35
451.628	830.83
452.002	839.19
452.376	843.25
452.75	868.79
453.123	861.79
453.497	884.16
453.871	879.86
454.244	888
454.618	919.18
454.992	902.91
455.365	915.8
455.739	904.72
456.112	909.92
456.486	925.74
456.859	915.57
457.232	965.96
457.606	961.9
457.979	963.03
458.352	950.82
458.725	978.62
459.099	1002.35
459.472	1001.44
459.845	1012.74
460.218	1015
460.591	1048.67
460.964	1038.28
461.337	1050.93
461.71	1059.29
462.083	1078.28
462.456	1053.64
462.829	1079.63
463.201	1090.71
463.574	1113.08
463.947	1127.77
464.32	1124.83
464.692	1154.43
465.065	1151.72
465.438	1145.85
465.81	1210.93
466.183	1159.4
466.555	1171.38
466.928	1202.34
467.3	1194.21
467.672	1211.83
468.045	1267.65
468.417	1269.23
468.789	1255
469.161	1252.28
469.534	1302.9
469.906	1310.14
470.278	1334.54
470.65	1348.78
471.022	1366.4
471.394	1379.74
471.766	1382.45
472.138	1399.62
472.51	1425.84
472.882	1432.17
473.253	1446.4
473.625	1456.57
473.997	1473.52
474.369	1500.19
474.74	1519.85
475.112	1549
475.484	1550.81
475.855	1561.88
476.227	1605.27
476.598	1644.82
476.97	1637.36
477.341	1662.44
477.713	1669
478.084	1671.03
478.455	1685.94
478.827	1734.98
479.198	1773.85
479.569	1800.29
479.94	1828.99
480.311	1837.13
480.682	1876.22
481.053	1916.45
481.424	1922.1
481.795	1957.58
482.166	1926.62
482.537	1995.09
482.908	2051.13
483.279	2027.18
483.65	2110.34
484.021	2141.98
484.391	2091.58
484.762	2165.48
485.133	2139.72
485.503	2198.25
485.874	2236.21
486.244	2247.06
486.615	2308.75
486.985	2307.85
487.356	2355.08
487.726	2380.62
488.097	2409.54
488.467	2420.84
488.837	2493.15
489.207	2519.59
489.578	2537.9
489.948	2531.57
490.318	2556.66
490.688	2575.19
491.058	2641.85
491.428	2658.35
491.798	2654.51
492.168	2706.48
492.538	2716.65
492.908	2774.73
493.278	2785.58
493.648	2801.85
494.017	2838.68
494.387	2830.55
494.757	2899.7
495.126	2881.62
495.496	2923.88
495.866	2939.24
496.235	2972.69
496.605	2972.92
496.974	3061.28
497.344	3010.43
497.713	3044.55
498.082	3095.17
498.452	3077.55
498.821	3092.69
499.19	3113.25
499.559	3121.39
499.928	3175.4
500.298	3160.26
500.667	3230.76
501.036	3200.03
501.405	3218.11
501.774	3236.86
502.143	3247.71
502.512	3269.41
502.88	3342.62
503.249	3305.34
503.618	3356.63
503.987	3367.93
504.356	3372.91
504.724	3417.65
505.093	3438.67
505.462	3452
505.83	3442.51
506.199	3468.04
506.567	3533.35
506.936	3517.53
507.304	3607.7
507.672	3566.12
508.041	3612.67
508.409	3669.17
508.777	3652.9
509.145	3740.35
509.514	3661.94
509.882	3731.77
510.25	3725.44
510.618	3742.16
510.986	3770.86
511.354	3835.72
511.722	3821.48
512.09	3891.99
512.458	3906.22
512.826	3925.43
513.193	3941.03
513.561	3931.31
513.929	3965.66
514.297	3949.39
514.664	4018.54
515.032	3996.39
515.4	4024.87
515.767	4105.09
516.135	4124.98
516.502	4114.36
516.869	4161.36
517.237	4202.26
517.604	4128.82
517.972	4217.18
518.339	4252.2
518.706	4233.9
519.073	4279.55
519.44	4284.29
519.808	4369.04
520.175	4347.12
520.542	4402.71
520.909	4370.17
521.276	4450.84
521.643	4463.05
522.009	4522.03
522.376	4510.05
522.743	4541.46
523.11	4594.34
523.477	4635.02
523.843	4679.54
524.21	4701.23
524.577	4733.55
524.943	4793.43
525.31	4784.17
525.676	4845.18
526.043	4860.78
526.409	4855.8
526.776	4910.94
527.142	4893.54
527.508	4961.79
527.874	4997.04
528.241	5005.41
528.607	5001.56
528.973	5108
529.339	5032.98
529.705	5157.27
530.071	5158.4
530.437	5180.54
530.803	5261.67
531.169	5276.36
531.535	5220.09
531.901	5271.16
532.267	5287.88
532.632	5379.41
532.998	5370.82
533.364	5379.63
533.73	5439.07
534.095	5476.13
534.461	5418.5
534.826	5485.84
535.192	5514.77
535.557	5536.46
535.923	5578.5
536.288	5616.91
536.653	5629.34
537.019	5629.12
537.384	5664.6
537.749	5695.56
538.114	5727.19
538.479	5711.38
538.845	5784.82
539.21	5728.78
539.575	5837.93
539.94	5825.5
540.305	5880.86
540.67	5874.53
541.034	5847.87
541.399	5910.92
541.764	5961.09
542.129	5948.43
542.494	5913.18
542.858	6054.42
543.223	6005.6
543.587	6084.47
543.952	6019.39
544.316	6111.59
544.681	6119.95
545.045	6188.88
545.41	6194.53
545.774	6160.18
546.138	6186.17
546.503	6241.08
546.867	6272.72
547.231	6285.82
547.595	6262.1
547.959	6334.41
548.324	6331.47
548.688	6374.18
549.052	6443.11
549.416	6443.56
549.779	6409.21
550.143	6475.65
550.507	6505.7
550.871	6542.09
551.235	6480.17
551.599	6604.69
551.962	6557
552.326	6607.62
552.689	6637.9
553.053	6583.44
553.417	6633.38
553.78	6763.32
554.143	6761.97
554.507	6799.03
554.87	6769.2
555.234	6818.69
555.597	6871.57
555.96	6839.93
556.323	6883.1
556.686	6930.1
557.05	6967.84
557.413	6971.68
557.776	6945.69
558.139	6987.05
558.502	7059.59
558.865	7038.57
559.228	7083.77
559.59	7146.59
559.953	7125.8
560.316	7201.28
560.679	7218.68
561.041	7305.46
561.404	7315.17
561.767	7309.98
562.129	7274.95
562.492	7355.63
562.854	7388.85
563.217	7445.57
563.579	7491.22
563.941	7488.96
564.304	7509.29
564.666	7634.49
565.028	7592.68
565.39	7594.49
565.753	7699.12
566.115	7679.69
566.477	7750.64
566.839	7761.04
567.201	7803.75
567.563	7796.29
567.925	7863.41
568.287	7848.95
568.648	7867.25
569.01	7911.09
569.372	7966.91
569.734	7947.93
570.095	8024.53
570.457	8054.82
570.819	8070.64
571.18	8116.28
571.542	8116.06
571.903	8090.52
572.265	8165.77
572.626	8159.45
572.987	8236.51
573.349	8286.67
573.71	8276.51
574.071	8273.12
574.432	8309.73
574.794	8384.53
575.155	8377.07
575.516	8330.74
575.877	8378.88
576.238	8408.93
576.599	8441.47
576.96	8476.05
577.32	8382.27
577.681	8469.27
578.042	8505.2
578.403	8467.91
578.763	8563.28
579.124	8518.31
579.485	8565.99
579.845	8597.85
580.206	8528.02
580.566	8662.94
580.927	8605.54
581.287	8676.72
581.648	8595.14
582.008	8648.93
582.368	8662.03
582.728	8657.06
583.089	8604.18
583.449	8697.51
583.809	8656.83
584.169	8691.18
584.529	8656.61
584.889	8721.69
585.249	8697.74
585.609	8674.46
585.969	8712.43
586.329	8702.48
586.688	8744.29
587.048	8708.13
587.408	8652.99
587.768	8711.97
588.127	8732.31
588.487	8726.89
588.846	8749.71
589.206	8788.58
589.565	8743.39
589.925	8765.98
590.284	8755.36
590.643	8797.17
591.003	8766.89
591.362	8852.99
591.721	8702.48
592.08	8781.58
592.44	8799.66
592.799	8839.88
593.158	8760.33
593.517	8753.1
593.876	8853.44
594.235	8810.95
594.593	8778.41
594.952	8869.71
595.311	8827.23
595.67	8815.47
596.029	8812.76
596.387	8907.22
596.746	8873.78
597.104	8792.42
597.463	8850.73
597.822	8901.57
598.18	8864.29
598.538	8910.61
598.897	8883.95
599.255	8855.93
599.613	8937.51
599.972	8934.34
600.33	8888.01
600.688	8842.37
601.046	8992.87
601.404	8918.3
601.762	8921.01
602.12	8959.88
602.478	8965.3
602.836	8978.86
603.194	8890.73
603.552	8937.73
603.91	8891.63
604.268	9005.53
604.625	8985.19
604.983	8964.4
605.341	8926.43
605.698	8923.95
606.056	9002.36
606.413	8982.25
606.771	9096.82
607.128	9056.82
607.485	8983.15
607.843	9008.01
608.2	9073.32
608.557	9129.14
608.914	9038.75
609.272	9096.82
609.629	9106.77
609.986	9169.14
610.343	9105.86
610.7	9203.94
611.057	9158.29
611.414	9056.6
611.771	9103.15
612.127	9170.49
612.484	9120.33
612.841	9241.45
613.198	9177.72
613.554	9103.38
613.911	9173.66
614.267	9248.91
614.624	9192.87
614.98	9253.88
615.337	9274.9
615.693	9252.07
616.05	9275.12
616.406	9351.28
616.762	9241.9
617.118	9292.07
617.475	9273.77
617.831	9309.92
618.187	9361.67
618.543	9242.81
618.899	9415.01
619.255	9321.45
619.611	9292.07
619.967	9367.55
620.323	9450.71
620.678	9260.43
621.034	9325.07
621.39	9356.48
621.746	9338.62
622.101	9460.43
622.457	9367.1
622.812	9404.39
623.168	9402.13
623.523	9429.02
623.879	9406.87
624.234	9372.52
624.589	9433.31
624.945	9383.6
625.3	9474.44
625.655	9403.93
626.01	9429.02
626.365	9402.58
626.72	9395.35
627.075	9375.69
627.43	9468.34
627.785	9391.96
628.14	9396.02
628.495	9415.46
628.85	9316.93
629.205	9399.41
629.559	9417.27
629.914	9330.72
630.269	9411.16
630.623	9343.37
630.978	9325.97
631.332	9372.52
631.687	9410.26
632.041	9369.58
632.396	9402.13
632.75	9298.17
633.104	9374.56
633.459	9327.78
633.813	9321.68
634.167	9350.83
634.521	9290.72
634.875	9325.07
635.229	9357.38
635.583	9314.9
635.937	9357.61
636.291	9281.68
636.645	9286.2
636.999	9240.77
637.352	9263.6
637.706	9260.21
638.06	9265.86
638.413	9302.24
638.767	9220.89
639.121	9254.78
639.474	9179.98
639.828	9213.2
640.181	9228.12
640.534	9262.24
640.888	9234.67
641.241	9210.04
641.594	9180.89
641.947	9175.69
642.301	9136.14
642.654	9194.22
643.007	9217.72
643.36	9206.42
643.713	9189.48
644.066	9180.66
644.419	9167.1
644.771	9100.21
645.124	8982.48
645.477	9031.97
645.83	9020.21
646.182	8929.37
646.535	8848.69
646.888	8944.74
647.24	8942.48
647.593	8990.61
647.945	8874
648.298	8854.57
648.65	8842.59
649.002	8784.51
649.355	8858.19
649.707	8881.91
650.059	8948.8
650.411	8953.32
650.763	9024.51
651.115	9144.51
651.467	9130.95
651.819	9100.89
652.171	9058.86
652.523	9050.04
652.875	9079.42
653.227	9052.08
653.578	9132.98
653.93	9083.49
654.282	9015.24
654.633	9054.34
654.985	9078.29
655.337	9096.82
655.688	9102.92
656.039	9069.03
656.391	8981.35
656.742	9015.02
657.094	9056.15
657.445	9043.04
657.796	9043.72
658.147	8984.06
658.498	8990.39
658.849	9105.41
659.2	9074.22
659.551	9022.7
659.902	9112.87
660.253	8998.75
660.604	9044.17
660.955	8976.15
661.306	9072.19
661.656	9052.08
662.007	9106.09
662.358	9048.01
662.708	9019.31
663.059	9026.09
663.409	9005.75
663.76	9089.37
664.11	9079.42
664.461	9063.6
664.811	9017.05
665.161	9020.67
665.511	9025.64
665.862	9049.59
666.212	9061.8
666.562	9058.63
666.912	9039.2
667.262	9048.69
667.612	8959.65
667.962	9060.67
668.312	9037.39
668.662	9070.38
669.011	9078.97
669.361	8989.03
669.711	9013.44
670.06	9017.5
670.41	9013.89
670.76	9029.48
671.109	9000.33
671.459	8925.53
671.808	8940.89
672.157	8983.38
672.507	8935.47
672.856	8954.45
673.205	8954
673.554	9048.91
673.904	8956.71
674.253	9001.01
674.602	8992.42
674.951	8858.64
675.3	8816.15
675.649	8921.69
675.998	9013.66
676.346	8940.89
676.695	8931.63
677.044	8859.99
677.393	8892.53
677.741	8909.71
678.09	8897.05
678.438	8855.25
678.787	8841.01
679.135	8871.07
679.484	8780
679.832	8866.09
680.181	8845.08
680.529	8724.4
680.877	8775.02
681.225	8827
681.573	8802.14
681.922	8778.64
682.27	8700.45
682.618	8738.87
682.966	8709.94
683.314	8687.12
683.661	8715.82
684.009	8682.37
684.357	8748.81
684.705	8631.75
685.053	8663.39
685.4	8624.74
685.748	8605.54
686.095	8592.66
686.443	8532.32
686.79	8588.14
687.138	8563.28
687.485	8618.42
687.832	8518.08
688.18	8481.7
688.527	8452.09
688.874	8411.19
689.221	8439.21
689.568	8427.46
689.915	8367.35
690.262	8365.09
690.609	8387.69
690.956	8350.85
691.303	8353.34
691.65	8292.32
691.997	8312.44
692.344	8270.18
692.69	8271.53
693.037	8290.29
693.383	8147.7
693.73	8201.25
694.077	8078.32
694.423	8121.71
694.769	8101.59
695.116	8039.9
695.462	8096.62
695.808	8023.63
696.155	8087.58
696.501	7950.86
696.847	8022.5
697.193	7947.7
697.539	7948.83
697.885	7838.1
698.231	7867.48
698.577	7822.96
698.923	7857.53
699.269	7781.15
699.614	7827.25
699.96	7766.69
700.306	7780.7
700.651	7707.03
700.997	7702.06
701.342	7681.94
701.688	7674.04
702.033	7658.89
702.379	7618.22
702.724	7531.21
703.069	7609.18
703.415	7530.99
703.76	7494.83
704.105	7570.31
704.45	7497.99
704.795	7467.71
705.14	7408.05
705.485	7378.45
705.83	7396.3
706.175	7403.08
706.52	7330.09
706.865	7368.96
707.209	7395.85
707.554	7313.82
707.899	7282.18
708.243	7280.83
708.588	7228.85
708.932	7257.1
709.277	7220.71
709.621	7203.31
709.966	7186.82
710.31	7223.43
710.654	7114.05
710.998	7158.79
711.342	7137.78
711.687	7081.96
712.031	7150.66
712.375	7097.33
712.719	7127.61
713.063	7112.47
713.407	7058.46
713.75	7041.28
714.094	7008.29
714.438	7046.48
714.782	7047.61
715.125	6994.28
715.469	7006.48
715.812	6961.51
716.156	6971.68
716.499	6943.43
716.843	6935.52
717.186	6909.08
717.53	6935.75
717.873	6954.51
718.216	6920.83
718.559	6926.48
718.902	6895.07
719.246	6862.76
719.589	6921.51
719.932	6849.88
720.275	6865.47
720.617	6924.9
720.96	6851.46
721.303	6886.26
721.646	6812.36
721.989	6786.15
722.331	6867.73
722.674	6822.98
723.016	6803.78
723.359	6779.82
723.701	6820.72
724.044	6787.05
724.386	6755.87
724.729	6826.83
725.071	6753.83
725.413	6831.57
725.755	6749.77
726.097	6789.31
726.439	6712.93
726.782	6654.18
727.124	6804
727.465	6688.75
727.807	6699.6
728.149	6691.24
728.491	6714.29
728.833	6764.68
729.175	6703.21
729.516	6701.18
729.858	6704.12
730.199	6701.63
730.541	6709.09
730.882	6690.78
731.224	6749.77
731.565	6649.43
731.906	6712.7
732.248	6697.56
732.589	6689.88
732.93	6638.81
733.271	6659.6
733.612	6725.59
733.953	6730.11
734.294	6695.3
734.635	6682.2
734.976	6669.09
735.317	6673.16
735.658	6726.04
735.999	6634.74
736.339	6632.25
736.68	6661.41
737.021	6651.69
737.361	6691.46
737.702	6700.73
738.042	6666.38
738.383	6654.63
738.723	6662.31
739.063	6647.17
739.404	6656.89
739.744	6627.06
740.084	6618.92
740.424	6651.92
740.764	6652.14
741.104	6657.57
741.444	6627.74
741.784	6625.02
742.124	6618.7
742.464	6588.41
742.804	6648.53
743.143	6560.84
743.483	6625.93
743.823	6598.58
744.162	6588.41
744.502	6628.41
744.841	6607.4
745.181	6623.67
745.52	6587.74
745.86	6591.8
746.199	6659.82
746.538	6607.17
746.877	6627.28
747.216	6604.23
747.556	6602.2
747.895	6604.69
748.234	6532.14
748.573	6562.88
748.911	6632.03
749.25	6598.36
749.589	6552.71
749.928	6537.34
750.267	6610.56
750.605	6543.22
750.944	6584.8
751.283	6562.43
751.621	6603.33
751.96	6585.93
752.298	6492.37
752.636	6533.73
752.975	6493.5
753.313	6461.64
753.651	6539.6
753.989	6500.73
754.327	6488.76
754.666	6446.5
755.004	6538.7
755.342	6517
755.679	6503.22
756.017	6387.29
756.355	6456.21
756.693	6475.2
757.031	6460.73
757.368	6419.61
757.706	6400.4
758.044	6352.94
758.381	6425.25
758.719	6381.19
759.056	6410.79
759.394	6349.1
759.731	6307.74
760.068	6350.23
760.405	6269.1
760.743	6290.57
761.08	6277.91
761.417	6248.54
761.754	6225.94
762.091	6239.04
762.428	6191.14
762.765	6180.97
763.102	6190.46
763.438	6154.08
763.775	6211.25
764.112	6184.36
764.449	6140.29
764.785	6133.29
765.122	6117.24
765.458	6096.45
765.795	6053.97
766.131	6038.6
766.467	6029.33
766.804	6008.77
767.14	6010.58
767.476	6014.42
767.812	5998.6
768.148	5951.59
768.485	5943.01
768.821	5946.4
769.157	5881.99
769.492	5886.51
769.828	5843.58
770.164	5836.57
770.5	5799.96
770.836	5803.8
771.171	5801.09
771.507	5819.4
771.842	5700.53
772.178	5753.41
772.513	5744.82
772.849	5710.7
773.184	5688.33
773.519	5674.54
773.855	5658.04
774.19	5618.95
774.525	5607.2
774.86	5623.92
775.195	5611.49
775.53	5547.31
775.865	5525.84
776.2	5538.27
776.535	5492.85
776.87	5467.09
777.205	5502.12
777.539	5422.57
777.874	5433.87
778.209	5423.7
778.543	5424.83
778.878	5355.9
779.212	5343.48
779.547	5332.63
779.881	5289.47
780.215	5232.29
780.55	5289.92
780.884	5272.06
781.218	5277.94
781.552	5267.55
781.886	5286.75
782.22	5201.56
782.554	5206.08
782.888	5150.94
783.222	5147.55
783.556	5102.8
783.889	5096.7
784.223	5062.13
784.557	5051.28
784.89	5022.58
785.224	5093.99
785.557	4981.9
785.891	5013.31
786.224	5000.89
786.558	5009.47
786.891	4927.44
787.224	4985.74
787.557	4938.29
787.891	4868.46
788.224	4906.88
788.557	4891.28
788.89	4896.48
789.223	4935.35
789.556	4821.23
789.888	4819.87
790.221	4893.32
790.554	4799.31
790.887	4794.79
791.219	4847.9
791.552	4807.67
791.884	4740.33
792.217	4729.93
792.549	4692.64
792.882	4687.22
793.214	4675.02
793.546	4648.13
793.879	4640.89
794.211	4617.84
794.543	4631.18
794.875	4657.39
795.207	4662.36
795.539	4604.51
795.871	4627.34
796.203	4560.45
796.535	4614.68
796.867	4540.56
797.198	4532.65
797.53	4554.12
797.862	4474.35
798.193	4503.72
798.525	4484.29
798.856	4495.59
799.188	4445.87
799.519	4431.18
799.85	4436.38
800.182	4378.98
800.513	4430.5
800.844	4354.12
801.175	4399.32
801.506	4413.78
801.837	4329.26
802.168	4378.98
802.499	4325.65
802.83	4312.77
803.161	4297.18
803.491	4308.93
803.822	4280.45
804.153	4268.02
804.483	4255.59
804.814	4243.17
805.145	4221.24
805.475	4204.75
805.805	4220.79
806.136	4160.91
806.466	4213.34
806.796	4196.39
807.126	4159.55
807.457	4151.87
807.787	4150.74
808.117	4123.39
808.447	4151.87
808.777	4129.27
809.107	4149.61
809.436	4057.86
809.766	4107.12
810.096	4079.78
810.426	4065.09
810.755	4062.83
811.085	4069.84
811.414	4035.94
811.744	4054.24
812.073	4051.76
812.403	4021.93
812.732	4052.66
813.061	4024.64
813.39	3988.03
813.719	3940.8
814.049	4014.92
814.378	3970.63
814.707	3943.51
815.036	3967.47
815.365	3976.51
815.693	3882.04
816.022	3884.08
816.351	3922.27
816.68	3874.81
817.008	3916.85
817.337	3906.68
817.665	3877.53
817.994	3856.28
818.322	3872.55
818.651	3821.71
818.979	3790.75
819.307	3840.01
819.636	3849.5
819.964	3777.87
820.292	3812.89
820.62	3804.76
820.948	3808.6
821.276	3795.49
821.604	3811.76
821.932	3857.64
822.259	3815.15
822.587	3800.24
822.915	3783.06
823.243	3782.39
823.57	3773.12
823.898	3791.65
824.225	3767.02
824.553	3787.81
824.88	3802.5
825.207	3781.26
825.535	3746.23
825.862	3808.6
826.189	3721.15
826.516	3797.53
826.843	3771.99
827.17	3803.18
827.497	3814.25
827.824	3792.56
828.151	3807.47
828.478	3761.6
828.805	3816.28
829.131	3789.62
829.458	3783.29
829.785	3777.41
830.111	3784.87
830.438	3773.35
830.764	3788.04
831.09	3788.49
831.417	3762.73
831.743	3799.56
832.069	3766.79
832.395	3760.24
832.722	3789.39
833.048	3739.45
833.374	3737.87
833.7	3743.52
834.026	3754.14
834.351	3772.9
834.677	3721.15
835.003	3770.18
835.329	3747.59
835.654	3753.91
835.98	3767.02
836.306	3741.26
836.631	3736.06
836.956	3758.66
837.282	3689.28
837.607	3713.46
837.932	3715.04
838.258	3694.03
838.583	3733.57
838.908	3673.91
839.233	3706.68
839.558	3658.1
839.883	3661.26
840.208	3707.81
840.533	3639.11
840.858	3654.48
841.182	3672.11
841.507	3631.88
841.832	3641.83
842.156	3598.44
842.481	3612.67
842.805	3603.41
843.13	3629.85
843.454	3584.65
843.778	3599.34
844.103	3567.7
844.427	3568.38
844.751	3583.3
845.075	3528.38
845.399	3560.02
845.723	3546.91
846.047	3551.21
846.371	3559.79
846.695	3497.42
847.019	3500.13
847.343	3476.86
847.666	3488.83
847.99	3465.33
848.313	3460.81
848.637	3421.49
848.96	3441.83
849.284	3423.75
849.607	3410.87
849.931	3365
850.254	3366.58
850.577	3374.94
850.9	3333.81
851.223	3323.19
851.546	3315.73
851.869	3320.03
852.192	3298.56
852.515	3320.93
852.838	3288.84
853.161	3259.46
853.483	3296.07
853.806	3259.01
854.129	3281.38
854.451	3237.77
854.774	3214.04
855.096	3173.81
855.419	3191.22
855.741	3238.9
856.063	3212.68
856.385	3232.57
856.708	3150.09
857.03	3162.06
857.352	3140.6
857.674	3171.33
857.996	3135.85
858.318	3125.91
858.64	3102.86
858.961	3100.82
859.283	3121.61
859.605	3099.92
859.926	3073.93
860.248	3070.09
860.57	3064.89
860.891	3071.67
861.212	3056.53
861.534	3066.25
861.855	3016.76
862.176	3066.7
862.498	3060.37
862.819	3061.73
863.14	2998.45
863.461	2986.48
863.782	3069.64
864.103	3021.95
864.424	3004.55
864.745	3012.92
865.065	3014.72
865.386	2994.16
865.707	2951.22
866.027	3030.32
866.348	2997.77
866.668	2958
866.989	2962.52
867.309	2953.26
867.63	2996.42
867.95	2985.35
868.27	2960.94
868.59	2926.59
868.91	2967.04
869.23	2943.99
869.55	2921.17
869.87	2964.78
870.19	2928.85
870.51	2967.49
870.83	2938.11
871.15	2945.12
871.469	2953.71
871.789	2891.56
872.109	2903.09
872.428	2896.31
872.748	2897.44
873.067	2878
873.386	2894.05
873.706	2890.43
874.025	2889.98
874.344	2876.2
874.663	2906.25
874.982	2866.25
875.301	2861.51
875.62	2875.29
875.939	2864.9
876.258	2847.72
876.577	2848.4
876.896	2845.24
877.214	2857.66
877.533	2867.16
877.852	2822.64
878.17	2827.61
878.489	2818.34
878.807	2825.35
879.125	2800.49
879.444	2793.26
879.762	2815.41
880.08	2817.89
880.398	2803.66
880.716	2789.87
881.034	2777.67
881.352	2806.14
881.67	2746.71
881.988	2753.26
882.306	2797.1
882.624	2779.47
882.941	2736.76
883.259	2796.2
883.577	2769.08
883.894	2762.3
884.212	2779.7
884.529	2727.05
884.846	2695.18
885.164	2724.79
885.481	2731.79
885.798	2715.52
886.115	2713.26
886.432	2679.59
886.75	2711
887.067	2728.4
887.383	2673.04
887.7	2671.91
888.017	2682.98
888.334	2698.12
888.651	2671.46
888.967	2665.81
889.284	2645.02
889.6	2616.77
889.917	2620.38
890.233	2641.85
890.55	2612.02
890.866	2613.6
891.182	2596.88
891.498	2598.91
891.815	2596.43
892.131	2571.57
892.447	2590.1
892.763	2573.6
893.079	2565.24
893.395	2544
893.71	2576.77
894.026	2586.94
894.342	2557.56
894.657	2517.33
894.973	2533.15
895.289	2553.49
895.604	2521.18
895.92	2512.14
896.235	2491.57
896.55	2516.66
896.865	2500.61
897.181	2481.86
897.496	2479.82
897.811	2456.09
898.126	2478.47
898.441	2465.58
898.756	2466.04
899.071	2446.6
899.386	2442.31
899.7	2430.56
900.015	2407.73
900.33	2388.3
900.644	2402.76
900.959	2392.37
901.273	2379.71
901.588	2367.73
901.902	2355.31
902.216	2356.66
902.531	2365.93
902.845	2367.28
903.159	2358.02
903.473	2353.95
903.787	2361.86
904.101	2331.58
904.415	2308.07
904.729	2334.74
905.042	2305.36
905.356	2300.84
905.67	2278.47
905.984	2281.86
906.297	2270.56
906.611	2232.14
906.924	2241.41
907.237	2245.25
907.551	2263.78
907.864	2240.51
908.177	2234.63
908.491	2255.65
908.804	2217
909.117	2214.29
909.43	2227.85
909.743	2167.97
910.056	2188.53
910.368	2186.95
910.681	2202.54
910.994	2152.6
911.307	2151.69
911.619	2137.46
911.932	2137.91
912.244	2142.88
912.557	2123.22
912.869	2156.89
913.181	2094.52
913.494	2107.4
913.806	2084.35
914.118	2075.09
914.43	2055.2
914.742	2091.81
915.054	2084.35
915.366	2091.36
915.678	2064.69
915.99	2070.12
916.302	2007.07
916.613	2007.07
916.925	2000.96
917.236	2015.65
917.548	2003.9
917.859	2007.97
918.171	1993.28
918.482	1995.09
918.794	1979.95
919.105	1998.03
919.416	1965.03
919.727	1958.48
920.038	1953.51
920.349	1960.74
920.66	1911.7
920.971	1977.46
921.282	1943.79
921.593	1940.63
921.903	1896.33
922.214	1908.31
922.525	1911.48
922.835	1871.93
923.146	1861.98
923.456	1864.24
923.767	1879.39
924.077	1859.95
924.387	1873.96
924.697	1875.54
925.008	1846.62
925.318	1876.45
925.628	1845.94
925.938	1844.81
926.248	1817.24
926.558	1788.77
926.867	1800.07
927.177	1801.42
927.487	1780.63
927.796	1740.63
928.106	1770.24
928.416	1782.21
928.725	1765.26
929.034	1752.61
929.344	1755.32
929.653	1765.04
929.962	1740.41
930.271	1720.97
930.581	1734.98
930.89	1729.11
931.199	1719.16
931.508	1701.54
931.817	1694.76
932.125	1677.58
932.434	1723.23
932.743	1700.41
933.051	1693.63
933.36	1661.76
933.669	1648.88
933.977	1659.73
934.286	1668.77
934.594	1653.63
934.902	1666.51
935.21	1661.31
935.519	1638.26
935.827	1623.12
936.135	1636.45
936.443	1590.81
936.751	1640.75
937.059	1630.35
937.367	1586.74
937.674	1607.75
937.982	1601.43
938.29	1563.01
938.597	1570.24
938.905	1572.5
939.213	1568.43
939.52	1548.32
939.827	1562.78
940.135	1578.83
940.442	1525.04
940.749	1555.78
941.056	1556.46
941.363	1554.2
941.67	1542.67
941.977	1549.68
942.284	1528.66
942.591	1493.86
942.898	1487.08
943.205	1510.13
943.511	1493.86
943.818	1486.85
944.125	1485.27
944.431	1494.76
944.738	1511.94
945.044	1462
945.35	1455.89
945.657	1464.48
945.963	1412.51
946.269	1449.79
946.575	1453.86
946.881	1458.61
947.187	1438.95
947.493	1463.8
947.799	1433.52
948.105	1387.87
948.41	1414.31
948.716	1404.37
949.022	1418.15
949.327	1407.53
949.633	1404.6
949.938	1395.78
950.244	1360.98
950.549	1388.33
950.854	1392.17
951.16	1365.05
951.465	1396.91
951.77	1357.59
952.075	1349.68
952.38	1370.02
952.685	1343.13
952.99	1367.08
953.294	1329.12
953.599	1335.22
953.904	1337.03
954.209	1322.11
954.513	1356.69
954.818	1321.66
955.122	1358.5
955.426	1306.97
955.731	1270.59
956.035	1266.97
956.339	1298.38
956.643	1294.32
956.948	1279.18
957.252	1263.81
957.556	1277.37
957.86	1306.29
958.163	1262
958.467	1263.58
958.771	1263.36
959.075	1272.17
959.378	1257.93
959.682	1250.48
959.985	1224.71
960.289	1247.31
960.592	1231.95
960.896	1221.55
961.199	1212.51
961.502	1245.28
961.805	1182.68
962.108	1222.68
962.411	1205.05
962.714	1212.96
963.017	1196.01
963.32	1210.7
963.623	1187.43
963.926	1214.32
964.228	1179.52
964.531	1186.07
964.833	1155.79
965.136	1185.39
965.438	1171.16
965.741	1156.92
966.043	1192.62
966.345	1171.83
966.648	1160.76
966.95	1150.14
967.252	1135.45
967.554	1163.92
967.856	1153.98
968.158	1118.5
968.46	1136.81
968.761	1139.29
969.063	1132.74
969.365	1106.98
969.666	1130.48
969.968	1127.99
970.269	1111.27
970.571	1110.82
970.872	1112.85
971.174	1074.44
971.475	1096.36
971.776	1084.83
972.077	1069.46
972.378	1076.47
972.679	1064.04
972.98	1095.45
973.281	1075.11
973.582	1045.06
973.883	1055.23
974.183	1073.98
974.484	1072.4
974.785	1063.81
975.085	1067.2
975.386	1046.64
975.686	1060.65
975.986	1045.06
976.287	1046.64
976.587	1024.94
976.887	1014.1
977.187	1038.5
977.487	1034.89
977.787	1016.36
978.087	999.41
978.387	1012.06
978.687	989.92
978.987	984.95
979.286	1012.06
979.586	1008.22
979.885	999.41
980.185	990.37
980.484	995.79
980.784	989.69
981.083	991.5
981.382	957.38
981.682	991.27
981.981	962.35
982.28	984.49
982.579	971.84
982.878	968.68
983.177	975.45
983.475	963.03
983.774	974.55
984.073	953.76
984.372	962.35
984.67	939.07
984.969	947.21
985.267	936.81
985.566	932.07
985.864	942.46
986.162	930.03
986.461	929.81
986.759	923.93
987.057	941.33
987.355	930.94
987.653	897.04
987.951	927.09
988.249	918.73
988.547	906.53
988.844	873.76
989.142	896.36
989.44	887.32
989.737	914.89
990.035	886.19
990.332	905.4
990.63	866.53
990.927	912.86
991.224	888
991.521	878.06
991.819	852.75
992.116	856.81
992.413	883.03
992.71	863.37
993.006	867.89
993.303	852.97
993.6	865.17
993.897	836.93
994.193	834.22
994.49	845.51
994.787	845.29
995.083	861.56
995.379	850.71
995.676	836.93
995.972	836.02
996.268	831.28
996.565	822.46
996.861	833.09
997.157	812.75
997.453	838.06
997.749	824.27
998.044	811.62
998.34	792.86
998.636	808.68
998.932	805.97
999.227	796.25
999.523	779.98
999.818	792.18
1000.114	811.39
1000.409	799.41
1000.704	792.18
1001	785.86
1001.295	779.98
1001.59	769.13
1001.885	773.65
1002.18	751.96
1002.475	770.04
1002.77	768.45
1003.065	749.47
1003.359	738.85
1003.654	763.93
1003.949	750.15
1004.243	761.9
1004.538	723.94
1004.832	758.06
1005.127	766.87
1005.421	746.53
1005.715	742.01
1006.009	727.1
1006.304	739.3
1006.598	744.73
1006.892	711.51
1007.186	724.61
1007.48	718.06
1007.773	714.22
1008.067	711.51
1008.361	721
1008.655	708.79
1008.948	716.48
1009.242	706.76
1009.535	703.6
1009.829	704.73
1010.122	709.7
1010.415	695.91
1010.708	702.92
1011.001	680.1
1011.295	679.19
1011.588	701.56
1011.881	697.04
1012.173	668.8
1012.466	650.94
1012.759	670.83
1013.052	692.52
1013.344	648.91
1013.637	666.54
1013.93	692.98
1014.222	681.68
1014.514	655.46
1014.807	639.42
1015.099	679.87
1015.391	658.63
1015.683	645.29
1015.976	641.68
1016.268	636.03
1016.56	649.36
1016.851	663.15
1017.143	641.9
1017.435	647.1
1017.727	629.7
1018.018	631.06
1018.31	638.06
1018.602	620.66
1018.893	631.51
1019.185	624.73
1019.476	615.46
1019.767	619.98
1020.058	614.56
1020.35	608.01
1020.641	627.67
1020.932	592.87
1021.223	601.91
1021.514	601.23
1021.804	579.98
1022.095	567.33
1022.386	610.49
1022.677	590.83
1022.967	605.75
1023.258	596.93
1023.548	577.72
1023.839	569.59
1024.129	579.98
1024.419	570.04
1024.709	599.42
1025	581.34
1025.29	587.67
1025.58	570.27
1025.87	558.97
1026.16	560.78
1026.449	550.38
1026.739	535.92
1027.029	572.75
1027.319	560.1
1027.608	516.94
1027.898	549.48
1028.187	540.44
1028.477	533.66
1028.766	542.7
1029.055	557.39
1029.344	560.1
1029.634	547.44
1029.923	535.69
1030.212	540.21
1030.501	549.03
1030.79	539.31
1031.078	534.34
1031.367	542.47
1031.656	528.91
1031.945	530.49
1032.233	511.96
1032.522	533.21
1032.81	515.81
1033.099	524.84
1033.387	540.89
1033.675	532.75
1033.963	511.74
1034.251	500.21
1034.54	523.26
1034.828	498.18
1035.116	511.74
1035.403	491.17
1035.691	490.27
1035.979	509.25
1036.267	511.29
1036.554	487.33
1036.842	492.98
1037.129	481
1037.417	485.52
1037.704	469.03
1037.992	484.62
1038.279	474.45
1038.566	487.11
1038.853	487.11
1039.14	487.11
