Data from mousepad_grey_FLMS001491_00087.txt Node
Date: Wed Feb 08 14:30:03 GMT 2017
User: dcchb
Spectrometer: FLMS00149
Trigger mode: 0
Integration Time (sec): 2.000000E-2
Scans to average: 10
Electric dark correction enabled: true
Nonlinearity correction enabled: false
Boxcar width: 0
XAxis mode: Wavelengths
Number of Pixels in Spectrum: 2048
>>>>>Begin Spectral Data<<<<<
341.393	-31.4
341.776	-31.4
342.16	-31.4
342.543	-49.7
342.927	-75.01
343.31	-67.33
343.693	-72.3
344.077	-62.13
344.46	-55.13
344.843	-54.22
345.226	-51.51
345.61	-30.27
345.993	-25.07
346.376	4.31
346.759	12.44
347.142	41.82
347.525	44.31
347.908	53.8
348.291	69.16
348.674	85.44
349.057	106.68
349.44	120.69
349.823	108.94
350.206	172.44
350.588	168.6
350.971	203.4
351.354	200.46
351.737	234.58
352.119	219.44
352.502	242.27
352.884	259.67
353.267	261.02
353.65	257.18
354.032	264.19
354.414	308.71
354.797	296.5
355.179	290.18
355.562	298.99
355.944	316.84
356.326	320.91
356.709	298.76
357.091	301.7
357.473	297.18
357.855	315.26
358.238	322.49
358.62	306.9
359.002	302.15
359.384	318.42
359.766	316.16
360.148	323.4
360.53	300.12
360.912	310.06
361.294	316.84
361.676	284.07
362.057	294.47
362.439	301.25
362.821	293.79
363.203	295.83
363.584	304.19
363.966	321.36
364.348	305.32
364.729	312.55
365.111	296.96
365.493	291.08
365.874	303.73
366.256	310.06
366.637	320.68
367.019	278.42
367.4	283.62
367.781	294.47
368.163	296.5
368.544	269.16
368.925	304.19
369.306	298.76
369.688	297.41
370.069	291.53
370.45	264.41
370.831	281.14
371.212	274.36
371.593	287.24
371.974	310.97
372.355	288.14
372.736	291.76
373.117	290.63
373.498	313.9
373.879	291.53
374.26	261.7
374.641	304.41
375.021	295.15
375.402	290.85
375.783	309.61
376.163	302.15
376.544	319.33
376.925	296.28
377.305	304.19
377.686	304.86
378.066	316.39
378.447	300.35
378.827	316.16
379.208	302.15
379.588	306.22
379.968	305.54
380.349	302.61
380.729	317.29
381.109	310.29
381.489	330.17
381.87	312.55
382.25	312.32
382.63	332.43
383.01	314.81
383.39	315.71
383.77	325.88
384.15	315.03
384.53	309.16
384.91	322.94
385.29	324.07
385.67	331.76
386.049	337.41
386.429	335.82
386.809	322.72
387.189	319.33
387.568	329.05
387.948	341.93
388.328	309.16
388.707	341.47
389.087	329.05
389.466	333.11
389.846	345.99
390.225	344.86
390.605	352.55
390.984	346.45
391.363	357.29
391.743	359.33
392.122	340.8
392.501	332.66
392.881	354.36
393.26	359.33
393.639	360.46
394.018	352.32
394.397	332.43
394.776	355.49
395.155	373.56
395.534	353.68
395.913	337.86
396.292	345.32
396.671	359.78
397.05	376.05
397.429	372.89
397.808	368.59
398.186	363.62
398.565	392.09
398.944	354.13
399.323	355.03
399.701	367.01
400.08	375.37
400.458	376.5
400.837	375.6
401.215	388.93
401.594	395.71
401.972	385.99
402.351	396.39
402.729	371.98
403.107	385.77
403.486	387.12
403.864	391.64
404.242	403.39
404.62	411.3
404.999	398.2
405.377	395.94
405.755	399.33
406.133	397.74
406.511	424.41
406.889	417.63
407.267	412.88
407.645	447.69
408.023	414.47
408.401	409.27
408.779	427.57
409.156	429.16
409.534	416.95
409.912	444.75
410.29	443.17
410.667	469.15
411.045	435.71
411.422	460.57
411.8	459.66
412.178	467.8
412.555	455.37
412.933	450.62
413.31	457.4
413.687	465.54
414.065	493.56
414.442	473.9
414.819	467.57
415.197	469.15
415.574	479.55
415.951	488.59
416.328	474.35
416.705	496.05
417.082	474.58
417.46	504.41
417.837	507.35
418.214	534.46
418.591	508.25
418.967	512.54
419.344	538.98
419.721	523.39
420.098	506.89
420.475	541.69
420.852	519.32
421.228	532.2
421.605	538.53
421.982	511.19
422.358	534.92
422.735	538.76
423.111	537.85
423.488	571.98
423.864	545.99
424.241	546.44
424.617	570.85
424.994	593.44
425.37	580.56
425.746	560.9
426.123	572.43
426.499	586.21
426.875	575.82
427.251	579.89
427.627	579.21
428.003	596.16
428.379	601.13
428.756	598.64
429.132	619.43
429.507	609.49
429.883	620.34
430.259	628.92
430.635	632.09
431.011	640
431.387	628.02
431.763	664.18
432.138	665.53
432.514	641.58
432.89	679.32
433.265	695.36
433.641	682.48
434.016	671.86
434.392	684.29
434.767	692.88
435.143	694.91
435.518	702.82
435.894	719.09
436.269	750.95
436.644	706.66
437.02	750.05
437.395	743.5
437.77	746.21
438.145	745.53
438.52	751.41
438.895	759.09
439.271	742.14
439.646	765.42
440.021	794.8
440.395	740.33
440.77	766.77
441.145	773.33
441.52	783.5
441.895	764.74
442.27	784.17
442.645	822.59
443.019	805.64
443.394	796.6
443.769	811.97
444.143	814.23
444.518	816.04
444.892	828.47
445.267	837.51
445.641	845.19
446.016	817.17
446.39	840.9
446.764	844.29
447.139	835.7
447.513	862.36
447.887	854.91
448.262	849.48
448.636	844.96
449.01	858.97
449.384	893.1
449.758	868.69
450.132	896.71
450.506	912.31
450.88	879.09
451.254	882.7
451.628	904.4
452.002	894.45
452.376	910.05
452.75	938.52
453.123	967.22
453.497	935.58
453.871	953.21
454.244	983.72
454.618	980.78
454.992	971.06
455.365	996.37
455.739	993.89
456.112	999.31
456.486	1023.26
456.859	1027.33
457.232	1065.97
457.606	1068.01
457.979	1044.05
458.352	1101.45
458.725	1064.84
459.099	1095.8
459.472	1098.97
459.845	1137.16
460.218	1133.32
460.591	1171.96
460.964	1139.87
461.337	1160.89
461.71	1175.58
462.083	1189.59
462.456	1178.29
462.829	1189.36
463.201	1225.74
463.574	1198.85
463.947	1212.86
464.32	1228.91
464.692	1239.3
465.065	1276.59
465.438	1297.61
465.81	1279.3
466.183	1286.53
466.555	1284.95
466.928	1345.29
467.3	1294.9
467.672	1358.62
468.045	1369.7
468.417	1391.39
468.789	1395.23
469.161	1451.5
469.534	1437.04
469.906	1466.87
470.278	1458.28
470.65	1486.08
471.022	1496.47
471.394	1487.21
471.766	1520.43
472.138	1559.52
472.51	1566.75
472.882	1591.84
473.253	1613.76
473.625	1621.89
473.997	1669.57
474.369	1628.22
474.74	1689.69
475.112	1678.39
475.484	1733.75
475.855	1756.58
476.227	1743.02
476.598	1823.24
476.97	1827.54
477.341	1837.93
477.713	1868.21
478.084	1879.29
478.455	1913.86
478.827	1897.37
479.198	1957.93
479.569	1972.62
479.94	2038.15
480.311	2077.25
480.682	2081.09
481.053	2105.5
481.424	2149.79
481.795	2142.1
482.166	2240.18
482.537	2213.06
482.908	2278.15
483.279	2295.55
483.65	2323.57
484.021	2372.61
484.391	2388.43
484.762	2403.34
485.133	2443.11
485.503	2446.28
485.874	2496.67
486.244	2517.01
486.615	2561.53
486.985	2573.05
487.356	2640.17
487.726	2634.75
488.097	2708.64
488.467	2695.76
488.837	2755.87
489.207	2773.05
489.578	2803.1
489.948	2777.57
490.318	2901.86
490.688	2885.59
491.058	2918.13
491.428	2944.12
491.798	2981.63
492.168	3034.74
492.538	3016.88
492.908	3063.89
493.278	3121.06
493.648	3113.38
494.017	3185.92
494.387	3218.01
494.757	3192.92
495.126	3194.28
495.496	3258.69
495.866	3249.87
496.235	3309.53
496.605	3307.72
496.974	3365.58
497.344	3363.99
497.713	3404.67
498.082	3394.05
498.452	3448.29
498.821	3450.32
499.19	3453.71
499.559	3532.12
499.928	3514.95
500.298	3579.36
500.667	3585.23
501.036	3595.17
501.405	3595.17
501.774	3619.35
502.143	3663.87
502.512	3632.01
502.88	3697.77
503.249	3686.7
503.618	3703.65
503.987	3748.84
504.356	3762.85
504.724	3778.45
505.093	3841.95
505.462	3853.92
505.83	3844.88
506.199	3894.83
506.567	3908.16
506.936	3905.67
507.304	3986.12
507.672	3997.65
508.041	4042.17
508.409	4033.13
508.777	4104.76
509.145	4068.16
509.514	4104.99
509.882	4155.84
510.25	4141.6
510.618	4182.5
510.986	4149.51
511.354	4210.52
511.722	4233.12
512.09	4269.51
512.458	4260.24
512.826	4295.49
513.193	4322.84
513.561	4376.85
513.929	4394.25
514.297	4459.78
514.664	4448.48
515.032	4445.55
515.4	4472.44
515.767	4509.05
516.135	4541.59
516.502	4545.66
516.869	4618.88
517.237	4624.53
517.604	4603.51
517.972	4662.26
518.339	4686.9
518.706	4766.89
519.073	4763.5
519.44	4809.83
519.808	4811.87
520.175	4801.7
520.542	4887.34
520.909	4887.8
521.276	4855.71
521.643	4956.95
522.009	4983.39
522.376	5016.61
522.743	5044.4
523.11	5075.13
523.477	5116.49
523.843	5174.34
524.21	5216.6
524.577	5214.11
524.943	5288.69
525.31	5296.15
525.676	5334.34
526.043	5354.22
526.409	5365.52
526.776	5396.03
527.142	5466.76
527.508	5480.77
527.874	5533.43
528.241	5632.86
528.607	5574.56
528.973	5562.13
529.339	5693.88
529.705	5691.39
530.071	5758.51
530.437	5808.9
530.803	5758.05
531.169	5827.43
531.535	5849.13
531.901	5844.38
532.267	5893.42
532.632	5898.39
532.998	5942.68
533.364	5941.33
533.73	5987.88
534.095	6052.06
534.461	6014.32
534.826	6111.49
535.192	6138.84
535.557	6206.63
535.923	6190.81
536.288	6220.42
536.653	6225.84
537.019	6195.11
537.384	6254.54
537.749	6343.35
538.114	6299.51
538.479	6335.67
538.845	6384.93
539.21	6323.46
539.575	6388.32
539.94	6384.25
540.305	6491.82
540.67	6466.96
541.034	6520.97
541.399	6549.67
541.764	6471.48
542.129	6579.95
542.494	6620.41
542.858	6633.96
543.223	6623.34
543.587	6737.92
543.952	6671.93
544.316	6755.99
544.681	6806.16
545.045	6769.55
545.41	6814.75
545.774	6867.4
546.138	6868.76
546.503	6903.79
546.867	6885.93
547.231	6938.36
547.595	6975.2
547.959	7042.99
548.324	7055.65
548.688	7071.69
549.052	7085.93
549.416	7116.89
549.779	7098.36
550.143	7191.69
550.507	7154.63
550.871	7245.93
551.235	7200.05
551.599	7237.56
551.962	7271.91
552.326	7318.24
552.689	7383.55
553.053	7330.67
553.417	7323.89
553.78	7516.2
554.143	7506.26
554.507	7509.2
554.87	7455.86
555.234	7559.36
555.597	7530.89
555.96	7660.83
556.323	7709.19
556.686	7685.69
557.05	7688.63
557.413	7687.5
557.776	7757.32
558.139	7852.24
558.502	7826.25
558.865	7724.56
559.228	7836.64
559.59	7952.8
559.953	7957.32
560.316	7982.63
560.679	8003.65
561.041	8095.39
561.404	8132.68
561.767	8144.43
562.129	8117.77
562.492	8216.52
562.854	8267.82
563.217	8201.38
563.579	8265.33
563.941	8295.84
564.304	8291.77
564.666	8407.93
565.028	8429.17
565.39	8460.13
565.753	8496.97
566.115	8489.96
566.477	8532.9
566.839	8611.31
567.201	8607.7
567.563	8622.39
567.925	8669.39
568.287	8625.1
568.648	8719.78
569.01	8760.91
569.372	8760.24
569.734	8719.33
570.095	8812.44
570.457	8923.62
570.819	8878.65
571.18	8969.95
571.542	8979.44
571.903	9063.5
572.265	9046.33
572.626	9036.61
572.987	9012.88
573.349	9065.99
573.71	9176.95
574.071	9112.99
574.432	9134.01
574.794	9319.77
575.155	9268.02
575.516	9211.3
575.877	9305.98
576.238	9319.09
576.599	9315.93
576.96	9390.5
577.32	9380.78
577.681	9338.3
578.042	9429.14
578.403	9393.21
578.763	9344.85
579.124	9418.07
579.485	9458.75
579.845	9483.38
580.206	9468.92
580.566	9546.43
580.927	9533.1
581.287	9507.56
581.648	9511.18
582.008	9539.65
582.368	9524.28
582.728	9552.08
583.089	9557.95
583.449	9539.88
583.809	9618.74
584.169	9639.31
584.529	9547.79
584.889	9647.9
585.249	9627.78
585.609	9584.85
585.969	9612.42
586.329	9579.42
586.688	9635.02
587.048	9675.69
587.408	9679.99
587.768	9618.74
588.127	9619.2
588.487	9589.14
588.846	9720.66
589.206	9609.7
589.565	9737.39
589.925	9680.66
590.284	9629.37
590.643	9647.22
591.003	9677.05
591.362	9730.38
591.721	9710.95
592.08	9690.38
592.44	9723.15
592.799	9704.17
593.158	9694.22
593.517	9712.98
593.876	9654.9
594.235	9705.75
594.593	9634.79
594.952	9673.21
595.311	9675.24
595.67	9689.02
596.029	9743.71
596.387	9680.44
596.746	9762.47
597.104	9755.46
597.463	9736.03
597.822	9768.8
598.18	9741.68
598.538	9762.47
598.897	9741
599.255	9763.83
599.613	9873.43
599.972	9817.16
600.33	9787.1
600.688	9749.59
601.046	9749.36
601.404	9765.18
601.762	9839.53
602.12	9810.83
602.478	9850.83
602.836	9856.93
603.194	9812.19
603.552	9830.04
603.91	9812.86
604.268	9891.28
604.625	9917.95
604.983	9872.07
605.341	9789.81
605.698	9831.85
606.056	9945.06
606.413	9956.81
606.771	9944.61
607.128	9913.2
607.485	9927.89
607.843	9900.77
608.2	9949.13
608.557	9993.65
608.914	9949.36
609.272	9937.38
609.629	10047.89
609.986	10002.24
610.343	9934.67
610.7	9993.88
611.057	9942.58
611.414	10063.7
611.771	10062.12
612.127	9999.07
612.484	10016.02
612.841	10060.09
613.198	10004.27
613.554	10002.91
613.911	10067.09
614.267	10096.47
614.624	10091.05
614.98	10137.6
615.337	10152.29
615.693	10155.91
616.05	10151.16
616.406	10249.69
616.762	10096.92
617.118	10126.53
617.475	10230.93
617.831	10184.83
618.187	10253.08
618.543	10222.12
618.899	10229.12
619.255	10200.42
619.611	10261.67
619.967	10213.76
620.323	10278.61
620.678	10194.55
621.034	10199.97
621.39	10173.53
621.746	10298.95
622.101	10294.66
622.457	10221.89
622.812	10288.78
623.168	10286.75
623.523	10305.73
623.879	10299.18
624.234	10245.62
624.589	10257.37
624.945	10284.94
625.3	10282.68
625.655	10331.95
626.01	10279.29
626.365	10294.88
626.72	10235.9
627.075	10270.03
627.43	10298.5
627.785	10278.84
628.14	10318.16
628.495	10307.54
628.85	10294.43
629.205	10270.93
629.559	10324.04
629.914	10279.97
630.269	10231.84
630.623	10272.74
630.978	10227.09
631.332	10227.09
631.687	10295.56
632.041	10265.28
632.396	10226.41
632.75	10199.52
633.104	10187.09
633.459	10145.96
633.813	10183.7
634.167	10181.67
634.521	10152.97
634.875	10164.27
635.229	10197.49
635.583	10093.08
635.937	10141.67
636.291	10057.83
636.645	10176.92
636.999	10150.26
637.352	10176.47
637.706	10075
638.06	10058.05
638.413	10100.99
638.767	10046.53
639.121	10115.91
639.474	10048.56
639.828	10035.46
640.181	10039.52
640.534	10043.14
640.888	9953.88
641.241	9987.32
641.594	9967.89
641.947	10003.59
642.301	10035.91
642.654	10068.22
643.007	9967.44
643.36	10007.43
643.713	9996.81
644.066	10005.85
644.419	9970.83
644.771	9925.85
645.124	9790.04
645.477	9753.88
645.83	9725.18
646.182	9708.91
646.535	9726.54
646.888	9688.57
647.24	9678.18
647.593	9708.23
647.945	9662.81
648.298	9700.78
648.65	9657.16
649.002	9607.9
649.355	9621.91
649.707	9636.14
650.059	9682.92
650.411	9810.15
650.763	9875.23
651.115	9888.79
651.467	9851.28
651.819	9902.8
652.171	9942.13
652.523	9853.99
652.875	9841.56
653.227	9798.4
653.578	9831.85
653.93	9904.84
654.282	9865.52
654.633	9813.77
654.985	9768.12
655.337	9804.5
655.688	9844.5
656.039	9922.24
656.391	9772.64
656.742	9836.59
657.094	9841.11
657.445	9787.78
657.796	9885.63
658.147	9793.2
658.498	9835.46
658.849	9867.33
659.2	9824.61
659.551	9825.52
659.902	9874.33
660.253	9786.65
660.604	9817.16
660.955	9782.13
661.306	9863.94
661.656	9758.63
662.007	9828.46
662.358	9859.87
662.708	9832.07
663.059	9785.75
663.409	9808.8
663.76	9820.09
664.11	9784.62
664.461	9830.26
664.811	9820.77
665.161	9842.02
665.511	9796.37
665.862	9823.71
666.212	9889.02
666.562	9877.72
666.912	9817.61
667.262	9757.27
667.612	9836.59
667.962	9767.21
668.312	9848.34
668.662	9799.76
669.011	9841.79
669.361	9806.31
669.711	9799.98
670.06	9773.54
670.41	9747.1
670.76	9811.73
671.109	9831.39
671.459	9727.67
671.808	9752.98
672.157	9775.12
672.507	9669.82
672.856	9774.45
673.205	9716.14
673.554	9683.83
673.904	9676.82
674.253	9821.45
674.602	9697.39
674.951	9558.18
675.3	9559.31
675.649	9685.64
675.998	9650.83
676.346	9695.58
676.695	9654.68
677.044	9568.35
677.393	9632.76
677.741	9619.42
678.09	9595.02
678.438	9568.35
678.787	9646.54
679.135	9594.56
679.484	9525.41
679.832	9612.42
680.181	9581.01
680.529	9610.16
680.877	9453.32
681.225	9446.77
681.573	9587.78
681.922	9471.63
682.27	9469.37
682.618	9417.17
682.966	9453.1
683.314	9457.17
683.661	9407.9
684.009	9384.63
684.357	9438.41
684.705	9338.53
685.053	9419.65
685.4	9369.49
685.748	9338.75
686.095	9308.7
686.443	9270.5
686.79	9214.46
687.138	9238.87
687.485	9259.88
687.832	9223.95
688.18	9188.93
688.527	9185.08
688.874	9133.11
689.221	9119.32
689.568	9102.15
689.915	9087.46
690.262	9082.71
690.609	8998.87
690.956	9041.81
691.303	8964.3
691.65	8929.5
691.997	8944.86
692.344	8857.63
692.69	8800.69
693.037	8863.96
693.383	8877.97
693.73	8829.61
694.077	8793.68
694.423	8757.07
694.769	8695.38
695.116	8720.24
695.462	8688.83
695.808	8698.09
696.155	8663.29
696.501	8610.64
696.847	8610.18
697.193	8571.09
697.539	8567.25
697.885	8453.35
698.231	8517.76
698.577	8492.67
698.923	8438.89
699.269	8381.26
699.614	8334.71
699.96	8352.11
700.306	8359.34
700.651	8252.23
700.997	8360.25
701.342	8305.56
701.688	8228.5
702.033	8203.19
702.379	8183.98
702.724	8219.01
703.069	8173.13
703.415	8137.43
703.76	8099.01
704.105	8054.27
704.45	8063.08
704.795	7960.71
705.14	7958.9
705.485	7998.22
705.83	7922.29
706.175	7910.09
706.52	7860.37
706.865	7864.89
707.209	7858.34
707.554	7840.03
707.899	7847.49
708.243	7826.7
708.588	7780.83
708.932	7721.17
709.277	7783.31
709.621	7771.56
709.966	7685.01
710.31	7706.25
710.654	7629.19
710.998	7638.01
711.342	7630.55
711.687	7675.52
712.031	7565.92
712.375	7612.24
712.719	7505.13
713.063	7558.23
713.407	7562.08
713.75	7590.55
714.094	7496.09
714.438	7463.55
714.782	7567.27
715.125	7459.48
715.469	7516.65
715.812	7468.97
716.156	7421.06
716.499	7438.91
716.843	7507.39
717.186	7458.8
717.53	7490.66
717.873	7433.94
718.216	7478.01
718.559	7380.84
718.902	7337.22
719.246	7415.86
719.589	7368.41
719.932	7324.12
720.275	7326.6
720.617	7339.26
720.96	7286.38
721.303	7360.05
721.646	7295.19
721.989	7278.69
722.331	7321.86
722.674	7306.26
723.016	7288.86
723.359	7360.27
723.701	7306.26
724.044	7257.9
724.386	7206.38
724.729	7264.46
725.071	7286.15
725.413	7234.63
725.755	7243.67
726.097	7202.76
726.439	7154.4
726.782	7193.05
727.124	7267.17
727.465	7159.37
727.807	7215.19
728.149	7203.89
728.491	7172.25
728.833	7195.08
729.175	7198.92
729.516	7251.57
729.858	7187.17
730.199	7257.22
730.541	7207.06
730.882	7186.94
731.224	7192.37
731.565	7173.16
731.906	7114.4
732.248	7167.74
732.589	7155.98
732.93	7088.19
733.271	7111.47
733.612	7140.62
733.953	7192.14
734.294	7098.36
734.635	7089.55
734.976	7164.35
735.317	7112.37
735.658	7114.18
735.999	7079.6
736.339	7099.94
736.68	7166.15
737.021	7128.87
737.361	7152.82
737.702	7196.44
738.042	7085.93
738.383	7185.36
738.723	7169.09
739.063	7144.01
739.404	7131.58
739.744	7144.69
740.084	7148.07
740.424	7162.09
740.764	7087.29
741.104	7164.8
741.444	7082.09
741.784	7081.18
742.124	7097
742.464	7080.96
742.804	7175.64
743.143	7126.61
743.483	7129.77
743.823	7097.68
744.162	7115.08
744.502	7093.84
744.841	7043.67
745.181	7119.6
745.52	7087.51
745.86	7007.06
746.199	7065.59
746.538	7064.69
746.877	7042.77
747.216	7073.95
747.556	7073.5
747.895	7044.8
748.234	7018.81
748.573	7027.4
748.911	7135.87
749.25	7061.07
749.589	7043.67
749.928	7055.65
750.267	7059.49
750.605	7021.3
750.944	7065.82
751.283	6977.46
751.621	7010
751.96	6972.94
752.298	6954.41
752.636	6991.24
752.975	6962.77
753.313	6919.83
753.651	7014.52
753.989	6973.84
754.327	6943.79
754.666	6892.94
755.004	6896.1
755.342	6922.77
755.679	6919.83
756.017	6838.48
756.355	6920.06
756.693	6860.85
757.031	6908.08
757.368	6876.22
757.706	6857.69
758.044	6791.7
758.381	6826.95
758.719	6888.42
759.056	6773.85
759.394	6819.27
759.731	6728.65
760.068	6779.95
760.405	6719.39
760.743	6709.89
761.08	6740.63
761.417	6686.84
761.754	6683.45
762.091	6701.08
762.428	6649.1
762.765	6611.37
763.102	6640.74
763.438	6587.41
763.775	6591.25
764.112	6620.41
764.449	6570.46
764.785	6488.66
765.122	6516.68
765.458	6496.11
765.795	6471.93
766.131	6445.72
766.467	6430.58
766.804	6415.89
767.14	6389.45
767.476	6358.27
767.812	6347.19
768.148	6345.16
768.485	6313.75
768.821	6315.55
769.157	6294.99
769.492	6243.47
769.828	6268.78
770.164	6231.71
770.5	6198.72
770.836	6235.78
771.171	6111.49
771.507	6167.76
771.842	6122.79
772.178	6128.44
772.513	6124.6
772.849	6086.63
773.184	6036.69
773.519	6057.48
773.855	5992.85
774.19	5983.36
774.525	5978.16
774.86	5960.31
775.195	5964.38
775.53	5940.87
775.865	5950.14
776.2	5887.54
776.535	5831.5
776.87	5815.91
777.205	5814.1
777.539	5820.65
777.874	5849.13
778.209	5737.04
778.543	5714.89
778.878	5772.52
779.212	5701.79
779.547	5673.54
779.881	5660.43
780.215	5669.7
780.55	5657.49
780.884	5630.15
781.218	5589.47
781.552	5640.32
781.886	5580.43
782.22	5601
782.554	5482.13
782.888	5520.77
783.222	5509.02
783.556	5450.49
783.889	5437.39
784.223	5417.5
784.557	5365.3
784.89	5436.03
785.224	5351.74
785.557	5408.23
785.891	5341.57
786.224	5309.25
786.558	5350.61
786.891	5257.73
787.224	5275.13
787.557	5244.85
787.891	5229.26
788.224	5233.1
788.557	5219.31
788.89	5168.47
789.223	5182.02
789.556	5201.23
789.888	5196.94
790.221	5105.19
790.554	5099.99
790.887	5104.74
791.219	5113.1
791.552	5016.83
791.884	5023.16
792.217	5030.62
792.549	5063.38
792.882	4970.5
793.214	4966.44
793.546	4946.55
793.879	4913.33
794.211	4908.81
794.543	4945.42
794.875	4902.26
795.207	4931.18
795.539	4887.8
795.871	4832.88
796.203	4856.38
796.535	4804.63
796.867	4813.22
797.198	4829.49
797.53	4808.25
797.862	4777.52
798.193	4787.01
798.525	4759.66
798.856	4800.11
799.188	4685.99
799.519	4726.22
799.85	4676.73
800.182	4715.37
800.513	4652.77
800.844	4627.24
801.175	4673.79
801.506	4669.72
801.837	4595.6
802.168	4567.58
802.499	4569.84
802.83	4586.56
803.161	4563.51
803.491	4612.32
803.822	4554.24
804.153	4548.6
804.483	4500.69
804.814	4505.43
805.145	4499.1
805.475	4491.42
805.805	4427.92
806.136	4484.19
806.466	4454.59
806.796	4414.59
807.126	4452.55
807.457	4377.53
807.787	4419.33
808.117	4380.92
808.447	4401.93
808.777	4406.68
809.107	4334.59
809.436	4344.53
809.766	4349.05
810.096	4328.26
810.426	4294.36
810.755	4354.02
811.085	4294.14
811.414	4293.01
811.744	4250.52
812.073	4224.31
812.403	4242.16
812.732	4237.64
813.061	4217.3
813.39	4215.72
813.719	4208.27
814.049	4238.09
814.378	4221.15
814.707	4191.54
815.036	4175.27
815.365	4170.75
815.693	4149.74
816.022	4124.88
816.351	4107.93
816.68	4105.44
817.008	4099.79
817.337	4094.14
817.665	4133.92
817.994	4091.88
818.322	4091.66
818.651	4046.69
818.979	4088.72
819.307	4090.75
819.636	4057.76
819.964	4036.52
820.292	4036.07
820.62	4017.99
820.948	4004.2
821.276	4040.81
821.604	4034.03
821.932	3987.48
822.259	3985.22
822.587	4011.21
822.915	3983.19
823.243	3987.71
823.57	4009.17
823.898	3968.95
824.225	3963.3
824.553	4003.52
824.88	4000.59
825.207	4007.59
825.535	4004.88
825.862	4002.85
826.189	3993.36
826.516	3998.33
826.843	4008.5
827.17	3988.16
827.497	4033.58
827.824	3988.38
828.151	3999.91
828.478	3974.6
828.805	3968.72
829.131	3951.77
829.458	3981.15
829.785	3988.16
830.111	4002.62
830.438	4011.21
830.764	3974.6
831.09	3980.93
831.417	3976.63
831.743	3992.23
832.069	3989.74
832.395	3977.99
832.722	4010.98
833.048	3983.41
833.374	3955.16
833.7	3979.57
834.026	3970.53
834.351	3938.89
834.677	3960.36
835.003	3977.76
835.329	3974.82
835.654	3936.63
835.98	3930.31
836.306	3959.23
836.631	3951.1
836.956	3932.79
837.282	3950.64
837.607	3905.9
837.932	3864.55
838.258	3916.97
838.583	3899.12
838.908	3915.17
839.233	3919.91
839.558	3889.86
839.883	3851.66
840.208	3856.86
840.533	3893.7
840.858	3882.85
841.182	3836.75
841.507	3823.87
841.832	3828.16
842.156	3808.95
842.481	3838.11
842.805	3813.25
843.13	3792.68
843.454	3790.2
843.778	3779.58
844.103	3812.34
844.427	3780.03
844.751	3790.87
845.075	3765.11
845.399	3725.57
845.723	3688.73
846.047	3747.94
846.371	3685.79
846.695	3710.2
847.019	3666.81
847.343	3698
847.666	3624.78
847.99	3658
848.313	3631.11
848.637	3607.15
848.96	3608.28
849.284	3602.63
849.607	3595.4
849.931	3560.37
850.254	3560.37
850.577	3539.58
850.9	3493.26
851.223	3496.42
851.546	3486.48
851.869	3472.69
852.192	3498.68
852.515	3461.17
852.838	3454.16
853.161	3441.05
853.483	3437.44
853.806	3424.1
854.129	3426.36
854.451	3370.1
854.774	3316.31
855.096	3386.59
855.419	3374.61
855.741	3362.86
856.063	3319.47
856.385	3340.27
856.708	3348.85
857.03	3323.54
857.352	3364.9
857.674	3325.58
857.996	3283.54
858.318	3291.68
858.64	3339.59
858.961	3302.98
859.283	3264.79
859.605	3300.94
859.926	3260.27
860.248	3243.77
860.57	3258.23
860.891	3256.43
861.212	3217.1
861.534	3225.47
861.855	3173.72
862.176	3197.44
862.498	3205.58
862.819	3209.2
863.14	3179.14
863.461	3209.2
863.782	3145.02
864.103	3184.34
864.424	3171
864.745	3180.04
865.065	3157.9
865.386	3117.9
865.707	3126.94
866.027	3133.72
866.348	3147.05
866.668	3110.44
866.989	3141.17
867.309	3093.72
867.63	3091.46
867.95	3081.06
868.27	3078.58
868.59	3100.05
868.91	3091.23
869.23	3059.37
869.55	3067.28
869.87	3082.42
870.19	3042.65
870.51	3068.18
870.83	3073.15
871.15	3052.14
871.469	3034.51
871.789	3053.95
872.109	3071.57
872.428	3041.74
872.748	3033.61
873.067	3030.89
873.386	3016.88
873.706	3050.78
874.025	3031.35
874.344	2977.34
874.663	3035.19
874.982	2989.54
875.301	2992.03
875.62	3017.56
875.939	2942.31
876.258	2971.69
876.577	2986.15
876.896	2964
877.214	2968.3
877.533	2954.29
877.852	2962.65
878.17	2990.9
878.489	2971.69
878.807	2988.86
879.125	2957.9
879.444	2915.42
879.762	2945.25
880.08	2947.51
880.398	2920.84
880.716	2904.57
881.034	2937.11
881.352	2911.12
881.67	2926.49
881.988	2901.18
882.306	2865.93
882.624	2920.84
882.941	2868.19
883.259	2882.88
883.577	2862.76
883.894	2853.05
884.212	2855.53
884.529	2841.07
884.846	2867.51
885.164	2835.42
885.481	2836.1
885.798	2878.36
886.115	2832.26
886.432	2851.92
886.75	2811.69
887.067	2803.33
887.383	2764.01
887.7	2806.04
888.017	2806.95
888.334	2799.04
888.651	2755.65
888.967	2770.56
889.284	2761.3
889.6	2779.6
889.917	2754.52
890.233	2693.28
890.55	2751.58
890.866	2775.08
891.182	2745.25
891.498	2693.95
891.815	2714.29
892.131	2654.86
892.447	2673.62
892.763	2667.29
893.079	2661.87
893.395	2682.2
893.71	2655.76
894.026	2636.55
894.342	2634.52
894.657	2628.19
894.973	2645.14
895.289	2642.2
895.604	2634.52
895.92	2591.13
896.235	2581.19
896.55	2615.76
896.865	2574.86
897.181	2606.5
897.496	2606.27
897.811	2567.18
898.126	2577.8
898.441	2583.45
898.756	2562.21
899.071	2519.95
899.386	2533.96
899.7	2502.32
900.015	2521.53
900.33	2500.97
900.644	2485.82
900.959	2504.13
901.273	2500.29
901.588	2450.35
901.902	2417.8
902.216	2439.05
902.531	2464.81
902.845	2438.37
903.159	2415.09
903.473	2395.43
903.787	2428.2
904.101	2422.32
904.415	2418.71
904.729	2385.26
905.042	2386.39
905.356	2360.18
905.67	2364.47
905.984	2379.84
906.297	2356.11
906.611	2340.29
906.924	2337.13
907.237	2340.97
907.551	2347.52
907.864	2322.21
908.177	2276.56
908.491	2309.56
908.804	2278.6
909.117	2280.63
909.43	2261.88
909.743	2275.66
910.056	2256.45
910.368	2253.97
910.681	2235.44
910.994	2247.41
911.307	2225.49
911.619	2202.22
911.932	2212.84
912.244	2211.03
912.557	2222.1
912.869	2177.13
913.181	2161.54
913.494	2171.26
913.806	2191.14
914.118	2131.48
914.43	2165.61
914.742	2179.17
915.054	2158.15
915.366	2105.04
915.678	2125.61
915.99	2069.79
916.302	2084.93
916.613	2075.89
916.925	2078.6
917.236	2093.07
917.548	2072.5
917.859	2076.12
918.171	2061.65
918.482	2043.35
918.794	2069.11
919.105	2011.03
919.416	2035.89
919.727	2045.84
920.038	2012.16
920.349	2020.75
920.66	1984.82
920.971	1989.57
921.282	2009.45
921.593	1945.27
921.903	1975.78
922.214	1936.01
922.525	1976.91
922.835	1968.78
923.146	1922.68
923.456	1920.64
923.767	1933.52
924.077	1913.86
924.387	1911.38
924.697	1882.45
925.008	1884.26
925.318	1889.68
925.628	1882.9
925.938	1900.3
926.248	1875.22
926.558	1882.45
926.867	1846.29
927.177	1856.69
927.487	1832.51
927.796	1846.07
928.106	1840.64
928.416	1804.71
928.725	1842.68
929.034	1821.89
929.344	1793.64
929.653	1803.36
929.962	1778.95
930.271	1764.49
930.581	1782.34
930.89	1789.35
931.199	1795.67
931.508	1742.12
931.817	1785.28
932.125	1749.8
932.434	1764.71
932.743	1731.49
933.051	1746.63
933.36	1692.4
933.669	1701.66
933.977	1719.97
934.286	1685.85
934.594	1715.22
934.902	1668.22
935.21	1665.51
935.519	1688.11
935.827	1651.95
936.135	1632.06
936.443	1679.29
936.751	1669.8
937.059	1662.8
937.367	1651.95
937.674	1651.27
937.982	1626.86
938.29	1619.63
938.597	1613.76
938.905	1606.3
939.213	1616.47
939.52	1613.31
939.827	1600.65
940.135	1600.65
940.442	1589.35
940.749	1561.33
941.056	1583.7
941.363	1539.63
941.67	1572.85
941.977	1547.77
942.284	1519.75
942.591	1574.44
942.898	1555.91
943.205	1525.4
943.511	1525.4
943.818	1514.32
944.125	1492.4
944.431	1498.05
944.738	1493.76
945.044	1505.96
945.35	1460.99
945.657	1504.16
945.963	1471.39
946.269	1484.49
946.575	1482.91
946.881	1498.51
947.187	1478.17
947.493	1463.25
947.799	1450.37
948.105	1434.33
948.41	1465.29
948.716	1454.44
949.022	1446.98
949.327	1423.25
949.633	1423.48
949.938	1402.92
950.244	1417.38
950.549	1427.55
950.854	1416.25
951.16	1389.81
951.465	1398.4
951.77	1403.59
952.075	1391.84
952.38	1389.58
952.685	1391.62
952.99	1376.02
953.294	1379.19
953.599	1357.49
953.904	1365.63
954.209	1355.46
954.513	1342.8
954.818	1341.67
955.122	1324.27
955.426	1334.89
955.731	1349.36
956.035	1309.13
956.339	1349.58
956.643	1308.91
956.948	1313.65
957.252	1301.9
957.556	1285.86
957.86	1285.18
958.163	1317.49
958.467	1310.04
958.771	1280.88
959.075	1275.91
959.378	1286.76
959.682	1291.51
959.985	1282.47
960.289	1246.54
960.592	1250.83
960.896	1264.16
961.199	1233.88
961.502	1260.77
961.805	1255.8
962.108	1254.67
962.411	1247.66
962.714	1198.63
963.017	1226.65
963.32	1218.06
963.623	1240.43
963.926	1204.5
964.228	1192.07
964.531	1199.76
964.833	1185.97
965.136	1204.05
965.438	1206.76
965.741	1175.35
966.043	1148.91
966.345	1181.45
966.648	1200.89
966.95	1165.41
967.252	1143.71
967.554	1173.32
967.856	1147.33
968.158	1163.6
968.46	1154.33
968.761	1135.13
969.063	1138.29
969.365	1142.13
969.666	1116.14
969.968	1114.11
970.269	1132.19
970.571	1126.09
970.872	1123.6
971.174	1114.34
971.475	1136.48
971.776	1106.43
972.077	1110.95
972.378	1112.75
972.679	1120.21
972.98	1094.45
973.281	1069.82
973.582	1066.65
973.883	1077.05
974.183	1066.88
974.484	1071.85
974.785	1066.88
975.085	1063.26
975.386	1061.46
975.686	1043.38
975.986	1072.75
976.287	1051.51
976.587	1009.71
976.887	1039.76
977.187	1056.03
977.487	1022.59
977.787	1058.07
978.087	1019.42
978.387	1025.3
978.687	1027.33
978.987	1003.83
979.286	1007.9
979.586	1044.51
979.885	1018.97
980.185	1007.9
980.484	986.2
980.784	1011.96
981.083	1001.57
981.382	976.71
981.682	977.39
981.981	980.1
982.28	991.4
982.579	986.88
982.878	988.24
983.177	989.37
983.475	984.62
983.774	962.02
984.073	956.37
984.372	963.15
984.67	957.5
984.969	974.68
985.267	958.86
985.566	945.98
985.864	937.39
986.162	950.27
986.461	914.79
986.759	921.8
987.057	946.2
987.355	924.28
987.653	929.03
987.951	920.89
988.249	933.32
988.547	931.52
988.844	891.74
989.142	891.97
989.44	921.8
989.737	888.58
990.035	915.47
990.332	882.93
990.63	861.23
990.927	890.39
991.224	904.62
991.521	864.62
991.819	863.27
992.116	885.87
992.413	870.5
992.71	873.89
993.006	875.7
993.303	885.87
993.6	875.7
993.897	865.3
994.193	859.43
994.49	856.26
994.787	818.3
995.083	825.3
995.379	836.6
995.676	834.34
995.972	851.07
996.268	860.78
996.565	839.09
996.861	849.03
997.157	831.18
997.453	846.55
997.749	820.56
998.044	800.45
998.34	798.41
998.636	802.25
998.932	806.55
999.227	803.16
999.523	810.84
999.818	780.33
1000.114	795.7
1000.409	803.83
1000.704	804.06
1001	808.81
1001.295	794.8
1001.59	779.65
1001.885	759.77
1002.18	780.11
1002.475	764.51
1002.77	771.07
1003.065	768.36
1003.359	769.26
1003.654	753.44
1003.949	731.75
1004.243	750.5
1004.538	744.63
1004.832	769.26
1005.127	747.57
1005.421	743.05
1005.715	744.4
1006.009	740.11
1006.304	740.56
1006.598	738.07
1006.892	729.94
1007.186	710.96
1007.48	739.2
1007.773	720.67
1008.067	712.99
1008.361	720.9
1008.655	720
1008.948	716.38
1009.242	732.88
1009.535	707.57
1009.829	702.37
1010.122	709.37
1010.415	691.3
1010.708	722.71
1011.001	691.97
1011.295	684.52
1011.588	688.36
1011.881	663.5
1012.173	669.15
1012.466	697.85
1012.759	686.55
1013.052	665.99
1013.344	675.7
1013.637	654.46
1013.93	665.76
1014.222	663.95
1014.514	651.3
1014.807	664.4
1015.099	656.72
1015.391	652.65
1015.683	652.2
1015.976	659.43
1016.268	629.38
1016.56	629.83
1016.851	643.39
1017.143	646.55
1017.435	633.22
1017.727	632.09
1018.018	632.09
1018.31	645.65
1018.602	611.75
1018.893	613.56
1019.185	615.37
1019.476	630.73
1019.767	621.69
1020.058	626.21
1020.35	588.93
1020.641	619.88
1020.932	611.3
1021.223	603.16
1021.514	589.6
1021.804	581.47
1022.095	591.86
1022.386	609.49
1022.677	581.24
1022.967	572.2
1023.258	601.58
1023.548	586.44
1023.839	574.01
1024.129	583.73
1024.419	579.66
1024.709	582.6
1025	566.1
1025.29	567.91
1025.58	575.14
1025.87	554.8
1026.16	565.65
1026.449	536.72
1026.739	560
1027.029	542.15
1027.319	543.5
1027.608	544.18
1027.898	547.57
1028.187	565.65
1028.477	520.9
1028.766	550.73
1029.055	538.76
1029.344	536.95
1029.634	548.25
1029.923	538.76
1030.212	530.4
1030.501	509.38
1030.79	505.99
1031.078	519.55
1031.367	524.52
1031.656	517.29
1031.945	523.84
1032.233	520.9
1032.522	519.55
1032.81	530.85
1033.099	512.99
1033.387	497.85
1033.675	505.09
1033.963	501.92
1034.251	515.48
1034.54	500.11
1034.828	511.19
1035.116	523.62
1035.403	505.31
1035.691	502.15
1035.979	504.41
1036.267	508.7
1036.554	480
1036.842	500.11
1037.129	490.85
1037.417	482.04
1037.704	491.3
1037.992	481.13
1038.279	474.13
1038.566	478.87
1038.853	478.87
1039.14	478.87
