Data from mousepad_grey_FLMS001491_00003.txt Node
Date: Wed Feb 08 14:28:53 GMT 2017
User: dcchb
Spectrometer: FLMS00149
Trigger mode: 0
Integration Time (sec): 2.000000E-2
Scans to average: 10
Electric dark correction enabled: true
Nonlinearity correction enabled: false
Boxcar width: 0
XAxis mode: Wavelengths
Number of Pixels in Spectrum: 2048
>>>>>Begin Spectral Data<<<<<
341.393	2.8
341.776	2.8
342.16	2.8
342.543	-78.56
342.927	-95.73
343.31	-66.81
343.693	-69.07
344.077	-69.74
344.46	-60.7
344.843	-45.79
345.226	-42.63
345.61	0.31
345.993	-14.38
346.376	-9.86
346.759	17.94
347.142	24.72
347.525	45.73
347.908	47.99
348.291	64.04
348.674	89.35
349.057	88.9
349.44	115.11
349.823	132.74
350.206	165.28
350.588	173.87
350.971	175.22
351.354	200.31
351.737	229.46
352.119	241.66
352.502	256.8
352.884	238.72
353.267	256.8
353.65	269.23
354.032	262.9
354.414	299.74
354.797	278.5
355.179	312.62
355.562	306.52
355.944	305.84
356.326	311.49
356.709	304.94
357.091	316.01
357.473	318.72
357.855	325.27
358.238	316.69
358.62	308.55
359.002	318.04
359.384	331.6
359.766	302.9
360.148	292.73
360.53	332.51
360.912	320.3
361.294	311.49
361.676	323.24
362.057	318.27
362.439	302
362.821	320.75
363.203	308.78
363.584	299.51
363.966	298.61
364.348	308.33
364.729	299.29
365.111	286.18
365.493	290.7
365.874	297.7
366.256	277.37
366.637	299.74
367.019	282.56
367.4	274.65
367.781	286.86
368.163	282.11
368.544	304.48
368.925	280.53
369.306	311.04
369.688	292.96
370.069	291.15
370.45	282.11
370.831	280.98
371.212	288.89
371.593	297.25
371.974	289.79
372.355	303.13
372.736	302.68
373.117	289.34
373.498	312.39
373.879	295.44
374.26	285.73
374.641	288.44
375.021	280.98
375.402	288.44
375.783	312.62
376.163	292.05
376.544	308.55
376.925	302.22
377.305	318.49
377.686	286.86
378.066	301.55
378.447	325.5
378.827	318.49
379.208	287.08
379.588	284.15
379.968	305.61
380.349	312.39
380.729	306.97
381.109	309
381.489	323.47
381.87	335.9
382.25	314.88
382.63	302.22
383.01	316.23
383.39	298.16
383.77	313.52
384.15	309.68
384.53	332.28
384.91	314.2
385.29	326.18
385.67	332.28
386.049	326.63
386.429	328.21
386.809	327.31
387.189	323.92
387.568	337.48
387.948	325.95
388.328	361.21
388.707	334.31
389.087	317.82
389.466	329.57
389.846	338.61
390.225	362.79
390.605	351.49
390.984	320.3
391.363	331.83
391.743	332.96
392.122	336.12
392.501	334.54
392.881	361.66
393.26	348.55
393.639	342.67
394.018	346.52
394.397	339.06
394.776	369.79
395.155	332.05
395.534	354.2
395.913	329.57
396.292	343.35
396.671	352.17
397.05	362.79
397.429	349.68
397.808	357.36
398.186	359.85
398.565	368.44
398.944	368.44
399.323	391.94
399.701	367.98
400.08	368.66
400.458	369.57
400.837	371.37
401.215	391.49
401.594	386.52
401.972	383.58
402.351	372.05
402.729	363.69
403.107	394.42
403.486	386.74
403.864	377.48
404.242	399.85
404.62	379.96
404.999	400.53
405.377	399.62
405.755	382.67
406.133	417.7
406.511	407.31
406.889	422.22
407.267	410.47
407.645	407.53
408.023	407.08
408.401	403.24
408.779	401.88
409.156	434.42
409.534	405.05
409.912	410.02
410.29	423.8
410.667	417.93
411.045	430.81
411.422	417.02
411.8	435.78
412.178	429
412.555	451.82
412.933	471.71
413.31	453.18
413.687	442.56
414.065	434.2
414.442	470.81
414.819	449.56
415.197	459.73
415.574	461.77
415.951	462.9
416.328	466.97
416.705	462.67
417.082	459.73
417.46	481.43
417.837	478.94
418.214	495.66
418.591	496.34
418.967	495.44
419.344	489.79
419.721	478.04
420.098	499.51
420.475	483.46
420.852	502.9
421.228	507.64
421.605	508.55
421.982	501.31
422.358	506.51
422.735	513.74
423.111	515.33
423.488	513.97
423.864	536.79
424.241	517.13
424.617	527.75
424.994	530.92
425.37	545.38
425.746	537.7
426.123	553.06
426.499	531.6
426.875	548.54
427.251	544.7
427.627	563.46
428.003	574.53
428.379	569.79
428.756	596.45
429.132	569.79
429.507	566.17
429.883	588.54
430.259	580.86
430.635	581.31
431.011	600.29
431.387	601.42
431.763	603.91
432.138	591.48
432.514	629.9
432.89	619.28
433.265	618.6
433.641	618.83
434.016	618.15
434.392	627.64
434.767	659.5
435.143	648.88
435.518	640.97
435.894	652.27
436.269	652.72
436.644	681.65
437.02	672.84
437.395	683.91
437.77	669.22
438.145	695.21
438.52	686.62
438.895	706.05
439.271	695.89
439.646	714.64
440.021	707.18
440.395	719.61
440.77	687.75
441.145	724.36
441.52	731.14
441.895	737.24
442.27	746.73
442.645	714.87
443.019	738.37
443.394	731.14
443.769	730.46
444.143	744.7
444.518	781.53
444.892	772.27
445.267	765.71
445.641	759.61
446.016	749.44
446.39	767.52
446.764	772.27
447.139	779.73
447.513	800.52
447.887	779.5
448.262	809.55
448.636	791.93
449.01	796
449.384	802.1
449.758	796.45
450.132	829.89
450.506	800.06
450.88	815.66
451.254	814.98
451.628	847.07
452.002	857.01
452.376	866.28
452.75	860.18
453.123	848.42
453.497	864.69
453.871	855.2
454.244	900.85
454.618	908.76
454.992	911.47
455.365	919.16
455.739	905.6
456.112	935.88
456.486	933.62
456.859	939.04
457.232	936.11
457.606	934.3
457.979	930.91
458.352	972.49
458.725	994.41
459.099	975.43
459.472	996.44
459.845	1005.93
460.218	1019.72
460.591	1021.07
460.964	1033.05
461.337	1042.09
461.71	1075.31
462.083	1084.58
462.456	1057.91
462.829	1092.94
463.201	1081.19
463.574	1096.55
463.947	1109.89
464.32	1123.45
464.692	1104.46
465.065	1144.24
465.438	1145.82
465.81	1165.25
466.183	1189.88
466.555	1202.76
466.928	1198.92
467.3	1196.44
467.672	1214.29
468.045	1226.72
468.417	1250.9
468.789	1233.95
469.161	1261.29
469.534	1288.19
469.906	1311.46
470.278	1318.24
470.65	1311.46
471.022	1355.76
471.394	1373.16
471.766	1399.37
472.138	1393.95
472.51	1409.77
472.882	1430.1
473.253	1467.39
473.625	1414.28
473.997	1473.94
474.369	1481.4
474.74	1511.68
475.112	1535.41
475.484	1545.35
475.855	1562.53
476.227	1558.01
476.598	1594.62
476.97	1608.18
477.341	1651.11
477.713	1696.76
478.084	1702.64
478.455	1735.86
478.827	1740.6
479.198	1800.94
479.569	1787.16
479.94	1811.11
480.311	1818.79
480.682	1874.16
481.053	1910.77
481.424	1909.64
481.795	1930.2
482.166	1946.93
482.537	1983.99
482.908	2037.55
483.279	2051.33
483.65	2073.25
484.021	2113.48
484.391	2123.19
484.762	2168.39
485.133	2126.36
485.503	2196.41
485.874	2244.32
486.244	2268.73
486.615	2287.48
486.985	2300.36
487.356	2360.7
487.726	2339.46
488.097	2390.76
488.467	2433.47
488.837	2467.36
489.207	2474.14
489.578	2537.19
489.948	2518.21
490.318	2559.34
490.688	2567.7
491.058	2604.31
491.428	2634.82
491.798	2664.87
492.168	2713.91
492.538	2692.67
492.908	2732.67
493.278	2772.89
493.648	2793.01
494.017	2832.78
494.387	2827.36
494.757	2892.66
495.126	2892.89
495.496	2931.99
495.866	2939.44
496.235	2995.49
496.605	2949.39
496.974	3013.56
497.344	3036.39
497.713	3019.21
498.082	3089.72
498.452	3090.17
498.821	3104.64
499.19	3115.48
499.559	3150.06
499.928	3135.6
500.298	3186.44
500.667	3197.06
501.036	3167.69
501.405	3266.89
501.774	3262.6
502.143	3234.8
502.512	3305.76
502.88	3297.63
503.249	3328.13
503.618	3316.16
503.987	3400.22
504.356	3401.35
504.724	3407
505.093	3423.05
505.462	3392.54
505.83	3478.86
506.199	3450.39
506.567	3553.21
506.936	3522.93
507.304	3547.34
507.672	3590.05
508.041	3558.41
508.409	3648.12
508.777	3631.85
509.145	3687.45
509.514	3680.67
509.882	3701.91
510.25	3731.51
510.618	3753.43
510.986	3782.58
511.354	3797.95
511.722	3858.29
512.09	3851.51
512.458	3871.85
512.826	3895.35
513.193	3905.97
513.561	3887.44
513.929	3955.01
514.297	3990.49
514.664	4053.76
515.032	4018.06
515.4	4072.75
515.767	4065.51
516.135	4129.69
516.502	4094.67
516.869	4120.2
517.237	4152.29
517.604	4165.62
517.972	4228.45
518.339	4220.54
518.706	4211.73
519.073	4280.65
519.44	4312.97
519.808	4336.47
520.175	4357.48
520.542	4372.85
520.909	4408.78
521.276	4470.93
521.643	4429.35
522.009	4479.29
522.376	4505.5
522.743	4552.51
523.11	4591.6
523.477	4624.82
523.843	4685.84
524.21	4736.01
524.577	4759.28
524.943	4747.3
525.31	4770.81
525.676	4833.18
526.043	4845.61
526.409	4879.73
526.776	4885.61
527.142	4886.28
527.508	4941.42
527.874	5015.77
528.241	4984.59
528.607	5031.36
528.973	5097.13
529.339	5103
529.705	5122.89
530.071	5163.11
530.437	5165.15
530.803	5240.17
531.169	5250.12
531.535	5235.88
531.901	5281.08
532.267	5283.56
532.632	5342.32
532.998	5380.96
533.364	5404.46
533.73	5440.39
534.095	5459.38
534.461	5465.03
534.826	5528.75
535.192	5559.03
535.557	5588.64
535.923	5545.93
536.288	5527.62
536.653	5625.93
537.019	5604.68
537.384	5628.19
537.749	5651.46
538.114	5683.78
538.479	5727.84
538.845	5737.34
539.21	5747.73
539.575	5760.39
539.94	5785.24
540.305	5859.59
540.67	5845.81
541.034	5884.9
541.399	5885.13
541.764	5921.51
542.129	5977.33
542.494	5939.59
542.858	6007.61
543.223	5956.99
543.587	6047.84
543.952	6059.36
544.316	6157.21
544.681	6090.77
545.045	6158.34
545.41	6179.81
545.774	6230.88
546.138	6214.84
546.503	6248.06
546.867	6235.18
547.231	6333.93
547.595	6317.88
547.959	6338.68
548.324	6324.89
548.688	6446.24
549.052	6387.26
549.416	6428.39
549.779	6440.59
550.143	6455.96
550.507	6468.62
550.871	6512.91
551.235	6539.35
551.599	6601.04
551.962	6583.41
552.326	6654.6
552.689	6649.18
553.053	6618.44
553.417	6702.51
553.78	6763.97
554.143	6733.24
554.507	6766.69
554.87	6761.94
555.234	6765.56
555.597	6847.81
555.96	6839.9
556.323	6839.9
556.686	6868.83
557.05	6980.24
557.413	6967.81
557.776	6996.96
558.139	6995.38
558.502	7015.72
558.865	7013.01
559.228	7170.97
559.59	7146.34
559.953	7204.19
560.316	7235.37
560.679	7213
561.041	7262.72
561.404	7289.16
561.767	7358.76
562.129	7322.15
562.492	7414.35
562.854	7439.89
563.217	7428.59
563.579	7473.79
563.941	7524.41
564.304	7507.68
564.666	7598.53
565.028	7565.54
565.39	7663.39
565.753	7638.3
566.115	7722.37
566.477	7732.54
566.839	7757.17
567.201	7735.02
567.563	7878.52
567.925	7866.77
568.287	7824.06
568.648	7862.93
569.01	7933.44
569.372	8013.21
569.734	7945.19
570.095	7940.21
570.457	8045.3
570.819	8066.77
571.18	8097.95
571.542	8161.23
571.903	8159.19
572.265	8125.75
572.626	8198.06
572.987	8167.78
573.349	8241.22
573.71	8278.06
574.071	8302.01
574.432	8365.29
574.794	8353.54
575.155	8345.4
575.516	8365.29
575.877	8405.29
576.238	8461.11
576.599	8442.35
576.96	8383.59
577.32	8521.89
577.681	8482.8
578.042	8559.18
578.403	8559.63
578.763	8521.22
579.124	8548.79
579.485	8501.56
579.845	8559.41
580.206	8538.17
580.566	8575.23
580.927	8570.03
581.287	8585.62
581.648	8649.57
582.008	8655.45
582.368	8586.07
582.728	8627.88
583.089	8666.75
583.449	8702.45
583.809	8629.91
584.169	8686.64
584.529	8747.88
584.889	8714.66
585.249	8646.64
585.609	8655.22
585.969	8704.04
586.329	8737.48
586.688	8785.62
587.048	8701.1
587.408	8704.04
587.768	8724.38
588.127	8704.94
588.487	8705.17
588.846	8751.04
589.206	8744.49
589.565	8746.52
589.925	8734.09
590.284	8753.98
590.643	8779.74
591.003	8802.34
591.362	8854.54
591.721	8829.68
592.08	8776.58
592.44	8789.91
592.799	8822.9
593.158	8766.41
593.517	8870.59
593.876	8821.1
594.235	8758.5
594.593	8845.05
594.952	8801.66
595.311	8839.4
595.67	8812.51
596.029	8862.22
596.387	8908.78
596.746	8909.46
597.104	8901.55
597.463	8886.63
597.822	8910.58
598.18	8836.24
598.538	8798.5
598.897	8876.01
599.255	8765.5
599.613	8940.87
599.972	8853.86
600.33	8848.89
600.688	8800.08
601.046	8898.83
601.404	8984.26
601.762	8955.56
602.12	8963.92
602.478	8906.07
602.836	8969.57
603.194	8888.66
603.552	8932.96
603.91	8905.84
604.268	8940.41
604.625	8904.71
604.983	8979.51
605.341	8988.55
605.698	9106.74
606.056	9034.42
606.413	8999.4
606.771	9013.63
607.128	9039.4
607.485	8955.56
607.843	9049.11
608.2	9090.92
608.557	9048.89
608.914	9049.79
609.272	9049.34
609.629	9085.27
609.986	9110.13
610.343	9092.5
610.7	9204.59
611.057	9076.46
611.414	9135.21
611.771	9103.35
612.127	9171.37
612.484	9157.81
612.841	9210.46
613.198	9174.08
613.554	9133.18
613.911	9229.67
614.267	9207.75
614.624	9213.63
614.98	9174.76
615.337	9303.12
615.693	9200.29
616.05	9197.81
616.406	9353.51
616.762	9274.87
617.118	9280.52
617.475	9245.49
617.831	9343.57
618.187	9316.9
618.543	9260.63
618.899	9374.3
619.255	9298.37
619.611	9329.78
619.967	9384.47
620.323	9407.97
620.678	9369.1
621.034	9314.42
621.39	9350.35
621.746	9351.7
622.101	9434.86
622.457	9399.39
622.812	9400.06
623.168	9421.53
623.523	9405.49
623.879	9381.31
624.234	9392.83
624.589	9426.5
624.945	9390.35
625.3	9430.57
625.655	9443.68
626.01	9385.15
626.365	9424.02
626.72	9432.38
627.075	9384.47
627.43	9419.27
627.785	9360.74
628.14	9443.45
628.495	9432.83
628.85	9419.27
629.205	9409.1
629.559	9449.78
629.914	9400.06
630.269	9428.99
630.623	9374.53
630.978	9359.39
631.332	9362.55
631.687	9369.78
632.041	9440.29
632.396	9413.17
632.75	9380.4
633.104	9347.18
633.459	9302.67
633.813	9393.28
634.167	9316.9
634.521	9315.77
634.875	9338.14
635.229	9312.38
635.583	9317.35
635.937	9301.99
636.291	9275.1
636.645	9259.95
636.999	9201.88
637.352	9341.31
637.706	9170.47
638.06	9284.13
638.413	9153.29
638.767	9253.85
639.121	9232.16
639.474	9117.13
639.828	9266.06
640.181	9192.84
640.534	9159.17
640.888	9194.65
641.241	9126.62
641.594	9193.06
641.947	9172.5
642.301	9261.99
642.654	9228.99
643.007	9153.06
643.36	9142.9
643.713	9145.83
644.066	9183.57
644.419	9092.95
644.771	9186.28
645.124	9060.64
645.477	9000.75
645.83	8957.36
646.182	8956.01
646.535	8946.74
646.888	8909
647.24	8874.65
647.593	8921.21
647.945	8943.8
648.298	8891.83
648.65	8845.28
649.002	8869
649.355	8870.59
649.707	8904.94
650.059	8907.42
650.411	8986.97
650.763	8990.81
651.115	9153.74
651.467	9012.05
651.819	9060.19
652.171	9074.65
652.523	9091.82
652.875	9089.34
653.227	9012.5
653.578	9125.27
653.93	9054.31
654.282	9035.78
654.633	9032.84
654.985	9083.46
655.337	9042.11
655.688	9017.93
656.039	9100.18
656.391	9083.01
656.742	9035.78
657.094	9003.46
657.445	9059.96
657.796	9064.93
658.147	9037.14
658.498	9059.51
658.849	9054.99
659.2	9041.65
659.551	9038.49
659.902	9018.38
660.253	9052.5
660.604	9079.62
660.955	9027.19
661.306	9063.58
661.656	9079.17
662.007	9104.48
662.358	8986.06
662.708	9074.2
663.059	9094.31
663.409	8968.66
663.76	9059.96
664.11	9074.65
664.461	9034.88
664.811	9061.32
665.161	9058.6
665.511	9043.46
665.862	9101.31
666.212	9086.17
666.562	9088.89
666.912	9050.47
667.262	9007.31
667.612	9022.9
667.962	9006.18
668.312	9020.64
668.662	9110.35
669.011	9067.87
669.361	9092.5
669.711	9006.63
670.06	8994.65
670.41	9039.62
670.76	9052.5
671.109	9053.86
671.459	9035.33
671.808	8956.23
672.157	9054.31
672.507	8986.29
672.856	9014.99
673.205	8967.76
673.554	8998.27
673.904	8949.23
674.253	8927.76
674.602	8938.61
674.951	8869.46
675.3	8778.39
675.649	8974.99
675.998	8943.58
676.346	8950.36
676.695	9008.66
677.044	8855.67
677.393	8894.31
677.741	8869.23
678.09	8887.76
678.438	8876.69
678.787	8912.17
679.135	8846.41
679.484	8833.98
679.832	8850.7
680.181	8848.21
680.529	8852.51
680.877	8777.26
681.225	8803.02
681.573	8859.51
681.922	8743.36
682.27	8750.82
682.618	8729.35
682.966	8735.22
683.314	8757.82
683.661	8631.04
684.009	8699.07
684.357	8633.53
684.705	8637.15
685.053	8617.49
685.4	8676.47
685.748	8605.73
686.095	8568.22
686.443	8540.65
686.79	8474.89
687.138	8586.53
687.485	8580.88
687.832	8512.63
688.18	8494.1
688.527	8473.99
688.874	8456.59
689.221	8483.48
689.568	8436.7
689.915	8383.14
690.262	8445.29
690.609	8334.1
690.956	8348.34
691.303	8340.2
691.65	8283.93
691.997	8320.09
692.344	8254.33
692.69	8211.85
693.037	8212.98
693.383	8209.13
693.73	8156.03
694.077	8105.63
694.423	8080.32
694.769	8120.1
695.116	8050.72
695.462	8092.08
695.808	8097.05
696.155	8092.53
696.501	8019.99
696.847	8013.89
697.193	7909.48
697.539	7950.16
697.885	7912.19
698.231	7844.17
698.577	7866.77
698.923	7818.64
699.269	7779.99
699.614	7820.9
699.96	7743.84
700.306	7764.4
700.651	7683.72
700.997	7673.78
701.342	7686.66
701.688	7760.33
702.033	7661.13
702.379	7604.4
702.724	7646.44
703.069	7601.47
703.415	7496.61
703.76	7499.55
704.105	7529.83
704.45	7547.23
704.795	7523.73
705.14	7426.78
705.485	7437.4
705.83	7343.17
706.175	7382.49
706.52	7427.01
706.865	7342.94
707.209	7334.13
707.554	7318.76
707.899	7313.34
708.243	7272.21
708.588	7255.26
708.932	7242.15
709.277	7236.05
709.621	7156.73
709.966	7182.49
710.31	7193.79
710.654	7151.76
710.998	7129.39
711.342	7157.64
711.687	7051.65
712.031	7025.66
712.375	7050.29
712.719	7061.82
713.063	7089.84
713.407	7058.43
713.75	7066.34
714.094	7021.14
714.438	6996.96
714.782	7021.6
715.125	7021.82
715.469	6993.35
715.812	6966.46
716.156	6987.02
716.499	6922.39
716.843	6997.64
717.186	6920.35
717.53	6862.05
717.873	6941.82
718.216	6942.05
718.559	6879.9
718.902	6844.42
719.246	6869.51
719.589	6931.88
719.932	6876.74
720.275	6843.75
720.617	6836.74
720.96	6862.05
721.303	6860.24
721.646	6839.45
721.989	6813.24
722.331	6820.47
722.674	6793.58
723.016	6794.71
723.359	6806.01
723.701	6765.78
724.044	6790.19
724.386	6764.88
724.729	6793.13
725.071	6767.82
725.413	6755.61
725.755	6733.69
726.097	6726.69
726.439	6723.52
726.782	6771.88
727.124	6788.38
727.465	6731.21
727.807	6798.32
728.149	6696.41
728.491	6696.41
728.833	6678.78
729.175	6718.78
729.516	6709.29
729.858	6729.17
730.199	6700.93
730.541	6708.38
730.882	6647.37
731.224	6695.5
731.565	6701.15
731.906	6719.68
732.248	6710.42
732.589	6686.91
732.93	6680.14
733.271	6699.57
733.612	6641.04
733.953	6650.53
734.294	6640.81
734.635	6683.3
734.976	6679.91
735.317	6642.17
735.658	6679.23
735.999	6642.85
736.339	6623.19
736.68	6695.5
737.021	6645.33
737.361	6621.38
737.702	6657.99
738.042	6643.3
738.383	6684.88
738.723	6640.14
739.063	6640.14
739.404	6612.57
739.744	6636.52
740.084	6618.22
740.424	6594.71
740.764	6624.32
741.104	6646.24
741.444	6581.15
741.784	6604.43
742.124	6667.03
742.464	6697.54
742.804	6576.86
743.143	6630.19
743.483	6569.18
743.823	6604.43
744.162	6574.15
744.502	6615.05
744.841	6557.43
745.181	6601.27
745.52	6609.63
745.86	6579.35
746.199	6627.26
746.538	6595.39
746.877	6630.19
747.216	6623.87
747.556	6615.96
747.895	6575.28
748.234	6597.65
748.573	6576.41
748.911	6601.27
749.25	6579.12
749.589	6546.58
749.928	6616.41
750.267	6561.49
750.605	6595.62
750.944	6547.48
751.283	6554.26
751.621	6579.57
751.96	6493.47
752.298	6582.28
752.636	6564.21
752.975	6515.39
753.313	6477.2
753.651	6538.22
753.989	6486.24
754.327	6505.22
754.666	6471.78
755.004	6494.83
755.342	6450.54
755.679	6452.12
756.017	6424.77
756.355	6480.37
756.693	6443.53
757.031	6411.89
757.368	6423.87
757.706	6437.66
758.044	6375.51
758.381	6379.58
758.719	6330.99
759.056	6321.27
759.394	6322.63
759.731	6298
760.068	6341.39
760.405	6255.29
760.743	6280.15
761.08	6278.79
761.417	6253.93
761.754	6260.49
762.091	6251.45
762.428	6200.83
762.765	6195.4
763.102	6214.61
763.438	6181.84
763.775	6139.36
764.112	6131.67
764.449	6153.6
764.785	6133.48
765.122	6042.64
765.458	6061.85
765.795	6055.74
766.131	6083.31
766.467	6037.21
766.804	6039.47
767.14	5983.88
767.476	6013.49
767.812	5972.58
768.148	5957.89
768.485	5945.24
768.821	5877.67
769.157	5897.33
769.492	5835.41
769.828	5860.27
770.164	5859.14
770.5	5863.43
770.836	5821.17
771.171	5804
771.507	5798.35
771.842	5726.94
772.178	5718.13
772.513	5747.96
772.849	5765.13
773.184	5674.74
773.519	5668.41
773.855	5651.01
774.19	5574.85
774.525	5607.39
774.86	5585.47
775.195	5644.46
775.53	5542.09
775.865	5528.75
776.2	5512.93
776.535	5449.66
776.87	5495.31
777.205	5455.31
777.539	5386.61
777.874	5424.35
778.209	5391.58
778.543	5430.22
778.878	5358.36
779.212	5387.97
779.547	5342.09
779.881	5369.89
780.215	5288.53
780.55	5315.43
780.884	5263
781.218	5237.46
781.552	5240.85
781.886	5263.9
782.22	5177.12
782.554	5227.29
782.888	5132.15
783.222	5131.7
783.556	5080.86
783.889	5088.31
784.223	5098.03
784.557	5052.16
784.89	5105.94
785.224	5037.01
785.557	5002.67
785.891	5006.51
786.224	5005.83
786.558	5017.58
786.891	4955.21
787.224	4932.38
787.557	4932.16
787.891	4902.33
788.224	4966.28
788.557	4902.78
788.89	4890.13
789.223	4910.92
789.556	4840.64
789.888	4838.15
790.221	4844.25
790.554	4777.36
790.887	4783.46
791.219	4823.23
791.552	4745.27
791.884	4744.37
792.217	4727.87
792.549	4703.46
792.882	4718.6
793.214	4672.28
793.546	4640.19
793.879	4618.95
794.211	4624.14
794.543	4648.55
794.875	4616.69
795.207	4612.17
795.539	4649.68
795.871	4604.94
796.203	4562
796.535	4587.53
796.867	4544.15
797.198	4550.25
797.53	4534.65
797.862	4491.04
798.193	4533.52
798.525	4482.68
798.856	4464.37
799.188	4430.7
799.519	4411.04
799.85	4404.94
800.182	4363.13
800.513	4369.46
800.844	4338.73
801.175	4369.69
801.506	4388.67
801.837	4355.68
802.168	4370.37
802.499	4311.84
802.83	4322.23
803.161	4330.59
803.491	4311.61
803.822	4329.46
804.153	4283.36
804.483	4215.79
804.814	4251.95
805.145	4244.04
805.475	4248.79
805.805	4224.38
806.136	4199.07
806.466	4212.4
806.796	4206.08
807.126	4168.11
807.457	4114.33
807.787	4152.52
808.117	4122.46
808.447	4140.54
808.777	4120.65
809.107	4116.59
809.436	4096.25
809.766	4135.34
810.096	4100.99
810.426	4072.52
810.755	4062.35
811.085	4039.98
811.414	4060.54
811.744	4016.48
812.073	4040.66
812.403	3979.42
812.732	4014.67
813.061	3962.69
813.39	3971.05
813.719	3976.03
814.049	3984.61
814.378	3952.07
814.707	3945.52
815.036	3949.81
815.365	3911.62
815.693	3907.55
816.022	3958.85
816.351	3930.6
816.68	3865.97
817.008	3925.86
817.337	3885.63
817.665	3865.75
817.994	3842.7
818.322	3876.37
818.651	3817.39
818.979	3860.32
819.307	3863.94
819.636	3822.81
819.964	3798.18
820.292	3828.68
820.62	3818.29
820.948	3794.79
821.276	3758.63
821.604	3773.32
821.932	3798.4
822.259	3818.06
822.587	3814.67
822.915	3784.17
823.243	3814
823.57	3797.27
823.898	3784.62
824.225	3731.29
824.553	3787.56
824.88	3753.21
825.207	3804.5
825.535	3766.31
825.862	3760.66
826.189	3763.83
826.516	3792.98
826.843	3780.1
827.17	3837.27
827.497	3781.45
827.824	3806.76
828.151	3792.08
828.478	3800.44
828.805	3768.12
829.131	3761.57
829.458	3797.5
829.785	3755.47
830.111	3754.56
830.438	3802.7
830.764	3737.39
831.09	3776.93
831.417	3785.07
831.743	3784.39
832.069	3791.17
832.395	3781.91
832.722	3797.27
833.048	3748.69
833.374	3763.83
833.7	3748.91
834.026	3751.17
834.351	3756.82
834.677	3757.73
835.003	3736.71
835.329	3766.09
835.654	3762.02
835.98	3688.58
836.306	3762.7
836.631	3734.68
836.956	3731.29
837.282	3728.8
837.607	3717.5
837.932	3708.69
838.258	3703.94
838.583	3722.25
838.908	3697.39
839.233	3688.58
839.558	3662.59
839.883	3632.53
840.208	3666.66
840.533	3696.03
840.858	3668.46
841.182	3662.36
841.507	3655.58
841.832	3648.35
842.156	3616.49
842.481	3621.68
842.805	3623.49
843.13	3624.85
843.454	3606.32
843.778	3574.23
844.103	3584.17
844.427	3554.57
844.751	3550.5
845.075	3606.54
845.399	3574
845.723	3506.89
846.047	3584.4
846.371	3521.12
846.695	3542.36
847.019	3467.56
847.343	3466.66
847.666	3468.69
847.99	3477.06
848.313	3465.3
848.637	3405.19
848.96	3433.67
849.284	3410.16
849.607	3385.98
849.931	3350.73
850.254	3353.22
850.577	3348.47
850.9	3315.03
851.223	3321.81
851.546	3301.69
851.869	3344.63
852.192	3323.39
852.515	3265.31
852.838	3273.22
853.161	3241.36
853.483	3249.49
853.806	3226.67
854.129	3258.76
854.451	3223.95
854.774	3241.81
855.096	3225.54
855.419	3231.41
855.741	3198.19
856.063	3192.09
856.385	3166.78
856.708	3187.35
857.03	3163.84
857.352	3157.74
857.674	3176.27
857.996	3146.44
858.318	3133.56
858.64	3112.32
858.961	3115.94
859.283	3078.87
859.605	3081.13
859.926	3104.86
860.248	3064.41
860.57	3047.91
860.891	3089.5
861.212	3080.23
861.534	3047.69
861.855	3027.8
862.176	3008.82
862.498	3041.36
862.819	3047.69
863.14	3064.18
863.461	3074.58
863.782	3014.92
864.103	3024.19
864.424	2999.55
864.745	3007.92
865.065	2941.02
865.386	2999.33
865.707	2975.37
866.027	2976.28
866.348	2980.12
866.668	2966.56
866.989	2967.24
867.309	2943.51
867.63	2983.06
867.95	2945.32
868.27	2928.6
868.59	2936.96
868.91	2923.4
869.23	2933.57
869.55	2922.72
869.87	2965.2
870.19	2955.04
870.51	2913
870.83	2957.3
871.15	2900.35
871.469	2887.01
871.789	2916.17
872.109	2923.17
872.428	2881.82
872.748	2908.71
873.067	2879.78
873.386	2882.27
873.706	2914.81
874.025	2858.09
874.344	2857.18
874.663	2885.43
874.982	2880.01
875.301	2884.75
875.62	2840.91
875.939	2875.04
876.258	2851.31
876.577	2834.81
876.896	2872.33
877.214	2840.24
877.533	2846.11
877.852	2833.46
878.17	2839.56
878.489	2795.49
878.807	2811.99
879.125	2820.35
879.444	2832.1
879.762	2784.19
880.08	2835.04
880.398	2775.38
880.716	2766.57
881.034	2797.07
881.352	2823.06
881.67	2782.61
881.988	2772.89
882.306	2769.96
882.624	2734.48
882.941	2761.82
883.259	2760.46
883.577	2739
883.894	2734.25
884.212	2764.76
884.529	2741.03
884.846	2747.81
885.164	2723.63
885.481	2665.1
885.798	2739.9
886.115	2698.32
886.432	2692.22
886.75	2694.25
887.067	2689.73
887.383	2680.69
887.7	2674.14
888.017	2699.9
888.334	2682.05
888.651	2682.95
888.967	2665.33
889.284	2658.55
889.6	2652.67
889.917	2622.84
890.233	2678.66
890.55	2629.39
890.866	2630.75
891.182	2610.19
891.498	2564.99
891.815	2589.62
892.131	2593.24
892.447	2617.64
892.763	2617.42
893.079	2584.65
893.395	2581.49
893.71	2538.55
894.026	2487.93
894.342	2541.03
894.657	2535.61
894.973	2519.34
895.289	2554.37
895.604	2538.78
895.92	2541.94
896.235	2500.13
896.55	2480.7
896.865	2503.3
897.181	2482.28
897.496	2468.72
897.811	2459.68
898.126	2471.88
898.441	2488.15
898.756	2430.08
899.071	2404.54
899.386	2452.9
899.7	2429.4
900.015	2425.56
900.33	2389.4
900.644	2391.89
900.959	2362.73
901.273	2374.26
901.588	2401.38
901.902	2377.88
902.216	2357.08
902.531	2394.82
902.845	2339.68
903.159	2330.19
903.473	2344.88
903.787	2332.68
904.101	2315.5
904.415	2320.93
904.729	2332.68
905.042	2295.39
905.356	2312.57
905.67	2265.79
905.984	2280.93
906.297	2303.98
906.611	2260.36
906.924	2291.1
907.237	2268.05
907.551	2237.54
907.864	2228.95
908.177	2185.34
908.491	2241.16
908.804	2200.7
909.117	2233.02
909.43	2206.58
909.743	2192.12
910.056	2180.82
910.368	2193.47
910.681	2181.27
910.994	2153.25
911.307	2162.06
911.619	2120.03
911.932	2128.39
912.244	2125.23
912.557	2144.89
912.869	2147.6
913.181	2128.62
913.494	2090.65
913.806	2080.93
914.118	2050.2
914.43	2076.41
914.742	2069.18
915.054	2082.52
915.366	2055.4
915.678	2048.84
915.99	2071.89
916.302	2054.72
916.613	2013.37
916.925	2004.55
917.236	2016.98
917.548	2037.77
917.859	1993.03
918.171	1999.13
918.482	1995.06
918.794	1965.46
919.105	1964.33
919.416	1950.54
919.727	1971.11
920.038	1945.34
920.349	1944.21
920.66	1895.63
920.971	1956.19
921.282	1929.53
921.593	1906.7
921.903	1935.85
922.214	1898.34
922.525	1913.03
922.835	1898.79
923.146	1874.84
923.456	1888.85
923.767	1889.07
924.077	1872.13
924.387	1856.53
924.697	1826.93
925.008	1853.6
925.318	1846.36
925.628	1840.26
925.938	1831.68
926.248	1802.52
926.558	1793.94
926.867	1795.52
927.177	1790.55
927.487	1811.34
927.796	1768.85
928.106	1791.22
928.416	1753.26
928.725	1789.64
929.034	1765.24
929.344	1731.79
929.653	1737.21
929.962	1733.6
930.271	1740.6
930.581	1723.88
930.89	1744.9
931.199	1698.57
931.508	1722.53
931.817	1694.28
932.125	1693.15
932.434	1696.76
932.743	1692.7
933.051	1675.75
933.36	1694.96
933.669	1667.61
933.977	1643.88
934.286	1668.29
934.594	1661.28
934.902	1653.83
935.21	1630.32
935.519	1633.71
935.827	1632.13
936.135	1605.47
936.443	1629.19
936.751	1607.95
937.059	1612.25
937.367	1580.61
937.674	1601.17
937.982	1557.33
938.29	1591.23
938.597	1600.72
938.905	1591.23
939.213	1587.16
939.52	1564.34
939.827	1557.56
940.135	1560.95
940.442	1566.15
940.749	1561.17
941.056	1534.28
941.363	1536.09
941.67	1519.37
941.977	1492.7
942.284	1516.66
942.591	1518.01
942.898	1507.62
943.205	1508.52
943.511	1476.2
943.818	1477.33
944.125	1492.93
944.431	1453.83
944.738	1452.7
945.044	1442.31
945.35	1463.78
945.657	1444.79
945.963	1457
946.269	1440.05
946.575	1446.37
946.881	1421.74
947.187	1457
947.493	1428.97
947.799	1419.03
948.105	1434.17
948.41	1420.61
948.716	1410.9
949.022	1389.2
949.327	1393.27
949.633	1389.65
949.938	1397.34
950.244	1365.92
950.549	1368.41
950.854	1383.55
951.16	1376.77
951.465	1370.44
951.77	1334.51
952.075	1381.97
952.38	1351.91
952.685	1353.27
952.99	1286.38
953.294	1325.7
953.599	1338.58
953.904	1339.71
954.209	1320.73
954.513	1315.53
954.818	1286.83
955.122	1313.04
955.426	1302.42
955.731	1308.52
956.035	1307.17
956.339	1311.01
956.643	1313.72
956.948	1269.2
957.252	1273.05
957.556	1265.14
957.86	1249.54
958.163	1263.78
958.467	1284.57
958.771	1270.56
959.075	1264.01
959.378	1228.53
959.682	1261.97
959.985	1240.05
960.289	1248.41
960.592	1252.71
960.896	1226.04
961.199	1226.04
961.502	1240.96
961.805	1200.73
962.108	1206.61
962.411	1212.93
962.714	1176.33
963.017	1175.42
963.32	1226.27
963.623	1204.8
963.926	1182.2
964.228	1206.38
964.531	1190.11
964.833	1192.37
965.136	1177.23
965.438	1157.12
965.741	1159.83
966.043	1192.14
966.345	1156.89
966.648	1176.78
966.95	1129.32
967.252	1129.09
967.554	1155.53
967.856	1138.13
968.158	1115.76
968.46	1123.9
968.761	1085.93
969.063	1135.65
969.365	1116.67
969.666	1115.76
969.968	1087.51
970.269	1087.74
970.571	1085.03
970.872	1113.05
971.174	1101.07
971.475	1096.1
971.776	1109.66
972.077	1086.38
972.378	1063.79
972.679	1099.49
972.98	1060.4
973.281	1052.26
973.582	1068.76
973.883	1069.89
974.183	1066.95
974.484	1089.32
974.785	1052.26
975.085	1038.48
975.386	1067.18
975.686	1023.11
975.986	1049.32
976.287	1037.57
976.587	1042.32
976.887	1014.97
977.187	1028.98
977.487	1007.52
977.787	1014.3
978.087	1004.8
978.387	1038.25
978.687	1017.46
978.987	998.02
979.286	1015.65
979.586	1016.56
979.885	991.25
980.185	984.69
980.484	986.05
980.784	998.93
981.083	986.73
981.382	981.08
981.682	991.92
981.981	948.99
982.28	969.55
982.579	963
982.878	980.85
983.177	966.39
983.475	942.66
983.774	942.21
984.073	957.12
984.372	932.04
984.67	952.83
984.969	934.07
985.267	936.33
985.566	951.7
985.864	922.77
986.162	939.95
986.461	931.81
986.759	940.62
987.057	883.23
987.355	927.29
987.653	894.07
987.951	901.98
988.249	896.33
988.547	890.91
988.844	903.56
989.142	922.77
989.44	866.95
989.737	876.22
990.035	872.15
990.332	890.91
990.63	873.73
990.927	871.02
991.224	879.16
991.521	862.66
991.819	879.16
992.116	880.97
992.413	847.29
992.71	826.5
993.006	872.15
993.303	832.61
993.6	863.34
993.897	848.65
994.193	860.85
994.49	857.92
994.787	827.18
995.083	838.71
995.379	851.59
995.676	845.71
995.972	852.27
996.268	849.33
996.565	820.18
996.861	812.04
997.157	806.84
997.453	792.83
997.749	806.62
998.044	806.84
998.34	817.92
998.636	816.11
998.932	778.6
999.227	791.93
999.523	814.98
999.818	805.04
1000.114	789.22
1000.409	774.53
1000.704	796
1001	775.43
1001.295	785.6
1001.59	787.18
1001.885	771.36
1002.18	793.06
1002.475	766.84
1002.77	782.21
1003.065	778.82
1003.359	764.13
1003.654	768.2
1003.949	763.45
1004.243	746.05
1004.538	741.99
1004.832	746.73
1005.127	718.48
1005.421	730.91
1005.715	742.66
1006.009	740.86
1006.304	739.05
1006.598	728.88
1006.892	728.2
1007.186	699.5
1007.48	715.09
1007.773	704.25
1008.067	712.83
1008.361	734.75
1008.655	692.95
1008.948	691.82
1009.242	707.18
1009.535	686.62
1009.829	690.46
1010.122	674.19
1010.415	679.16
1010.708	695.43
1011.001	674.64
1011.295	693.17
1011.588	681.42
1011.881	701.99
1012.173	674.64
1012.466	689.33
1012.759	672.38
1013.052	680.29
1013.344	651.14
1013.637	672.16
1013.93	654.53
1014.222	656.11
1014.514	654.08
1014.807	643.68
1015.099	658.82
1015.391	662.67
1015.683	640.75
1015.976	638.94
1016.268	648.43
1016.56	628.99
1016.851	650.01
1017.143	652.5
1017.435	622.67
1017.727	615.89
1018.018	638.03
1018.31	615.66
1018.602	616.34
1018.893	603.91
1019.185	626.96
1019.476	605.72
1019.767	649.56
1020.058	617.02
1020.35	587.87
1020.641	585.61
1020.932	603.23
1021.223	590.58
1021.514	585.61
1021.804	587.41
1022.095	598.49
1022.386	592.84
1022.677	595.78
1022.967	595.1
1023.258	573.63
1023.548	588.77
1023.839	593.29
1024.129	585.83
1024.419	570.69
1024.709	583.57
1025	576.11
1025.29	570.92
1025.58	554.87
1025.87	579.05
1026.16	570.24
1026.449	557.13
1026.739	546.96
1027.029	556.45
1027.319	538.83
1027.608	561.2
1027.898	553.97
1028.187	540.86
1028.477	567.3
1028.766	566.17
1029.055	540.18
1029.344	554.19
1029.634	550.13
1029.923	550.58
1030.212	561.65
1030.501	545.38
1030.79	524.59
1031.078	519.85
1031.367	537.02
1031.656	521.65
1031.945	520.75
1032.233	525.27
1032.522	526.62
1032.81	516.91
1033.099	521.43
1033.387	530.24
1033.675	514.42
1033.963	504.93
1034.251	510.81
1034.54	516.23
1034.828	510.81
1035.116	513.29
1035.403	520.75
1035.691	518.72
1035.979	495.44
1036.267	497.02
1036.554	499.96
1036.842	509.45
1037.129	495.44
1037.417	471.48
1037.704	481.43
1037.992	487.76
1038.279	485.72
1038.566	506.06
1038.853	506.06
1039.14	506.06
