Data from mousepad_grey_FLMS001491_00056.txt Node
Date: Wed Feb 08 14:29:38 GMT 2017
User: dcchb
Spectrometer: FLMS00149
Trigger mode: 0
Integration Time (sec): 2.000000E-2
Scans to average: 10
Electric dark correction enabled: true
Nonlinearity correction enabled: false
Boxcar width: 0
XAxis mode: Wavelengths
Number of Pixels in Spectrum: 2048
>>>>>Begin Spectral Data<<<<<
341.393	-13.36
341.776	-13.36
342.16	-13.36
342.543	-64.66
342.927	-46.35
343.31	-58.11
343.693	-76.41
344.077	-83.19
344.46	-46.58
344.843	-52
345.226	-41.84
345.61	-31.44
345.993	-30.76
346.376	12.63
346.759	13.08
347.142	29.8
347.525	47.43
347.908	40.87
348.291	78.16
348.674	91.72
349.057	106.64
349.44	106.64
349.823	148.67
350.206	160.65
350.588	192.74
350.971	206.75
351.354	223.24
351.737	218.95
352.119	234.09
352.502	250.13
352.884	252.85
353.267	281.09
353.65	272.73
354.032	292.17
354.414	281.55
354.797	300.75
355.179	303.92
355.562	311.83
355.944	319.51
356.326	328.32
356.709	302.34
357.091	310.92
357.473	328.78
357.855	318.61
358.238	319.96
358.62	328.32
359.002	327.87
359.384	333.3
359.766	330.13
360.148	328.1
360.53	313.41
360.912	319.29
361.294	319.96
361.676	326.29
362.057	324.48
362.439	304.6
362.821	298.27
363.203	307.31
363.584	324.03
363.966	303.24
364.348	312.51
364.729	300.53
365.111	292.85
365.493	296.46
365.874	293.75
366.256	298.72
366.637	296.91
367.019	297.82
367.4	293.52
367.781	276.35
368.163	301.43
368.544	306.18
368.925	303.24
369.306	286.07
369.688	288.78
370.069	283.13
370.45	278.61
370.831	290.59
371.212	288.33
371.593	293.3
371.974	297.82
372.355	306.4
372.736	286.74
373.117	296.46
373.498	303.69
373.879	299.85
374.26	300.98
374.641	298.27
375.021	291.49
375.402	289.23
375.783	290.81
376.163	316.57
376.544	290.13
376.925	305.5
377.305	320.19
377.686	294.65
378.066	303.01
378.447	300.3
378.827	303.92
379.208	296.91
379.588	296.24
379.968	324.71
380.349	321.77
380.729	287.87
381.109	314.31
381.489	322.22
381.87	298.27
382.25	294.2
382.63	328.1
383.01	314.09
383.39	320.19
383.77	301.43
384.15	331.04
384.53	321.55
384.91	324.48
385.29	304.82
385.67	327.19
386.049	323.58
386.429	329.68
386.809	314.09
387.189	329.68
387.568	331.49
387.948	344.37
388.328	331.26
388.707	316.35
389.087	323.81
389.466	334.88
389.846	335.33
390.225	332.17
390.605	318.38
390.984	355.67
391.363	323.58
391.743	331.49
392.122	340.3
392.501	341.43
392.881	347.53
393.26	353.86
393.639	328.55
394.018	338.27
394.397	365.16
394.776	344.37
395.155	338.95
395.534	330.58
395.913	343.92
396.292	353.86
396.671	354.54
397.05	368.1
397.429	365.84
397.808	359.74
398.186	361.54
398.565	358.15
398.944	355.44
399.323	361.09
399.701	366.97
400.08	394.09
400.458	372.84
400.837	377.14
401.215	359.96
401.594	352.05
401.972	373.52
402.351	373.52
402.729	354.76
403.107	375.1
403.486	385.27
403.864	351.83
404.242	362.45
404.62	382.33
404.999	373.75
405.377	389.79
405.755	386.18
406.133	382.11
406.511	392.5
406.889	383.69
407.267	383.01
407.645	408.55
408.023	402.45
408.401	391.6
408.779	406.74
409.156	389.79
409.534	418.72
409.912	403.12
410.29	415.33
410.667	421.66
411.045	408.55
411.422	409.68
411.8	444.71
412.178	432.73
412.555	400.41
412.933	431.37
413.31	438.15
413.687	425.5
414.065	421.88
414.442	443.12
414.819	447.87
415.197	437.7
415.574	423.46
415.951	446.29
416.328	457.59
416.705	456.46
417.082	427.98
417.46	476.8
417.837	460.07
418.214	445.16
418.591	477.93
418.967	451.26
419.344	461.88
419.721	476.57
420.098	479.51
420.475	472.5
420.852	485.61
421.228	481.99
421.605	460.07
421.982	485.16
422.358	467.76
422.735	490.81
423.111	496.46
423.488	522.44
423.864	509.11
424.241	527.64
424.617	505.27
424.994	507.98
425.37	502.78
425.746	524.93
426.123	517.47
426.499	523.8
426.875	497.81
427.251	516.79
427.627	535.1
428.003	526.96
428.379	557.02
428.756	552.05
429.132	568.54
429.507	582.78
429.883	558.38
430.259	559.96
430.635	585.49
431.011	576.23
431.387	571.26
431.763	572.61
432.138	594.98
432.514	592.05
432.89	577.58
433.265	607.19
433.641	601.99
434.016	590.01
434.392	599.73
434.767	620.75
435.143	630.92
435.518	609.9
435.894	627.75
436.269	659.62
436.644	634.98
437.02	624.36
437.395	674.76
437.77	635.89
438.145	648.09
438.52	662.1
438.895	677.02
439.271	674.08
439.646	679.73
440.021	657.36
440.395	667.75
440.77	667.52
441.145	686.96
441.52	671.59
441.895	688.32
442.27	710.69
442.645	703.46
443.019	701.2
443.394	719.73
443.769	726.51
444.143	707.07
444.518	721.99
444.892	709.78
445.267	714.3
445.641	744.58
446.016	734.87
446.39	708.43
446.764	729.44
447.139	761.53
447.513	727.41
447.887	741.2
448.262	736.9
448.636	780.97
449.01	766.51
449.384	757.69
449.758	768.54
450.132	796.79
450.506	774.41
450.88	783.91
451.254	789.33
451.628	807.18
452.002	798.59
452.376	815.32
452.75	828.88
453.123	805.37
453.497	825.71
453.871	838.37
454.244	836.33
454.618	829.78
454.992	851.25
455.365	851.02
455.739	871.36
456.112	888.54
456.486	877.91
456.859	886.5
457.232	941.87
457.606	867.75
457.979	902.77
458.352	917.46
458.725	915.2
459.099	946.84
459.472	966.5
459.845	962.43
460.218	956.1
460.591	965.6
460.964	987.06
461.337	1005.14
461.71	996.1
462.083	995.65
462.456	1018.93
462.829	1017.35
463.201	1036.1
463.574	1039.27
463.947	1024.13
464.32	1032.49
464.692	1045.14
465.065	1060.96
465.438	1075.2
465.81	1083.56
466.183	1105.93
466.555	1123.56
466.928	1106.38
467.3	1138.25
467.672	1173.95
468.045	1170.34
468.417	1168.98
468.789	1185.48
469.161	1161.75
469.534	1224.12
469.906	1244.91
470.278	1227.51
470.65	1237.23
471.022	1260.96
471.394	1275.19
471.766	1298.92
472.138	1291.24
472.51	1293.05
472.882	1333.27
473.253	1330.33
473.625	1365.59
473.997	1377.11
474.369	1371.91
474.74	1396.55
475.112	1446.94
475.484	1454.62
475.855	1448.3
476.227	1442.42
476.598	1497.79
476.97	1498.01
477.341	1524.45
477.713	1543.89
478.084	1564
478.455	1610.1
478.827	1588.63
479.198	1670.66
479.569	1658.91
479.94	1691.45
480.311	1716.99
480.682	1759.7
481.053	1773.94
481.424	1790.89
481.795	1801.28
482.166	1860.26
482.537	1833.6
482.908	1877.21
483.279	1901.16
483.65	1905.91
484.021	1935.97
484.391	1985.91
484.762	2003.31
485.133	2030.2
485.503	2025.91
485.874	2060.48
486.244	2081.27
486.615	2102.29
486.985	2127.83
487.356	2170.31
487.726	2186.13
488.097	2231.1
488.467	2225.68
488.837	2257.99
489.207	2313.36
489.578	2325.11
489.948	2333.02
490.318	2375.05
490.688	2340.48
491.058	2413.02
491.428	2427.7
491.798	2450.98
492.168	2500.7
492.538	2486.91
492.908	2529.4
493.278	2575.5
493.648	2588.15
494.017	2585.89
494.387	2602.39
494.757	2667.47
495.126	2671.99
495.496	2667.02
495.866	2736.4
496.235	2716.96
496.605	2740.46
496.974	2737.98
497.344	2780.46
497.713	2783.18
498.082	2829.73
498.452	2868.82
498.821	2862.27
499.19	2827.47
499.559	2872.89
499.928	2914.02
500.298	2902.49
500.667	2962.61
501.036	2944.75
501.405	2975.03
501.774	2971.19
502.143	3005.99
502.512	3018.42
502.88	3046.9
503.249	3072.66
503.618	3065.65
503.987	3100.68
504.356	3108.82
504.724	3108.82
505.093	3112.88
505.462	3158.98
505.83	3187.91
506.199	3185.42
506.567	3224.97
506.936	3238.3
507.304	3262.71
507.672	3270.39
508.041	3300
508.409	3320.56
508.777	3367.79
509.145	3357.17
509.514	3386.78
509.882	3400.56
510.25	3400.79
510.618	3434.91
510.986	3449.15
511.354	3483.5
511.722	3517.85
512.09	3523.95
512.458	3506.32
512.826	3576.6
513.193	3582.25
513.561	3587.67
513.929	3605.3
514.297	3661.57
514.664	3674
515.032	3675.58
515.4	3710.61
515.767	3734.34
516.135	3772.3
516.502	3730.5
516.869	3769.59
517.237	3810.72
517.604	3802.58
517.972	3845.07
518.339	3845.97
518.706	3861.79
519.073	3878.97
519.44	3966.87
519.808	3932.3
520.175	3963.94
520.542	4010.94
520.909	4043.71
521.276	4015.23
521.643	4074.89
522.009	4064.72
522.376	4126.64
522.743	4153.08
523.11	4197.6
523.477	4201.22
523.843	4232.85
524.21	4327.54
524.577	4323.02
524.943	4290.48
525.31	4324.38
525.676	4353.53
526.043	4398.05
526.409	4423.81
526.776	4489.8
527.142	4486.63
527.508	4505.84
527.874	4543.13
528.241	4581.09
528.607	4579.51
528.973	4620.64
529.339	4623.35
529.705	4636.91
530.071	4708.32
530.437	4739.51
530.803	4726.63
531.169	4781.31
531.535	4796.23
531.901	4820.41
532.267	4778.83
532.632	4855.21
532.998	4861.09
533.364	4922.33
533.73	4926.17
534.095	4953.51
534.461	4985.6
534.826	4998.03
535.192	5054.3
535.557	5068.09
535.923	5030.8
536.288	5104.02
536.653	5091.36
537.019	5106.5
537.384	5105.6
537.749	5160.51
538.114	5142.89
538.479	5203
538.845	5201.42
539.21	5221.76
539.575	5199.61
539.94	5275.09
540.305	5311.7
540.67	5343.79
541.034	5360.73
541.399	5398.47
541.764	5421.75
542.129	5393.5
542.494	5468.75
542.858	5472.37
543.223	5479.6
543.587	5470.34
543.952	5563.89
544.316	5513.95
544.681	5539.49
545.045	5608.64
545.41	5562.99
545.774	5619.71
546.138	5645.7
546.503	5687.28
546.867	5651.57
547.231	5770.44
547.595	5739.26
547.959	5758.46
548.324	5757.56
548.688	5762.53
549.052	5814.28
549.416	5808.63
549.779	5823.77
550.143	5833.26
550.507	5884.34
550.871	5946.48
551.235	5926.82
551.599	5950.78
551.962	5986.03
552.326	6047.72
552.689	6017.89
553.053	6077.1
553.417	6085.91
553.78	6132.92
554.143	6102.41
554.507	6106.03
554.87	6138.79
555.234	6229.41
555.597	6171.11
555.96	6250.88
556.323	6238.68
556.686	6252.69
557.05	6277.09
557.413	6346.02
557.776	6337.66
558.139	6376.75
558.502	6383.31
558.865	6379.69
559.228	6455.85
559.59	6456.3
559.953	6461.95
560.316	6564.09
560.679	6562.74
561.041	6551.44
561.404	6646.8
561.767	6644.54
562.129	6624.88
562.492	6672.56
562.854	6722.05
563.217	6727.93
563.579	6788.49
563.941	6773.58
564.304	6771.09
564.666	6854.25
565.028	6830.53
565.39	6897.19
565.753	6904.2
566.115	6926.12
566.477	6997.08
566.839	6953.01
567.201	7093.12
567.563	7045.89
567.925	7109.39
568.287	7062.16
568.648	7116.85
569.01	7109.84
569.372	7200.23
569.734	7168.14
570.095	7202.72
570.457	7221.02
570.819	7275.49
571.18	7273
571.542	7316.62
571.903	7340.8
572.265	7333.79
572.626	7393
572.987	7404.97
573.349	7435.71
573.71	7501.02
574.071	7457.63
574.432	7484.52
574.794	7501.7
575.155	7577.85
575.516	7553.67
575.877	7551.41
576.238	7581.92
576.599	7610.62
576.96	7590.73
577.32	7586.44
577.681	7684.06
578.042	7681.35
578.403	7654.91
578.763	7732.88
579.124	7687.23
579.485	7689.04
579.845	7708.47
580.206	7764.51
580.566	7759.77
580.927	7740.33
581.287	7731.52
581.648	7823.95
582.008	7821.91
582.368	7757.06
582.728	7797.96
583.089	7815.36
583.449	7809.94
583.809	7825.3
584.169	7846.55
584.529	7795.47
584.889	7899.43
585.249	7806.77
585.609	7831.86
585.969	7907.79
586.329	7873.89
586.688	7876.37
587.048	7902.59
587.408	7880.67
587.768	7887.67
588.127	7830.27
588.487	7881.12
588.846	7947.56
589.206	7893.55
589.565	7857.39
589.925	7899.65
590.284	7904.62
590.643	7935.36
591.003	7937.16
591.362	7959.99
591.721	7944.85
592.08	7954.56
592.44	7926.54
592.799	7944.62
593.158	7983.94
593.517	7951.18
593.876	7994.56
594.235	7948.92
594.593	7939.88
594.952	7975.13
595.311	7998.86
595.67	7956.82
596.029	7968.12
596.387	8006.54
596.746	8030.27
597.104	7992.53
597.463	8033.88
597.822	7942.81
598.18	7952.98
598.538	8015.35
598.897	8044.05
599.255	7965.64
599.613	8065.75
599.972	7994.56
600.33	7987.11
600.688	8065.97
601.046	8011.06
601.404	8096.26
601.762	8063.26
602.12	8109.36
602.478	8170.15
602.836	8054
603.194	8039.76
603.552	8027.11
603.91	8040.66
604.268	8120.44
604.625	8020.78
604.983	8121.79
605.341	8032.08
605.698	8098.52
606.056	8078.63
606.413	8090.15
606.771	8137.61
607.128	8115.01
607.485	8109.82
607.843	8155.46
608.2	8129.7
608.557	8142.36
608.914	8149.59
609.272	8207.89
609.629	8199.53
609.986	8231.39
610.343	8201.11
610.7	8318.17
611.057	8244.73
611.414	8222.81
611.771	8173.99
612.127	8300.09
612.484	8223.03
612.841	8255.8
613.198	8256.7
613.554	8241.56
613.911	8282.92
614.267	8288.79
614.624	8272.97
614.98	8306.87
615.337	8369.24
615.693	8258.06
616.05	8260.32
616.406	8324.72
616.762	8334.67
617.118	8319.75
617.475	8301.9
617.831	8417.83
618.187	8385.74
618.543	8375.12
618.899	8404.04
619.255	8347.32
619.611	8390.71
619.967	8401.33
620.323	8414.44
620.678	8411.5
621.034	8367.66
621.39	8350.94
621.746	8361.79
622.101	8501.44
622.457	8423.03
622.812	8413.31
623.168	8469.35
623.523	8475.23
623.879	8492.4
624.234	8457.38
624.589	8373.76
624.945	8462.35
625.3	8524.72
625.655	8474.33
626.01	8473.42
626.365	8444.95
626.72	8467.32
627.075	8456.25
627.43	8428.45
627.785	8475.23
628.14	8434.78
628.495	8451.27
628.85	8447.89
629.205	8495.79
629.559	8500.09
629.914	8435.46
630.269	8517.04
630.623	8487.88
630.978	8416.02
631.332	8474.55
631.687	8488.79
632.041	8401.78
632.396	8418.06
632.75	8424.83
633.104	8428.68
633.459	8336.7
633.813	8417.6
634.167	8416.25
634.521	8326.76
634.875	8427.77
635.229	8328.11
635.583	8306.42
635.937	8365.18
636.291	8307.78
636.645	8308.68
636.999	8383.03
637.352	8340.09
637.706	8343.93
638.06	8305.29
638.413	8288.12
638.767	8308
639.121	8305.74
639.474	8292.64
639.828	8298.28
640.181	8303.93
640.534	8338.51
640.888	8291.05
641.241	8308.91
641.594	8252.86
641.947	8278.85
642.301	8246.08
642.654	8287.44
643.007	8295.35
643.36	8272.3
643.713	8308.68
644.066	8258.29
644.419	8197.72
644.771	8212.86
645.124	8122.92
645.477	8060.78
645.83	8091.51
646.182	8079.31
646.535	8010.38
646.888	8032.75
647.24	8031.4
647.593	8008.12
647.945	8000.21
648.298	7981.91
648.65	8042.7
649.002	7938.29
649.355	8010.83
649.707	8023.72
650.059	7979.87
650.411	8103.04
650.763	8103.49
651.115	8161.57
651.467	8181
651.819	8218.06
652.171	8202.69
652.523	8158.4
652.875	8155.01
653.227	8187.33
653.578	8203.37
653.93	8190.26
654.282	8162.69
654.633	8180.1
654.985	8117.27
655.337	8211.73
655.688	8199.08
656.039	8201.56
656.391	8159.08
656.742	8200.43
657.094	8091.06
657.445	8188.68
657.796	8167.44
658.147	8133.09
658.498	8157.27
658.849	8143.94
659.2	8188.01
659.551	8153.2
659.902	8202.24
660.253	8180.55
660.604	8241.79
660.955	8138.97
661.306	8221.9
661.656	8114.56
662.007	8173.99
662.358	8156.37
662.708	8133.32
663.059	8195.24
663.409	8104.62
663.76	8149.59
664.11	8167.67
664.461	8189.13
664.811	8178.97
665.161	8150.49
665.511	8151.62
665.862	8174.67
666.212	8195.69
666.562	8148.01
666.912	8213.32
667.262	8151.62
667.612	8187.78
667.962	8173.99
668.312	8152.07
668.662	8226.2
669.011	8150.94
669.361	8136.03
669.711	8182.58
670.06	8163.37
670.41	8164.5
670.76	8087.44
671.109	8090.83
671.459	8122.7
671.808	8109.59
672.157	8104.17
672.507	8070.27
672.856	8035.92
673.205	8079.31
673.554	8073.21
673.904	8047.67
674.253	8045.41
674.602	8079.99
674.951	7954.79
675.3	7987.56
675.649	8078.86
675.998	8047.22
676.346	8084.73
676.695	8051.74
677.044	8002.7
677.393	8056.94
677.741	8081.34
678.09	8002.02
678.438	7969.71
678.787	8051.06
679.135	8028.01
679.484	7966.77
679.832	7996.82
680.181	7917.5
680.529	7946.88
680.877	7903.94
681.225	7921.8
681.573	7974.45
681.922	7906.66
682.27	7908.01
682.618	7879.76
682.966	7842.48
683.314	7834.57
683.661	7849.93
684.009	7870.05
684.357	7838.41
684.705	7774.46
685.053	7803.83
685.4	7830.5
685.748	7737.4
686.095	7696.94
686.443	7676.61
686.79	7738.3
687.138	7752.76
687.485	7725.87
687.832	7682.26
688.18	7698.3
688.527	7664.18
688.874	7660.11
689.221	7534.69
689.568	7555.93
689.915	7571.98
690.262	7601.81
690.609	7520.23
690.956	7542.15
691.303	7526.55
691.65	7443.84
691.997	7450.85
692.344	7399.1
692.69	7440.45
693.037	7413.79
693.383	7340.34
693.73	7364.07
694.077	7392.55
694.423	7381.92
694.769	7284.98
695.116	7257.18
695.462	7291.98
695.808	7241.14
696.155	7185.55
696.501	7174.47
696.847	7209.73
697.193	7127.24
697.539	7164.98
697.885	7046.34
698.231	7075.49
698.577	7115.26
698.923	7061.26
699.269	7007.7
699.614	6977.42
699.96	6970.64
700.306	6957.75
700.651	6962.05
700.997	6897.87
701.342	6904.2
701.688	6908.72
702.033	6876.63
702.379	6842.28
702.724	6820.81
703.069	6877.53
703.415	6731.09
703.76	6750.3
704.105	6778.1
704.45	6765.67
704.795	6720.7
705.14	6701.26
705.485	6648.16
705.83	6645.9
706.175	6659.68
706.52	6625.79
706.865	6660.14
707.209	6602.28
707.554	6541.95
707.899	6562.74
708.243	6562.51
708.588	6533.13
708.932	6480.03
709.277	6458.11
709.621	6459.91
709.966	6477.54
710.31	6532
710.654	6398
710.998	6408.84
711.342	6427.37
711.687	6425.11
712.031	6395.96
712.375	6358.9
712.719	6326.59
713.063	6363.65
713.407	6362.97
713.75	6327.49
714.094	6324.55
714.438	6287.04
714.782	6324.78
715.125	6276.19
715.469	6261.73
715.812	6226.7
716.156	6255.4
716.499	6225.8
716.843	6260.15
717.186	6242.52
717.53	6256.76
717.873	6261.73
718.216	6201.39
718.559	6184.22
718.902	6195.29
719.246	6181.05
719.589	6177.21
719.932	6137.89
720.275	6140.83
720.617	6130.21
720.96	6187.83
721.303	6168.85
721.646	6182.63
721.989	6149.87
722.331	6103.77
722.674	6146.25
723.016	6142.18
723.359	6152.13
723.701	6133.14
724.044	6108.06
724.386	6100.6
724.729	6089.53
725.071	6107.61
725.413	6124.33
725.755	6111
726.097	6046.14
726.439	6025.58
726.782	6021.06
727.124	6077.33
727.465	6096.53
727.807	6031.45
728.149	6078.91
728.491	6044.33
728.833	6101.05
729.175	6084.78
729.516	6101.96
729.858	6041.85
730.199	6067.83
730.541	6024.22
730.882	6053.15
731.224	6104.22
731.565	6071.45
731.906	5999.36
732.248	6024.45
732.589	6045.46
732.93	6026.71
733.271	6009.98
733.612	6075.29
733.953	6023.09
734.294	6011.57
734.635	5993.49
734.976	6049.53
735.317	5959.14
735.658	6043.43
735.999	6042.98
736.339	5967.72
736.68	6026.48
737.021	6018.57
737.361	5998.91
737.702	6045.69
738.042	6009.76
738.383	6041.85
738.723	6016.31
739.063	6006.82
739.404	6019.7
739.744	6000.49
740.084	5954.39
740.424	5982.87
740.764	6002.98
741.104	6014.28
741.444	5999.36
741.784	6018.12
742.124	5971.34
742.464	6036.2
742.804	5999.36
743.143	6002.3
743.483	6019.02
743.823	5914.84
744.162	5937.22
744.502	6074.39
744.841	5936.54
745.181	5986.03
745.52	5972.92
745.86	5941.06
746.199	6007.05
746.538	5926.37
746.877	5930.21
747.216	5955.97
747.556	5965.92
747.895	5964.33
748.234	5950.78
748.573	5969.31
748.911	5973.37
749.25	5944.9
749.589	5932.47
749.928	5979.7
750.267	5993.71
750.605	5945.35
750.944	5936.54
751.283	5946.93
751.621	5929.31
751.96	5918.23
752.298	5888.63
752.636	5935.18
752.975	5922.3
753.313	5905.81
753.651	5896.99
753.989	5910.32
754.327	5855.64
754.666	5922.98
755.004	5856.77
755.342	5865.35
755.679	5844.56
756.017	5785.81
756.355	5870.55
756.693	5845.69
757.031	5831.91
757.368	5850.21
757.706	5812.7
758.044	5760.5
758.381	5783.1
758.719	5793.49
759.056	5770.44
759.394	5754.62
759.731	5726.37
760.068	5722.31
760.405	5650.9
760.743	5676.66
761.08	5685.02
761.417	5671.46
761.754	5711.46
762.091	5668.75
762.428	5602.31
762.765	5607.28
763.102	5594.63
763.438	5616.1
763.775	5540.39
764.112	5586.49
764.449	5545.59
764.785	5533.84
765.122	5504.01
765.458	5491.35
765.795	5522.31
766.131	5511.01
766.467	5479.6
766.804	5439.38
767.14	5457.68
767.476	5417.91
767.812	5402.54
768.148	5373.84
768.485	5320.28
768.821	5319.83
769.157	5341.75
769.492	5316.89
769.828	5313.73
770.164	5275.99
770.5	5240.06
770.836	5292.71
771.171	5260.85
771.507	5241.87
771.842	5193.51
772.178	5228.53
772.513	5176.11
772.849	5139.72
773.184	5137.69
773.519	5127.75
773.855	5116.22
774.19	5101.08
774.525	5104.47
774.86	5068.54
775.195	5084.81
775.53	5074.41
775.865	5062.89
776.2	5029.9
776.535	4934.08
776.87	4988.09
777.205	4940.18
777.539	4927.53
777.874	4958.03
778.209	4909
778.543	4888.2
778.878	4887.07
779.212	4854.31
779.547	4875.1
779.881	4838.94
780.215	4782.67
780.55	4843.23
780.884	4795.33
781.218	4786.74
781.552	4787.19
781.886	4799.17
782.22	4753.97
782.554	4701.77
782.888	4716.91
783.222	4648.21
783.556	4645.95
783.889	4605.27
784.223	4552.85
784.557	4579.96
784.89	4598.04
785.224	4612.51
785.557	4594.2
785.891	4530.93
786.224	4542.23
786.558	4525.5
786.891	4491.15
787.224	4499.51
787.557	4477.37
787.891	4476.46
788.224	4477.37
788.557	4428.33
788.89	4477.59
789.223	4462.91
789.556	4434.88
789.888	4394.88
790.221	4382.23
790.554	4356.92
790.887	4372.51
791.219	4362.34
791.552	4327.54
791.884	4290.48
792.217	4306.3
792.549	4280.99
792.882	4259.07
793.214	4274.89
793.546	4274.44
793.879	4215
794.211	4207.77
794.543	4184.04
794.875	4179.52
795.207	4200.77
795.539	4200.99
795.871	4160.99
796.203	4151.5
796.535	4128.22
796.867	4115.34
797.198	4090.26
797.53	4157.83
797.862	4111.73
798.193	4112.18
798.525	4069.92
798.856	4072.63
799.188	4057.49
799.519	4028.34
799.85	3962.35
800.182	4019.08
800.513	3992.41
800.844	3986.53
801.175	3982.92
801.506	3991.05
801.837	3946.99
802.168	3942.69
802.499	3939.08
802.83	3951.73
803.161	3886.88
803.491	3880.1
803.822	3928.91
804.153	3881.9
804.483	3862.24
804.814	3838.74
805.145	3841.23
805.475	3874.9
805.805	3841.45
806.136	3824.28
806.466	3876.48
806.796	3811.85
807.126	3771.62
807.457	3802.36
807.787	3747.9
808.117	3800.32
808.447	3786.99
808.777	3758.97
809.107	3735.69
809.436	3716.94
809.766	3732.75
810.096	3699.54
810.426	3695.47
810.755	3714.9
811.085	3689.14
811.414	3678.97
811.744	3668.35
812.073	3662.02
812.403	3653.66
812.732	3646.88
813.061	3629.71
813.39	3612.31
813.719	3618.18
814.049	3646.66
814.378	3581.57
814.707	3627
815.036	3592.87
815.365	3572.53
815.693	3523.95
816.022	3542.7
816.351	3536.15
816.68	3586.32
817.008	3541.12
817.337	3535.25
817.665	3499.31
817.994	3511.52
818.322	3499.54
818.651	3481.69
818.979	3476.04
819.307	3486.43
819.636	3459.32
819.964	3445.98
820.292	3476.26
820.62	3445.53
820.948	3424.29
821.276	3465.87
821.604	3473.33
821.932	3484.4
822.259	3458.86
822.587	3448.92
822.915	3432.2
823.243	3443.95
823.57	3403.05
823.898	3462.48
824.225	3447.79
824.553	3419.99
824.88	3448.69
825.207	3439.2
825.535	3429.94
825.862	3442.59
826.189	3434.23
826.516	3468.81
826.843	3464.97
827.17	3410.28
827.497	3420.22
827.824	3436.04
828.151	3475.59
828.478	3462.93
828.805	3467.23
829.131	3439.43
829.458	3459.54
829.785	3448.02
830.111	3462.25
830.438	3465.64
830.764	3419.77
831.09	3443.5
831.417	3413.44
831.743	3403.5
832.069	3416.15
832.395	3401.92
832.722	3405.98
833.048	3382.26
833.374	3390.17
833.7	3441.69
834.026	3404.4
834.351	3429.03
834.677	3421.58
835.003	3447.11
835.329	3385.87
835.654	3397.17
835.98	3386.1
836.306	3369.37
836.631	3378.19
836.956	3375.48
837.282	3394.46
837.607	3360.11
837.932	3384.97
838.258	3386.78
838.583	3366.44
838.908	3349.04
839.233	3388.13
839.558	3333.44
839.883	3326.21
840.208	3328.7
840.533	3303.39
840.858	3353.1
841.182	3319.66
841.507	3309.26
841.832	3286.44
842.156	3311.3
842.481	3309.04
842.805	3290.73
843.13	3266.78
843.454	3251.19
843.778	3241.02
844.103	3291.86
844.427	3211.86
844.751	3234.24
845.075	3263.61
845.399	3207.12
845.723	3245.54
846.047	3216.38
846.371	3200.79
846.695	3191.75
847.019	3135.93
847.343	3167.57
847.666	3146.78
847.99	3132.77
848.313	3127.12
848.637	3119.44
848.96	3143.17
849.284	3121.02
849.607	3122.38
849.931	3085.31
850.254	3067.69
850.577	3038.08
850.9	3031.76
851.223	3054.58
851.546	3013.23
851.869	3010.97
852.192	3057.29
852.515	2999.44
852.838	2996.5
853.161	2963.74
853.483	2958.99
853.806	2955.83
854.129	2975.71
854.451	2895.94
854.774	2924.41
855.096	2912.89
855.419	2889.61
855.741	2920.35
856.063	2876.73
856.385	2876.05
856.708	2874.25
857.03	2869.05
857.352	2868.14
857.674	2820.01
857.996	2853.46
858.318	2833.8
858.64	2829.73
858.961	2801.25
859.283	2817.07
859.605	2815.04
859.926	2849.61
860.248	2784.98
860.57	2794.25
860.891	2786.34
861.212	2770.29
861.534	2777.53
861.855	2758.09
862.176	2741.59
862.498	2743.4
862.819	2775.49
863.14	2742.5
863.461	2759.67
863.782	2729.39
864.103	2759.22
864.424	2709.73
864.745	2772.33
865.065	2712.89
865.386	2695.49
865.707	2724.65
866.027	2732.78
866.348	2741.14
866.668	2712.89
866.989	2719
867.309	2704.08
867.63	2702.73
867.95	2697.75
868.27	2672.22
868.59	2668.38
868.91	2670.41
869.23	2668.15
869.55	2644.65
869.87	2668.6
870.19	2667.02
870.51	2655.27
870.83	2666.12
871.15	2643.52
871.469	2613.01
871.789	2691.88
872.109	2677.64
872.428	2618.89
872.748	2646
873.067	2619.11
873.386	2624.54
873.706	2642.16
874.025	2625.21
874.344	2623.18
874.663	2625.67
874.982	2626.34
875.301	2623.41
875.62	2622.28
875.939	2597.19
876.258	2620.02
876.577	2586.34
876.896	2585.21
877.214	2574.14
877.533	2571.43
877.852	2575.95
878.17	2588.38
878.489	2573.24
878.807	2567.14
879.125	2561.03
879.444	2573.01
879.762	2541.15
880.08	2552.45
880.398	2546.12
880.716	2549.74
881.034	2547.93
881.352	2554.03
881.67	2518.55
881.988	2552
882.306	2515.39
882.624	2519.45
882.941	2504.99
883.259	2488.27
883.577	2502.28
883.894	2457.53
884.212	2471.09
884.529	2481.26
884.846	2496.4
885.164	2465.22
885.481	2476.29
885.798	2504.99
886.115	2448.49
886.432	2409.17
886.75	2436.74
887.067	2447.37
887.383	2420.47
887.7	2440.13
888.017	2410.76
888.334	2432.68
888.651	2436.07
888.967	2399.46
889.284	2393.81
889.6	2413.47
889.917	2362.4
890.233	2382.73
890.55	2343.86
890.866	2352
891.182	2389.06
891.498	2399.23
891.815	2342.96
892.131	2357.88
892.447	2350.64
892.763	2344.32
893.079	2347.03
893.395	2302.96
893.71	2325.33
894.026	2297.99
894.342	2343.86
894.657	2327.37
894.973	2296.86
895.289	2293.7
895.604	2289.18
895.92	2317.65
896.235	2227.26
896.55	2267.93
896.865	2258.44
897.181	2271.32
897.496	2298.22
897.811	2234.94
898.126	2261.61
898.441	2240.14
898.756	2257.09
899.071	2213.7
899.386	2223.42
899.7	2198.33
900.015	2204.66
900.33	2192.23
900.644	2206.47
900.959	2154.27
901.273	2186.81
901.588	2158.79
901.902	2191.78
902.216	2183.42
902.531	2153.36
902.845	2150.42
903.159	2135.06
903.473	2130.09
903.787	2130.99
904.101	2099.58
904.415	2118.33
904.729	2087.15
905.042	2075.17
905.356	2110.42
905.67	2074.95
905.984	2050.09
906.297	2091.67
906.611	2063.19
906.924	2049.18
907.237	2050.54
907.551	2046.92
907.864	2067.04
908.177	2011.22
908.491	2010.54
908.804	1984.1
909.117	1991.11
909.43	2012.57
909.743	1977.55
910.056	2023.87
910.368	1980.26
910.681	1980.03
910.994	1962.18
911.307	1958.79
911.619	1927.15
911.932	1943.88
912.244	1923.76
912.557	1916.76
912.869	1932.35
913.181	1957.66
913.494	1913.14
913.806	1890.54
914.118	1882.86
914.43	1891.45
914.742	1888.06
915.054	1894.61
915.366	1836.53
915.678	1899.36
915.99	1854.61
916.302	1846.48
916.613	1855.06
916.925	1827.04
917.236	1829.75
917.548	1866.36
917.859	1811.22
918.171	1802.64
918.482	1814.16
918.794	1821.62
919.105	1771
919.416	1776.65
919.727	1776.87
920.038	1797.44
920.349	1763.09
920.66	1782.3
920.971	1775.07
921.282	1780.26
921.593	1746.14
921.903	1726.03
922.214	1761.96
922.525	1716.99
922.835	1717.67
923.146	1714.28
923.456	1712.02
923.767	1704.33
924.077	1688.06
924.387	1700.27
924.697	1678.57
925.008	1705.69
925.318	1668.4
925.628	1689.42
925.938	1673.6
926.248	1657.78
926.558	1661.85
926.867	1638.12
927.177	1630.21
927.487	1613.94
927.796	1634.51
928.106	1616.65
928.416	1644.22
928.725	1613.71
929.034	1616.88
929.344	1620.04
929.653	1611
929.962	1588.86
930.271	1590.89
930.581	1599.7
930.89	1561.51
931.199	1564.22
931.508	1560.16
931.817	1545.24
932.125	1563.09
932.434	1556.99
932.743	1533.94
933.051	1540.95
933.36	1526.71
933.669	1507.05
933.977	1510.89
934.286	1510.89
934.594	1500.5
934.902	1511.34
935.21	1507.28
935.519	1506.37
935.827	1472.7
936.135	1500.72
936.443	1488.29
936.751	1461.18
937.059	1470.44
937.367	1457.11
937.674	1439.26
937.982	1472.93
938.29	1445.58
938.597	1431.35
938.905	1417.11
939.213	1441.74
939.52	1427.73
939.827	1400.16
940.135	1417.34
940.442	1418.92
940.749	1428.86
941.056	1415.98
941.363	1413.49
941.67	1389.31
941.977	1386.6
942.284	1376.66
942.591	1398.58
942.898	1392.7
943.205	1360.84
943.511	1365.13
943.818	1368.07
944.125	1389.31
944.431	1332.14
944.738	1352.48
945.044	1354.29
945.35	1348.86
945.657	1334.4
945.963	1313.16
946.269	1318.81
946.575	1340.28
946.881	1320.61
947.187	1319.94
947.493	1301.86
947.799	1297.56
948.105	1293.05
948.41	1319.49
948.716	1303.44
949.022	1293.72
949.327	1281.52
949.633	1280.62
949.938	1279.49
950.244	1278.58
950.549	1263.44
950.854	1271.35
951.16	1283.55
951.465	1256.66
951.77	1249.88
952.075	1249.66
952.38	1259.15
952.685	1245.59
952.99	1248.98
953.294	1247.85
953.599	1237.23
953.904	1227.28
954.209	1226.61
954.513	1205.36
954.818	1209.21
955.122	1215.31
955.426	1210.79
955.731	1187.96
956.035	1194.97
956.339	1197
956.643	1163.11
956.948	1160.39
957.252	1183.22
957.556	1177.34
957.86	1171.47
958.163	1175.53
958.467	1175.76
958.771	1145.7
959.075	1164.46
959.378	1152.26
959.682	1155.42
959.985	1168.75
960.289	1149.09
960.592	1136.67
960.896	1133.95
961.199	1109.32
961.502	1136.67
961.805	1122.2
962.108	1144.8
962.411	1129.89
962.714	1099.6
963.017	1099.83
963.32	1128.08
963.623	1107.51
963.926	1092.6
964.228	1093.95
964.531	1093.05
964.833	1053.05
965.136	1097.12
965.438	1069.32
965.741	1085.82
966.043	1051.24
966.345	1070
966.648	1064.12
966.95	1083.33
967.252	1044.24
967.554	1043.56
967.856	1043.11
968.158	1028.19
968.46	1046.27
968.761	1046.05
969.063	1009.21
969.365	1074.75
969.666	1047.4
969.968	1002.88
970.269	1009.89
970.571	1019.61
970.872	1002.66
971.174	992.49
971.475	1009.44
971.776	1018.7
972.077	1035.2
972.378	986.39
972.679	991.36
972.98	991.36
973.281	975.31
973.582	992.94
973.883	990.68
974.183	970.57
974.484	972.6
974.785	953.84
975.085	974.86
975.386	982.77
975.686	984.35
975.986	940.06
976.287	969.89
976.587	945.94
976.887	953.39
977.187	947.97
977.487	926.73
977.787	929.89
978.087	960.62
978.387	928.53
978.687	940.74
978.987	945.94
979.286	934.41
979.586	915.2
979.885	934.41
980.185	930.34
980.484	907.29
980.784	907.74
981.083	902.09
981.382	909.1
981.682	909.1
981.981	916.33
982.28	873.85
982.579	887.63
982.878	890.12
983.177	904.35
983.475	874.3
983.774	880.17
984.073	918.14
984.372	878.59
984.67	888.99
984.969	892.15
985.267	869.1
985.566	901.42
985.864	870.91
986.162	858.93
986.461	880.17
986.759	884.47
987.057	854.86
987.355	877.24
987.653	838.14
987.951	864.58
988.249	852.38
988.547	836.79
988.844	831.59
989.142	833.17
989.44	827.52
989.737	837.69
990.035	844.02
990.332	829.33
990.63	817.35
990.927	839.05
991.224	849.89
991.521	803.34
991.819	808.09
992.116	797.92
992.413	795.43
992.71	795.66
993.006	795.88
993.303	794.98
993.6	796.79
993.897	797.46
994.193	798.37
994.49	783
994.787	787.75
995.083	783.68
995.379	793.17
995.676	784.81
995.972	796.11
996.268	782.1
996.565	781.87
996.861	787.3
997.157	757.47
997.453	788.65
997.749	766.28
998.044	763.79
998.34	731.03
998.636	751.14
998.932	761.76
999.227	753.17
999.523	763.12
999.818	749.78
1000.114	746.84
1000.409	732.38
1000.704	741.42
1001	738.71
1001.295	736
1001.59	736.45
1001.885	747.3
1002.18	696.68
1002.475	736.45
1002.77	724.7
1003.065	709.78
1003.359	719.27
1003.654	697.58
1003.949	679.28
1004.243	701.2
1004.538	698.26
1004.832	695.77
1005.127	684.47
1005.421	698.48
1005.715	701.42
1006.009	684.93
1006.304	705.26
1006.598	706.85
1006.892	660.29
1007.186	693.96
1007.48	691.93
1007.773	702.33
1008.067	696
1008.361	675.66
1008.655	666.62
1008.948	657.13
1009.242	670.69
1009.535	678.37
1009.829	662.1
1010.122	650.8
1010.415	649.22
1010.708	672.04
1011.001	674.08
1011.295	661.42
1011.588	660.75
1011.881	652.38
1012.173	644.25
1012.466	643.12
1012.759	623.68
1013.052	622.33
1013.344	616.23
1013.637	616
1013.93	644.47
1014.222	640.41
1014.514	636.57
1014.807	599.73
1015.099	611.93
1015.391	619.16
1015.683	610.58
1015.976	611.03
1016.268	586.17
1016.56	615.55
1016.851	617.58
1017.143	606.96
1017.435	594.98
1017.727	600.18
1018.018	592.05
1018.31	585.27
1018.602	605.61
1018.893	586.62
1019.185	605.38
1019.476	590.92
1019.767	594.98
1020.058	573.52
1020.35	573.06
1020.641	592.27
1020.932	577.81
1021.223	579.39
1021.514	583.46
1021.804	570.58
1022.095	559.51
1022.386	552.27
1022.677	583.46
1022.967	559.51
1023.258	550.24
1023.548	568.54
1023.839	547.53
1024.129	530.81
1024.419	546.4
1024.709	543.91
1025	543.23
1025.29	537.81
1025.58	543.91
1025.87	549.79
1026.16	538.04
1026.449	535.32
1026.739	544.36
1027.029	544.14
1027.319	519.05
1027.608	527.42
1027.898	536.68
1028.187	514.76
1028.477	520.64
1028.766	530.58
1029.055	529
1029.344	482.67
1029.634	515.44
1029.923	541.88
1030.212	500.98
1030.501	507.08
1030.79	512.95
1031.078	507.08
1031.367	490.58
1031.656	498.94
1031.945	502.11
1032.233	502.78
1032.522	484.7
1032.81	476.34
1033.099	501.65
1033.387	497.36
1033.675	507.98
1033.963	472.05
1034.251	500.98
1034.54	485.16
1034.828	495.78
1035.116	495.55
1035.403	485.16
1035.691	480.41
1035.979	476.12
1036.267	487.87
1036.554	473.41
1036.842	487.42
1037.129	471.37
1037.417	457.13
1037.704	458.49
1037.992	474.08
1038.279	477.7
1038.566	455.1
1038.853	455.1
1039.14	455.1
