Data from mousepad_grey_FLMS001491_00032.txt Node
Date: Wed Feb 08 14:29:20 GMT 2017
User: dcchb
Spectrometer: FLMS00149
Trigger mode: 0
Integration Time (sec): 2.000000E-2
Scans to average: 10
Electric dark correction enabled: true
Nonlinearity correction enabled: false
Boxcar width: 0
XAxis mode: Wavelengths
Number of Pixels in Spectrum: 2048
>>>>>Begin Spectral Data<<<<<
341.393	-14.08
341.776	-14.08
342.16	-14.08
342.543	-61.31
342.927	-86.17
343.31	-67.87
343.693	-53.85
344.077	-60.41
344.46	-65.83
344.843	-33.74
345.226	-61.31
345.61	-18.15
345.993	-21.09
346.376	-9.11
346.759	19.36
347.142	23.43
347.525	55.97
347.908	49.42
348.291	66.14
348.674	81.51
349.057	95.52
349.44	115.41
349.823	142.98
350.206	177.33
350.588	190.66
350.971	211
351.354	225.23
351.737	230.88
352.119	243.99
352.502	247.38
352.884	242.18
353.267	286.02
353.65	281.28
354.032	300.94
354.414	290.77
354.797	294.16
355.179	307.04
355.562	308.17
355.944	310.2
356.326	309.53
356.709	296.87
357.091	335.74
357.473	321.05
357.855	306.14
358.238	327.38
358.62	323.31
359.002	314.95
359.384	311.79
359.766	330.54
360.148	326.47
360.53	320.6
360.912	317.89
361.294	308.85
361.676	306.14
362.057	324.67
362.439	321.95
362.821	324.44
363.203	300.49
363.584	314.95
363.966	300.49
364.348	316.31
364.729	301.84
365.111	296.19
365.493	295.51
365.874	296.87
366.256	295.97
366.637	296.87
367.019	304.78
367.4	289.19
367.781	291.9
368.163	283.99
368.544	308.17
368.925	321.73
369.306	293.93
369.688	272.24
370.069	283.54
370.45	265.91
370.831	296.19
371.212	297.32
371.593	301.39
371.974	302.29
372.355	301.62
372.736	309.3
373.117	312.92
373.498	298.68
373.879	270.43
374.26	307.94
374.641	290.54
375.021	293.93
375.402	301.84
375.783	291.22
376.163	316.98
376.544	316.08
376.925	304.33
377.305	287.61
377.686	307.94
378.066	320.37
378.447	319.92
378.827	304.33
379.208	288.51
379.588	309.53
379.968	310.88
380.349	309.98
380.729	318.11
381.109	303.65
381.489	328.96
381.87	313.14
382.25	317.44
382.63	315.63
383.01	305.68
383.39	310.66
383.77	319.47
384.15	320.37
384.53	308.4
384.91	319.92
385.29	315.63
385.67	323.31
386.049	318.79
386.429	318.11
386.809	327.6
387.189	326.93
387.568	309.53
387.948	318.34
388.328	336.19
388.707	337.55
389.087	324.21
389.466	343.2
389.846	332.8
390.225	347.26
390.605	337.1
390.984	306.36
391.363	339.81
391.743	325.57
392.122	333.48
392.501	352.46
392.881	329.64
393.26	345.91
393.639	357.89
394.018	363.08
394.397	348.85
394.776	350.2
395.155	361.95
395.534	342.29
395.913	348.17
396.292	360.15
396.671	341.62
397.05	349.52
397.429	376.19
397.808	357.89
398.186	344.33
398.565	355.4
398.944	360.6
399.323	366.47
399.701	363.76
400.08	364.67
400.458	363.54
400.837	390.65
401.215	371.67
401.594	365.12
401.972	375.74
402.351	396.08
402.729	387.72
403.107	374.83
403.486	382.29
403.864	389.98
404.242	392.69
404.62	393.37
404.999	405.34
405.377	409.18
405.755	396.3
406.133	416.42
406.511	417.09
406.889	409.18
407.267	414.61
407.645	431.33
408.023	399.01
408.401	412.8
408.779	418
409.156	427.94
409.534	426.13
409.912	438.34
410.29	419.13
410.667	410.09
411.045	435.4
411.422	465.23
411.8	441.5
412.178	454.83
412.555	444.66
412.933	465.91
413.31	464.32
413.687	451.89
414.065	458.67
414.442	461.39
414.819	476.3
415.197	469.07
415.574	472.01
415.951	465.45
416.328	478.56
416.705	476.98
417.082	486.7
417.46	482.4
417.837	492.12
418.214	504.55
418.591	502.97
418.967	502.06
419.344	497.09
419.721	496.87
420.098	496.64
420.475	497.32
420.852	493.93
421.228	521.72
421.605	523.08
421.982	510.88
422.358	517.66
422.735	522.4
423.111	503.64
423.488	523.53
423.864	533.25
424.241	539.8
424.617	542.97
424.994	542.97
425.37	545.68
425.746	526.02
426.123	542.29
426.499	563.98
426.875	563.08
427.251	550.65
427.627	564.43
428.003	578.9
428.379	590.42
428.756	562.63
429.132	580.25
429.507	596.98
429.883	599.91
430.259	604.66
430.635	593.59
431.011	590.2
431.387	627.48
431.763	619.8
432.138	636.07
432.514	615.28
432.89	630.65
433.265	634.04
433.641	642.85
434.016	664.32
434.392	647.6
434.767	664.32
435.143	688.05
435.518	689.18
435.894	684.88
436.269	693.02
436.644	690.76
437.02	707.93
437.395	692.57
437.77	709.52
438.145	722.17
438.52	713.81
438.895	725.33
439.271	723.07
439.646	726.69
440.021	734.6
440.395	742.51
440.77	738.67
441.145	722.85
441.52	737.99
441.895	754.94
442.27	732.11
442.645	738.67
443.019	758.78
443.394	768.27
443.769	793.81
444.143	769.63
444.518	792.9
444.892	783.19
445.267	765.78
445.641	787.03
446.016	808.95
446.39	796.29
446.764	803.75
447.139	806.91
447.513	794.71
447.887	783.64
448.262	821.15
448.636	815.05
449.01	845.1
449.384	848.49
449.758	838.55
450.132	853.47
450.506	871.77
450.88	872.22
451.254	864.99
451.628	848.49
452.002	878.32
452.376	870.19
452.75	913.8
453.123	902.5
453.497	908.83
453.871	904.54
454.244	930.75
454.618	919.23
454.992	940.7
455.365	962.16
455.739	959.9
456.112	950.41
456.486	939.11
456.859	947.93
457.232	999
457.606	996.97
457.979	1012.56
458.352	1010.52
458.725	1040.35
459.099	1029.05
459.472	1053.46
459.845	1058.43
460.218	1037.64
460.591	1068.83
460.964	1072.44
461.337	1079.68
461.71	1080.13
462.083	1134.36
462.456	1107.7
462.829	1129.17
463.201	1135.04
463.574	1137.98
463.947	1160.35
464.32	1176.4
464.692	1177.07
465.065	1170.97
465.438	1236.96
465.81	1210.52
466.183	1230.41
466.555	1249.16
466.928	1271.08
467.3	1274.02
467.672	1270.18
468.045	1300.91
468.417	1291.42
468.789	1328.93
469.161	1340.69
469.534	1355.15
469.906	1369.61
470.278	1369.16
470.65	1395.37
471.022	1419.1
471.394	1426.78
471.766	1440.57
472.138	1441.93
472.51	1479.66
472.882	1505.88
473.253	1510.4
473.625	1540.91
473.997	1556.27
474.369	1579.55
474.74	1572.09
475.112	1566.22
475.484	1634.24
475.855	1641.92
476.227	1649.38
476.598	1705.65
476.97	1698.19
477.341	1744.29
477.713	1783.61
478.084	1775.02
478.455	1818.86
478.827	1837.85
479.198	1871.07
479.569	1886.43
479.94	1931.4
480.311	1960.56
480.682	1962.14
481.053	2009.82
481.424	2036.49
481.795	2035.58
482.166	2072.19
482.537	2101.34
482.908	2157.84
483.279	2161.45
483.65	2175.92
484.021	2237.16
484.391	2255.46
484.762	2255.01
485.133	2308.57
485.503	2302.92
485.874	2368.23
486.244	2349.02
486.615	2429.47
486.985	2468.34
487.356	2490.26
487.726	2513.76
488.097	2532.52
488.467	2540.2
488.837	2577.94
489.207	2617.26
489.578	2638.28
489.948	2662.91
490.318	2687.09
490.688	2721.21
491.058	2769.12
491.428	2810.25
491.798	2809.12
492.168	2850.02
492.538	2862.9
492.908	2911.72
493.278	2936.12
493.648	2961.89
494.017	2974.31
494.387	3041.21
494.757	3013.86
495.126	3048.44
495.496	3066.06
495.866	3114.88
496.235	3121.43
496.605	3161.43
496.974	3179.28
497.344	3203.01
497.713	3219.05
498.082	3213.63
498.452	3279.39
498.821	3301.54
499.19	3301.31
499.559	3355.77
499.928	3329.11
500.298	3382.67
500.667	3405.04
501.036	3406.17
501.405	3438.94
501.774	3446.84
502.143	3464.7
502.512	3474.19
502.88	3501.98
503.249	3530.91
503.618	3517.35
503.987	3567.75
504.356	3609.78
504.724	3606.39
505.093	3636.9
505.462	3664.01
505.83	3671.7
506.199	3696.78
506.567	3757.8
506.936	3757.12
507.304	3779.04
507.672	3798.93
508.041	3831.47
508.409	3843.67
508.777	3889.77
509.145	3889.54
509.514	3905.82
509.882	3919.37
510.25	3947.4
510.618	3983.33
510.986	4033.5
511.354	4005.7
511.722	4074.85
512.09	4084.79
512.458	4045.47
512.826	4161.4
513.193	4165.92
513.561	4164.11
513.929	4217.67
514.297	4214.96
514.664	4240.72
515.032	4266.26
515.4	4319.59
515.767	4329.53
516.135	4400.27
516.502	4373.37
516.869	4408.18
517.237	4415.63
517.604	4467.61
517.972	4452.24
518.339	4485.01
518.706	4513.26
519.073	4558.91
519.44	4587.15
519.808	4627.15
520.175	4670.09
520.542	4686.13
520.909	4694.95
521.276	4694.5
521.643	4755.06
522.009	4777.2
522.376	4793.48
522.743	4815.17
523.11	4888.84
523.477	4942.62
523.843	4949.4
524.21	5025.79
524.577	5019.68
524.943	5031.89
525.31	5076.63
525.676	5151.43
526.043	5168.16
526.409	5174.93
526.776	5269.17
527.142	5210.87
527.508	5294.93
527.874	5309.85
528.241	5331.99
528.607	5383.06
528.973	5380.8
529.339	5419.22
529.705	5458.77
530.071	5494.25
530.437	5534.02
530.803	5561.14
531.169	5531.76
531.535	5565.21
531.901	5672.32
532.267	5689.5
532.632	5664.87
532.998	5713.23
533.364	5747.12
533.73	5808.59
534.095	5808.59
534.461	5797.74
534.826	5836.61
535.192	5889.49
535.557	5943.73
535.923	5920
536.288	5949.83
536.653	5978.3
537.019	5977.85
537.384	5990.05
537.749	6095.14
538.114	6080.45
538.479	6072.76
538.845	6126.77
539.21	6132.88
539.575	6171.29
539.94	6240.9
540.305	6198.86
540.67	6227.11
541.034	6352.76
541.399	6317.96
541.764	6325.41
542.129	6378.74
542.494	6397.73
542.858	6359.31
543.223	6413.55
543.587	6466.88
543.952	6415.13
544.316	6519.98
544.681	6435.92
545.045	6515.69
545.41	6540.1
545.774	6573.32
546.138	6586.65
546.503	6637.72
546.867	6627.78
547.231	6750.26
547.595	6716.81
547.959	6791.16
548.324	6732.63
548.688	6776.7
549.052	6818.28
549.416	6821.44
549.779	6832.74
550.143	6861.22
550.507	6910.48
550.871	6919.3
551.235	6936.47
551.599	7004.26
551.962	7060.53
552.326	7024.38
552.689	7078.61
553.053	7061.89
553.417	7073.19
553.78	7136.24
554.143	7157.03
554.507	7277.7
554.87	7235.45
555.234	7331.04
555.597	7306.18
555.96	7324.93
556.323	7342.34
556.686	7333.52
557.05	7434.54
557.413	7451.03
557.776	7431.37
558.139	7555.66
558.502	7441.32
558.865	7550.01
559.228	7554.98
559.59	7593.4
559.953	7703.68
560.316	7734.87
560.679	7772.38
561.041	7813.28
561.404	7798.82
561.767	7874.98
562.129	7851.93
562.492	7946.84
562.854	7898.93
563.217	7840.4
563.579	7954.3
563.941	8046.05
564.304	8070.45
564.666	8093.73
565.028	8054.86
565.39	8081.52
565.753	8184.57
566.115	8253.5
566.477	8226.15
566.839	8281.75
567.201	8315.19
567.563	8348.18
567.925	8370.56
568.287	8380.95
568.648	8413.49
569.01	8488.29
569.372	8572.36
569.734	8520.61
570.095	8596.31
570.457	8575.52
570.819	8592.02
571.18	8646.93
571.542	8683.09
571.903	8695.29
572.265	8698.68
572.626	8675.41
572.987	8685.35
573.349	8846.7
573.71	8743.43
574.071	8805.12
574.432	8824.78
574.794	8963.08
575.155	8856.19
575.516	8873.14
575.877	8930.77
576.238	9007.6
576.599	9026.58
576.96	8998.11
577.32	8975.06
577.681	9077.88
578.042	9100.03
578.403	9123.53
578.763	9090.09
579.124	9197.65
579.485	9230.2
579.845	9129.18
580.206	9199.69
580.566	9140.71
580.927	9174.15
581.287	9169.86
581.648	9206.47
582.008	9263.19
582.368	9223.19
582.728	9271.32
583.089	9205.79
583.449	9277.2
583.809	9274.26
584.169	9259.57
584.529	9276.07
584.889	9358.1
585.249	9293.02
585.609	9211.44
585.969	9337.99
586.329	9265.67
586.688	9266.35
587.048	9316.07
587.408	9275.39
587.768	9301.83
588.127	9361.04
588.487	9314.71
588.846	9397.2
589.206	9267.26
589.565	9364.2
589.925	9377.54
590.284	9353.58
590.643	9342.06
591.003	9391.55
591.362	9358.33
591.721	9394.94
592.08	9455.27
592.44	9393.13
592.799	9415.28
593.158	9312.45
593.517	9463.86
593.876	9399.46
594.235	9417.08
594.593	9367.37
594.952	9402.17
595.311	9414.82
595.67	9440.13
596.029	9490.3
596.387	9481.49
596.746	9472.9
597.104	9504.31
597.463	9487.59
597.822	9473.58
598.18	9437.65
598.538	9507.25
598.897	9474.71
599.255	9441.49
599.613	9544.76
599.972	9528.94
600.33	9486.46
600.688	9543.41
601.046	9533.01
601.404	9537.76
601.762	9514.48
602.12	9614.14
602.478	9603.74
602.836	9580.92
603.194	9488.72
603.552	9613.91
603.91	9562.39
604.268	9584.76
604.625	9548.6
604.983	9583.18
605.341	9575.27
605.698	9573.01
606.056	9577.08
606.413	9641.71
606.771	9650.3
607.128	9597.87
607.485	9628.83
607.843	9622.95
608.2	9687.36
608.557	9702.05
608.914	9688.94
609.272	9707.7
609.629	9725.55
609.986	9731.65
610.343	9719.22
610.7	9758.99
611.057	9812.1
611.414	9734.36
611.771	9756.28
612.127	9836.51
612.484	9786.34
612.841	9853.46
613.198	9829.05
613.554	9749.05
613.911	9826.11
614.267	9831.76
614.624	9857.52
614.98	9894.58
615.337	9972.1
615.693	9890.74
616.05	9904.08
616.406	10002.15
616.762	9966
617.118	9939.78
617.475	9912.66
617.831	9922.83
618.187	9954.02
618.543	9953.79
618.899	9999.89
619.255	9940.91
619.611	9954.7
619.967	10017.97
620.323	10003.06
620.678	10037.86
621.034	9970.29
621.39	9957.18
621.746	9963.51
622.101	10116.95
622.457	9997.18
622.812	10079.21
623.168	10015.03
623.523	10038.99
623.879	10136.39
624.234	10029.95
624.589	10053.45
624.945	10052.77
625.3	10080.34
625.655	10071.98
626.01	10054.35
626.365	10100.68
626.72	10037.63
627.075	10027.91
627.43	10092.09
627.785	10064.52
628.14	10076.05
628.495	10091.64
628.85	10093.22
629.205	10039.44
629.559	10101.81
629.914	9989.27
630.269	10034.47
630.623	9962.83
630.978	10047.57
631.332	10034.92
631.687	10081.02
632.041	10054.58
632.396	10038.31
632.75	10001.7
633.104	9973.45
633.459	9902.72
633.813	9974.36
634.167	9991.31
634.521	9934.81
634.875	9954.47
635.229	9960.12
635.583	9925.54
635.937	9905.21
636.291	9926.67
636.645	9868.14
636.999	9872.89
637.352	9891.65
637.706	9881.03
638.06	9914.47
638.413	9837.41
638.767	9870.63
639.121	9851.65
639.474	9806.23
639.828	9845.55
640.181	9899.33
640.534	9859.56
640.888	9799.45
641.241	9824.08
641.594	9789.05
641.947	9836.05
642.301	9826.79
642.654	9770.29
643.007	9873.79
643.36	9756.51
643.713	9791.99
644.066	9775.72
644.419	9769.84
644.771	9706.79
645.124	9637.19
645.477	9617.3
645.83	9557.42
646.182	9565.1
646.535	9483.75
646.888	9540.7
647.24	9451.21
647.593	9512
647.945	9513.35
648.298	9447.59
648.65	9412.79
649.002	9479
649.355	9481.49
649.707	9446.23
650.059	9584.08
650.411	9607.81
650.763	9596.51
651.115	9681.03
651.467	9702.5
651.819	9725.1
652.171	9717.64
652.523	9719.9
652.875	9719.45
653.227	9686
653.578	9696.85
653.93	9726.68
654.282	9692.78
654.633	9589.06
654.985	9655.95
655.337	9686.91
655.688	9737.07
656.039	9689.39
656.391	9597.87
656.742	9623.86
657.094	9629.28
657.445	9636.96
657.796	9673.8
658.147	9695.95
658.498	9629.96
658.849	9638.55
659.2	9674.25
659.551	9721.26
659.902	9706.11
660.253	9643.97
660.604	9690.97
660.955	9650.07
661.306	9633.35
661.656	9679.45
662.007	9702.5
662.358	9667.02
662.708	9665.21
663.059	9669.96
663.409	9603.29
663.76	9585.89
664.11	9684.42
664.461	9694.14
664.811	9727.36
665.161	9695.04
665.511	9659.34
665.862	9616.85
666.212	9683.74
666.562	9669.96
666.912	9636.96
667.262	9650.52
667.612	9637.19
667.962	9678.09
668.312	9586.8
668.662	9741.82
669.011	9643.07
669.361	9652.56
669.711	9640.13
670.06	9683.74
670.41	9602.84
670.76	9606.23
671.109	9592.67
671.459	9607.81
671.808	9592.67
672.157	9676.74
672.507	9478.78
672.856	9562.16
673.205	9594.48
673.554	9641.26
673.904	9566.01
674.253	9566.68
674.602	9602.39
674.951	9388.16
675.3	9371.89
675.649	9591.32
675.998	9517.19
676.346	9513.8
676.695	9487.14
677.044	9438.78
677.393	9479.68
677.741	9534.37
678.09	9421.38
678.438	9492.34
678.787	9403.07
679.135	9503.63
679.484	9366.24
679.832	9445.33
680.181	9460.47
680.529	9481.71
680.877	9357.65
681.225	9383.19
681.573	9468.61
681.922	9341.6
682.27	9279.01
682.618	9307.26
682.966	9294.83
683.314	9317.2
683.661	9221.38
684.009	9255.51
684.357	9305
684.705	9292.34
685.053	9180.7
685.4	9258.44
685.748	9149.97
686.095	9181.38
686.443	9173.93
686.79	9140.71
687.138	9153.36
687.485	9075.85
687.832	9154.94
688.18	9109.75
688.527	9014.61
688.874	9006.47
689.221	8968.51
689.568	9034.27
689.915	8980.94
690.262	8905.68
690.609	8928.51
690.956	8887.38
691.303	8831.56
691.65	8827.04
691.997	8850.09
692.344	8794.05
692.69	8740.94
693.037	8811.22
693.383	8732.58
693.73	8733.26
694.077	8709.53
694.423	8606.71
694.769	8706.82
695.116	8678.8
695.462	8660.49
695.808	8575.52
696.155	8623.88
696.501	8531.23
696.847	8538.91
697.193	8439.93
697.539	8464.34
697.885	8416.66
698.231	8427.05
698.577	8404.91
698.923	8373.72
699.269	8355.42
699.614	8312.03
699.96	8262.54
700.306	8275.42
700.651	8238.13
700.997	8211.46
701.342	8156.33
701.688	8187.06
702.033	8238.81
702.379	8130.79
702.724	8153.16
703.069	8163.1
703.415	8067.97
703.76	8035.88
704.105	8109.77
704.45	8008.98
704.795	7996.33
705.14	7962.43
705.485	7916.56
705.83	7864.58
706.175	7948.19
706.52	7931.7
706.865	7848.76
707.209	7776.9
707.554	7822.32
707.899	7861.19
708.243	7771.02
708.588	7727.41
708.932	7703.68
709.277	7706.62
709.621	7696
709.966	7710.01
710.31	7665.94
710.654	7639.5
710.998	7641.54
711.342	7639.95
711.687	7607.19
712.031	7597.02
712.375	7560.41
712.719	7609.45
713.063	7554.98
713.407	7553.63
713.75	7526.51
714.094	7503.91
714.438	7469.34
714.782	7496.91
715.125	7451.26
715.469	7525.61
715.812	7462.56
716.156	7423.24
716.499	7426.63
716.843	7405.84
717.186	7348.89
717.53	7392.05
717.873	7439.51
718.216	7392.5
718.559	7356.57
718.902	7316.35
719.246	7380.53
719.589	7367.42
719.932	7330.58
720.275	7323.8
720.617	7329.68
720.96	7293.97
721.303	7328.1
721.646	7322.45
721.989	7250.81
722.331	7314.09
722.674	7234.09
723.016	7306.86
723.359	7239.74
723.701	7247.42
724.044	7226.63
724.386	7174.43
724.729	7355.22
725.071	7234.09
725.413	7245.39
725.755	7163.58
726.097	7190.25
726.439	7211.49
726.782	7160.87
727.124	7258.27
727.465	7192.06
727.807	7099.4
728.149	7179.4
728.491	7122.23
728.833	7103.92
729.175	7135.79
729.516	7185.73
729.858	7166.97
730.199	7156.8
730.541	7161.1
730.882	7163.13
731.224	7118.84
731.565	7129.23
731.906	7152.28
732.248	7103.47
732.589	7056.47
732.93	7128.56
733.271	7075.68
733.612	7093.3
733.953	7123.58
734.294	7028.67
734.635	7060.08
734.976	7113.19
735.317	7044.94
735.658	7123.81
735.999	7156.8
736.339	7110.48
736.68	7114.32
737.021	7140.08
737.361	7081.33
737.702	7115.22
738.042	7077.71
738.383	7068.67
738.723	7097.37
739.063	7103.92
739.404	7096.92
739.744	7073.42
740.084	7047.65
740.424	7041.55
740.764	7050.59
741.104	7046.52
741.444	7032.74
741.784	7054.89
742.124	7103.02
742.464	7063.47
742.804	7086.97
743.143	7058.95
743.483	7065.05
743.823	6938.73
744.162	6989.35
744.502	7033.19
744.841	7050.14
745.181	7047.65
745.52	6997.49
745.86	7020.99
746.199	7042.91
746.538	6982.12
746.877	7071.83
747.216	7032.74
747.556	7021.67
747.895	7006.75
748.234	6957.49
748.573	6957.03
748.911	6996.81
749.25	6995.9
749.589	7014.21
749.928	6983.02
750.267	7024.6
750.605	6929.46
750.944	6941.67
751.283	7006.98
751.621	6973.53
751.96	6958.39
752.298	6930.82
752.636	6949.58
752.975	6927.88
753.313	6922.23
753.651	6888.34
753.989	6841.56
754.327	6867.55
754.666	6869.35
755.004	6857.15
755.342	6878.17
755.679	6852.18
756.017	6846.53
756.355	6835.23
756.693	6811.28
757.031	6837.72
757.368	6828.22
757.706	6804.27
758.044	6764.05
758.381	6775.34
758.719	6739.87
759.056	6811.05
759.394	6766.53
759.731	6713.43
760.068	6685.18
760.405	6655.57
760.743	6643.14
761.08	6681.79
761.417	6690.6
761.754	6639.98
762.091	6616.03
762.428	6498.74
762.765	6599.53
763.102	6573.54
763.438	6526.31
763.775	6537.38
764.112	6497.84
764.449	6493.77
764.785	6498.74
765.122	6459.87
765.458	6432.53
765.795	6395.02
766.131	6419.2
766.467	6396.82
766.804	6383.94
767.14	6375.81
767.476	6346.88
767.812	6347.33
768.148	6350.04
768.485	6275.92
768.821	6214.91
769.157	6188.02
769.492	6240.67
769.828	6201.35
770.164	6148.47
770.5	6139.2
770.836	6221.91
771.171	6127.68
771.507	6093.33
771.842	6032.54
772.178	6082.48
772.513	6075.48
772.849	6011.52
773.184	6052.65
773.519	5988.25
773.855	5989.15
774.19	5992.54
774.525	5930.85
774.86	5939.66
775.195	5974.24
775.53	5908.7
775.865	5873
776.2	5789.38
776.535	5786.44
776.87	5869.83
777.205	5764.98
777.539	5781.92
777.874	5753.45
778.209	5694.24
778.543	5725.65
778.878	5648.59
779.212	5610.86
779.547	5632.1
779.881	5673
780.215	5647.69
780.55	5595.49
780.884	5555.72
781.218	5578.99
781.552	5602.72
781.886	5522.72
782.22	5478.66
782.554	5494.02
782.888	5456.28
783.222	5480.01
783.556	5418.77
783.889	5443.85
784.223	5379.45
784.557	5331.54
784.89	5372.22
785.224	5370.18
785.557	5319.56
785.891	5315.5
786.224	5309.39
786.558	5295.16
786.891	5236.63
787.224	5284.99
787.557	5235.05
787.891	5243.41
788.224	5163.18
788.557	5185.56
788.89	5163.41
789.223	5129.51
789.556	5132.68
789.888	5124.31
790.221	5154.82
790.554	5101.49
790.887	5085.45
791.219	5086.8
791.552	5057.88
791.884	5029.18
792.217	5040.7
792.549	5013.58
792.882	4979.69
793.214	4981.49
793.546	4967.03
793.879	4900.37
794.211	4918.22
794.543	4955.51
794.875	4894.94
795.207	4905.79
795.539	4882.96
795.871	4881.16
796.203	4846.13
796.535	4810.65
796.867	4840.71
797.198	4793.93
797.53	4794.15
797.862	4744.44
798.193	4772.46
798.525	4747.38
798.856	4763.65
799.188	4700.82
799.519	4701.5
799.85	4656.76
800.182	4646.13
800.513	4616.98
800.844	4601.16
801.175	4637.55
801.506	4653.59
801.837	4657.43
802.168	4604.78
802.499	4567.04
802.83	4526.82
803.161	4581.05
803.491	4534.73
803.822	4513.03
804.153	4546.7
804.483	4541.73
804.814	4454.05
805.145	4475.97
805.475	4435.97
805.805	4452.69
806.136	4470.77
806.466	4494.73
806.796	4416.99
807.126	4476.2
807.457	4419.47
807.787	4408.18
808.117	4420.83
808.447	4372.02
808.777	4402.75
809.107	4343.77
809.436	4355.97
809.766	4326.6
810.096	4303.77
810.426	4320.27
810.755	4278.23
811.085	4314.39
811.414	4271.68
811.744	4241.63
812.073	4237.56
812.403	4248.86
812.732	4236.43
813.061	4226.48
813.39	4204.56
813.719	4209.76
814.049	4199.37
814.378	4161.85
814.707	4173.38
815.036	4177.9
815.365	4119.14
815.693	4148.29
816.022	4143.78
816.351	4143.1
816.68	4113.27
817.008	4123.21
817.337	4040.95
817.665	4094.51
817.994	4070.56
818.322	4085.25
818.651	4025.13
818.979	4055.64
819.307	4066.04
819.636	4021.97
819.964	4050.9
820.292	4049.99
820.62	4032.14
820.948	4011.35
821.276	3984.23
821.604	4032.82
821.932	4068.97
822.259	4019.71
822.587	3979.03
822.915	3962.31
823.243	4057.68
823.57	4024.91
823.898	4000.28
824.225	3971.8
824.553	3985.59
824.88	3984.91
825.207	3997.11
825.535	4002.31
825.862	4015.19
826.189	4013.16
826.516	4021.97
826.843	4009.99
827.17	4020.16
827.497	4012.03
827.824	4038.24
828.151	4018.35
828.478	4026.94
828.805	4032.37
829.131	4015.19
829.458	3989.43
829.785	3972.03
830.111	4006.38
830.438	4041.63
830.764	4013.84
831.09	4009.09
831.417	3951.69
831.743	4025.36
832.069	3979.26
832.395	3990.56
832.722	4018.13
833.048	3944.91
833.374	4028.3
833.7	4009.77
834.026	3959.15
834.351	3952.82
834.677	3980.62
835.003	3977.23
835.329	3980.62
835.654	3991.01
835.98	3948.98
836.306	3941.75
836.631	3930
836.956	3987.62
837.282	3946.94
837.607	3920.73
837.932	3921.63
838.258	3920.05
838.583	3877.57
838.908	3906.27
839.233	3930
839.558	3901.52
839.883	3892.48
840.208	3850.9
840.533	3881.41
840.858	3876.89
841.182	3857
841.507	3832.37
841.832	3851.58
842.156	3832.37
842.481	3849.32
842.805	3807.96
843.13	3784.24
843.454	3836.44
843.778	3782.2
844.103	3803.67
844.427	3815.87
844.751	3801.86
845.075	3772.71
845.399	3776.1
845.723	3736.33
846.047	3763.67
846.371	3724.35
846.695	3768.19
847.019	3725.93
847.343	3720.28
847.666	3669.44
847.99	3647.74
848.313	3644.58
848.637	3608.42
848.96	3603.22
849.284	3606.16
849.607	3618.82
849.931	3607.07
850.254	3560.06
850.577	3512.61
850.9	3495.2
851.223	3510.57
851.546	3508.54
851.869	3450.23
852.192	3542.89
852.515	3516.9
852.838	3460.86
853.161	3448.2
853.483	3441.65
853.806	3467.41
854.129	3363.91
854.451	3432.38
854.774	3406.39
855.096	3431.03
855.419	3384.25
855.741	3399.84
856.063	3371.59
856.385	3378.15
856.708	3369.56
857.03	3350.35
857.352	3349.22
857.674	3345.15
857.996	3309.22
858.318	3303.35
858.64	3297.7
858.961	3256.79
859.283	3276.23
859.605	3239.17
859.926	3238.71
860.248	3281.2
860.57	3215.66
860.891	3254.08
861.212	3237.36
861.534	3224.25
861.855	3219.96
862.176	3229.22
862.498	3197.59
862.819	3204.36
863.14	3210.69
863.461	3212.5
863.782	3200.07
864.103	3194.2
864.424	3163.01
864.745	3171.6
865.065	3172.05
865.386	3193.97
865.707	3172.5
866.027	3165.72
866.348	3157.59
866.668	3189.9
866.989	3158.94
867.309	3127.76
867.63	3167.08
867.95	3144.48
868.27	3106.06
868.59	3128.66
868.91	3105.84
869.23	3126.85
869.55	3108.32
869.87	3083.24
870.19	3094.31
870.51	3103.35
870.83	3093.63
871.15	3084.59
871.469	3083.24
871.789	3062.67
872.109	3078.04
872.428	3129.79
872.748	3084.37
873.067	3064.48
873.386	3057.48
873.706	3045.27
874.025	3029.23
874.344	3040.08
874.663	3051.6
874.982	3033.75
875.301	3070.36
875.62	2990.36
875.939	2999.62
876.258	3013.86
876.577	2984.48
876.896	2975.9
877.214	3007.99
877.533	2985.84
877.852	2989.46
878.17	2999.17
878.489	2995.56
878.807	2979.29
879.125	2973.41
879.444	2974.99
879.762	2951.94
880.08	2945.61
880.398	2943.81
880.716	2971.15
881.034	2941.09
881.352	2927.76
881.67	2906.75
881.988	2948.33
882.306	2919.85
882.624	2938.16
882.941	2938.61
883.259	2890.02
883.577	2896.8
883.894	2889.8
884.212	2901.32
884.529	2939.29
884.846	2877.37
885.164	2911.94
885.481	2879.4
885.798	2855.9
886.115	2856.58
886.432	2867.65
886.75	2840.53
887.067	2818.84
887.383	2830.82
887.7	2860.42
888.017	2838.05
888.334	2815.22
888.651	2840.53
888.967	2803.7
889.284	2816.58
889.6	2795.79
889.917	2774.55
890.233	2782
890.55	2768.22
890.866	2759.86
891.182	2787.43
891.498	2750.37
891.815	2763.25
892.131	2728.45
892.447	2723.93
892.763	2743.81
893.079	2755.56
893.395	2733.64
893.71	2712.85
894.026	2732.51
894.342	2692.74
894.657	2656.81
894.973	2710.37
895.289	2638.05
895.604	2633.76
895.92	2650.03
896.235	2603.48
896.55	2635.11
896.865	2631.27
897.181	2648.45
897.496	2655.9
897.811	2633.08
898.126	2619.75
898.441	2615.45
898.756	2593.31
899.071	2558.96
899.386	2604.61
899.7	2586.75
900.015	2530.26
900.33	2542.24
900.644	2521.45
900.959	2544.27
901.273	2502.46
901.588	2506.3
901.902	2502.69
902.216	2467.89
902.531	2525.29
902.845	2469.47
903.159	2458.62
903.473	2459.3
903.787	2454.55
904.101	2456.36
904.415	2438.51
904.729	2457.94
905.042	2407.55
905.356	2415.69
905.67	2410.94
905.984	2417.94
906.297	2401.9
906.611	2383.6
906.924	2396.25
907.237	2350.83
907.551	2396.25
907.864	2339.08
908.177	2349.92
908.491	2316.25
908.804	2337.72
909.117	2282.81
909.43	2294.78
909.743	2292.75
910.056	2291.85
910.368	2285.29
910.681	2272.64
910.994	2280.77
911.307	2287.55
911.619	2231.74
911.932	2246.42
912.244	2248.01
912.557	2237.38
912.869	2201.23
913.181	2198.74
913.494	2201.45
913.806	2215.24
914.118	2225.63
914.43	2171.85
914.742	2184.73
915.054	2165.97
915.366	2186.76
915.678	2158.74
915.99	2179.31
916.302	2112.42
916.613	2148.12
916.925	2135.69
917.236	2112.64
917.548	2106.09
917.859	2099.31
918.171	2076.03
918.482	2096.6
918.794	2110.38
919.105	2071.29
919.416	2065.41
919.727	2034
920.038	2077.39
920.349	2048.69
920.66	2059.76
920.971	2005.75
921.282	2036.49
921.593	2033.32
921.903	1995.58
922.214	1997.84
922.525	1977.28
922.835	1986.32
923.146	2002.14
923.456	1961.01
923.767	1931.63
924.077	1961.01
924.387	1941.35
924.697	1963.72
925.008	1950.39
925.318	1935.92
925.628	1942.03
925.938	1937.51
926.248	1918.75
926.558	1903.38
926.867	1932.08
927.177	1877.62
927.487	1878.52
927.796	1893.21
928.106	1883.04
928.416	1875.13
928.725	1892.31
929.034	1838.53
929.344	1853.67
929.653	1852.99
929.962	1826.32
930.271	1813.44
930.581	1826.1
930.89	1838.75
931.199	1813.22
931.508	1778.64
931.817	1799.2
932.125	1757.4
932.434	1765.08
932.743	1769.37
933.051	1750.17
933.36	1761.24
933.669	1760.11
933.977	1741.13
934.286	1743.84
934.594	1728.92
934.902	1711.3
935.21	1725.53
935.519	1737.51
935.827	1704.74
936.135	1706.55
936.443	1658.42
936.751	1672.43
937.059	1702.71
937.367	1683.05
937.674	1666.78
937.982	1654.58
938.29	1663.84
938.597	1670.85
938.905	1639.21
939.213	1631.75
939.52	1670.62
939.827	1633.11
940.135	1632.43
940.442	1644.18
940.749	1649.83
941.056	1593.56
941.363	1615.93
941.67	1601.02
941.977	1585.42
942.284	1616.38
942.591	1572.77
942.898	1546.33
943.205	1591.53
943.511	1556.05
943.818	1587.68
944.125	1586.78
944.431	1551.08
944.738	1512.66
945.044	1540.68
945.35	1544.97
945.657	1528.25
945.963	1512.88
946.269	1504.07
946.575	1513.56
946.881	1512.66
947.187	1479.66
947.493	1509.72
947.799	1495.71
948.105	1473.34
948.41	1482.6
948.716	1482.15
949.022	1482.6
949.327	1450.29
949.633	1447.12
949.938	1457.74
950.244	1455.03
950.549	1427.24
950.854	1435.82
951.16	1463.62
951.465	1438.76
951.77	1438.76
952.075	1414.58
952.38	1408.25
952.685	1420.46
952.99	1415.49
953.294	1394.24
953.599	1403.28
953.904	1379.55
954.209	1382.94
954.513	1384.75
954.818	1364.64
955.122	1386.33
955.426	1369.61
955.731	1377.97
956.035	1371.64
956.339	1355.37
956.643	1347.46
956.948	1352.66
957.252	1347.92
957.556	1346.79
957.86	1345.2
958.163	1328.71
958.467	1315.15
958.771	1334.13
959.075	1302.95
959.378	1286.22
959.682	1300.91
959.985	1308.6
960.289	1294.13
960.592	1283.51
960.896	1304.08
961.199	1274.7
961.502	1308.6
961.805	1283.96
962.108	1273.57
962.411	1259.56
962.714	1250.07
963.017	1263.17
963.32	1263.62
963.623	1261.59
963.926	1248.26
964.228	1226.11
964.531	1240.57
964.833	1234.25
965.136	1231.31
965.438	1207.13
965.741	1220.91
966.043	1226.34
966.345	1220.69
966.648	1215.26
966.95	1234.25
967.252	1213.46
967.554	1202.38
967.856	1200.58
968.158	1183.63
968.46	1165.55
968.761	1177.75
969.063	1167.81
969.365	1161.71
969.666	1164.42
969.968	1181.14
970.269	1180.46
970.571	1142.27
970.872	1151.31
971.174	1148.37
971.475	1133.23
971.776	1137.07
972.077	1135.49
972.378	1117.64
972.679	1152.22
972.98	1128.71
973.281	1127.13
973.582	1110.41
973.883	1116.96
974.183	1112.67
974.484	1105.89
974.785	1098.43
975.085	1096.4
975.386	1111.31
975.686	1116.06
975.986	1101.37
976.287	1072.9
976.587	1045.78
976.887	1081.93
977.187	1060.92
977.487	1080.35
977.787	1056.85
978.087	1063.63
978.387	1058.43
978.687	1062.05
978.987	1038.55
979.286	1039
979.586	1038.32
979.885	1031.54
980.185	1040.35
980.484	1032.9
980.784	1042.84
981.083	1033.8
981.382	1035.16
981.682	1012.56
981.981	994.03
982.28	994.48
982.579	1019.79
982.878	1019.34
983.177	988.83
983.475	989.06
983.774	991.54
984.073	995.61
984.372	999.68
984.67	991.77
984.969	999.23
985.267	982.5
985.566	958.1
985.864	956.51
986.162	983.41
986.461	968.04
986.759	969.17
987.057	970.98
987.355	942.96
987.653	968.94
987.951	953.35
988.249	945.67
988.547	959.23
988.844	945.67
989.142	937.53
989.44	934.37
989.737	933.24
990.035	931.2
990.332	921.04
990.63	932.56
990.927	912.9
991.224	902.5
991.521	905.44
991.819	912.22
992.116	909.74
992.413	907.02
992.71	918.1
993.006	901.37
993.303	880.13
993.6	847.36
993.897	894.37
994.193	905.67
994.49	867.48
994.787	861.6
995.083	879.45
995.379	872
995.676	852.11
995.972	885.1
996.268	879
996.565	864.31
996.861	854.14
997.157	854.6
997.453	862.28
997.749	850.75
998.044	836.29
998.34	831.09
998.636	823.64
998.932	848.72
999.227	847.14
999.523	822.96
999.818	840.13
1000.114	836.52
1000.409	815.73
1000.704	823.86
1001	798.1
1001.295	820.25
1001.59	804.2
1001.885	802.85
1002.18	816.86
1002.475	786.35
1002.77	823.86
1003.065	787.03
1003.359	800.81
1003.654	788.38
1003.949	795.39
1004.243	785.45
1004.538	799
1004.832	754.94
1005.127	784.32
1005.421	781.83
1005.715	768.72
1006.009	746.12
1006.304	750.87
1006.598	736.18
1006.892	744.54
1007.186	739.12
1007.48	749.06
1007.773	753.13
1008.067	712.23
1008.361	724.43
1008.655	717.65
1008.948	742.96
1009.242	730.76
1009.535	721.04
1009.829	734.15
1010.122	719.46
1010.415	714.49
1010.708	709.74
1011.001	717.2
1011.295	705
1011.588	737.54
1011.881	687.59
1012.173	710.87
1012.466	709.97
1012.759	700.48
1013.052	683.53
1013.344	693.7
1013.637	697.09
1013.93	678.33
1014.222	705.22
1014.514	697.76
1014.807	687.82
1015.099	669.74
1015.391	666.8
1015.683	655.96
1015.976	662.51
1016.268	665.67
1016.56	644.21
1016.851	658.9
1017.143	662.74
1017.435	650.53
1017.727	646.01
1018.018	623.19
1018.31	653.47
1018.602	668.16
1018.893	635.62
1019.185	629.07
1019.476	634.94
1019.767	632
1020.058	628.61
1020.35	653.02
1020.641	644.43
1020.932	626.35
1021.223	631.55
1021.514	629.52
1021.804	602.4
1022.095	583.42
1022.386	589.52
1022.677	606.47
1022.967	605.79
1023.258	587.71
1023.548	618.67
1023.839	626.13
1024.129	606.47
1024.419	605.56
1024.709	600.14
1025	593.13
1025.29	565.34
1025.58	576.41
1025.87	577.09
1026.16	583.19
1026.449	592.68
1026.739	565.56
1027.029	573.93
1027.319	567.82
1027.608	585.68
1027.898	532.57
1028.187	556.98
1028.477	574.83
1028.766	572.57
1029.055	579.12
1029.344	540.93
1029.634	565.56
1029.923	555.62
1030.212	549.29
1030.501	555.4
1030.79	538.9
1031.078	551.33
1031.367	535.06
1031.656	550.2
1031.945	556.75
1032.233	544.1
1032.522	533.7
1032.81	507.71
1033.099	526.47
1033.387	545
1033.675	512.68
1033.963	509.75
1034.251	530.99
1034.54	522.18
1034.828	513.14
1035.116	533.7
1035.403	511.33
1035.691	517.66
1035.979	509.29
1036.267	523.08
1036.554	495.74
1036.842	504.77
1037.129	501.84
1037.417	492.57
1037.704	519.01
1037.992	491.89
1038.279	496.87
1038.566	484.66
1038.853	484.66
1039.14	484.66
