Data from mousepad_grey_FLMS001491_00040.txt Node
Date: Wed Feb 08 14:29:22 GMT 2017
User: dcchb
Spectrometer: FLMS00149
Trigger mode: 0
Integration Time (sec): 2.000000E-2
Scans to average: 10
Electric dark correction enabled: true
Nonlinearity correction enabled: false
Boxcar width: 0
XAxis mode: Wavelengths
Number of Pixels in Spectrum: 2048
>>>>>Begin Spectral Data<<<<<
341.393	-22.54
341.776	-22.54
342.16	-22.54
342.543	-71.13
342.927	-46.5
343.31	-82.43
343.693	-62.99
344.077	-58.25
344.46	-55.54
344.843	-65.25
345.226	-54.18
345.61	-34.29
345.993	-29.55
346.376	0.73
346.759	15.88
347.142	30.79
347.525	37.12
347.908	73.95
348.291	75.08
348.674	90
349.057	118.92
349.44	103.1
349.823	150.79
350.206	160.5
350.588	194.18
350.971	196.66
351.354	210.67
351.737	232.37
352.119	244.34
352.502	230.78
352.884	264
353.267	252.03
353.65	276.43
354.032	279.6
354.414	293.16
354.797	291.12
355.179	296.77
355.562	315.53
355.944	334.06
356.326	306.94
356.709	314.85
357.091	312.59
357.473	326.83
357.855	323.44
358.238	313.27
358.62	316.21
359.002	329.54
359.384	324.12
359.766	316.21
360.148	300.16
360.53	305.59
360.912	323.21
361.294	309.88
361.676	302.65
362.057	318.92
362.439	315.08
362.821	313.04
363.203	327.73
363.584	309.88
363.966	329.54
364.348	299.94
364.729	298.81
365.111	305.13
365.493	294.29
365.874	283.21
366.256	281.41
366.637	288.86
367.019	300.16
367.4	304.23
367.781	294.06
368.163	306.72
368.544	270.56
368.925	291.35
369.306	292.03
369.688	288.41
370.069	299.26
370.45	288.41
370.831	272.59
371.212	285.92
371.593	291.57
371.974	295.64
372.355	290.22
372.736	303.78
373.117	314.17
373.498	295.87
373.879	310.56
374.26	297
374.641	300.61
375.021	293.61
375.402	298.35
375.783	282.99
376.163	308.3
376.544	301.52
376.925	285.25
377.305	310.33
377.686	306.49
378.066	309.2
378.447	311.91
378.827	327.05
379.208	314.85
379.588	306.94
379.968	311.69
380.349	304
380.729	306.04
381.109	289.09
381.489	300.39
381.87	304.68
382.25	299.94
382.63	314.85
383.01	315.53
383.39	304.68
383.77	294.06
384.15	355.98
384.53	323.66
384.91	315.75
385.29	351.01
385.67	327.28
386.049	321.63
386.429	323.44
386.809	315.08
387.189	316.43
387.568	325.47
387.948	334.74
388.328	331.12
388.707	335.19
389.087	327.05
389.466	328.86
389.846	343.78
390.225	331.12
390.605	321.18
390.984	337.9
391.363	346.04
391.743	350.78
392.122	351.91
392.501	359.37
392.881	368.63
393.26	319.82
393.639	341.52
394.018	331.12
394.397	355.53
394.776	352.82
395.155	337.9
395.534	343.1
395.913	344.45
396.292	352.59
396.671	365.24
397.05	357.56
397.429	368.63
397.808	371.35
398.186	341.97
398.565	371.35
398.944	360.05
399.323	354.62
399.701	391.68
400.08	382.42
400.458	371.8
400.837	366.15
401.215	368.41
401.594	386.71
401.972	381.06
402.351	373.61
402.729	402.53
403.107	376.77
403.486	392.59
403.864	393.27
404.242	375.64
404.62	388.29
404.999	378.13
405.377	397.11
405.755	391.91
406.133	392.36
406.511	407.28
406.889	399.82
407.267	422.42
407.645	409.76
408.023	416.54
408.401	431.23
408.779	420.61
409.156	419.03
409.534	415.19
409.912	434.62
410.29	430.55
410.667	407.73
411.045	440.04
411.422	424.9
411.8	426.49
412.178	453.38
412.555	429.88
412.933	444.34
413.31	443.43
413.687	455.19
414.065	464.9
414.442	456.09
414.819	466.48
415.197	466.03
415.574	469.65
415.951	477.78
416.328	456.77
416.705	464.68
417.082	467.61
417.46	489.08
417.837	487.73
418.214	512.36
418.591	497.22
418.967	487.73
419.344	488.86
419.721	485.02
420.098	499.48
420.475	520.27
420.852	507.39
421.228	531.57
421.605	518.69
421.982	498.35
422.358	529.76
422.735	538.12
423.111	520.04
423.488	541.51
423.864	533.6
424.241	540.83
424.617	536.09
424.994	538.57
425.37	529.76
425.746	567.73
426.123	571.11
426.499	572.47
426.875	553.94
427.251	572.47
427.627	553.04
428.003	576.54
428.379	575.18
428.756	598.01
429.132	593.49
429.507	590.1
429.883	589.87
430.259	600.94
430.635	581.06
431.011	591.91
431.387	606.82
431.763	640.27
432.138	633.49
432.514	622.64
432.89	637.1
433.265	638.91
433.641	638.68
434.016	633.94
434.392	650.66
434.767	635.07
435.143	679.36
435.518	677.33
435.894	647.05
436.269	704.44
436.644	686.82
437.02	659.93
437.395	681.62
437.77	722.98
438.145	690.43
438.52	708.29
438.895	736.08
439.271	701.96
439.646	741.05
440.021	736.08
440.395	722.07
440.77	717.1
441.145	723.43
441.52	734.27
441.895	745.35
442.27	761.39
442.645	771.79
443.019	756.87
443.394	767.49
443.769	751.45
444.143	786.02
444.518	781.5
444.892	784.44
445.267	782.41
445.641	787.83
446.016	814.72
446.39	790.54
446.764	804.33
447.139	783.99
447.513	819.92
447.887	803.65
448.262	815.63
448.636	805.91
449.01	821.96
449.384	839.58
449.758	834.61
450.132	846.59
450.506	872.58
450.88	889.3
451.254	856.53
451.628	855.63
452.002	870.77
452.376	872.8
452.75	879.81
453.123	905.12
453.497	906.47
453.871	934.04
454.244	914.16
454.618	920.94
454.992	953.7
455.365	946.25
455.739	955.74
456.112	946.02
456.486	949.86
456.859	972.01
457.232	976.75
457.606	990.09
457.979	1006.58
458.352	987.6
458.725	1014.49
459.099	1025.34
459.472	1023.53
459.845	1051.78
460.218	1066.47
460.591	1072.8
460.964	1075.73
461.337	1099.46
461.71	1082.97
462.083	1118.45
462.456	1113.02
462.829	1101.27
463.201	1133.59
463.574	1146.47
463.947	1150.53
464.32	1175.84
464.692	1189.4
465.065	1197.99
465.438	1194.83
465.81	1230.98
466.183	1247.03
466.555	1261.72
466.928	1241.83
467.3	1266.01
467.672	1281.38
468.045	1297.65
468.417	1306.46
468.789	1301.04
469.161	1321.38
469.534	1329.51
469.906	1348.72
470.278	1351.43
470.65	1409.96
471.022	1410.19
471.394	1444.54
471.766	1458.32
472.138	1452
472.51	1486.57
472.882	1467.36
473.253	1510.3
473.625	1548.72
473.997	1519.79
474.369	1570.64
474.74	1588.94
475.112	1582.61
475.484	1607.47
475.855	1634.36
476.227	1669.62
476.598	1679.11
476.97	1713.01
477.341	1735.15
477.713	1756.17
478.084	1790.29
478.455	1842.27
478.827	1853.79
479.198	1889.95
479.569	1899.44
479.94	1925.2
480.311	1938.08
480.682	1954.58
481.053	2011.53
481.424	2039.55
481.795	2017.18
482.166	2091.53
482.537	2056.95
482.908	2134.92
483.279	2191.41
483.65	2179.89
484.021	2228.7
484.391	2262.14
484.762	2283.39
485.133	2306.66
485.503	2309.83
485.874	2366.55
486.244	2404.29
486.615	2399.77
486.985	2432.31
487.356	2477.73
487.726	2518.41
488.097	2517.73
488.467	2540.55
488.837	2618.07
489.207	2634.34
489.578	2657.16
489.948	2669.82
490.318	2736.93
490.688	2690.16
491.058	2755.69
491.428	2788.91
491.798	2844.05
492.168	2884.95
492.538	2884.05
492.908	2886.99
493.278	2930.15
493.648	2913.43
494.017	2992.29
494.387	3013.99
494.757	3048.79
495.126	3082.01
495.496	3047.66
495.866	3115.45
496.235	3126.53
496.605	3132.4
496.974	3198.16
497.344	3207.43
497.713	3229.58
498.082	3224.83
498.452	3290.59
498.821	3268.45
499.19	3284.72
499.559	3334.43
499.928	3381.21
500.298	3390.48
500.667	3375.33
501.036	3413.53
501.405	3458.27
501.774	3424.37
502.143	3451.94
502.512	3491.94
502.88	3521.77
503.249	3537.14
503.618	3535.78
503.987	3561.09
504.356	3580.98
504.724	3650.58
505.093	3680.19
505.462	3625.5
505.83	3689.23
506.199	3708.66
506.567	3769.22
506.936	3701.88
507.304	3777.58
507.672	3788.21
508.041	3805.15
508.409	3837.47
508.777	3881.08
509.145	3891.03
509.514	3878.6
509.882	3954.75
510.25	3939.61
510.618	3977.35
510.986	3990.91
511.354	4008.99
511.722	4078.37
512.09	4115.88
512.458	4111.81
512.826	4128.08
513.193	4155.88
513.561	4197.01
513.929	4169.89
514.297	4227.52
514.664	4272.26
515.032	4285.82
515.4	4317.23
515.767	4338.7
516.135	4380.05
516.502	4355.2
516.869	4430.67
517.237	4463.89
517.604	4424.12
517.972	4469.32
518.339	4562.2
518.706	4551.8
519.073	4547.96
519.44	4571.24
519.808	4619.6
520.175	4607.39
520.542	4674.74
520.909	4698.46
521.276	4686.49
521.643	4714.06
522.009	4742.08
522.376	4826.14
522.743	4841.51
523.11	4847.39
523.477	4953.6
523.843	4977.78
524.21	5024.11
524.577	5024.78
524.943	5075.63
525.31	5087.38
525.676	5167.38
526.043	5191.33
526.409	5207.6
526.776	5222.52
527.142	5272.01
527.508	5284.66
527.874	5271.1
528.241	5325.11
528.607	5337.09
528.973	5415.51
529.339	5466.35
529.705	5446.92
530.071	5487.37
530.437	5524.66
530.803	5574.37
531.169	5570.31
531.535	5633.58
531.901	5603.52
532.267	5637.2
532.632	5698.89
532.998	5682.17
533.364	5767.81
533.73	5738.21
534.095	5762.39
534.461	5796.74
534.826	5862.73
535.192	5889.17
535.557	5980.92
535.923	5877.42
536.288	5979.56
536.653	6019.56
537.019	5990.41
537.384	6001.25
537.749	6085.55
538.114	6032.21
538.479	6118.99
538.845	6149.73
539.21	6106.11
539.575	6165.09
539.94	6152.21
540.305	6187.69
540.67	6235.82
541.034	6275.37
541.399	6278.08
541.764	6334.58
542.129	6359.21
542.494	6375.71
542.858	6393.11
543.223	6395.82
543.587	6451.86
543.952	6443.73
544.316	6535.7
544.681	6471.3
545.045	6587.68
545.41	6531.18
545.774	6611.18
546.138	6609.15
546.503	6653.89
546.867	6660.9
547.231	6714.46
547.595	6715.59
547.959	6770.95
548.324	6762.36
548.688	6810.27
549.052	6849.59
549.416	6861.57
549.779	6888.46
550.143	6894.34
550.507	6888.24
550.871	6980.66
551.235	6893.21
551.599	7038.97
551.962	6976.37
552.326	7019.98
552.689	7049.59
553.053	7103.15
553.417	7107.89
553.78	7205.29
554.143	7161.45
554.507	7281.67
554.87	7254.33
555.234	7355.57
555.597	7271.28
555.96	7372.07
556.323	7331.62
556.686	7332.29
557.05	7445.51
557.413	7456.13
557.776	7456.81
558.139	7532.29
558.502	7466.75
558.865	7492.97
559.228	7603.02
559.59	7620.65
559.953	7609.8
560.316	7738.16
560.679	7706.07
561.041	7777.48
561.404	7799.17
561.767	7843.92
562.129	7821.55
562.492	7912.62
562.854	7938.83
563.217	7907.19
563.579	7971.15
563.941	7986.74
564.304	8091.37
564.666	8093.18
565.028	8106.51
565.39	8120.07
565.753	8222.21
566.115	8214.76
566.477	8248.88
566.839	8274.42
567.201	8317.58
567.563	8343.79
567.925	8343.34
568.287	8383.34
568.648	8432.6
569.01	8471.02
569.372	8500.4
569.734	8495.43
570.095	8549.89
570.457	8594.41
570.819	8618.36
571.18	8646.61
571.542	8608.64
571.903	8609.32
572.265	8699.49
572.626	8716.44
572.987	8780.62
573.349	8804.8
573.71	8793.95
574.071	8777.23
574.432	8894.51
574.794	8959.82
575.155	8941.29
575.516	8905.36
575.877	8897.9
576.238	8926.83
576.599	9049.31
576.96	8941.74
577.32	8984
577.681	9087.05
578.042	9036.66
578.403	9060.38
578.763	9101.06
579.124	9166.14
579.485	9227.38
579.845	9184.22
580.206	9193.71
580.566	9203.43
580.927	9210.44
581.287	9266.03
581.648	9225.12
582.008	9283.43
582.368	9219.25
582.728	9337.44
583.089	9250.66
583.449	9282.75
583.809	9280.04
584.169	9260.15
584.529	9287.5
584.889	9275.07
585.249	9269.87
585.609	9275.29
585.969	9279.13
586.329	9329.75
586.688	9327.95
587.048	9329.98
587.408	9306.03
587.768	9355.06
588.127	9317.1
588.487	9334.73
588.846	9346.93
589.206	9316.2
589.565	9324.78
589.925	9325.91
590.284	9372.01
590.643	9386.02
591.003	9343.99
591.362	9373.37
591.721	9396.19
592.08	9348.74
592.44	9456.08
592.799	9460.82
593.158	9382.41
593.517	9390.77
593.876	9430.99
594.235	9437.55
594.593	9468.28
594.952	9384.22
595.311	9348.96
595.67	9362.75
596.029	9485.46
596.387	9433.93
596.746	9485.23
597.104	9373.6
597.463	9477.1
597.822	9473.25
598.18	9490.88
598.538	9484.1
598.897	9559.81
599.255	9422.86
599.613	9561.84
599.972	9550.09
600.33	9551.67
600.688	9457.66
601.046	9503.08
601.404	9498.56
601.762	9509.18
602.12	9571.56
602.478	9604.78
602.836	9562.29
603.194	9555.74
603.552	9576.75
603.91	9529.98
604.268	9550.31
604.625	9567.49
604.983	9568.62
605.341	9566.81
605.698	9580.82
606.056	9631.89
606.413	9650.42
606.771	9656.3
607.128	9677.99
607.485	9666.92
607.843	9593.48
608.2	9663.31
608.557	9704.21
608.914	9666.02
609.272	9698.78
609.629	9760.48
609.986	9788.27
610.343	9701.27
610.7	9791.89
611.057	9815.62
611.414	9758.22
611.771	9777.88
612.127	9817.88
612.484	9835.28
612.841	9837.54
613.198	9831.21
613.554	9750.76
613.911	9902.85
614.267	9826.46
614.624	9825.56
614.98	9871.66
615.337	9884.99
615.693	9898.78
616.05	9903.98
616.406	9900.81
616.762	9901.27
617.118	9923.86
617.475	10002.51
617.831	9952.79
618.187	9966.35
618.543	10033.69
618.899	9957.76
619.255	9929.96
619.611	10003.18
619.967	10059.23
620.323	9980.81
620.678	10000.47
621.034	9975.39
621.39	9987.36
621.746	9992.56
622.101	10142.61
622.457	9985.78
622.812	10075.95
623.168	10041.83
623.523	10084.54
623.879	10087.47
624.234	10055.61
624.589	10052.67
624.945	10065.55
625.3	10056.52
625.655	10056.52
626.01	10047.02
626.365	10086.34
626.72	10110.75
627.075	10029.62
627.43	9972.22
627.785	10018.78
628.14	10086.57
628.495	10072.33
628.85	10059.45
629.205	10028.27
629.559	10046.35
629.914	10084.09
630.269	10050.87
630.623	10032.34
630.978	9998.21
631.332	10044.09
631.687	10043.63
632.041	10026.01
632.396	10012
632.75	9956.4
633.104	9984.65
633.459	9931.09
633.813	10003.18
634.167	10009.51
634.521	10002.73
634.875	9927.93
635.229	9975.84
635.583	9869.63
635.937	9891.1
636.291	9930.64
636.645	9914.15
636.999	9901.04
637.352	9867.37
637.706	9860.14
638.06	9914.6
638.413	9874.37
638.767	9828.72
639.121	9856.75
639.474	9759.57
639.828	9832.11
640.181	9861.72
640.534	9820.59
640.888	9781.04
641.241	9728.84
641.594	9836.18
641.947	9816.07
642.301	9805.45
642.654	9767.03
643.007	9854.26
643.36	9814.94
643.713	9739.91
644.066	9863.07
644.419	9742.17
644.771	9677.32
645.124	9671.89
645.477	9658.56
645.83	9518.22
646.182	9602.97
646.535	9496.76
646.888	9483.87
647.24	9480.26
647.593	9535.17
647.945	9520.94
648.298	9475.74
648.65	9446.81
649.002	9452.24
649.355	9499.92
649.707	9488.62
650.059	9526.59
650.411	9620.82
650.763	9605.23
651.115	9708.95
651.467	9693.59
651.819	9704.66
652.171	9704.89
652.523	9659.92
652.875	9665.57
653.227	9708.05
653.578	9746.47
653.93	9708.73
654.282	9665.57
654.633	9599.13
654.985	9682.97
655.337	9666.92
655.688	9590.09
656.039	9757.77
656.391	9578.11
656.742	9635.74
657.094	9651.78
657.445	9637.77
657.796	9668.95
658.147	9639.58
658.498	9697.2
658.849	9719.57
659.2	9648.39
659.551	9661.05
659.902	9678.22
660.253	9705.56
660.604	9647.71
660.955	9654.27
661.306	9691.1
661.656	9654.04
662.007	9647.03
662.358	9659.69
662.708	9640.71
663.059	9622.63
663.409	9636.64
663.76	9645.45
664.11	9635.51
664.461	9696.3
664.811	9693.36
665.161	9686.36
665.511	9619.69
665.862	9590.99
666.212	9705.11
666.562	9608.17
666.912	9657.2
667.262	9655.17
667.612	9613.82
667.962	9656.75
668.312	9649.52
668.662	9687.26
669.011	9685.9
669.361	9652.01
669.711	9629.41
670.06	9618.33
670.41	9631.44
670.76	9553.93
671.109	9615.85
671.459	9583.08
671.808	9602.97
672.157	9594.15
672.507	9536.3
672.856	9553.7
673.205	9603.87
673.554	9597.54
673.904	9535.62
674.253	9635.06
674.602	9525.68
674.951	9424.44
675.3	9394.61
675.649	9506.93
675.998	9578.11
676.346	9498.56
676.695	9496.76
677.044	9449.75
677.393	9592.8
677.741	9478.68
678.09	9441.16
678.438	9449.98
678.787	9493.14
679.135	9454.95
679.484	9420.83
679.832	9478.45
680.181	9383.31
680.529	9455.4
680.877	9384.67
681.225	9435.29
681.573	9485.23
681.922	9412.01
682.27	9366.82
682.618	9341.51
682.966	9302.64
683.314	9346.7
683.661	9262.41
684.009	9242.53
684.357	9308.74
684.705	9220.83
685.053	9192.13
685.4	9214.05
685.748	9166.14
686.095	9149.42
686.443	9153.04
686.79	9105.35
687.138	9138.8
687.485	9129.76
687.832	9096.77
688.18	9118.46
688.527	9015.86
688.874	9058.12
689.221	9036.88
689.568	8962.53
689.915	8942.19
690.262	8980.84
690.609	8926.15
690.956	8944.45
691.303	8855.19
691.65	8830.33
691.997	8876.43
692.344	8802.76
692.69	8825.59
693.037	8802.99
693.383	8702.88
693.73	8669.21
694.077	8709.21
694.423	8668.3
694.769	8608.19
695.116	8642.54
695.462	8595.76
695.808	8586.27
696.155	8584.46
696.501	8491.13
696.847	8520.06
697.193	8475.09
697.539	8502.43
697.885	8401.87
698.231	8388.08
698.577	8393.73
698.923	8398.71
699.269	8303.34
699.614	8303.57
699.96	8245.94
700.306	8247.98
700.651	8260.63
700.997	8211.59
701.342	8186.73
701.688	8180.18
702.033	8137.24
702.379	8093.18
702.724	8130.46
703.069	8116.91
703.415	8029.22
703.76	8064.48
704.105	8093.4
704.45	7982.67
704.795	7934.99
705.14	7962.11
705.485	7976.8
705.83	7903.58
706.175	7974.99
706.52	7839.62
706.865	7851.6
707.209	7818.16
707.554	7806.63
707.899	7833.97
708.243	7786.29
708.588	7761.43
708.932	7671.27
709.277	7693.64
709.621	7739.06
709.966	7659.74
710.31	7670.14
710.654	7650.25
710.998	7637.82
711.342	7692.74
711.687	7598.27
712.031	7593.3
712.375	7573.64
712.719	7576.81
713.063	7521.89
713.407	7558.28
713.75	7596.24
714.094	7522.57
714.438	7518.73
714.782	7493.87
715.125	7520.08
715.469	7512.4
715.812	7472.85
716.156	7393.08
716.499	7454.55
716.843	7503.81
717.186	7398.73
717.53	7479.63
717.873	7407.09
718.216	7414.1
718.559	7388.79
718.902	7241.22
719.246	7395.34
719.589	7397.83
719.932	7329.58
720.275	7289.81
720.617	7273.31
720.96	7279.64
721.303	7277.83
721.646	7379.3
721.989	7234.67
722.331	7250.94
722.674	7305.63
723.016	7304.05
723.359	7234.22
723.701	7308.56
724.044	7182.92
724.386	7141.11
724.729	7300.2
725.071	7228.79
725.413	7222.24
725.755	7214.56
726.097	7215.46
726.439	7158.51
726.782	7188.12
727.124	7194.22
727.465	7184.05
727.807	7125.74
728.149	7163.71
728.491	7148.34
728.833	7172.75
729.175	7143.37
729.516	7070.61
729.858	7129.81
730.199	7161.68
730.541	7148.8
730.882	7169.81
731.224	7113.54
731.565	7125.97
731.906	7118.74
732.248	7145.18
732.589	7133.88
732.93	7076.93
733.271	7093.2
733.612	7120.77
733.953	7116.48
734.294	7135.24
734.635	7072.64
734.976	7170.04
735.317	7093.88
735.658	7079.64
735.999	7123.71
736.339	7071.73
736.68	7093.43
737.021	7099.3
737.361	7032.87
737.702	7125.29
738.042	7091.62
738.383	7081.45
738.723	7144.28
739.063	7105.86
739.404	7058.63
739.744	7099.76
740.084	7068.35
740.424	7044.84
740.764	7021.57
741.104	7081.23
741.444	7050.27
741.784	7060.44
742.124	7077.84
742.464	7038.06
742.804	7032.64
743.143	7037.61
743.483	7026.76
743.823	7013.88
744.162	7058.85
744.502	7059.53
744.841	7000.78
745.181	7023.6
745.52	7059.98
745.86	7038.52
746.199	7006.2
746.538	7017.73
746.877	7081.9
747.216	7027.67
747.556	6994.9
747.895	7053.88
748.234	7023.83
748.573	6966.2
748.911	7005.3
749.25	7022.47
749.589	7009.14
749.928	6969.59
750.267	7023.6
750.605	6943.38
750.944	6939.31
751.283	6868.12
751.621	6982.25
751.96	6938.18
752.298	6984.05
752.636	6959.2
752.975	6893.66
753.313	6902.47
753.651	6916.03
753.989	6939.54
754.327	6864.28
754.666	6827.9
755.004	6902.93
755.342	6918.07
755.679	6820.22
756.017	6818.86
756.355	6857.73
756.693	6841.23
757.031	6816.83
757.368	6814.11
757.706	6797.17
758.044	6765.08
758.381	6753.1
758.719	6719.65
759.056	6721.01
759.394	6737.51
759.731	6717.62
760.068	6695.25
760.405	6696.38
760.743	6667
761.08	6682.37
761.417	6612.76
761.754	6624.97
762.091	6587.68
762.428	6599.43
762.765	6569.15
763.102	6627
763.438	6566.44
763.775	6555.82
764.112	6533.67
764.449	6502.03
764.785	6487.12
765.122	6469.49
765.458	6439.66
765.795	6443.5
766.131	6445.54
766.467	6364.18
766.804	6401.24
767.14	6369.61
767.476	6341.36
767.812	6287.57
768.148	6347.23
768.485	6295.48
768.821	6243.28
769.157	6218.88
769.492	6191.98
769.828	6262.04
770.164	6197.41
770.5	6164.19
770.836	6179.1
771.171	6111.08
771.507	6134.58
771.842	6072.67
772.178	6063.4
772.513	6082.38
772.849	6061.59
773.184	5999.45
773.519	6020.01
773.855	5948.15
774.19	5970.97
774.525	5967.13
774.86	5960.58
775.195	5884.65
775.53	5876.96
775.865	5914.03
776.2	5819.79
776.535	5755.61
776.87	5869.05
777.205	5799.68
777.539	5709.74
777.874	5767.59
778.209	5735.05
778.543	5761.03
778.878	5721.49
779.212	5657.76
779.547	5657.76
779.881	5681.26
780.215	5656.4
780.55	5620.7
780.884	5536.41
781.218	5590.19
781.552	5604.65
781.886	5558.1
782.22	5555.16
782.554	5505.22
782.888	5467.48
783.222	5462.74
783.556	5408.73
783.889	5420.93
784.223	5377.09
784.557	5364.89
784.89	5371.21
785.224	5356.75
785.557	5313.14
785.891	5319.69
786.224	5289.63
786.558	5286.02
786.891	5326.92
787.224	5220.94
787.557	5223.65
787.891	5210.09
788.224	5258.22
788.557	5203.08
788.89	5193.59
789.223	5216.42
789.556	5132.58
789.888	5129.19
790.221	5095.52
790.554	5079.7
790.887	5110.43
791.219	5069.53
791.552	5018.23
791.884	5002.18
792.217	5016.2
792.549	5011.68
792.882	4972.13
793.214	4931.23
793.546	4931.9
793.879	4928.97
794.211	4929.87
794.543	4873.83
794.875	4878.8
795.207	4883.09
795.539	4854.17
795.871	4886.71
796.203	4806.26
796.535	4839.7
796.867	4820.49
797.198	4785.92
797.53	4773.72
797.862	4771.68
798.193	4754.28
798.525	4735.3
798.856	4704.79
799.188	4675.19
799.519	4658.24
799.85	4653.95
800.182	4679.71
800.513	4680.39
800.844	4604.68
801.175	4632.25
801.506	4659.59
801.837	4606.49
802.168	4646.94
802.499	4615.53
802.83	4556.32
803.161	4556.32
803.491	4575.08
803.822	4532.14
804.153	4501.63
804.483	4495.08
804.814	4509.09
805.145	4480.62
805.475	4472.93
805.805	4430.9
806.136	4455.76
806.466	4484.23
806.796	4450.56
807.126	4399.94
807.457	4412.82
807.787	4380.73
808.117	4364.01
808.447	4335.08
808.777	4355.42
809.107	4338.7
809.436	4327.17
809.766	4308.64
810.096	4308.42
810.426	4316.78
810.755	4329.43
811.085	4296.89
811.414	4274.97
811.744	4306.61
812.073	4271.81
812.403	4243.56
812.732	4239.27
813.061	4171.47
813.39	4204.92
813.719	4218.93
814.049	4246.72
814.378	4197.46
814.707	4150.68
815.036	4206.95
815.365	4173.96
815.693	4132.15
816.022	4138.93
816.351	4115.43
816.68	4099.84
817.008	4066.84
817.337	4085.15
817.665	4044.92
817.994	4091.47
818.322	4076.79
818.651	4079.05
818.979	4028.88
819.307	4092.6
819.636	4077.24
819.964	4011.48
820.292	4053.96
820.62	4058.25
820.948	4013.28
821.276	4026.62
821.604	4056
821.932	4017.8
822.259	4023.68
822.587	4012.83
822.915	4030.01
823.243	4010.35
823.57	4003.12
823.898	4059.61
824.225	3957.01
824.553	4038.59
824.88	3985.49
825.207	4009.44
825.535	4004.02
825.862	4039.27
826.189	3988.2
826.516	3980.29
826.843	4038.14
827.17	4028.88
827.497	4006.73
827.824	4022.78
828.151	3988.88
828.478	3997.69
828.805	4031.36
829.131	3971.25
829.458	3997.24
829.785	3987.75
830.111	3977.58
830.438	3980.06
830.764	3976
831.09	4035.2
831.417	3996.11
831.743	4003.57
832.069	3965.83
832.395	3937.81
832.722	3975.09
833.048	4034.98
833.374	3971.7
833.7	3958.82
834.026	3957.47
834.351	4003.34
834.677	3980.06
835.003	3971.7
835.329	3965.6
835.654	3935.55
835.98	3975.32
836.306	3973.06
836.631	3935.55
836.956	3995.88
837.282	3920.18
837.607	3940.52
837.932	3945.04
838.258	3928.99
838.583	3905.94
838.908	3884.02
839.233	3917.69
839.558	3888.09
839.883	3893.51
840.208	3852.38
840.533	3847.41
840.858	3841.54
841.182	3850.35
841.507	3846.96
841.832	3836.11
842.156	3852.61
842.481	3855.77
842.805	3821.42
843.13	3798.15
843.454	3806.96
843.778	3798.15
844.103	3825.49
844.427	3790.92
844.751	3780.07
845.075	3744.14
845.399	3733.29
845.723	3779.84
846.047	3702.33
846.371	3758.83
846.695	3707.98
847.019	3700.98
847.343	3695.33
847.666	3649
847.99	3662.56
848.313	3640.19
848.637	3644.93
848.96	3672.95
849.284	3618.27
849.607	3620.75
849.931	3580.08
850.254	3552.51
850.577	3547.76
850.9	3482.9
851.223	3551.15
851.546	3503.24
851.869	3535.56
852.192	3523.35
852.515	3477.03
852.838	3457.14
853.161	3472.96
853.483	3463.47
853.806	3446.52
854.129	3471.83
854.451	3446.29
854.774	3385.73
855.096	3407.2
855.419	3362
855.741	3418.5
856.063	3364.71
856.385	3342.79
856.708	3350.48
857.03	3329.69
857.352	3349.57
857.674	3315.22
857.996	3306.41
858.318	3259.86
858.64	3304.38
858.961	3298.95
859.283	3259.63
859.605	3259.41
859.926	3265.51
860.248	3244.72
860.57	3202.46
860.891	3213.08
861.212	3219.41
861.534	3225.06
861.855	3217.6
862.176	3206.53
862.498	3194.1
862.819	3243.36
863.14	3216.47
863.461	3228.9
863.782	3168.33
864.103	3211.72
864.424	3178.05
864.745	3230.03
865.065	3148.45
865.386	3156.13
865.707	3183.02
866.027	3164.27
866.348	3168.33
866.668	3171.95
866.989	3106.19
867.309	3128.34
867.63	3145.51
867.95	3162.69
868.27	3131.5
868.59	3068.68
868.91	3111.16
869.23	3126.3
869.55	3086.98
869.87	3136.47
870.19	3108.9
870.51	3101.67
870.83	3097.15
871.15	3080.2
871.469	3115.45
871.789	3083.37
872.109	3090.82
872.428	3074.33
872.748	3061.44
873.067	3040.2
873.386	3036.59
873.706	3034.55
874.025	3054.89
874.344	3025.97
874.663	3029.58
874.982	3042.46
875.301	3056.02
875.62	3051.5
875.939	3007.66
876.258	3045.4
876.577	3006.98
876.896	2971.5
877.214	2987.55
877.533	3009.24
877.852	2973.31
878.17	2967.21
878.489	2988.9
878.807	2974.44
879.125	2987.55
879.444	2987.77
879.762	2979.87
880.08	2971.96
880.398	2979.87
880.716	2959.07
881.034	2960.43
881.352	2935.12
881.67	2958.85
881.988	2925.18
882.306	2904.84
882.624	2915.23
882.941	2899.64
883.259	2922.92
883.577	2898.96
883.894	2907.78
884.212	2938.06
884.529	2897.83
884.846	2877.49
885.164	2909.58
885.481	2872.52
885.798	2895.8
886.115	2854.9
886.432	2824.84
886.75	2853.99
887.067	2848.8
887.383	2842.02
887.7	2816.03
888.017	2817.16
888.334	2803.37
888.651	2832.07
888.967	2814.22
889.284	2813.32
889.6	2786.42
889.917	2769.25
890.233	2765.86
890.55	2745.07
890.866	2753.66
891.182	2777.84
891.498	2735.8
891.815	2749.59
892.131	2717.05
892.447	2710.72
892.763	2725.86
893.079	2714.79
893.395	2687.9
893.71	2701
894.026	2676.14
894.342	2692.19
894.657	2691.29
894.973	2681.34
895.289	2668.01
895.604	2677.95
895.92	2664.39
896.235	2611.29
896.55	2604.96
896.865	2658.97
897.181	2616.26
897.496	2619.65
897.811	2605.64
898.126	2599.31
898.441	2567.67
898.756	2595.92
899.071	2561.8
899.386	2567.22
899.7	2531.97
900.015	2562.93
900.33	2505.3
900.644	2550.27
900.959	2540.1
901.273	2495.81
901.588	2515.7
901.902	2526.09
902.216	2481.8
902.531	2454.23
902.845	2455.59
903.159	2487.67
903.473	2452.87
903.787	2468.92
904.101	2464.85
904.415	2442.93
904.729	2439.09
905.042	2420.33
905.356	2407
905.67	2381.91
905.984	2395.25
906.297	2405.19
906.611	2387.34
906.924	2409.48
907.237	2388.47
907.551	2422.59
907.864	2344.85
908.177	2353.67
908.491	2361.12
908.804	2350.05
909.117	2327.45
909.43	2281.35
909.743	2326.55
910.056	2285.87
910.368	2295.82
910.681	2268.02
910.994	2268.02
911.307	2258.75
911.619	2265.53
911.932	2219.66
912.244	2232.31
912.557	2232.31
912.869	2240.45
913.181	2211.75
913.494	2214.46
913.806	2218.3
914.118	2196.38
914.43	2195.48
914.742	2209.94
915.054	2152.54
915.366	2162.03
915.678	2164.07
915.99	2158.87
916.302	2145.08
916.613	2143.05
916.925	2125.42
917.236	2124.97
917.548	2105.76
917.859	2118.42
918.171	2084.3
918.482	2098.08
918.794	2056.73
919.105	2071.87
919.416	2061.92
919.727	2052.21
920.038	2041.13
920.349	2018.99
920.66	2038.65
920.971	2004.3
921.282	2011.08
921.593	1999.55
921.903	1973.56
922.214	1999.33
922.525	2012.66
922.835	2023.28
923.146	1950.29
923.456	1965.65
923.767	1950.97
924.077	1972.43
924.387	1965.65
924.697	1956.16
925.008	1947.8
925.318	1930.18
925.628	1924.07
925.938	1953.45
926.248	1880.91
926.558	1892.66
926.867	1889.95
927.177	1885.88
927.487	1883.17
927.796	1854.02
928.106	1841.82
928.416	1862.15
928.725	1849.27
929.034	1868.26
929.344	1861.93
929.653	1842.04
929.962	1851.76
930.271	1841.14
930.581	1808.6
930.89	1793.23
931.199	1788.71
931.508	1792.1
931.817	1787.58
932.125	1770.86
932.434	1787.81
932.743	1772.21
933.051	1784.64
933.36	1770.41
933.669	1749.16
933.977	1753.46
934.286	1752.55
934.594	1743.74
934.902	1714.81
935.21	1713.46
935.519	1703.97
935.827	1705.77
936.135	1733.34
936.443	1717.75
936.751	1698.99
937.059	1700.58
937.367	1653.12
937.674	1700.8
937.982	1689.28
938.29	1661.48
938.597	1655.15
938.905	1657.41
939.213	1655.15
939.52	1616.06
939.827	1634.82
940.135	1620.8
940.442	1624.65
940.749	1627.81
941.056	1623.06
941.363	1593.46
941.67	1614.93
941.977	1574.25
942.284	1567.25
942.591	1600.69
942.898	1563.63
943.205	1594.14
943.511	1578.55
943.818	1571.09
944.125	1569.96
944.431	1532.45
944.738	1543.74
945.044	1529.96
945.35	1536.97
945.657	1547.59
945.963	1499
946.269	1514.14
946.575	1511.2
946.881	1477.76
947.187	1508.49
947.493	1514.14
947.799	1497.19
948.105	1497.64
948.41	1492.9
948.716	1456.97
949.022	1457.87
949.327	1490.19
949.633	1440.92
949.938	1457.65
950.244	1474.14
950.549	1438.21
950.854	1478.89
951.16	1451.09
951.465	1438.21
951.77	1434.14
952.075	1420.36
952.38	1422.84
952.685	1420.58
952.99	1411.54
953.294	1406.12
953.599	1386.46
953.904	1426.01
954.209	1374.94
954.513	1386.46
954.818	1385.1
955.122	1356.63
955.426	1367.93
955.731	1375.16
956.035	1374.26
956.339	1335.16
956.643	1358.21
956.948	1353.69
957.252	1358.44
957.556	1322.73
957.86	1332.22
958.163	1324.54
958.467	1305.56
958.771	1318.67
959.075	1311.43
959.378	1314.15
959.682	1296.29
959.985	1311.43
960.289	1284.99
960.592	1305.11
960.896	1264.88
961.199	1289.74
961.502	1290.87
961.805	1297.2
962.108	1290.19
962.411	1278.44
962.714	1299.68
963.017	1243.41
963.32	1243.87
963.623	1268.72
963.926	1228.5
964.228	1240.25
964.531	1231.21
964.833	1236.86
965.136	1195.73
965.438	1225.56
965.741	1239.57
966.043	1210.19
966.345	1193.7
966.648	1221.04
966.95	1212.68
967.252	1205.9
967.554	1186.69
967.856	1182.4
968.158	1184.66
968.46	1184.21
968.761	1177.2
969.063	1185.11
969.365	1165.22
969.666	1173.81
969.968	1161.61
970.269	1158.9
970.571	1153.7
970.872	1144.21
971.174	1138.33
971.475	1155.28
971.776	1154.38
972.077	1115.06
972.378	1155.96
972.679	1133.36
972.98	1130.42
973.281	1118.45
973.582	1110.54
973.883	1117.99
974.183	1113.02
974.484	1111.67
974.785	1087.26
975.085	1097.88
975.386	1110.08
975.686	1107.6
975.986	1070.08
976.287	1075.28
976.587	1053.36
976.887	1104.43
977.187	1081.16
977.487	1077.99
977.787	1073.93
978.087	1071.21
978.387	1040.03
978.687	1037.32
978.987	1027.37
979.286	1029.63
979.586	1063.76
979.885	1054.72
980.185	1042.29
980.484	1040.03
980.784	1008.62
981.083	1021.95
981.382	1048.39
981.682	1021.95
981.981	1020.14
982.28	1026.24
982.579	1015.17
982.878	1016.75
983.177	1005
983.475	979.24
983.774	976.53
984.073	1000.26
984.372	1000.71
984.67	986.47
984.969	978.34
985.267	945.79
985.566	991.44
985.864	964.32
986.162	965.91
986.461	942.4
986.759	960.71
987.057	935.17
987.355	950.31
987.653	954.83
987.951	941.05
988.249	942.86
988.547	948.51
988.844	946.7
989.142	929.07
989.44	921.16
989.737	932.69
990.035	938.79
990.332	907.38
990.63	915.74
990.927	909.86
991.224	925.46
991.521	908.06
991.819	892.69
992.116	918.22
992.413	894.72
992.71	889.98
993.006	900.37
993.303	869.86
993.6	889.3
993.897	867.38
994.193	882.52
994.49	867.15
994.787	853.37
995.083	875.29
995.379	857.89
995.676	847.94
995.972	857.44
996.268	863.99
996.565	863.31
996.861	857.89
997.157	845.23
997.453	838.23
997.749	811.56
998.044	854.5
998.34	837.77
998.636	849.53
998.932	824.44
999.227	839.58
999.523	835.74
999.818	814.72
1000.114	814.95
1000.409	804.33
1000.704	799.81
1001	825.12
1001.295	800.26
1001.59	803.43
1001.885	815.4
1002.18	809.3
1002.475	778.79
1002.77	822.63
1003.065	788.51
1003.359	788.06
1003.654	778.79
1003.949	797.78
1004.243	778.34
1004.538	773.82
1004.832	765.91
1005.127	763.65
1005.421	768.4
1005.715	745.12
1006.009	767.95
1006.304	764.78
1006.598	751.68
1006.892	748.96
1007.186	736.53
1007.48	749.42
1007.773	753.71
1008.067	731.11
1008.361	742.64
1008.655	738.79
1008.948	734.95
1009.242	723.43
1009.535	743.31
1009.829	738.12
1010.122	729.75
1010.415	693.82
1010.708	723.65
1011.001	697.67
1011.295	715.07
1011.588	684.33
1011.881	689.98
1012.173	689.53
1012.466	685.24
1012.759	677.33
1013.052	691.56
1013.344	671.9
1013.637	682.98
1013.93	697.21
1014.222	673.49
1014.514	674.62
1014.807	666.93
1015.099	639.81
1015.391	684.78
1015.683	666.25
1015.976	650.21
1016.268	653.37
1016.56	669.19
1016.851	651.34
1017.143	677.33
1017.435	654.28
1017.727	648.85
1018.018	655.63
1018.31	663.32
1018.602	643.2
1018.893	621.28
1019.185	633.03
1019.476	621.06
1019.767	641.85
1020.058	622.41
1020.35	612.02
1020.641	623.32
1020.932	619.7
1021.223	610.44
1021.514	611.11
1021.804	610.66
1022.095	636.42
1022.386	641.17
1022.677	603.43
1022.967	609.76
1023.258	605.24
1023.548	610.89
1023.839	599.14
1024.129	602.07
1024.419	606.82
1024.709	588.29
1025	583.54
1025.29	569.31
1025.58	585.58
1025.87	585.58
1026.16	591.23
1026.449	593.49
1026.739	604.11
1027.029	581.06
1027.319	556.2
1027.608	577.22
1027.898	552.58
1028.187	557.1
1028.477	569.99
1028.766	558.23
1029.055	554.39
1029.344	549.42
1029.634	540.16
1029.923	545.58
1030.212	536.09
1030.501	550.32
1030.79	550.78
1031.078	538.12
1031.367	519.14
1031.656	550.32
1031.945	534.51
1032.233	543.32
1032.522	511.68
1032.81	523.43
1033.099	532.7
1033.387	538.35
1033.675	515.3
1033.963	539.25
1034.251	516.88
1034.54	511
1034.828	521.85
1035.116	514.39
1035.403	531.79
1035.691	530.66
1035.979	517.78
1036.267	494.96
1036.554	493.15
1036.842	504
1037.129	513.04
1037.417	482.76
1037.704	498.8
1037.992	509.65
1038.279	487.95
1038.566	495.41
1038.853	495.41
1039.14	495.41
