Data from mousepad_grey_FLMS001491_00081.txt Node
Date: Wed Feb 08 14:30:02 GMT 2017
User: dcchb
Spectrometer: FLMS00149
Trigger mode: 0
Integration Time (sec): 2.000000E-2
Scans to average: 10
Electric dark correction enabled: true
Nonlinearity correction enabled: false
Boxcar width: 0
XAxis mode: Wavelengths
Number of Pixels in Spectrum: 2048
>>>>>Begin Spectral Data<<<<<
341.393	-16.23
341.776	-16.23
342.16	-16.23
342.543	-63.23
342.927	-72.95
343.31	-63.01
343.693	-71.82
344.077	-55.78
344.46	-53.97
344.843	-60.3
345.226	-35.66
345.61	-23.01
345.993	-39.5
346.376	-5.83
346.759	3.66
347.142	32.81
347.525	38.46
347.908	52.47
348.291	73.94
348.674	102.41
349.057	105.12
349.44	128.85
349.823	123.43
350.206	153.26
350.588	177.89
350.971	208.85
351.354	215.63
351.737	220.15
352.119	260.83
352.502	257.21
352.884	225.12
353.267	243.88
353.65	257.44
354.032	269.64
354.414	302.41
354.797	301.5
355.179	288.85
355.562	293.82
355.944	306.93
356.326	317.32
356.709	307.83
357.091	333.37
357.473	359.13
357.855	307.15
358.238	342.86
358.62	306.25
359.002	334.27
359.384	320.49
359.766	312.35
360.148	313.48
360.53	318.68
360.912	303.76
361.294	315.06
361.676	312.12
362.057	305.35
362.439	318.45
362.821	313.03
363.203	304.44
363.584	311.22
363.966	306.93
364.348	299.24
364.729	288.4
365.111	307.38
365.493	326.14
365.874	281.39
366.256	290.88
366.637	294.27
367.019	276.65
367.4	279.36
367.781	303.09
368.163	303.99
368.544	290.2
368.925	306.47
369.306	295.63
369.688	287.27
370.069	294.95
370.45	293.59
370.831	302.18
371.212	287.04
371.593	312.35
371.974	305.12
372.355	301.73
372.736	309.41
373.117	301.28
373.498	290.66
373.879	285.91
374.26	311.67
374.641	295.4
375.021	327.94
375.402	322.52
375.783	321.62
376.163	293.14
376.544	303.09
376.925	306.02
377.305	318.9
377.686	309.86
378.066	324.33
378.447	302.63
378.827	309.41
379.208	306.02
379.588	317.1
379.968	318.45
380.349	311.67
380.729	330.2
381.109	308.51
381.489	327.49
381.87	323.88
382.25	329.98
382.63	328.17
383.01	332.01
383.39	338.11
383.77	344.44
384.15	321.39
384.53	313.71
384.91	325.01
385.29	321.16
385.67	330.43
386.049	326.81
386.429	315.29
386.809	335.85
387.189	317.32
387.568	325.68
387.948	339.47
388.328	340.82
388.707	333.82
389.087	341.28
389.466	342.18
389.846	339.02
390.225	316.42
390.605	349.19
390.984	348.73
391.363	348.51
391.743	362.07
392.122	332.69
392.501	348.73
392.881	370.65
393.26	329.53
393.639	356.42
394.018	353.93
394.397	358
394.776	371.11
395.155	373.37
395.534	368.85
395.913	358
396.292	364.33
396.671	359.35
397.05	368.39
397.429	358.45
397.808	337.66
398.186	386.25
398.565	387.83
398.944	391.67
399.323	378.56
399.701	383.76
400.08	377.66
400.458	377.21
400.837	374.95
401.215	400.48
401.594	390.99
401.972	368.39
402.351	395.06
402.729	378.34
403.107	384.44
403.486	396.42
403.864	391.9
404.242	409.98
404.62	404.1
404.999	406.81
405.377	444.78
405.755	408.62
406.133	404.1
406.511	410.65
406.889	419.92
407.267	444.1
407.645	427.15
408.023	414.95
408.401	422.63
408.779	433.03
409.156	443.65
409.534	433.25
409.912	451.78
410.29	448.17
410.667	452.46
411.045	447.04
411.422	441.84
411.8	444.78
412.178	465.11
412.555	478
412.933	460.14
413.31	455.62
413.687	488.17
414.065	475.96
414.442	442.52
414.819	490.65
415.197	484.55
415.574	495.17
415.951	481.61
416.328	479.58
416.705	484.78
417.082	499.01
417.46	482.97
417.837	505.11
418.214	495.17
418.591	494.94
418.967	522.74
419.344	512.35
419.721	510.31
420.098	521.61
420.475	516.64
420.852	526.13
421.228	532.01
421.605	526.58
421.982	532.23
422.358	539.24
422.735	544.21
423.111	545.79
423.488	559.58
423.864	539.92
424.241	558.67
424.617	567.71
424.994	565.45
425.37	555.28
425.746	554.38
426.123	581.27
426.499	600.03
426.875	600.93
427.251	586.24
427.627	596.18
428.003	614.26
428.379	616.75
428.756	641.16
429.132	626.01
429.507	633.25
429.883	624.66
430.259	635.28
430.635	635.51
431.011	628.27
431.387	659.01
431.763	660.36
432.138	677.31
432.514	680.48
432.89	672.57
433.265	679.12
433.641	652.45
434.016	679.57
434.392	696.07
434.767	686.13
435.143	693.81
435.518	715.05
435.894	731.1
436.269	747.82
436.644	745.56
437.02	726.12
437.395	751.66
437.77	713.47
438.145	742.85
438.52	741.94
438.895	767.03
439.271	741.27
439.646	778.1
440.021	770.64
440.395	796.18
440.77	763.64
441.145	777.88
441.52	773.81
441.895	797.31
442.27	817.42
442.645	793.92
443.019	806.57
443.394	815.61
443.769	806.35
444.143	816.97
444.518	811.09
444.892	837.31
445.267	833.01
445.641	829.63
446.016	841.15
446.39	862.39
446.764	854.03
447.139	870.3
447.513	863.52
447.887	884.09
448.262	880.47
448.636	886.12
449.01	847.93
449.384	881.38
449.758	911.43
450.132	889.74
450.506	881.6
450.88	894.26
451.254	901.04
451.628	923.41
452.002	923.18
452.376	945.55
452.75	934.71
453.123	940.36
453.497	956.63
453.871	972.67
454.244	1015.83
454.618	975.38
454.992	980.81
455.365	995.04
455.739	986.46
456.112	1011.77
456.486	1009.06
456.859	1031.88
457.232	1038.66
457.606	1060.35
457.979	1082.05
458.352	1091.77
458.725	1069.62
459.099	1075.72
459.472	1117.75
459.845	1115.27
460.218	1128.15
460.591	1140.58
460.964	1127.7
461.337	1147.58
461.71	1171.31
462.083	1178.77
462.456	1176.96
462.829	1200.24
463.201	1204.53
463.574	1218.09
463.947	1210.63
464.32	1243.17
464.692	1233
465.065	1269.39
465.438	1304.19
465.81	1306.45
466.183	1299.44
466.555	1281.59
466.928	1296.96
467.3	1322.04
467.672	1361.14
468.045	1352.32
468.417	1397.52
468.789	1387.35
469.161	1394.58
469.534	1443.62
469.906	1473.9
470.278	1451.3
470.65	1507.8
471.022	1499.21
471.394	1525.88
471.766	1534.01
472.138	1531.3
472.51	1577.63
472.882	1550.74
473.253	1596.38
473.625	1629.83
473.997	1656.27
474.369	1660.34
474.74	1687.68
475.112	1698.98
475.484	1719.32
475.855	1743.27
476.227	1793.67
476.598	1799.77
476.97	1808.36
477.341	1840.67
477.713	1848.13
478.084	1904.85
478.455	1917.05
478.827	1932.65
479.198	1971.52
479.569	1971.06
479.94	2063.26
480.311	2020.33
480.682	2096.03
481.053	2116.6
481.424	2136.94
481.795	2200.44
482.166	2194.56
482.537	2233.88
482.908	2256.71
483.279	2278.63
483.65	2336.93
484.021	2361.11
484.391	2383.48
484.762	2385.52
485.133	2408.11
485.503	2466.87
485.874	2483.59
486.244	2566.08
486.615	2538.28
486.985	2576.25
487.356	2642.01
487.726	2618.96
488.097	2690.14
488.467	2694.21
488.837	2756.81
489.207	2776.01
489.578	2797.26
489.948	2838.39
490.318	2849.46
490.688	2905.05
491.058	2923.13
491.428	2947.76
491.798	2970.81
492.168	3012.39
492.538	3034.99
492.908	3068.21
493.278	3122.22
493.648	3131.94
494.017	3139.39
494.387	3145.95
494.757	3217.13
495.126	3252.39
495.496	3273.18
495.866	3301.42
496.235	3326.51
496.605	3309.11
496.974	3342.78
497.344	3396.11
497.713	3411.93
498.082	3402.21
498.452	3445.6
498.821	3465.04
499.19	3483.11
499.559	3532.38
499.928	3516.11
500.298	3546.84
500.667	3567.86
501.036	3561.3
501.405	3586.39
501.774	3597.01
502.143	3663
502.512	3685.6
502.88	3700.51
503.249	3684.47
503.618	3733.5
503.987	3736.67
504.356	3757.23
504.724	3774.18
505.093	3841.07
505.462	3802.43
505.83	3841.07
506.199	3874.06
506.567	3894.86
506.936	3936.89
507.304	3967.4
507.672	3950.22
508.041	4017.56
508.409	4048.75
508.777	4089.65
509.145	4060.5
509.514	4067.05
509.882	4128.97
510.25	4145.02
510.618	4176.43
510.986	4194.28
511.354	4213.04
511.722	4244
512.09	4294.62
512.458	4258.46
512.826	4319.02
513.193	4349.76
513.561	4357.44
513.929	4364.67
514.297	4403.54
514.664	4473.37
515.032	4462.3
515.4	4488.74
515.767	4513.6
516.135	4551.11
516.502	4549.08
516.869	4630.2
517.237	4608.73
517.604	4635.63
517.972	4618.68
518.339	4703.65
518.706	4711.78
519.073	4770.76
519.44	4801.05
519.808	4814.61
520.175	4844.21
520.542	4855.73
520.909	4908.39
521.276	4883.08
521.643	4918.33
522.009	4961.72
522.376	5005.11
522.743	5061.83
523.11	5079.68
523.477	5106.57
523.843	5145.67
524.21	5220.47
524.577	5279.23
524.943	5274.48
525.31	5264.76
525.676	5305.89
526.043	5323.07
526.409	5369.84
526.776	5462.72
527.142	5458.2
527.508	5459.56
527.874	5522.38
528.241	5576.17
528.607	5591.76
528.973	5604.64
529.339	5664.07
529.705	5694.13
530.071	5768.03
530.437	5751.3
530.803	5767.8
531.169	5813.67
531.535	5821.13
531.901	5802.6
532.267	5895.25
532.632	5943.84
532.998	5962.37
533.364	5978.19
533.73	5991.75
534.095	6085.98
534.461	6076.94
534.826	6150.84
535.192	6108.36
535.557	6151.97
535.923	6180.67
536.288	6193.33
536.653	6208.01
537.019	6177.96
537.384	6237.39
537.749	6280.78
538.114	6355.81
538.479	6380.89
538.845	6435.13
539.21	6393.55
539.575	6399.2
539.94	6426.09
540.305	6502.24
540.67	6536.59
541.034	6516.71
541.399	6504.05
541.764	6559.42
542.129	6583.15
542.494	6626.53
542.858	6641.68
543.223	6587.67
543.587	6715.35
543.952	6747.44
544.316	6729.36
544.681	6755.57
545.045	6796.7
545.41	6840.77
545.774	6854.1
546.138	6834.44
546.503	6944.27
546.867	6883.25
547.231	6983.14
547.595	6971.84
547.959	7001.44
548.324	6995.34
548.688	7028.11
549.052	7069.46
549.416	7116.69
549.779	7156.24
550.143	7133.87
550.507	7193.98
550.871	7261.77
551.235	7284.37
551.599	7250.7
551.962	7329.57
552.326	7309.91
552.689	7363.92
553.053	7365.72
553.417	7431.49
553.78	7429.45
554.143	7464.48
554.507	7476
554.87	7484.37
555.234	7565.95
555.597	7482.78
555.96	7594.64
556.323	7639.62
556.686	7601.42
557.05	7715.32
557.413	7680.07
557.776	7666.51
558.139	7837.8
558.502	7824.47
558.865	7823.34
559.228	7899.95
559.59	7884.35
559.953	7926.16
560.316	7954.86
560.679	8017.68
561.041	8059.49
561.404	8046.38
561.767	8123.67
562.129	8086.38
562.492	8254.97
562.854	8165.93
563.217	8209.77
563.579	8236.66
563.941	8288.19
564.304	8388.52
564.666	8352.14
565.028	8410.22
565.39	8438.01
565.753	8537.67
566.115	8504.23
566.477	8560.95
566.839	8553.04
567.201	8621.51
567.563	8627.39
567.925	8651.79
568.287	8783.77
568.648	8720.72
569.01	8777.21
569.372	8854.72
569.734	8782.41
570.095	8852.92
570.457	8879.58
570.819	8847.49
571.18	8908.28
571.542	8906.25
571.903	8994.83
572.265	9033.7
572.626	9081.16
572.987	9059.69
573.349	9107.37
573.71	9161.16
574.071	9229.63
574.432	9234.6
574.794	9250.42
575.155	9269.63
575.516	9216.52
575.877	9268.73
576.238	9291.55
576.599	9345.11
576.96	9330.64
577.32	9403.18
577.681	9403.86
578.042	9428.27
578.403	9398.21
578.763	9431.21
579.124	9402.06
579.485	9506.69
579.845	9501.26
580.206	9536.29
580.566	9471.88
580.927	9475.27
581.287	9547.36
581.648	9555.05
582.008	9595.27
582.368	9524.09
582.728	9563.86
583.089	9567.02
583.449	9611.09
583.809	9515.95
584.169	9599.56
584.529	9642.05
584.889	9651.77
585.249	9664.87
585.609	9568.15
585.969	9649.96
586.329	9602.95
586.688	9623.07
587.048	9621.03
587.408	9656.74
587.768	9652.67
588.127	9605.21
588.487	9640.01
588.846	9674.14
589.206	9611.77
589.565	9585.78
589.925	9686.34
590.284	9642.95
590.643	9701.26
591.003	9718.88
591.362	9640.69
591.721	9704.65
592.08	9647.7
592.44	9757.3
592.799	9715.72
593.158	9710.3
593.517	9714.82
593.876	9753.46
594.235	9644.08
594.593	9708.94
594.952	9714.59
595.311	9719.11
595.67	9726.11
596.029	9748.94
596.387	9789.62
596.746	9712.56
597.104	9703.97
597.463	9714.14
597.822	9792.33
598.18	9745.77
598.538	9774.02
598.897	9785.55
599.255	9702.84
599.613	9929.95
599.972	9779.45
600.33	9814.47
600.688	9812.44
601.046	9888.82
601.404	9832.55
601.762	9788.94
602.12	9910.52
602.478	9831.65
602.836	9798.65
603.194	9786
603.552	9847.02
603.91	9801.82
604.268	9933.34
604.625	9871.87
604.983	9840.01
605.341	9818.09
605.698	9905.54
606.056	9880.69
606.413	9873.46
606.771	9898.54
607.128	9927.01
607.485	9931.08
607.843	9842.72
608.2	9968.59
608.557	9957.29
608.914	9916.62
609.272	9986.67
609.629	10003.85
609.986	10003.4
610.343	9966.79
610.7	10046.11
611.057	9948.03
611.414	9982.6
611.771	9966.33
612.127	10048.14
612.484	10037.29
612.841	10058.76
613.198	10044.98
613.554	10051.53
613.911	10110.51
614.267	10113.9
614.624	10126.1
614.98	10142.37
615.337	10142.83
615.693	10122.04
616.05	10060.79
616.406	10231.64
616.762	10162.71
617.118	10161.58
617.475	10230.73
617.831	10202.26
618.187	10223.05
618.543	10206.1
618.899	10268.02
619.255	10265.54
619.611	10189.38
619.967	10248.13
620.323	10281.81
620.678	10249.49
621.034	10201.81
621.39	10207.01
621.746	10174.92
622.101	10343.95
622.457	10190.51
622.812	10255.37
623.168	10318.42
623.523	10265.99
623.879	10352.54
624.234	10203.84
624.589	10199.1
624.945	10294.46
625.3	10246.1
625.655	10299.21
626.01	10319.77
626.365	10301.47
626.72	10296.49
627.075	10300.79
627.43	10297.17
627.785	10269.6
628.14	10333.33
628.495	10288.13
628.85	10261.69
629.205	10250.85
629.559	10330.17
629.914	10281.58
630.269	10258.53
630.623	10236.16
630.978	10206.1
631.332	10261.92
631.687	10327
632.041	10209.27
632.396	10216.72
632.75	10206.55
633.104	10192.54
633.459	10158.19
633.813	10117.74
634.167	10258.98
634.521	10133.56
634.875	10195.48
635.229	10177.18
635.583	10161.36
635.937	10134.47
636.291	10079.33
636.645	10121.58
636.999	10056.05
637.352	10229.38
637.706	10014.69
638.06	10091.08
638.413	10118.65
638.767	10069.83
639.121	10102.6
639.474	9988.93
639.828	10029.61
640.181	10032.32
640.534	10061.02
640.888	10029.16
641.241	10063.28
641.594	10027.58
641.947	10074.35
642.301	9982.38
642.654	10063.05
643.007	9956.39
643.36	10023.06
643.713	10006.11
644.066	10091.3
644.419	9964.53
644.771	9856.73
645.124	9765.21
645.477	9774.93
645.83	9725.66
646.182	9673.01
646.535	9747.58
646.888	9689.96
647.24	9642.73
647.593	9708.71
647.945	9694.93
648.298	9666.45
648.65	9637.3
649.002	9600.92
649.355	9687.92
649.707	9642.73
650.059	9699.22
650.411	9811.08
650.763	9789.16
651.115	9877.75
651.467	9859.22
651.819	9828.71
652.171	9899.22
652.523	9849.95
652.875	9923.17
653.227	9822.83
653.578	9875.49
653.93	9853.34
654.282	9857.18
654.633	9856.05
654.985	9796.85
655.337	9827.13
655.688	9855.6
656.039	9878.43
656.391	9786
656.742	9809.5
657.094	9866.68
657.445	9816.73
657.796	9799.78
658.147	9807.47
658.498	9806.34
658.849	9888.6
659.2	9877.52
659.551	9793.91
659.902	9804.3
660.253	9848.6
660.604	9815.38
660.955	9760.69
661.306	9855.38
661.656	9842.72
662.007	9800.46
662.358	9836.17
662.708	9853.34
663.059	9775.83
663.409	9723.63
663.76	9795.72
664.11	9762.5
664.461	9850.63
664.811	9890.4
665.161	9826.68
665.511	9793.46
665.862	9853.34
666.212	9852.44
666.562	9869.39
666.912	9797.75
667.262	9806.56
667.612	9793.46
667.962	9814.47
668.312	9810.18
668.662	9804.3
669.011	9864.19
669.361	9771.31
669.711	9769.28
670.06	9792.55
670.41	9796.17
670.76	9780.8
671.109	9854.7
671.459	9734.25
671.808	9689.51
672.157	9762.95
672.507	9750.07
672.856	9748.94
673.205	9719.79
673.554	9728.15
673.904	9746.23
674.253	9722.27
674.602	9698.32
674.951	9589.17
675.3	9496.74
675.649	9739
675.998	9616.51
676.346	9736.28
676.695	9700.58
677.044	9604.31
677.393	9642.05
677.741	9654.25
678.09	9629.62
678.438	9555.27
678.787	9591.88
679.135	9573.58
679.484	9583.07
679.832	9600.24
680.181	9569.51
680.529	9573.35
680.877	9571.09
681.225	9592.33
681.573	9535.61
681.922	9475.73
682.27	9464.65
682.618	9467.59
682.966	9484.54
683.314	9470.53
683.661	9456.29
684.009	9326.8
684.357	9409.51
684.705	9391.43
685.053	9374.03
685.4	9270.53
685.748	9250.87
686.095	9246.35
686.443	9272.11
686.79	9285.67
687.138	9252.91
687.485	9297.2
687.832	9237.31
688.18	9252.91
688.527	9101.95
688.874	9134.49
689.221	9146.69
689.568	9113.93
689.915	9099.24
690.262	9056.75
690.609	9024.21
690.956	9001.39
691.303	9026.7
691.65	8995.51
691.997	8964.78
692.344	8961.39
692.69	8913.93
693.037	8875.52
693.383	8797.55
693.73	8864.22
694.077	8786.03
694.423	8814.27
694.769	8730.89
695.116	8692.47
695.462	8646.14
695.808	8674.62
696.155	8660.61
696.501	8546.94
696.847	8629.87
697.193	8561.85
697.539	8629.87
697.885	8519.59
698.231	8503.55
698.577	8506.26
698.923	8482.76
699.269	8462.87
699.614	8394.4
699.96	8313.27
700.306	8374.74
700.651	8276.66
700.997	8264.01
701.342	8239.37
701.688	8255.64
702.033	8273.27
702.379	8212.26
702.724	8162.99
703.069	8149.88
703.415	8149.66
703.76	8084.58
704.105	8122.09
704.45	8087.97
704.795	8026.72
705.14	8008.19
705.485	7907.18
705.83	7966.39
706.175	7920.06
706.52	7895.2
706.865	7918.48
707.209	7845.49
707.554	7844.81
707.899	7828.09
708.243	7876.22
708.588	7774.3
708.932	7739.27
709.277	7719.84
709.621	7776.79
709.966	7660.86
710.31	7706.05
710.654	7594.87
710.998	7671.48
711.342	7657.92
711.687	7653.4
712.031	7529.56
712.375	7624.7
712.719	7532.05
713.063	7526.62
713.407	7542.22
713.75	7494.53
714.094	7478.04
714.438	7504.03
714.782	7474.65
715.125	7491.14
715.469	7567.3
715.812	7456.12
716.156	7380.19
716.499	7444.14
716.843	7453.86
717.186	7470.81
717.53	7416.12
717.873	7464.03
718.216	7453.63
718.559	7373.63
718.902	7337.48
719.246	7366.85
719.589	7358.94
719.932	7338.38
720.275	7368.21
720.617	7315.33
720.96	7338.83
721.303	7358.49
721.646	7297.7
721.989	7280.98
722.331	7311.04
722.674	7258.16
723.016	7291.6
723.359	7306.97
723.701	7337.02
724.044	7266.52
724.386	7253.64
724.729	7305.39
725.071	7254.09
725.413	7235.78
725.755	7275.33
726.097	7229.23
726.439	7193.07
726.782	7248.21
727.124	7225.84
727.465	7206.18
727.807	7247.76
728.149	7147.2
728.491	7236.91
728.833	7257.03
729.175	7206.18
729.516	7184.49
729.858	7198.95
730.199	7242.11
730.541	7119.63
730.882	7151.94
731.224	7215.9
731.565	7200.98
731.906	7185.39
732.248	7219.74
732.589	7174.32
732.93	7139.52
733.271	7132.28
733.612	7149.23
733.953	7158.05
734.294	7134.77
734.635	7120.08
734.976	7184.94
735.317	7078.27
735.658	7158.27
735.999	7118.5
736.339	7056.35
736.68	7145.39
737.021	7090.03
737.361	7092.06
737.702	7151.72
738.042	7139.06
738.383	7094.09
738.723	7171.83
739.063	7179.06
739.404	7168.22
739.744	7138.16
740.084	7099.97
740.424	7142.23
740.764	7114.21
741.104	7109.23
741.444	7113.98
741.784	7133.64
742.124	7078.05
742.464	7048.22
742.804	7030.82
743.143	7124.15
743.483	7107.65
743.823	7042.34
744.162	7101.1
744.502	7120.31
744.841	7078.27
745.181	7104.04
745.52	7099.29
745.86	7109.23
746.199	7079.86
746.538	7052.29
746.877	7109.91
747.216	7054.09
747.556	7048.9
747.895	7067.65
748.234	7033.53
748.573	7067.2
748.911	7037.82
749.25	7073.3
749.589	7043.02
749.928	7018.39
750.267	7073.08
750.605	7014.1
750.944	7026.07
751.283	7040.99
751.621	7020.87
751.96	6991.5
752.298	6983.14
752.636	6969.58
752.975	6917.15
753.313	6936.58
753.651	7030.14
753.989	6951.72
754.327	6933.87
754.666	6899.75
755.004	6921.22
755.342	6906.3
755.679	7018.39
756.017	6913.08
756.355	6883.48
756.693	6951.27
757.031	6902.69
757.368	6854.1
757.706	6867.88
758.044	6820.65
758.381	6849.58
758.719	6745.18
759.056	6786.3
759.394	6822.69
759.731	6763.71
760.068	6783.82
760.405	6769.36
760.743	6752.41
761.08	6794.44
761.417	6709.24
761.754	6629.92
762.091	6587.67
762.428	6606.2
762.765	6573.88
763.102	6624.27
763.438	6600.55
763.775	6518.97
764.112	6610.72
764.449	6583.82
764.785	6571.62
765.122	6546.54
765.458	6494.11
765.795	6472.64
766.131	6458.4
766.467	6455.01
766.804	6438.97
767.14	6347.45
767.476	6401.46
767.812	6377.28
768.148	6367.78
768.485	6348.12
768.821	6297.73
769.157	6295.92
769.492	6266.77
769.828	6219.99
770.164	6185.19
770.5	6225.87
770.836	6221.12
771.171	6189.94
771.507	6169.82
771.842	6111.07
772.178	6116.72
772.513	6082.59
772.849	6046.21
773.184	6074.91
773.519	6073.1
773.855	6040.34
774.19	5954.91
774.525	5980.22
774.86	5977.51
775.195	5912.88
775.53	5937.51
775.865	5935.25
776.2	5895.93
776.535	5862.94
776.87	5868.36
777.205	5844.86
777.539	5825.88
777.874	5779.55
778.209	5781.81
778.543	5702.72
778.878	5738.65
779.212	5728.03
779.547	5711.98
779.881	5694.36
780.215	5596.96
780.55	5681.02
780.884	5599.9
781.218	5636.96
781.552	5643.06
781.886	5563.51
782.22	5599.44
782.554	5521.25
782.888	5497.07
783.222	5479.9
783.556	5435.61
783.889	5473.34
784.223	5440.35
784.557	5434.02
784.89	5391.09
785.224	5390.41
785.557	5302.28
785.891	5336.17
786.224	5311.77
786.558	5338.21
786.891	5271.99
787.224	5292.56
787.557	5242.39
787.891	5270.19
788.224	5209.4
788.557	5255.72
788.89	5212.11
789.223	5213.24
789.556	5160.13
789.888	5139.12
790.221	5131.21
790.554	5108.38
790.887	5158.1
791.219	5099.8
791.552	5046.92
791.884	5029.74
792.217	5040.36
792.549	5022.96
792.882	4995.84
793.214	4934.83
793.546	4943.19
793.879	4923.08
794.211	4895.28
794.543	4919.46
794.875	4939.12
795.207	4884.89
795.539	4915.62
795.871	4888.28
796.203	4811.44
796.535	4849.86
796.867	4796.98
797.198	4832.23
797.53	4766.7
797.862	4793.36
798.193	4765.11
798.525	4722.4
798.856	4786.81
799.188	4729.86
799.519	4700.71
799.85	4645.34
800.182	4695.96
800.513	4700.71
800.844	4659.58
801.175	4698.68
801.506	4662.74
801.837	4616.19
802.168	4600.83
802.499	4616.87
802.83	4567.83
803.161	4583.2
803.491	4551.11
803.822	4608.06
804.153	4528.74
804.483	4517.89
804.814	4528.74
805.145	4501.62
805.475	4455.29
805.805	4446.48
806.136	4448.51
806.466	4429.76
806.796	4420.72
807.126	4413.03
807.457	4406.71
807.787	4438.8
808.117	4396.08
808.447	4372.81
808.777	4427.95
809.107	4394.5
809.436	4324.67
809.766	4412.36
810.096	4350.21
810.426	4267.95
810.755	4311.12
811.085	4356.54
811.414	4287.61
811.744	4337.33
812.073	4297.1
812.403	4243.09
812.732	4243.32
813.061	4249.87
813.39	4241.06
813.719	4240.61
814.049	4234.96
814.378	4209.88
814.707	4178.46
815.036	4162.19
815.365	4192.25
815.693	4147.28
816.022	4141.4
816.351	4096.88
816.68	4126.71
817.008	4109.54
817.337	4074.06
817.665	4029.54
817.994	4079.48
818.322	4048.3
818.651	4044.46
818.979	4011.69
819.307	4048.52
819.636	4015.98
819.964	4018.02
820.292	4007.39
820.62	4024.57
820.948	4004.46
821.276	4055.08
821.604	4005.81
821.932	4025.47
822.259	4034.29
822.587	4026.6
822.915	4013.04
823.243	3988.19
823.57	3993.16
823.898	3986.15
824.225	4004.68
824.553	4001.07
824.88	4015.3
825.207	4025.02
825.535	3991.8
825.862	4023.44
826.189	3986.83
826.516	4011.01
826.843	4034.74
827.17	3982.31
827.497	3978.69
827.824	3955.64
828.151	4017.11
828.478	4014.63
828.805	3989.32
829.131	3966.27
829.458	4028.41
829.785	3979.15
830.111	3945.02
830.438	4033.38
830.764	3974.18
831.09	3966.27
831.417	3955.42
831.743	3982.54
832.069	3968.53
832.395	3955.19
832.722	3989.77
833.048	3966.04
833.374	4015.53
833.7	3976.21
834.026	3953.84
834.351	4008.07
834.677	3933.27
835.003	3963.33
835.329	3946.15
835.654	3953.61
835.98	3951.35
836.306	3985.7
836.631	3922.88
836.956	3926.49
837.282	3954.74
837.607	3891.47
837.932	3944.8
838.258	3884.23
838.583	3885.82
838.908	3884.01
839.233	3884.23
839.558	3945.48
839.883	3829.09
840.208	3846.49
840.533	3841.52
840.858	3813.73
841.182	3862.99
841.507	3846.04
841.832	3829.55
842.156	3820.51
842.481	3853.05
842.805	3811.92
843.13	3839.26
843.454	3789.55
843.778	3792.94
844.103	3769.89
844.427	3767.4
844.751	3776.44
845.075	3758.81
845.399	3738.25
845.723	3720.4
846.047	3741.19
846.371	3684.92
846.695	3705.71
847.019	3641.75
847.343	3681.98
847.666	3652.83
847.99	3660.06
848.313	3639.95
848.637	3600.85
848.96	3616.22
849.284	3568.31
849.607	3551.81
849.931	3563.79
850.254	3566.73
850.577	3576.67
850.9	3472.95
851.223	3521.53
851.546	3484.24
851.869	3485.37
852.192	3475.88
852.515	3465.49
852.838	3464.81
853.161	3493.74
853.483	3453.96
853.806	3404.92
854.129	3446.73
854.451	3389.56
854.774	3354.98
855.096	3341.65
855.419	3379.84
855.741	3367.19
856.063	3335.55
856.385	3323.57
856.708	3330.35
857.03	3316.57
857.352	3334.87
857.674	3313.4
857.996	3319.28
858.318	3270.46
858.64	3263.46
858.961	3277.92
859.283	3283.57
859.605	3221.88
859.926	3264.82
860.248	3256.23
860.57	3203.8
860.891	3245.38
861.212	3194.08
861.534	3213.74
861.855	3221.88
862.176	3197.47
862.498	3202.44
862.819	3201.77
863.14	3217.81
863.461	3169
863.782	3193.4
864.103	3167.87
864.424	3172.39
864.745	3168.09
865.065	3168.32
865.386	3160.41
865.707	3142.78
866.027	3133.75
866.348	3097.81
866.668	3116.8
866.989	3136.23
867.309	3125.61
867.63	3083.8
867.95	3135.78
868.27	3117.47
868.59	3085.61
868.91	3079.74
869.23	3076.8
869.55	3061.66
869.87	3089.45
870.19	3044.03
870.51	3087.87
870.83	3053.3
871.15	3075.89
871.469	3036.12
871.789	3048.55
872.109	3030.47
872.428	3059.17
872.748	3032.28
873.067	3016.69
873.386	3026.63
873.706	3006.74
874.025	3034.76
874.344	3017.14
874.663	3008.78
874.982	2999.29
875.301	3003.35
875.62	3015.1
875.939	2999.74
876.258	2998.38
876.577	2985.27
876.896	2997.7
877.214	2955.67
877.533	2956.8
877.852	2954.54
878.17	2967.87
878.489	2932.17
878.807	2953.41
879.125	2930.81
879.444	2928.33
879.762	2933.3
880.08	2937.14
880.398	2915.22
880.716	2931.26
881.034	2888.55
881.352	2894.88
881.67	2932.17
881.988	2890.14
882.306	2870.25
882.624	2891.27
882.941	2883.58
883.259	2850.59
883.577	2875
883.894	2866.18
884.212	2832.74
884.529	2831.15
884.846	2852.62
885.164	2860.08
885.481	2845.39
885.798	2872.51
886.115	2818.5
886.432	2820.53
886.75	2807.43
887.067	2796.8
887.383	2793.64
887.7	2837.71
888.017	2836.8
888.334	2780.99
888.651	2774.66
888.967	2785.73
889.284	2769.91
889.6	2767.2
889.917	2708.45
890.233	2756.35
890.55	2690.59
890.866	2746.86
891.182	2705.73
891.498	2696.92
891.815	2704.6
892.131	2715.68
892.447	2654.66
892.763	2640.88
893.079	2673.87
893.395	2665.73
893.71	2655.79
894.026	2649.92
894.342	2648.79
894.657	2646.3
894.973	2652.85
895.289	2612.4
895.604	2639.75
895.92	2602.91
896.235	2608.11
896.55	2608.56
896.865	2602.01
897.181	2615.11
897.496	2591.39
897.811	2550.94
898.126	2575.34
898.441	2558.62
898.756	2541.22
899.071	2566.3
899.386	2504.16
899.7	2517.94
900.015	2531.28
900.33	2523.14
900.644	2481.79
900.959	2512.07
901.273	2472.52
901.588	2462.8
901.902	2470.26
902.216	2436.81
902.531	2449.47
902.845	2440.88
903.159	2425.52
903.473	2449.7
903.787	2407.66
904.101	2383.93
904.415	2366.08
904.729	2430.71
905.042	2382.8
905.356	2361.34
905.67	2362.24
905.984	2380.09
906.297	2354.1
906.611	2346.87
906.924	2343.71
907.237	2316.82
907.551	2303.71
907.864	2299.42
908.177	2315.01
908.491	2286.99
908.804	2289.02
909.117	2278.85
909.43	2283.6
909.743	2269.36
910.056	2257.61
910.368	2243.83
910.681	2250.15
910.994	2230.94
911.307	2232.75
911.619	2203.37
911.932	2222.58
912.244	2195.46
912.557	2229.36
912.869	2176.26
913.181	2198.4
913.494	2188.46
913.806	2160.21
914.118	2172.87
914.43	2125.41
914.742	2149.59
915.054	2145.07
915.366	2089.93
915.678	2096.71
915.99	2120.21
916.302	2109.59
916.613	2083.38
916.925	2072.3
917.236	2075.02
917.548	2062.14
917.859	2061.01
918.171	2060.78
918.482	2063.49
918.794	2030.5
919.105	2049.03
919.416	2035.47
919.727	2030.05
920.038	2046.32
920.349	2026.43
920.66	1980.33
920.971	1975.81
921.282	2008.8
921.593	1972.19
921.903	1983.49
922.214	1943.27
922.525	1948.47
922.835	1927.68
923.146	1945.53
923.456	1948.69
923.767	1932.19
924.077	1925.19
924.387	1943.95
924.697	1923.61
925.008	1917.96
925.318	1901.01
925.628	1891.74
925.938	1896.94
926.248	1879.31
926.558	1881.12
926.867	1846.32
927.177	1865.76
927.487	1846.77
927.796	1844.06
928.106	1854.91
928.416	1822.37
928.725	1802.48
929.034	1816.04
929.344	1781.92
929.653	1796.83
929.962	1803.38
930.271	1818.53
930.581	1773.56
930.89	1789.83
931.199	1784.18
931.508	1763.61
931.817	1736.49
932.125	1779.43
932.434	1765.19
932.743	1746.66
933.051	1741.92
933.36	1716.83
933.669	1749.15
933.977	1722.03
934.286	1708.92
934.594	1683.61
934.902	1687.23
935.21	1692.2
935.519	1666.89
935.827	1668.7
936.135	1678.42
936.443	1674.8
936.751	1678.19
937.059	1653.33
937.367	1631.41
937.674	1647.91
937.982	1667.8
938.29	1623.05
938.597	1620.79
938.905	1589.38
939.213	1615.14
939.52	1616.95
939.827	1601.81
940.135	1595.03
940.442	1571.75
940.749	1593.67
941.056	1597.06
941.363	1551.64
941.67	1576.05
941.977	1520.45
942.284	1553
942.591	1562.94
942.898	1530.17
943.205	1520.23
943.511	1520.45
943.818	1547.35
944.125	1533.11
944.431	1516.39
944.738	1516.84
945.044	1503.05
945.35	1530.85
945.657	1481.36
945.963	1507.57
946.269	1490.85
946.575	1477.29
946.881	1474.58
947.187	1457.18
947.493	1489.27
947.799	1458.76
948.105	1443.85
948.41	1440.91
948.716	1451.98
949.022	1461.25
949.327	1452.21
949.633	1420.34
949.938	1439.33
950.244	1426.45
950.549	1436.39
950.854	1402.72
951.16	1391.64
951.465	1390.06
951.77	1399.55
952.075	1391.19
952.38	1397.29
952.685	1400.68
952.99	1376.5
953.294	1362.27
953.599	1354.58
953.904	1370.18
954.209	1373.34
954.513	1352.78
954.818	1346.22
955.122	1341.48
955.426	1326.56
955.731	1315.94
956.035	1315.71
956.339	1328.37
956.643	1337.63
956.948	1300.35
957.252	1316.39
957.556	1309.39
957.86	1293.57
958.163	1309.61
958.467	1301.7
958.771	1289.05
959.075	1294.47
959.378	1260.35
959.682	1291.53
959.985	1291.53
960.289	1239.78
960.592	1265.55
960.896	1264.42
961.199	1261.48
961.502	1224.87
961.805	1262.16
962.108	1237.98
962.411	1234.36
962.714	1235.26
963.017	1220.35
963.32	1215.83
963.623	1214.93
963.926	1205.66
964.228	1208.82
964.531	1203.17
964.833	1192.78
965.136	1197.75
965.438	1189.16
965.741	1160.46
966.043	1178.99
966.345	1189.39
966.648	1200.24
966.95	1191.65
967.252	1155.94
967.554	1169.28
967.856	1146.68
968.158	1160.24
968.46	1161.14
968.761	1177.41
969.063	1136.28
969.365	1159.11
969.666	1134.93
969.968	1144.87
970.269	1125.89
970.571	1138.77
970.872	1148.26
971.174	1123.63
971.475	1120.24
971.776	1082.27
972.077	1102.84
972.378	1096.28
972.679	1096.74
972.98	1114.82
973.281	1101.93
973.582	1094.25
973.883	1054.48
974.183	1063.29
974.484	1082.73
974.785	1088.15
975.085	1069.84
975.386	1064.42
975.686	1084.31
975.986	1063.74
976.287	1073.01
976.587	1070.75
976.887	1030.75
977.187	1037.53
977.487	1019.45
977.787	1056.74
978.087	1037.76
978.387	1064.42
978.687	1040.92
978.987	1037.3
979.286	1020.58
979.586	1010.86
979.885	1023.07
980.185	999.56
980.484	999.11
980.784	1002.73
981.083	1002.73
981.382	986.46
981.682	1023.07
981.981	1006.34
982.28	963.86
982.579	966.57
982.878	994.82
983.177	976.74
983.475	995.72
983.774	955.27
984.073	956.18
984.372	962.5
984.67	958.89
984.969	966.12
985.267	949.17
985.566	964.08
985.864	939.68
986.162	973.35
986.461	940.36
986.759	920.02
987.057	920.24
987.355	917.08
987.653	916.63
987.951	918.44
988.249	941.03
988.547	925.67
988.844	946.01
989.142	914.37
989.44	906.91
989.737	911.88
990.035	907.36
990.332	879.79
990.63	887.93
990.927	896.97
991.224	881.38
991.521	910.3
991.819	887.02
992.116	882.05
992.413	920.47
992.71	863.97
993.006	889.74
993.303	863.52
993.6	850.87
993.897	864.88
994.193	874.82
994.49	866.01
994.787	854.26
995.083	855.16
995.379	842.05
995.676	856.52
995.972	854.03
996.268	830.53
996.565	859
996.861	848.83
997.157	821.26
997.453	809.06
997.749	803.86
998.044	811.55
998.34	801.38
998.636	799.34
998.932	814.26
999.227	800.93
999.523	807.25
999.818	811.32
1000.114	793.24
1000.409	799.57
1000.704	791.89
1001	790.3
1001.295	790.76
1001.59	805.22
1001.885	791.89
1002.18	768.84
1002.475	790.76
1002.77	774.03
1003.065	771.77
1003.359	771.77
1003.654	759.12
1003.949	768.61
1004.243	750.53
1004.538	771.32
1004.832	748.05
1005.127	745.79
1005.421	738.1
1005.715	749.4
1006.009	754.15
1006.304	736.97
1006.598	732.23
1006.892	749.4
1007.186	708.72
1007.48	732.9
1007.773	735.16
1008.067	708.95
1008.361	706.69
1008.655	712.11
1008.948	713.7
1009.242	703.98
1009.535	723.87
1009.829	690.65
1010.122	727.25
1010.415	702.4
1010.708	704.66
1011.001	701.49
1011.295	691.78
1011.588	695.84
1011.881	688.16
1012.173	683.41
1012.466	672.79
1012.759	688.61
1013.052	642.74
1013.344	677.76
1013.637	679.57
1013.93	682.28
1014.222	651.1
1014.514	653.36
1014.807	664.43
1015.099	657.65
1015.391	675.5
1015.683	633.25
1015.976	649.52
1016.268	639.57
1016.56	644.77
1016.851	654.71
1017.143	627.37
1017.435	644.55
1017.727	638.44
1018.018	628.05
1018.31	628.5
1018.602	634.83
1018.893	628.27
1019.185	621.04
1019.476	641.38
1019.767	627.37
1020.058	620.14
1020.35	604.09
1020.641	619.69
1020.932	594.83
1021.223	601.83
1021.514	616.3
1021.804	582.17
1022.095	616.07
1022.386	594.83
1022.677	586.47
1022.967	589.63
1023.258	576.52
1023.548	597.99
1023.839	589.18
1024.129	588.05
1024.419	586.92
1024.709	588.73
1025	578.56
1025.29	560.71
1025.58	574.72
1025.87	570.2
1026.16	545.56
1026.449	566.36
1026.739	573.81
1027.029	554.6
1027.319	559.58
1027.608	555.96
1027.898	537.2
1028.187	560.03
1028.477	572.46
1028.766	563.87
1029.055	553.93
1029.344	535.85
1029.634	542.18
1029.923	534.94
1030.212	535.62
1030.501	543.98
1030.79	563.42
1031.078	530.2
1031.367	502.63
1031.656	513.48
1031.945	510.31
1032.233	536.3
1032.522	507.37
1032.81	510.99
1033.099	513.48
1033.387	513.93
1033.675	513.93
1033.963	526.36
1034.251	505.57
1034.54	515.74
1034.828	486.58
1035.116	518.9
1035.403	499.24
1035.691	524.32
1035.979	505.34
1036.267	506.24
1036.554	498.33
1036.842	494.94
1037.129	475.51
1037.417	456.53
1037.704	488.39
1037.992	500.59
1038.279	494.94
1038.566	495.17
1038.853	495.17
1039.14	495.17
