Data from mousepad_grey_FLMS001491_00073.txt Node
Date: Wed Feb 08 14:29:54 GMT 2017
User: dcchb
Spectrometer: FLMS00149
Trigger mode: 0
Integration Time (sec): 2.000000E-2
Scans to average: 10
Electric dark correction enabled: true
Nonlinearity correction enabled: false
Boxcar width: 0
XAxis mode: Wavelengths
Number of Pixels in Spectrum: 2048
>>>>>Begin Spectral Data<<<<<
341.393	4.6
341.776	4.6
342.16	4.6
342.543	-61.61
342.927	-57.99
343.31	-57.77
343.693	-76.07
344.077	-74.94
344.46	-60.7
344.843	-45.34
345.226	-39.01
345.61	-29.52
345.993	-25.9
346.376	-0.82
346.759	-9.63
347.142	32.63
347.525	38.05
347.908	71.95
348.291	78.05
348.674	102.68
349.057	96.35
349.44	125.73
349.823	162.34
350.206	162.79
350.588	165.5
350.971	196.24
351.354	207.99
351.737	210.02
352.119	225.39
352.502	241.43
352.884	252.73
353.267	259.29
353.65	296.12
354.032	282.79
354.414	294.09
354.797	294.31
355.179	311.71
355.562	283.47
355.944	312.62
356.326	296.57
356.709	309.68
357.091	323.01
357.473	327.53
357.855	328.21
358.238	306.74
358.62	337.48
359.002	317.14
359.384	321.21
359.766	332.05
360.148	322.79
360.53	349.45
360.912	326.18
361.294	307.42
361.676	313.07
362.057	325.73
362.439	313.75
362.821	320.75
363.203	304.03
363.584	292.28
363.966	299.74
364.348	324.14
364.729	307.87
365.111	308.1
365.493	313.07
365.874	306.07
366.256	301.77
366.637	298.61
367.019	294.54
367.4	290.25
367.781	292.73
368.163	309.46
368.544	301.55
368.925	314.65
369.306	304.48
369.688	294.09
370.069	296.57
370.45	298.61
370.831	282.79
371.212	302.22
371.593	290.92
371.974	285.27
372.355	313.3
372.736	309.68
373.117	288.89
373.498	292.96
373.879	294.77
374.26	301.32
374.641	309.46
375.021	290.02
375.402	285.73
375.783	287.08
376.163	314.43
376.544	320.75
376.925	306.74
377.305	293.86
377.686	306.29
378.066	318.72
378.447	304.03
378.827	311.71
379.208	311.26
379.588	309.23
379.968	317.14
380.349	318.72
380.729	311.49
381.109	314.2
381.489	300.42
381.87	353.75
382.25	312.17
382.63	337.7
383.01	341.77
383.39	323.69
383.77	338.15
384.15	334.99
384.53	328.89
384.91	343.13
385.29	322.34
385.67	329.12
386.049	335.22
386.429	332.28
386.809	334.54
387.189	314.43
387.568	346.29
387.948	313.3
388.328	336.57
388.707	352.17
389.087	349.68
389.466	352.17
389.846	347.65
390.225	374.76
390.605	361.66
390.984	338.61
391.363	351.26
391.743	358.04
392.122	338.38
392.501	348.32
392.881	366.63
393.26	364.59
393.639	359.62
394.018	377.02
394.397	350.36
394.776	353.75
395.155	361.88
395.534	368.21
395.913	360.08
396.292	370.47
396.671	372.73
397.05	382.22
397.429	385.16
397.808	357.14
398.186	369.57
398.565	366.63
398.944	382.67
399.323	396.23
399.701	409.34
400.08	390.81
400.458	376.57
400.837	417.25
401.215	400.3
401.594	380.87
401.972	389
402.351	391.71
402.729	399.62
403.107	399.85
403.486	392.39
403.864	421.32
404.242	403.46
404.62	406.18
404.999	415.67
405.377	424.25
405.755	424.93
406.133	421.32
406.511	432.39
406.889	420.64
407.267	426.29
407.645	423.35
408.023	412.73
408.401	446.85
408.779	434.88
409.156	435.33
409.534	446.4
409.912	455.67
410.29	453.86
410.667	451.37
411.045	443.91
411.422	459.96
411.8	465.16
412.178	464.48
412.555	455.89
412.933	470.58
413.31	484.14
413.687	481.2
414.065	492.73
414.442	490.02
414.819	492.95
415.197	504.48
415.574	492.5
415.951	524.59
416.328	510.35
416.705	503.12
417.082	528.88
417.46	504.25
417.837	506.06
418.214	510.13
418.591	528.66
418.967	526.85
419.344	499.28
419.721	527.08
420.098	538.83
420.475	537.47
420.852	553.97
421.228	534.53
421.605	550.13
421.982	568.43
422.358	561.2
422.735	557.58
423.111	549.9
423.488	567.98
423.864	573.18
424.241	553.06
424.617	573.85
424.994	565.04
425.37	587.19
425.746	595.78
426.123	577.24
426.499	576.79
426.875	593.29
427.251	599.62
427.627	634.42
428.003	619.28
428.379	614.76
428.756	623.8
429.132	635.55
429.507	646.4
429.883	650.24
430.259	655.66
430.635	646.17
431.011	635.1
431.387	657.92
431.763	662.44
432.138	640.97
432.514	692.72
432.89	694.53
433.265	685.49
433.641	719.16
434.016	678.03
434.392	722.1
434.767	713.96
435.143	710.57
435.518	730.01
435.894	716.45
436.269	738.6
436.644	715.55
437.02	748.09
437.395	737.47
437.77	759.16
438.145	764.36
438.52	775.66
438.895	783.79
439.271	789.67
439.646	802.1
440.021	788.54
440.395	797.13
440.77	799.84
441.145	787.63
441.52	784.24
441.895	823.57
442.27	830.8
442.645	831.93
443.019	828.54
443.394	835.54
443.769	838.48
444.143	814.07
444.518	855.88
444.892	833.28
445.267	839.61
445.641	858.37
446.016	862.43
446.39	865.37
446.764	862.89
447.139	871.93
447.513	871.25
447.887	880.97
448.262	875.54
448.636	891.81
449.01	902.43
449.384	881.19
449.758	909.44
450.132	913.51
450.506	912.15
450.88	931.13
451.254	932.72
451.628	943.79
452.002	970.91
452.376	948.53
452.75	962.55
453.123	971.81
453.497	991.25
453.871	966.39
454.244	1020.62
454.618	1019.04
454.992	1000.96
455.365	1001.87
455.739	1041.64
456.112	1022.66
456.486	1033.5
456.859	1057.23
457.232	1059.04
457.606	1088.42
457.979	1068.31
458.352	1094.29
458.725	1115.08
459.099	1120.28
459.472	1118.25
459.845	1152.82
460.218	1169.55
460.591	1151.47
460.964	1145.82
461.337	1202.09
461.71	1226.27
462.083	1221.75
462.456	1191.69
462.829	1233.5
463.201	1227.62
463.574	1258.81
463.947	1253.16
464.32	1277.11
464.692	1291.58
465.065	1299.03
465.438	1273.27
465.81	1338.35
466.183	1346.04
466.555	1377
466.928	1397.34
467.3	1377
467.672	1399.6
468.045	1407.96
468.417	1414.96
468.789	1420.61
469.161	1473.04
469.534	1501.29
469.906	1502.42
470.278	1487.28
470.65	1521.63
471.022	1538.35
471.394	1551
471.766	1572.92
472.138	1584.22
472.51	1609.99
472.882	1636.2
473.253	1675.07
473.625	1650.66
473.997	1702.64
474.369	1715.97
474.74	1752.36
475.112	1767.72
475.484	1744.67
475.855	1817.66
476.227	1820.15
476.598	1856.08
476.97	1863.54
477.341	1922.97
477.713	1927.49
478.084	1946.02
478.455	1999.13
478.827	1997.55
479.198	2047.94
479.569	2089.3
479.94	2096.75
480.311	2101.27
480.682	2149.18
481.053	2192.34
481.424	2213.13
481.795	2271.44
482.166	2260.14
482.537	2320.93
482.908	2367.25
483.279	2386.24
483.65	2455.16
484.021	2475.95
484.391	2446.35
484.762	2511.21
485.133	2527.48
485.503	2511.66
485.874	2560.7
486.244	2635.04
486.615	2655.83
486.985	2670.97
487.356	2687.92
487.726	2772.89
488.097	2762.95
488.467	2844.53
488.837	2866.45
489.207	2885.43
489.578	2925.66
489.948	2939.22
490.318	2975.15
490.688	3001.14
491.058	3064.64
491.428	3036.16
491.798	3136.05
492.168	3133.11
492.538	3164.07
492.908	3208.36
493.278	3193
493.648	3242.03
494.017	3269.15
494.387	3320.45
494.757	3334.91
495.126	3366.1
495.496	3370.17
495.866	3402.26
496.235	3437.73
496.605	3471.63
496.974	3510.73
497.344	3483.61
497.713	3537.17
498.082	3558.64
498.452	3583.27
498.821	3587.11
499.19	3612.19
499.559	3657.62
499.928	3672.76
500.298	3697.16
500.667	3772.41
501.036	3759.31
501.405	3808.35
501.774	3767.67
502.143	3825.97
502.512	3846.54
502.88	3852.19
503.249	3850.38
503.618	3941
503.987	3896.71
504.356	3917.72
504.724	3962.92
505.093	3952.3
505.462	3978.74
505.83	4023.26
506.199	4011.96
506.567	4108.45
506.936	4089.02
507.304	4130.6
507.672	4170.82
508.041	4209.24
508.409	4196.36
508.777	4246.98
509.145	4322.23
509.514	4271.84
509.882	4292.85
510.25	4315.45
510.618	4407.65
510.986	4351.38
511.354	4389.8
511.722	4436.35
512.09	4468.67
512.458	4451.27
512.826	4504.83
513.193	4547.99
513.561	4530.81
513.929	4592.51
514.297	4627.08
514.664	4663.24
515.032	4674.76
515.4	4760.64
515.767	4695.33
516.135	4743.24
516.502	4739.85
516.869	4861.43
517.237	4798.38
517.604	4866.62
517.972	4929.22
518.339	4926.28
518.706	4945.04
519.073	4955.43
519.44	5002.44
519.808	5011.48
520.175	5053.06
520.542	5088.54
520.909	5146.16
521.276	5147.07
521.643	5150.01
522.009	5212.83
522.376	5271.58
522.743	5309.55
523.11	5305.93
523.477	5429.55
523.843	5468.64
524.21	5517.23
524.577	5514.74
524.943	5492.82
525.31	5537.79
525.676	5627.06
526.043	5680.61
526.409	5661.18
526.776	5700.73
527.142	5716.32
527.508	5777.11
527.874	5836.09
528.241	5868.63
528.607	5870.21
528.973	5925.13
529.339	5926.48
529.705	5978.91
530.071	6014.39
530.437	6012.13
530.803	6097.33
531.169	6123.99
531.535	6066.82
531.901	6150.21
532.267	6178.45
532.632	6192.01
532.998	6275.63
533.364	6248.51
533.73	6233.59
534.095	6387.26
534.461	6355.85
534.826	6387.94
535.192	6421.38
535.557	6487.15
535.923	6464.1
536.288	6523.98
536.653	6521.27
537.019	6528.5
537.384	6639.68
537.749	6581.15
538.114	6678.78
538.479	6629.97
538.845	6708.38
539.21	6703.19
539.575	6716.07
539.94	6801.04
540.305	6798.55
540.67	6823.63
541.034	6872.22
541.399	6888.27
541.764	6848.94
542.129	6891.43
542.494	6972.56
542.858	6942.73
543.223	6977.98
543.587	7114.02
543.952	7081.03
544.316	7093.01
544.681	6968.49
545.045	7075.15
545.41	7122.84
545.774	7220.23
546.138	7290.74
546.503	7233.34
546.867	7252.78
547.231	7343.85
547.595	7327.8
547.959	7358.31
548.324	7378.2
548.688	7365.09
549.052	7458.87
549.416	7429.49
549.779	7494.8
550.143	7502.26
550.507	7576.38
550.871	7627.45
551.235	7542.94
551.599	7518.76
551.962	7613.67
552.326	7667.68
552.689	7718.53
553.053	7703.61
553.417	7754.23
553.78	7792.2
554.143	7823.38
554.507	7910.39
554.87	7881.23
555.234	8007.56
555.597	7882.14
555.96	7989.93
556.323	8059.76
556.686	8035.58
557.05	8160.77
557.413	8057.27
557.776	8137.05
558.139	8222.92
558.502	8206.2
558.865	8253.43
559.228	8289.36
559.59	8284.16
559.953	8336.59
560.316	8422.24
560.679	8401.9
561.041	8507.66
561.404	8510.6
561.767	8525.28
562.129	8570.93
562.492	8594.66
562.854	8673.08
563.217	8611.84
563.579	8610.48
563.941	8710.36
564.304	8758.72
564.666	8790.36
565.028	8826.29
565.39	8850.02
565.753	8891.15
566.115	8912.39
566.477	8944.03
566.839	8992.84
567.201	9031.49
567.563	9030.81
567.925	9133.18
568.287	9141.31
568.648	9200.29
569.01	9220.63
569.372	9251.37
569.734	9230.35
570.095	9299.05
570.457	9366.39
570.819	9370.46
571.18	9424.47
571.542	9375.88
571.903	9438.93
572.265	9411.59
572.626	9537.69
572.987	9522.55
573.349	9574.3
573.71	9581.53
574.071	9583.11
574.432	9628.08
574.794	9696.33
575.155	9717.8
575.516	9666.05
575.877	9743.11
576.238	9669.21
576.599	9813.39
576.96	9827.62
577.32	9824.46
577.681	9879.15
578.042	9857.9
578.403	9895.87
578.763	9874.4
579.124	9932.93
579.485	9982.42
579.845	10030.56
580.206	9909.43
580.566	9993.72
580.927	9954.85
581.287	10080.95
581.648	9992.82
582.008	9987.84
582.368	10027.62
582.728	9980.16
583.089	9972.93
583.449	10028.52
583.809	10096.99
584.169	10118.24
584.529	10097.22
584.889	10151.91
585.249	10017
585.609	10018.8
585.969	10176.31
586.329	10094.96
586.688	10098.35
587.048	10138.35
587.408	10208.63
587.768	10095.19
588.127	10159.14
588.487	10106.26
588.846	10167.95
589.206	10115.52
589.565	10144.68
589.925	10134.73
590.284	10201.62
590.643	10154.17
591.003	10158.24
591.362	10173.6
591.721	10204.56
592.08	10192.81
592.44	10201.62
592.799	10203.66
593.158	10115.75
593.517	10116.43
593.876	10156.88
594.235	10127.28
594.593	10193.94
594.952	10262.64
595.311	10209.53
595.67	10243.66
596.029	10271.23
596.387	10265.13
596.746	10309.64
597.104	10202.3
597.463	10247.72
597.822	10253.83
598.18	10283.66
598.538	10235.97
598.897	10292.47
599.255	10190.78
599.613	10376.31
599.972	10268.74
600.33	10297.89
600.688	10272.58
601.046	10326.59
601.404	10329.76
601.762	10361.39
602.12	10365.46
602.478	10376.76
602.836	10403.2
603.194	10269.87
603.552	10345.35
603.91	10305.12
604.268	10277.1
604.625	10321.85
604.983	10401.62
605.341	10325.69
605.698	10352.35
606.056	10394.16
606.413	10422.18
606.771	10452.24
607.128	10471.67
607.485	10390.77
607.843	10436.87
608.2	10452.01
608.557	10515.97
608.914	10444.33
609.272	10496.53
609.629	10567.49
609.986	10527.04
610.343	10503.09
610.7	10581.05
611.057	10597.32
611.414	10527.27
611.771	10530.2
612.127	10619.69
612.484	10595.74
612.841	10597.32
613.198	10473.93
613.554	10575.63
613.911	10650.2
614.267	10605.46
614.624	10584.89
614.98	10636.19
615.337	10718
615.693	10694.27
616.05	10702.18
616.406	10706.47
616.762	10679.58
617.118	10696.3
617.475	10689.75
617.831	10755.28
618.187	10763.19
618.543	10746.69
618.899	10751.44
619.255	10728.39
619.611	10735.17
619.967	10792.57
620.323	10758.22
620.678	10776.3
621.034	10761.38
621.39	10754.15
621.746	10706.47
622.101	10889.06
622.457	10789.86
622.812	10800.93
623.168	10838.44
623.523	10841.61
623.879	10886.8
624.234	10794.38
624.589	10801.16
624.945	10840.7
625.3	10839.8
625.655	10829.18
626.01	10818.11
626.365	10825.34
626.72	10790.76
627.075	10822.17
627.43	10847.26
627.785	10799.12
628.14	10803.64
628.495	10807.71
628.85	10815.39
629.205	10797.31
629.559	10849.07
629.914	10814.72
630.269	10775.62
630.623	10738.11
630.978	10774.26
631.332	10805.68
631.687	10806.81
632.041	10757.32
632.396	10752.34
632.75	10738.11
633.104	10769.97
633.459	10722.74
633.813	10668.05
634.167	10689.3
634.521	10639.58
634.875	10678
635.229	10736.53
635.583	10665.12
635.937	10701.05
636.291	10671.44
636.645	10648.62
636.999	10584.89
637.352	10595.06
637.706	10613.59
638.06	10604.78
638.413	10584.67
638.767	10642.52
639.121	10617.21
639.474	10577.21
639.828	10566.59
640.181	10604.33
640.534	10570.88
640.888	10537.89
641.241	10560.26
641.594	10548.73
641.947	10597.77
642.301	10482.75
642.654	10576.76
643.007	10495.18
643.36	10590.09
643.713	10549.19
644.066	10564.55
644.419	10473.48
644.771	10436.19
645.124	10336.31
645.477	10327.04
645.83	10238.69
646.182	10193.49
646.535	10150.55
646.888	10223.54
647.24	10181.06
647.593	10197.56
647.945	10231.68
648.298	10171.34
648.65	10151.68
649.002	10110.1
649.355	10182.64
649.707	9998.92
650.059	10154.85
650.411	10295.18
650.763	10339.47
651.115	10416.53
651.467	10387.38
651.819	10340.15
652.171	10398.23
652.523	10383.77
652.875	10325.46
653.227	10329.53
653.578	10413.6
653.93	10423.99
654.282	10372.69
654.633	10340.15
654.985	10357.78
655.337	10383.31
655.688	10442.52
656.039	10375.86
656.391	10269.65
656.742	10289.76
657.094	10329.98
657.445	10391.9
657.796	10346.25
658.147	10329.98
658.498	10343.77
658.849	10387.83
659.2	10272.13
659.551	10288.18
659.902	10400.26
660.253	10359.81
660.604	10341.06
660.955	10339.47
661.306	10337.21
661.656	10333.6
662.007	10310.77
662.358	10309.87
662.708	10329.3
663.059	10325.24
663.409	10238.91
663.76	10334.95
664.11	10292.7
664.461	10328.63
664.811	10335.18
665.161	10273.26
665.511	10295.63
665.862	10344.45
666.212	10344.22
666.562	10348.51
666.912	10286.59
667.262	10244.56
667.612	10321.17
667.962	10272.58
668.312	10258.57
668.662	10317.55
669.011	10299.7
669.361	10263.77
669.711	10255.18
670.06	10373.6
670.41	10252.92
670.76	10232.81
671.109	10237.78
671.459	10243.88
671.808	10168.63
672.157	10180.16
672.507	10164.34
672.856	10171.34
673.205	10258.57
673.554	10248.85
673.904	10187.16
674.253	10278.01
674.602	10192.13
674.951	10118.69
675.3	10029.2
675.649	10154.62
675.998	10141.51
676.346	10132.47
676.695	10232.36
677.044	10098.35
677.393	10127.05
677.741	10151.23
678.09	10103.55
678.438	10097.9
678.787	10075.75
679.135	10102.19
679.484	10059.26
679.832	10023.78
680.181	10057.45
680.529	10058.35
680.877	9949.65
681.225	9937.22
681.573	10000.95
681.922	9987.84
682.27	9973.16
682.618	9959.14
682.966	9891.8
683.314	9989.2
683.661	9920.28
684.009	9873.27
684.357	9887.96
684.705	9830.33
685.053	9766.83
685.4	9820.39
685.748	9804.57
686.095	9806.83
686.443	9728.42
686.79	9721.64
687.138	9673.95
687.485	9721.19
687.832	9660.62
688.18	9688.19
688.527	9590.57
688.874	9616.33
689.221	9632.6
689.568	9503.11
689.915	9520.29
690.262	9462.43
690.609	9551.92
690.956	9400.97
691.303	9451.81
691.65	9403.91
691.997	9421.98
692.344	9374.98
692.69	9258.15
693.037	9367.97
693.383	9270.58
693.73	9245.49
694.077	9225.6
694.423	9184.48
694.769	9136.34
695.116	9139.05
695.462	9180.63
695.808	9127.98
696.155	9183.35
696.501	9012.05
696.847	9009.79
697.193	8929.12
697.539	9009.57
697.885	8923.24
698.231	8936.12
698.577	8913.52
698.923	8905.16
699.269	8888.89
699.614	8779.06
699.96	8789.23
700.306	8824.71
700.651	8734.32
700.997	8726.86
701.342	8632.4
701.688	8646.41
702.033	8662.91
702.379	8643.47
702.724	8600.08
703.069	8596.02
703.415	8483.48
703.76	8480.99
704.105	8496.36
704.45	8502.46
704.795	8467.21
705.14	8380.43
705.485	8428.34
705.83	8367.77
706.175	8302.24
706.52	8362.58
706.865	8362.8
707.209	8279.19
707.554	8299.53
707.899	8277.16
708.243	8277.16
708.588	8176.37
708.932	8105.63
709.277	8183.37
709.621	8190.15
709.966	8122.81
710.31	8192.86
710.654	8071.06
710.998	8132.07
711.342	8115.58
711.687	8023.83
712.031	8011.4
712.375	7973.66
712.719	8069.48
713.063	8012.3
713.407	8081
713.75	7973.89
714.094	7950.16
714.438	7922.81
714.782	7923.27
715.125	7899.09
715.469	7901.8
715.812	7803.72
716.156	7872.42
716.499	7896.83
716.843	7818.18
717.186	7832.2
717.53	7843.27
717.873	7864.51
718.216	7813.66
718.559	7799.2
718.902	7685.08
719.246	7834.46
719.589	7728.47
719.932	7760.11
720.275	7761.01
720.617	7737.96
720.96	7690.73
721.303	7692.09
721.646	7692.09
721.989	7676.04
722.331	7739.77
722.674	7683.72
723.016	7735.93
723.359	7659.54
723.701	7661.13
724.044	7600.11
724.386	7652.99
724.729	7647.12
725.071	7657.28
725.413	7651.41
725.755	7632.65
726.097	7560.56
726.439	7562.6
726.782	7576.16
727.124	7636.95
727.465	7531.86
727.807	7589.94
728.149	7552.65
728.491	7594.46
728.833	7547
729.175	7566.89
729.516	7609.83
729.858	7541.58
730.199	7580.45
730.541	7544.75
730.882	7589.04
731.224	7548.13
731.565	7505.42
731.906	7478.31
732.248	7528.25
732.589	7474.69
732.93	7494.12
733.271	7539.55
733.612	7495.71
733.953	7530.28
734.294	7431.53
734.635	7531.41
734.976	7481.24
735.317	7532.99
735.658	7472.43
735.999	7555.14
736.339	7477.18
736.68	7463.84
737.021	7494.35
737.361	7495.25
737.702	7436.5
738.042	7471.75
738.383	7493
738.723	7443.96
739.063	7474.01
739.404	7473.56
739.744	7475.82
740.084	7440.57
740.424	7465.43
740.764	7473.56
741.104	7513.56
741.444	7454.58
741.784	7390.4
742.124	7466.33
742.464	7428.59
742.804	7436.27
743.143	7434.92
743.483	7380.23
743.823	7371.64
744.162	7402.6
744.502	7382.94
744.841	7373.68
745.181	7429.49
745.52	7400.79
745.86	7422.49
746.199	7440.34
746.538	7396.73
746.877	7449.61
747.216	7453
747.556	7393.56
747.895	7374.13
748.234	7338.42
748.573	7382.04
748.911	7381.36
749.25	7344.75
749.589	7383.39
749.928	7376.61
750.267	7367.12
750.605	7339.55
750.944	7365.09
751.283	7291.87
751.621	7330.51
751.96	7333.45
752.298	7348.14
752.636	7339.55
752.975	7234.24
753.313	7195.6
753.651	7279.22
753.989	7234.92
754.327	7244.87
754.666	7221.82
755.004	7231.31
755.342	7243.06
755.679	7223.4
756.017	7154.7
756.355	7215.49
756.693	7190.63
757.031	7148.6
757.368	7169.16
757.706	7193.12
758.044	7096.62
758.381	7125.32
758.719	7163.29
759.056	7074.02
759.394	7130.52
759.731	7047.13
760.068	6998.54
760.405	6983.86
760.743	7018.66
761.08	7025.89
761.417	6949.05
761.754	6878.32
762.091	6919
762.428	6970.97
762.765	6893.24
763.102	6941.37
763.438	6905.21
763.775	6862.05
764.112	6856.4
764.449	6809.85
764.785	6854.14
765.122	6794.93
765.458	6760.81
765.795	6766.23
766.131	6737.31
766.467	6707.48
766.804	6739.34
767.14	6666.8
767.476	6631.1
767.812	6621.38
768.148	6633.36
768.485	6621.83
768.821	6547.03
769.157	6599.23
769.492	6531.44
769.828	6526.92
770.164	6465.68
770.5	6512
770.836	6483.08
771.171	6387.49
771.507	6430.42
771.842	6403.76
772.178	6403.08
772.513	6355.85
772.849	6348.84
773.184	6323.99
773.519	6290.54
773.855	6292.57
774.19	6233.59
774.525	6245.12
774.86	6236.98
775.195	6202.18
775.53	6209.41
775.865	6172.58
776.2	6087.61
776.535	6128.29
776.87	6072.47
777.205	6042.86
777.539	6092.13
777.874	6022.75
778.209	5996.09
778.543	6018.68
778.878	5936.65
779.212	5950.21
779.547	5926.26
779.881	5948.63
780.215	5906.37
780.55	5915.64
780.884	5835.41
781.218	5844.45
781.552	5849.2
781.886	5800.61
782.22	5799.03
782.554	5713.38
782.888	5681.52
783.222	5707.05
783.556	5684.46
783.889	5688.52
784.223	5662.76
784.557	5630.9
784.89	5601.07
785.224	5565.36
785.557	5584.12
785.891	5539.83
786.224	5501.41
786.558	5519.04
786.891	5468.42
787.224	5484.23
787.557	5471.81
787.891	5454.86
788.224	5467.06
788.557	5441.98
788.89	5425.25
789.223	5413.95
789.556	5423.67
789.888	5328.31
790.221	5358.59
790.554	5313.39
790.887	5273.39
791.219	5284.92
791.552	5222.32
791.884	5280.4
792.217	5203.56
792.549	5214.41
792.882	5199.95
793.214	5178.25
793.546	5195.88
793.879	5182.55
794.211	5114.75
794.543	5092.61
794.875	5095.54
795.207	5128.31
795.539	5083.57
795.871	5091.7
796.203	5026.85
796.535	4999.28
796.867	4978.94
797.198	5021.42
797.53	4996.11
797.862	4967.41
798.193	4980.74
798.525	4970.12
798.856	4985.72
799.188	4893.06
799.519	4897.81
799.85	4872.72
800.182	4861.2
800.513	4876.11
800.844	4816.46
801.175	4858.26
801.506	4837.92
801.837	4779.17
802.168	4811.71
802.499	4820.07
802.83	4797.02
803.161	4744.37
803.491	4740.75
803.822	4713.63
804.153	4700.53
804.483	4686.74
804.814	4704.37
805.145	4674.76
805.475	4626.63
805.805	4650.36
806.136	4604.26
806.466	4692.16
806.796	4670.47
807.126	4579.17
807.457	4606.07
807.787	4572.39
808.117	4547.76
808.447	4556.8
808.777	4565.39
809.107	4510.25
809.436	4515.9
809.766	4515.22
810.096	4536.01
810.426	4440.42
810.755	4517.03
811.085	4447.43
811.414	4464.37
811.744	4448.33
812.073	4411.27
812.403	4437.26
812.732	4401.1
813.061	4386.86
813.39	4370.82
813.719	4390.25
814.049	4376.01
814.378	4402.23
814.707	4359.29
815.036	4314.32
815.365	4319.52
815.693	4308.45
816.022	4303.7
816.351	4283.59
816.68	4288.33
817.008	4268.22
817.337	4236.13
817.665	4245.62
817.994	4271.38
818.322	4245.62
818.651	4232.52
818.979	4191.39
819.307	4242.46
819.636	4232.97
819.964	4153.65
820.292	4176.92
820.62	4193.65
820.948	4208.56
821.276	4188.68
821.604	4162.69
821.932	4161.33
822.259	4221.89
822.587	4201.33
822.915	4192.97
823.243	4160.88
823.57	4171.27
823.898	4177.6
824.225	4216.02
824.553	4174.21
824.88	4138.28
825.207	4147.09
825.535	4147.09
825.862	4176.92
826.189	4146.19
826.516	4161.11
826.843	4206.3
827.17	4150.94
827.497	4171.5
827.824	4198.17
828.151	4154.55
828.478	4166.98
828.805	4193.42
829.131	4173.53
829.458	4125.17
829.785	4136.93
830.111	4139.41
830.438	4141.22
830.764	4178.05
831.09	4158.85
831.417	4115.91
831.743	4155
832.069	4143.93
832.395	4125.63
832.722	4150.71
833.048	4095.34
833.374	4140.77
833.7	4078.85
834.026	4115.46
834.351	4129.24
834.677	4091.95
835.003	4123.59
835.329	4103.25
835.654	4084.27
835.98	4090.37
836.306	4082.46
836.631	4109.81
836.956	4065.29
837.282	4088.11
837.607	4102.58
837.932	4091.5
838.258	4050.37
838.583	4017.83
838.908	4052.18
839.233	4039.53
839.558	4005.4
839.883	4038.4
840.208	4028.91
840.533	4009.47
840.858	4019.64
841.182	3988.23
841.507	4009.47
841.832	3977.61
842.156	3955.46
842.481	3957.49
842.805	3956.82
843.13	3981.9
843.454	3971.73
843.778	3906.42
844.103	3947.1
844.427	3939.42
844.751	3902.13
845.075	3892.64
845.399	3912.75
845.723	3847.67
846.047	3896.71
846.371	3834.33
846.695	3853.54
847.019	3836.82
847.343	3801.57
847.666	3783.26
847.99	3783.49
848.313	3725.41
848.637	3725.41
848.96	3744.85
849.284	3679.54
849.607	3698.29
849.931	3703.26
850.254	3746.43
850.577	3665.07
850.9	3667.78
851.223	3648.58
851.546	3632.08
851.869	3616.26
852.192	3630.72
852.515	3600.67
852.838	3549.37
853.161	3633.21
853.483	3527.68
853.806	3546.43
854.129	3544.4
854.451	3562.48
854.774	3513.21
855.096	3521.12
855.419	3475.25
855.741	3478.64
856.063	3472.08
856.385	3454.91
856.708	3442.03
857.03	3476.83
857.352	3478.64
857.674	3446.32
857.996	3432.31
858.318	3373.56
858.64	3368.36
858.961	3373.78
859.283	3397.06
859.605	3358.19
859.926	3412.65
860.248	3388.92
860.57	3335.59
860.891	3365.42
861.212	3374.46
861.534	3283.84
861.855	3339.66
862.176	3304.86
862.498	3307.79
862.819	3326.1
863.14	3272.32
863.461	3262.15
863.782	3287.46
864.103	3310.28
864.424	3264.18
864.745	3301.69
865.065	3244.29
865.386	3258.3
865.707	3236.16
866.027	3241.58
866.348	3228.25
866.668	3241.13
866.989	3221.47
867.309	3225.08
867.63	3233.22
867.95	3201.81
868.27	3189.83
868.59	3170.62
868.91	3190.74
869.23	3211.07
869.55	3144.18
869.87	3161.36
870.19	3174.92
870.51	3172.2
870.83	3190.96
871.15	3176.27
871.469	3181.47
871.789	3148.93
872.109	3148.7
872.428	3158.65
872.748	3130.62
873.067	3140.12
873.386	3167.91
873.706	3193
874.025	3105.99
874.344	3127.46
874.663	3108.7
874.982	3143.96
875.301	3123.84
875.62	3093.34
875.939	3099.66
876.258	3120.68
876.577	3053.56
876.896	3062.38
877.214	3106.67
877.533	3081.36
877.852	3079.33
878.17	3089.95
878.489	3108.7
878.807	3090.4
879.125	3050.17
879.444	3067.12
879.762	3047.24
880.08	3050.63
880.398	3043.62
880.716	3043.85
881.034	3041.36
881.352	3018.76
881.67	3002.94
881.988	2999.55
882.306	3012.66
882.624	3042.49
882.941	2976.96
883.259	2966.56
883.577	2965.66
883.894	2947.8
884.212	2977.41
884.529	2965.43
884.846	2985.32
885.164	2929.5
885.481	2942.83
885.798	2960.91
886.115	2929.95
886.432	2929.95
886.75	2933.34
887.067	2936.28
887.383	2913.23
887.7	2954.13
888.017	2881.36
888.334	2879.78
888.651	2908.93
888.967	2874.13
889.284	2879.56
889.6	2857.41
889.917	2848.6
890.233	2826.9
890.55	2799.79
890.866	2849.28
891.182	2824.19
891.498	2828.94
891.815	2809.28
892.131	2818.77
892.447	2786.23
892.763	2804.3
893.079	2764.08
893.395	2776.96
893.71	2750.97
894.026	2775.83
894.342	2769.05
894.657	2748.71
894.973	2696.96
895.289	2723.85
895.604	2750.07
895.92	2703.52
896.235	2687.92
896.55	2686.34
896.865	2719.56
897.181	2679.34
897.496	2651.77
897.811	2645.89
898.126	2631.65
898.441	2652.67
898.756	2644.99
899.071	2619
899.386	2625.55
899.7	2616.29
900.015	2590.98
900.33	2579
900.644	2631.65
900.959	2560.24
901.273	2604.31
901.588	2567.02
901.902	2560.47
902.216	2568.38
902.531	2531.32
902.845	2542.39
903.159	2529.74
903.473	2529.96
903.787	2522.96
904.101	2492.9
904.415	2501.26
904.729	2486.12
905.042	2471.43
905.356	2445.9
905.67	2468.49
905.984	2441.38
906.297	2410.19
906.611	2425.33
906.924	2429.63
907.237	2428.72
907.551	2432.79
907.864	2404.77
908.177	2417.42
908.491	2410.19
908.804	2367.48
909.117	2389.17
909.43	2346.92
909.743	2335.62
910.056	2363.41
910.368	2285.9
910.681	2340.14
910.994	2299.23
911.307	2320.48
911.619	2272.12
911.932	2312.34
912.244	2250.87
912.557	2269.18
912.869	2290.65
913.181	2274.6
913.494	2248.61
913.806	2259.69
914.118	2208.61
914.43	2228.27
914.742	2225.34
915.054	2233.47
915.366	2193.25
915.678	2239.12
915.99	2208.84
916.302	2166.58
916.613	2169.52
916.925	2174.26
917.236	2144.89
917.548	2157.54
917.859	2135.4
918.171	2136.53
918.482	2120.71
918.794	2122.74
919.105	2099.69
919.416	2085.45
919.727	2118.22
920.038	2097.66
920.349	2116.19
920.66	2074.61
920.971	2091.1
921.282	2064.44
921.593	2050.43
921.903	2054.04
922.214	2053.82
922.525	2028.96
922.835	2030.31
923.146	2008.85
923.456	2001.61
923.767	1993.7
924.077	1999.81
924.387	1972.91
924.697	1992.57
925.008	1985.57
925.318	1965.23
925.628	1955.06
925.938	1948.51
926.248	1929.3
926.558	1977.21
926.867	1915.97
927.177	1942.41
927.487	1902.41
927.796	1897.89
928.106	1897.89
928.416	1906.48
928.725	1893.59
929.034	1887.94
929.344	1857.66
929.653	1899.7
929.962	1863.54
930.271	1834.16
930.581	1833.93
930.89	1838.45
931.199	1815.18
931.508	1821.05
931.817	1823.31
932.125	1824.44
932.434	1808.17
932.743	1814.95
933.051	1779.92
933.36	1786.03
933.669	1790.55
933.977	1768.85
934.286	1776.76
934.594	1782.86
934.902	1767.72
935.21	1763.43
935.519	1755.97
935.827	1715.97
936.135	1732.69
936.443	1726.14
936.751	1720.04
937.059	1708.74
937.367	1674.17
937.674	1684.56
937.982	1715.52
938.29	1681.85
938.597	1683.66
938.905	1688.18
939.213	1671.91
939.52	1672.36
939.827	1658.8
940.135	1667.61
940.442	1663.09
940.749	1658.8
941.056	1633.04
941.363	1620.61
941.67	1622.64
941.977	1625.35
942.284	1580.61
942.591	1593.72
942.898	1593.94
943.205	1595.3
943.511	1591.68
943.818	1616.99
944.125	1579.48
944.431	1550.78
944.738	1594.85
945.044	1598.46
945.35	1562.3
945.657	1541.29
945.963	1521.17
946.269	1514.4
946.575	1552.36
946.881	1512.81
947.187	1502.42
947.493	1517.11
947.799	1523.66
948.105	1508.52
948.41	1507.16
948.716	1491.8
949.022	1506.49
949.327	1482.76
949.633	1499.71
949.938	1474.4
950.244	1500.61
950.549	1465.58
950.854	1480.05
951.16	1437.34
951.465	1447.05
951.77	1462.87
952.075	1438.69
952.38	1435.53
952.685	1412.25
952.99	1422.65
953.294	1391.69
953.599	1415.64
953.904	1419.26
954.209	1393.27
954.513	1400.05
954.818	1380.39
955.122	1377.9
955.426	1366.38
955.731	1386.26
956.035	1372.48
956.339	1384.46
956.643	1357.11
956.948	1365.02
957.252	1345.13
957.556	1373.16
957.86	1327.28
958.163	1345.81
958.467	1345.81
958.771	1357.11
959.075	1338.81
959.378	1325.93
959.682	1341.07
959.985	1320.05
960.289	1306.72
960.592	1282.31
960.896	1283.21
961.199	1309.43
961.502	1284.34
961.805	1273.95
962.108	1295.87
962.411	1290.22
962.714	1266.27
963.017	1270.33
963.32	1289.54
963.623	1275.98
963.926	1231.92
964.228	1258.81
964.531	1258.36
964.833	1281.41
965.136	1273.72
965.438	1224.69
965.741	1220.39
966.043	1235.08
966.345	1217.68
966.648	1229.88
966.95	1223.1
967.252	1220.17
967.554	1200.96
967.856	1193.05
968.158	1226.27
968.46	1177.45
968.761	1160.05
969.063	1200.73
969.365	1205.25
969.666	1158.47
969.968	1164.35
970.269	1142.2
970.571	1150.11
970.872	1167.74
971.174	1133.39
971.475	1138.13
971.776	1151.47
972.077	1157.57
972.378	1126.61
972.679	1151.69
972.98	1111.02
973.281	1133.39
973.582	1130.45
973.883	1084.8
974.183	1127.06
974.484	1111.92
974.785	1114.63
975.085	1107.63
975.386	1119.83
975.686	1074.41
975.986	1111.02
976.287	1110.56
976.587	1068.53
976.887	1081.64
977.187	1089.32
977.487	1088.42
977.787	1086.16
978.087	1056.78
978.387	1077.34
978.687	1067.18
978.987	1083.45
979.286	1051.81
979.586	1019.94
979.885	1045.71
980.185	1034.86
980.484	1059.27
980.784	1022.66
981.083	1007.74
981.382	1046.61
981.682	1035.76
981.981	1037.35
982.28	1037.12
982.579	1022.43
982.878	1031.02
983.177	987.86
983.475	992.83
983.774	986.95
984.073	977.46
984.372	981.53
984.67	989.66
984.969	997.57
985.267	998.25
985.566	1033.5
985.864	957.8
986.162	979.04
986.461	947.4
986.759	934.3
987.057	951.25
987.355	966.16
987.653	928.2
987.951	936.78
988.249	963
988.547	929.33
988.844	972.49
989.142	946.5
989.44	941.75
989.737	921.42
990.035	909.44
990.332	949.66
990.63	917.35
990.927	938.59
991.224	921.87
991.521	908.08
991.819	911.02
992.116	920.06
992.413	919.61
992.71	904.02
993.006	883.68
993.303	914.19
993.6	885.49
993.897	879.16
994.193	870.57
994.49	891.13
994.787	885.71
995.083	865.6
995.379	880.74
995.676	885.94
995.972	851.59
996.268	877.12
996.565	879.38
996.861	840.29
997.157	846.39
997.453	853.85
997.749	871.47
998.044	832.15
998.34	871.7
998.636	852.27
998.932	848.42
999.227	842.55
999.523	831.25
999.818	821.08
1000.114	816.11
1000.409	837.8
1000.704	802.32
1001	800.97
1001.295	787.86
1001.59	831.93
1001.885	803.45
1002.18	796
1002.475	808.88
1002.77	787.18
1003.065	768.88
1003.359	791.25
1003.654	776.79
1003.949	786.5
1004.243	773.17
1004.538	766.17
1004.832	786.05
1005.127	823.11
1005.421	771.36
1005.715	751.7
1006.009	782.89
1006.304	763.91
1006.598	765.71
1006.892	760.74
1007.186	759.84
1007.48	739.05
1007.773	738.14
1008.067	763
1008.361	744.47
1008.655	747.86
1008.948	734.3
1009.242	724.81
1009.535	737.92
1009.829	721.65
1010.122	697.69
1010.415	729.78
1010.708	717.13
1011.001	701.08
1011.295	713.06
1011.588	700.63
1011.881	716
1012.173	703.12
1012.466	687.3
1012.759	686.17
1013.052	707.64
1013.344	680.97
1013.637	678.26
1013.93	699.95
1014.222	676.45
1014.514	676
1014.807	653.85
1015.099	697.92
1015.391	677.58
1015.683	683.46
1015.976	656.11
1016.268	682.33
1016.56	662.44
1016.851	659.73
1017.143	651.59
1017.435	659.95
1017.727	656.11
1018.018	672.16
1018.31	628.99
1018.602	655.66
1018.893	645.04
1019.185	638.94
1019.476	648.88
1019.767	632.16
1020.058	651.82
1020.35	621.76
1020.641	611.82
1020.932	613.63
1021.223	611.82
1021.514	610.69
1021.804	623.35
1022.095	625.15
1022.386	591.71
1022.677	612.5
1022.967	590.8
1023.258	604.14
1023.548	612.72
1023.839	594.87
1024.129	607.75
1024.419	574.53
1024.709	575.89
1025	568.88
1025.29	580.18
1025.58	579.28
1025.87	586.51
1026.16	573.63
1026.449	594.42
1026.739	568.88
1027.029	589.22
1027.319	572.73
1027.608	573.85
1027.898	586.74
1028.187	580.86
1028.477	561.43
1028.766	566.62
1029.055	551.71
1029.344	534.99
1029.634	541.09
1029.923	546.51
1030.212	534.99
1030.501	539.05
1030.79	547.41
1031.078	556.68
1031.367	526.85
1031.656	547.87
1031.945	543.35
1032.233	534.08
1032.522	527.53
1032.81	532.95
1033.099	545.38
1033.387	529.79
1033.675	526.85
1033.963	522.33
1034.251	524.82
1034.54	521.43
1034.828	539.73
1035.116	517.13
1035.403	519.85
1035.691	495.89
1035.979	492.73
1036.267	516.68
1036.554	503.35
1036.842	515.33
1037.129	504.25
1037.417	519.17
1037.704	500.64
1037.992	530.01
1038.279	485.04
1038.566	493.41
1038.853	493.41
1039.14	493.41
