Data from mousepad_grey_FLMS001491_00076.txt Node
Date: Wed Feb 08 14:29:55 GMT 2017
User: dcchb
Spectrometer: FLMS00149
Trigger mode: 0
Integration Time (sec): 2.000000E-2
Scans to average: 10
Electric dark correction enabled: true
Nonlinearity correction enabled: false
Boxcar width: 0
XAxis mode: Wavelengths
Number of Pixels in Spectrum: 2048
>>>>>Begin Spectral Data<<<<<
341.393	-16.89
341.776	-16.89
342.16	-16.89
342.543	-44.46
342.927	-62.31
343.31	-50.56
343.693	-70.68
344.077	-65.48
344.46	-44.01
344.843	-68.42
345.226	-36.78
345.61	-43.33
345.993	-4.69
346.376	-7.63
346.759	22.65
347.142	24.91
347.525	43.45
347.908	48.64
348.291	85.48
348.674	71.24
349.057	95.2
349.44	118.92
349.823	145.59
350.206	170.22
350.588	179.49
350.971	184.46
351.354	206.38
351.737	225.59
352.119	232.37
352.502	242.76
352.884	251.12
353.267	266.26
353.65	270.11
354.032	297.22
354.414	303.33
354.797	284.57
355.179	288.86
355.562	291.8
355.944	306.94
356.326	334.74
356.709	322.76
357.091	318.92
357.473	321.4
357.855	320.05
358.238	310.78
358.62	320.95
359.002	315.98
359.384	339.03
359.766	316.43
360.148	313.72
360.53	313.72
360.912	326.15
361.294	325.7
361.676	307.39
362.057	317.56
362.439	326.38
362.821	314.62
363.203	320.05
363.584	299.48
363.966	305.81
364.348	318.47
364.729	316.66
365.111	310.78
365.493	346.49
365.874	293.61
366.256	300.16
366.637	297.9
367.019	301.07
367.4	315.53
367.781	304
368.163	306.94
368.544	323.21
368.925	317.34
369.306	322.53
369.688	290.44
370.069	298.35
370.45	301.97
370.831	302.65
371.212	316.88
371.593	297.68
371.974	294.51
372.355	306.72
372.736	313.95
373.117	290.67
373.498	306.94
373.879	301.97
374.26	310.56
374.641	301.74
375.021	300.84
375.402	315.3
375.783	306.04
376.163	330.22
376.544	319.14
376.925	327.73
377.305	304.46
377.686	309.88
378.066	322.99
378.447	331.35
378.827	323.89
379.208	306.49
379.588	301.07
379.968	329.77
380.349	316.43
380.729	321.63
381.109	342.65
381.489	330.67
381.87	329.77
382.25	346.04
382.63	325.92
383.01	333.83
383.39	337
383.77	325.7
384.15	307.17
384.53	348.07
384.91	354.17
385.29	350.33
385.67	339.03
386.049	347.39
386.429	350.1
386.809	351.46
387.189	336.77
387.568	350.56
387.948	342.19
388.328	341.74
388.707	349.43
389.087	347.84
389.466	349.2
389.846	349.65
390.225	357.56
390.605	355.08
390.984	340.16
391.363	355.3
391.743	361.63
392.122	349.2
392.501	348.07
392.881	372.7
393.26	377
393.639	371.8
394.018	375.64
394.397	355.75
394.776	365.47
395.155	374.51
395.534	382.65
395.913	391.01
396.292	405.24
396.671	356.66
397.05	384.91
397.429	384.91
397.808	392.14
398.186	389.88
398.565	401.63
398.944	378.35
399.323	393.72
399.701	349.43
400.08	382.65
400.458	400.05
400.837	383.78
401.215	407.05
401.594	388.97
401.972	412.48
402.351	404.79
402.729	396.43
403.107	409.99
403.486	414.28
403.864	406.15
404.242	426.94
404.62	397.79
404.999	413.38
405.377	424.68
405.755	400.5
406.133	442.76
406.511	424.9
406.889	413.15
407.267	432.81
407.645	400.27
408.023	425.13
408.401	432.81
408.779	440.72
409.156	460.16
409.534	457.9
409.912	445.47
410.29	446.82
410.667	453.38
411.045	488.41
411.422	468.07
411.8	462.87
412.178	469.42
412.555	473.04
412.933	466.71
413.31	466.48
413.687	477.33
414.065	474.62
414.442	494.05
414.819	489.31
415.197	477.78
415.574	492.25
415.951	508.74
416.328	518.69
416.705	495.86
417.082	511
417.46	515.98
417.837	525.01
418.214	522.75
418.591	521.4
418.967	528.86
419.344	526.14
419.721	529.31
420.098	524.79
420.475	518.46
420.852	546.93
421.228	530.44
421.605	539.03
421.982	555.75
422.358	556.2
422.735	542.42
423.111	558.01
423.488	548.29
423.864	579.02
424.241	560.95
424.617	586.93
424.994	570.89
425.37	594.39
425.746	593.49
426.123	575.18
426.499	586.26
426.875	599.81
427.251	607.27
427.627	619.93
428.003	618.12
428.379	637.33
428.756	631
429.132	615.63
429.507	618.57
429.883	628.97
430.259	645.24
430.635	645.92
431.011	663.77
431.387	640.94
431.763	678.68
432.138	666.25
432.514	683.65
432.89	678.68
433.265	692.47
433.641	684.78
434.016	720.26
434.392	703.99
434.767	720.49
435.143	726.37
435.518	730.88
435.894	732.47
436.269	728.85
436.644	730.66
437.02	757.78
437.395	751
437.77	772.24
438.145	755.06
438.52	759.58
438.895	771.79
439.271	771.56
439.646	804.33
440.021	772.24
440.395	805.69
440.77	797.55
441.145	800.04
441.52	832.58
441.895	800.71
442.27	821.73
442.645	826.93
443.019	819.47
443.394	843.2
443.769	824.22
444.143	827.83
444.518	855.85
444.892	809.3
445.267	836.19
445.641	862.41
446.016	891.33
446.39	866.47
446.764	877.32
447.139	866.02
447.513	868.06
447.887	859.24
448.262	913.93
448.636	888.85
449.01	899.02
449.384	905.12
449.758	929.07
450.132	931.56
450.506	899.47
450.88	949.41
451.254	933.14
451.628	936.3
452.002	940.14
452.376	966.58
452.75	956.87
453.123	971.78
453.497	973.36
453.871	1001.84
454.244	1014.95
454.618	1008.84
454.992	1020.14
455.365	1009.3
455.739	1042.06
456.112	1057.2
456.486	1076.64
456.859	1066.24
457.232	1083.42
457.606	1077.77
457.979	1075.73
458.352	1101.5
458.725	1118.9
459.099	1150.31
459.472	1110.76
459.845	1157.77
460.218	1174.04
460.591	1129.52
460.964	1157.77
461.337	1196.41
461.71	1220.82
462.083	1236.86
462.456	1214.26
462.829	1220.14
463.201	1239.12
463.574	1261.27
463.947	1252.23
464.32	1269.63
464.692	1318.44
465.065	1285.67
465.438	1336.07
465.81	1376.07
466.183	1373.13
466.555	1350.08
466.928	1387.14
467.3	1369.06
467.672	1404.09
468.045	1402.96
468.417	1435.27
468.789	1474.14
469.161	1476.63
469.534	1469.17
469.906	1513.69
470.278	1521.82
470.65	1529.28
471.022	1560.92
471.394	1582.84
471.766	1589.62
472.138	1585.55
472.51	1630.07
472.882	1636.85
473.253	1666.45
473.625	1694.02
473.997	1703.74
474.369	1699.67
474.74	1737.86
475.112	1773.34
475.484	1767.24
475.855	1816.28
476.227	1813.34
476.598	1865.09
476.97	1882.04
477.341	1898.31
477.713	1897.86
478.084	1937.41
478.455	1986.9
478.827	2055.14
479.198	2077.06
479.569	2062.38
479.94	2128.14
480.311	2106.89
480.682	2153.9
481.053	2214.46
481.424	2244.52
481.795	2251.07
482.166	2275.7
482.537	2301.69
482.908	2350.28
483.279	2357.51
483.65	2400.67
484.021	2432.31
484.391	2472.53
484.762	2495.13
485.133	2535.36
485.503	2551.85
485.874	2599.08
486.244	2635.24
486.615	2666.65
486.985	2686.09
487.356	2715.01
487.726	2716.82
488.097	2820.1
488.467	2761.11
488.837	2842.69
489.207	2900.77
489.578	2929.47
489.948	2959.53
490.318	2999.53
490.688	2990.49
491.058	3047.43
491.428	3078.39
491.798	3087.88
492.168	3191.16
492.538	3171.72
492.908	3185.96
493.278	3260.54
493.648	3252.63
494.017	3286.75
494.387	3298.5
494.757	3331.95
495.126	3380.98
495.496	3388.67
495.866	3392.96
496.235	3443.36
496.605	3489.68
496.974	3487.2
497.344	3515.22
497.713	3524.26
498.082	3550.92
498.452	3586.63
498.821	3591.37
499.19	3618.72
499.559	3634.09
499.928	3649.9
500.298	3693.97
500.667	3776.45
501.036	3756.79
501.405	3752.5
501.774	3783.01
502.143	3791.6
502.512	3856.23
502.88	3869.11
503.249	3897.58
503.618	3915.21
503.987	3875.66
504.356	3966.05
504.724	3978.03
505.093	3975.77
505.462	4014.41
505.83	4021.42
506.199	4069.55
506.567	4111.59
506.936	4099.61
507.304	4131.02
507.672	4207.86
508.041	4193.17
508.409	4238.82
508.777	4223.22
509.145	4265.03
509.514	4289.44
509.882	4318.36
510.25	4299.6
510.618	4351.81
510.986	4362.2
511.354	4450.33
511.722	4449.43
512.09	4478.81
512.458	4486.49
512.826	4471.8
513.193	4524.01
513.561	4584.79
513.929	4551.35
514.297	4641.06
514.664	4696.88
515.032	4675.64
515.4	4762.42
515.767	4757.45
516.135	4776.88
516.502	4770.78
516.869	4808.97
517.237	4828.4
517.604	4827.5
517.972	4920.38
518.339	4949.3
518.706	4926.03
519.073	4959.47
519.44	4999.47
519.808	5019.13
520.175	5025.46
520.542	5129.41
520.909	5143.2
521.276	5161.5
521.643	5194.72
522.009	5262.29
522.376	5233.82
522.743	5340.03
523.11	5330.09
523.477	5379.58
523.843	5409.18
524.21	5506.8
524.577	5483.53
524.943	5557.88
525.31	5561.94
525.676	5612.34
526.043	5617.31
526.409	5676.52
526.776	5730.53
527.142	5723.07
527.508	5715.61
527.874	5866.57
528.241	5853.91
528.607	5866.34
528.973	5891.65
529.339	5961.48
529.705	5983.85
530.071	6068.37
530.437	6077.18
530.803	6034.93
531.169	6137.75
531.535	6138.43
531.901	6153.12
532.267	6196.96
532.632	6209.61
532.998	6241.7
533.364	6301.81
533.73	6293.22
534.095	6373
534.461	6379.32
534.826	6417.74
535.192	6460.9
535.557	6515.82
535.923	6556.72
536.288	6532.99
536.653	6550.17
537.019	6536.61
537.384	6571.18
537.749	6626.32
538.114	6653.44
538.479	6667.45
538.845	6690.5
539.21	6719.2
539.575	6771.18
539.94	6763.49
540.305	6834.68
540.67	6844.85
541.034	6831.97
541.399	6881.23
541.764	6905.19
542.129	6960.1
542.494	6976.37
542.858	6929.37
543.223	7028.35
543.587	7040.78
543.952	7062.24
544.316	7132.3
544.681	7072.41
545.045	7113.77
545.41	7205.06
545.774	7210.94
546.138	7186.53
546.503	7242.8
546.867	7264.5
547.231	7378.62
547.595	7339.3
547.959	7338.85
548.324	7412.97
548.688	7421.78
549.052	7430.6
549.416	7493.19
549.779	7596.01
550.143	7482.12
550.507	7564.38
550.871	7605.51
551.235	7609.8
551.599	7674.66
551.962	7645.05
552.326	7767.08
552.689	7793.75
553.053	7773.41
553.417	7758.95
553.78	7860.41
554.143	7853.41
554.507	7930.92
554.87	7862.22
555.234	7993.52
555.597	7949.9
555.96	7995.1
556.323	8009.34
556.686	8001.88
557.05	8092.5
557.413	8062.44
557.776	8193.06
558.139	8180.18
558.502	8212.95
558.865	8214.98
559.228	8300.63
559.59	8404.36
559.953	8336.33
560.316	8384.47
560.679	8373.4
561.041	8460.4
561.404	8482.55
561.767	8495.43
562.129	8509.66
562.492	8595.76
562.854	8610.9
563.217	8603.22
563.579	8636.21
563.941	8741.52
564.304	8756.89
564.666	8796.21
565.028	8843.89
565.39	8808.19
565.753	8919.14
566.115	8980.61
566.477	8979.71
566.839	8997.11
567.201	9065.81
567.563	9062.19
567.925	9127.27
568.287	9124.11
568.648	9113.26
569.01	9228.97
569.372	9277.1
569.734	9200.27
570.095	9311
570.457	9386.7
570.819	9347.38
571.18	9384.22
571.542	9486.13
571.903	9421.28
572.265	9513.48
572.626	9508.51
572.987	9484.33
573.349	9558.45
573.71	9568.17
574.071	9655.62
574.432	9683.19
574.794	9702.17
575.155	9709.86
575.516	9683.19
575.877	9733.59
576.238	9760.25
576.599	9828.05
576.96	9728.16
577.32	9887.93
577.681	9903.3
578.042	9894.71
578.403	9832.79
578.763	9927.25
579.124	9914.37
579.485	9938.33
579.845	10037.08
580.206	9959.57
580.566	9990.98
580.927	9984.65
581.287	10082.73
581.648	10016.06
582.008	10056.74
582.368	10021.49
582.728	10051.09
583.089	10055.84
583.449	10059.45
583.809	10071.88
584.169	10100.81
584.529	10071.43
584.889	10166.12
585.249	10064.2
585.609	10008.15
585.969	10076.85
586.329	10106.91
586.688	10155.72
587.048	10094.48
587.408	10194.82
587.768	10145.78
588.127	10110.07
588.487	10077.76
588.846	10189.62
589.206	10107.14
589.565	10144.65
589.925	10214.7
590.284	10113.01
590.643	10205.21
591.003	10223.97
591.362	10220.35
591.721	10157.08
592.08	10143.29
592.44	10198.43
592.799	10266.23
593.158	10160.69
593.517	10162.95
593.876	10263.52
594.235	10230.07
594.593	10235.04
594.952	10293.57
595.311	10196.17
595.67	10241.14
596.029	10278.88
596.387	10256.96
596.746	10232.56
597.104	10298.32
597.463	10250.63
597.822	10351.65
598.18	10287.7
598.538	10257.87
598.897	10298.32
599.255	10205.66
599.613	10290.18
599.972	10273.01
600.33	10252.22
600.688	10291.09
601.046	10305.55
601.404	10373.34
601.762	10288.15
602.12	10364.3
602.478	10380.57
602.836	10438.43
603.194	10308.03
603.552	10295.15
603.91	10337.19
604.268	10362.95
604.625	10315.72
604.983	10441.36
605.341	10301.25
605.698	10368.82
606.056	10461.02
606.413	10407.47
606.771	10431.87
607.128	10470.06
607.485	10381.93
607.843	10386.22
608.2	10454.02
608.557	10487.92
608.914	10476.62
609.272	10489.72
609.629	10527.01
609.986	10595.03
610.343	10491.53
610.7	10611.08
611.057	10576.73
611.414	10497.41
611.771	10553
612.127	10558.65
612.484	10621.02
612.841	10573.11
613.198	10560.91
613.554	10565.43
613.911	10653.56
614.267	10696.27
614.624	10652.21
614.98	10595.48
615.337	10695.59
615.693	10653.79
616.05	10682.04
616.406	10678.42
616.762	10700.34
617.118	10739.66
617.475	10664.41
617.831	10707.57
618.187	10788.02
618.543	10774.01
618.899	10784.63
619.255	10730.62
619.611	10809.49
619.967	10713
620.323	10747.12
620.678	10734.92
621.034	10788.47
621.39	10811.07
621.746	10754.12
622.101	10890.84
622.457	10758.64
622.812	10867.34
623.168	10776.95
623.523	10796.38
623.879	10802.26
624.234	10834.12
624.589	10844.97
624.945	10870.96
625.3	10835.93
625.655	10866.21
626.01	10852.2
626.365	10788.7
626.72	10853.33
627.075	10884.74
627.43	10776.95
627.785	10753.9
628.14	10827.12
628.495	10891.97
628.85	10804.74
629.205	10734.46
629.559	10861.47
629.914	10786.89
630.269	10793.9
630.623	10748.47
630.978	10789.38
631.332	10807.23
631.687	10814.69
632.041	10761.58
632.396	10755.25
632.75	10780.34
633.104	10799.32
633.459	10714.35
633.813	10681.13
634.167	10715.48
634.521	10672.09
634.875	10736.05
635.229	10751.86
635.583	10666.44
635.937	10664.86
636.291	10665.31
636.645	10638.65
636.999	10570.17
637.352	10682.49
637.706	10653.11
638.06	10692.88
638.413	10618.53
638.767	10603.85
639.121	10606.56
639.474	10547.8
639.828	10552.77
640.181	10612.21
640.534	10522.27
640.888	10524.3
641.241	10536.05
641.594	10535.15
641.947	10519.78
642.301	10581.7
642.654	10517.07
643.007	10577.18
643.36	10575.82
643.713	10487.69
644.066	10551.42
644.419	10455.15
644.771	10446.11
645.124	10317.53
645.477	10272.78
645.83	10259
646.182	10230.07
646.535	10173.35
646.888	10267.81
647.24	10138.32
647.593	10253.35
647.945	10201.6
648.298	10155.04
648.65	10171.54
649.002	10161.82
649.355	10164.08
649.707	10173.35
650.059	10244.31
650.411	10337.86
650.763	10336.51
651.115	10384.87
651.467	10386.22
651.819	10420.57
652.171	10355.94
652.523	10287.7
652.875	10423.51
653.227	10371.99
653.578	10420.57
653.93	10368.82
654.282	10349.16
654.633	10377.86
654.985	10341.93
655.337	10361.37
655.688	10387.81
656.039	10419.67
656.391	10291.31
656.742	10328.82
657.094	10360.01
657.445	10353.23
657.796	10357.52
658.147	10270.29
658.498	10319.33
658.849	10338.32
659.2	10317.53
659.551	10293.12
659.902	10348.26
660.253	10297.19
660.604	10362.04
660.955	10344.87
661.306	10289.96
661.656	10324.76
662.007	10370.18
662.358	10377.86
662.708	10373.8
663.059	10314.36
663.409	10307.13
663.76	10356.39
664.11	10378.99
664.461	10349.84
664.811	10358.2
665.161	10373.57
665.511	10372.44
665.862	10385.09
666.212	10370.41
666.562	10395.49
666.912	10357.07
667.262	10266
667.612	10307.58
667.962	10271.88
668.312	10301.93
668.662	10339.45
669.011	10367.24
669.361	10219.67
669.711	10302.61
670.06	10326.34
670.41	10234.59
670.76	10214.25
671.109	10291.99
671.459	10294.7
671.808	10223.97
672.157	10296.96
672.507	10275.04
672.856	10255.61
673.205	10207.25
673.554	10264.42
673.904	10240.24
674.253	10308.03
674.602	10247.92
674.951	10083.41
675.3	10032.11
675.649	10204.31
675.998	10193.01
676.346	10099
676.695	10149.39
677.044	10116.85
677.393	10150.07
677.741	10178.09
678.09	10197.75
678.438	10150.07
678.787	10141.71
679.135	10074.37
679.484	10030.75
679.832	10040.02
680.181	10006.8
680.529	10045.44
680.877	9969.29
681.225	9983.75
681.573	10083.41
681.922	9973.13
682.27	9975.61
682.618	9988.49
682.966	9914.15
683.314	9986.46
683.661	9927.25
684.009	9887.25
684.357	9789.4
684.705	9776.75
685.053	9835.73
685.4	9770.42
685.748	9779.23
686.095	9805
686.443	9770.87
686.79	9774.71
687.138	9684.32
687.485	9705.11
687.832	9623.53
688.18	9628.05
688.527	9654.72
688.874	9610.2
689.221	9569.52
689.568	9605.91
689.915	9560.03
690.262	9568.17
690.609	9460.37
690.956	9468.28
691.303	9441.39
691.65	9409.75
691.997	9450.66
692.344	9372.01
692.69	9343.09
693.037	9365.23
693.383	9331.11
693.73	9321.39
694.077	9208.85
694.423	9241.85
694.769	9188.06
695.116	9184.22
695.462	9194.62
695.808	9070.78
696.155	9122.3
696.501	9045.92
696.847	9064.45
697.193	9000.95
697.539	8998.24
697.885	8954.4
698.231	8875.3
698.577	8928.18
698.923	8850.22
699.269	8840.05
699.614	8765.93
699.96	8854.74
700.306	8772.03
700.651	8722.99
700.997	8685.25
701.342	8674.18
701.688	8689.55
702.033	8658.59
702.379	8654.29
702.724	8594.86
703.069	8613.39
703.415	8508.08
703.76	8509.21
704.105	8519.15
704.45	8450
704.795	8459.27
705.14	8459.27
705.485	8492.71
705.83	8341.53
706.175	8365.03
706.52	8344.92
706.865	8332.04
707.209	8299.95
707.554	8273.29
707.899	8339.05
708.243	8242.1
708.588	8191.93
708.932	8152.84
709.277	8197.81
709.621	8169.79
709.966	8078.49
710.31	8140.18
710.654	8089.79
710.998	8135.21
711.342	8049.79
711.687	8047.08
712.031	8097.24
712.375	8010.02
712.719	8035.78
713.063	7958.04
713.407	8031.26
713.75	7992.39
714.094	8000.3
714.438	7931.15
714.782	7930.7
715.125	7950.81
715.469	7923.24
715.812	7828.1
716.156	7860.19
716.499	7913.07
716.843	7837.59
717.186	7805.5
717.53	7808.44
717.873	7843.69
718.216	7832.17
718.559	7774.99
718.902	7722.34
719.246	7742.45
719.589	7784.71
719.932	7720.08
720.275	7722.79
720.617	7749.91
720.96	7731.38
721.303	7717.82
721.646	7742.9
721.989	7764.15
722.331	7784.03
722.674	7734.77
723.016	7676.46
723.359	7737.25
723.701	7739.29
724.044	7691.38
724.386	7641.44
724.729	7689.35
725.071	7673.3
725.413	7689.12
725.755	7601.66
726.097	7725.96
726.439	7621.33
726.782	7582.91
727.124	7636.69
727.465	7564.15
727.807	7566.19
728.149	7557.37
728.491	7566.41
728.833	7627.43
729.175	7567.99
729.516	7589.24
729.858	7568.45
730.199	7539.29
730.541	7558.28
730.882	7529.12
731.224	7566.86
731.565	7550.59
731.906	7574.09
732.248	7574.32
732.589	7528.45
732.93	7519.63
733.271	7509.01
733.612	7553.08
733.953	7471.05
734.294	7559.41
734.635	7511.95
734.976	7565.28
735.317	7480.09
735.658	7517.37
735.999	7471.05
736.339	7562.57
736.68	7505.62
737.021	7469.46
737.361	7446.41
737.702	7530.48
738.042	7401.67
738.383	7501.78
738.723	7502.68
739.063	7508.11
739.404	7459.52
739.744	7440.09
740.084	7434.44
740.424	7446.41
740.764	7436.92
741.104	7495.23
741.444	7445.51
741.784	7418.39
742.124	7410.94
742.464	7408
742.804	7487.09
743.143	7466.53
743.483	7408.9
743.823	7368.68
744.162	7428.11
744.502	7403.48
744.841	7395.12
745.181	7481.89
745.52	7380.65
745.86	7459.52
746.199	7428.34
746.538	7340.2
746.877	7407.09
747.216	7437.83
747.556	7391.5
747.895	7386.08
748.234	7359.86
748.573	7359.19
748.911	7366.19
749.25	7321.9
749.589	7356.02
749.928	7320.54
750.267	7352.18
750.605	7325.51
750.944	7321.45
751.283	7316.02
751.621	7303.37
751.96	7315.57
752.298	7316.7
752.636	7300.2
752.975	7254.78
753.313	7255.23
753.651	7284.61
753.989	7207.78
754.327	7299.3
754.666	7292.07
755.004	7211.39
755.342	7214.1
755.679	7215.91
756.017	7193.31
756.355	7227.89
756.693	7195.8
757.031	7196.25
757.368	7157.83
757.706	7177.72
758.044	7153.99
758.381	7180.43
758.719	7090.04
759.056	7165.52
759.394	7115.35
759.731	7015.69
760.068	7107.67
760.405	7021.57
760.743	6958.52
761.08	7043.71
761.417	6961.68
761.754	7013.88
762.091	6974.11
762.428	6928.69
762.765	6927.56
763.102	6911.29
763.438	6835.58
763.775	6868.8
764.112	6839.88
764.449	6828.58
764.785	6846.43
765.122	6786.77
765.458	6763.49
765.795	6716.26
766.131	6753.78
766.467	6701.12
766.804	6664.74
767.14	6671.29
767.476	6681.01
767.812	6640.11
768.148	6645.53
768.485	6617.06
768.821	6621.13
769.157	6585.87
769.492	6543.16
769.828	6515.59
770.164	6534.57
770.5	6512.88
770.836	6458.64
771.171	6445.99
771.507	6403.96
771.842	6367.57
772.178	6371.64
772.513	6373.45
772.849	6356.05
773.184	6308.14
773.519	6291.87
773.855	6268.37
774.19	6291.42
774.525	6244.64
774.86	6231.08
775.195	6181.36
775.53	6216.39
775.865	6192.21
776.2	6139.1
776.535	6087.13
776.87	6059.33
777.205	6030.86
777.539	5984.76
777.874	6032.89
778.209	5954.25
778.543	5933.46
778.878	5955.61
779.212	5949.5
779.547	5911.09
779.881	5919.67
780.215	5855.04
780.55	5897.53
780.884	5796.29
781.218	5817.3
781.552	5917.64
781.886	5810.3
782.22	5761.94
782.554	5789.96
782.888	5725.78
783.222	5666.35
783.556	5670.64
783.889	5643.3
784.223	5663.64
784.557	5657.08
784.89	5662.51
785.224	5624.09
785.557	5598.78
785.891	5566.24
786.224	5569.18
786.558	5571.66
786.891	5473.13
787.224	5553.13
787.557	5479.23
787.891	5491.44
788.224	5456.18
788.557	5465.45
788.89	5360.14
789.223	5416.86
789.556	5384.1
789.888	5350.2
790.221	5337.77
790.554	5340.26
790.887	5345
791.219	5310.88
791.552	5270.88
791.884	5218
792.217	5254.38
792.549	5232.24
792.882	5203.08
793.214	5181.39
793.546	5162.63
793.879	5159.24
794.211	5132.58
794.543	5174.38
794.875	5132.35
795.207	5141.84
795.539	5132.35
795.871	5124.22
796.203	5072.24
796.535	5042.64
796.867	4991.11
797.198	5021.85
797.53	5000.15
797.862	4982.98
798.193	4964.67
798.525	4964.22
798.856	4933.03
799.188	4895.75
799.519	4903.88
799.85	4812.36
800.182	4867.27
800.513	4845.8
800.844	4859.14
801.175	4804.9
801.506	4829.31
801.837	4777.78
802.168	4785.24
802.499	4807.84
802.83	4686.94
803.161	4801.74
803.491	4748.41
803.822	4745.47
804.153	4751.34
804.483	4746.82
804.814	4662.98
805.145	4700.05
805.475	4679.93
805.805	4689.88
806.136	4722.42
806.466	4642.42
806.796	4615.3
807.126	4586.6
807.457	4638.58
807.787	4576.43
808.117	4558.35
808.447	4579.82
808.777	4598.58
809.107	4542.76
809.436	4557
809.766	4512.71
810.096	4518.81
810.426	4498.24
810.755	4491.92
811.085	4491.92
811.414	4489.66
811.744	4420.96
812.073	4464.35
812.403	4432.71
812.732	4418.47
813.061	4405.14
813.39	4393.39
813.719	4359.26
814.049	4381.86
814.378	4369.89
814.707	4387.96
815.036	4355.2
815.365	4338.25
815.693	4317.68
816.022	4331.69
816.351	4298.02
816.68	4252.37
817.008	4285.59
817.337	4253.05
817.665	4234.97
817.994	4234.07
818.322	4216.22
818.651	4203.34
818.979	4215.54
819.307	4212.83
819.636	4218.25
819.964	4244.69
820.292	4214.18
820.62	4235.43
820.948	4183
821.276	4180.96
821.604	4159.5
821.932	4202.66
822.259	4187.97
822.587	4201.53
822.915	4180.51
823.243	4176.22
823.57	4150.91
823.898	4159.72
824.225	4195.65
824.553	4143
824.88	4152.04
825.207	4124.24
825.535	4147.07
825.862	4233.17
826.189	4132.83
826.516	4194.07
826.843	4146.84
827.17	4148.42
827.497	4208.31
827.824	4146.84
828.151	4190.45
828.478	4207.63
828.805	4168.99
829.131	4121.76
829.458	4120.85
829.785	4128.76
830.111	4153.17
830.438	4150.46
830.764	4187.52
831.09	4178.93
831.417	4080.85
831.743	4139.83
832.069	4155.88
832.395	4113.39
832.722	4185.71
833.048	4109.1
833.374	4120.63
833.7	4083.11
834.026	4135.09
834.351	4116.33
834.677	4165.6
835.003	4131.47
835.329	4157.24
835.654	4066.62
835.98	4091.25
836.306	4090.34
836.631	4067.29
836.956	4071.36
837.282	4064.81
837.607	4038.14
837.932	4057.8
838.258	4046.05
838.583	4065.03
838.908	4033.17
839.233	4069.1
839.558	4059.61
839.883	4009.67
840.208	4013.28
840.533	4020.74
840.858	3989.1
841.182	4001.99
841.507	3999.73
841.832	3906.17
842.156	4002.21
842.481	3975.32
842.805	3931.25
843.13	3970.12
843.454	3959.73
843.778	3941.87
844.103	3879.73
844.427	3962.21
844.751	3952.72
845.075	3901.87
845.399	3896.23
845.723	3899.39
846.047	3877.69
846.371	3820.97
846.695	3836.34
847.019	3841.31
847.343	3805.83
847.666	3828.66
847.99	3769.22
848.313	3759.05
848.637	3770.13
848.96	3727.19
849.284	3729
849.607	3707.98
849.931	3713.18
850.254	3681.77
850.577	3659.4
850.9	3663.91
851.223	3621.66
851.546	3658.94
851.869	3610.81
852.192	3645.61
852.515	3580.53
852.838	3580.98
853.161	3545.05
853.483	3543.24
853.806	3567.19
854.129	3524.71
854.451	3490.36
854.774	3493.3
855.096	3452.85
855.419	3474.54
855.741	3503.47
856.063	3493.75
856.385	3467.31
856.708	3447.88
857.03	3459.4
857.352	3420.31
857.674	3464.15
857.996	3411.49
858.318	3411.94
858.64	3430.47
858.961	3391.83
859.283	3358.16
859.605	3380.53
859.926	3390.7
860.248	3406.75
860.57	3374.21
860.891	3328.56
861.212	3328.78
861.534	3340.99
861.855	3315.45
862.176	3345.96
862.498	3315.68
862.819	3356.13
863.14	3317.26
863.461	3274.09
863.782	3298.05
864.103	3274.09
864.424	3278.61
864.745	3271.38
865.065	3263.7
865.386	3237.26
865.707	3254.89
866.027	3246.75
866.348	3274.55
866.668	3258.5
866.989	3231.38
867.309	3230.93
867.63	3251.04
867.95	3206.53
868.27	3222.34
868.59	3253.98
868.91	3211.72
869.23	3205.4
869.55	3166.53
869.87	3217.15
870.19	3193.42
870.51	3219.86
870.83	3209.24
871.15	3195.68
871.469	3187.32
871.789	3180.54
872.109	3165.17
872.428	3154.1
872.748	3147.77
873.067	3184.83
873.386	3139.63
873.706	3135.79
874.025	3140.31
874.344	3140.09
874.663	3139.18
874.982	3120.88
875.301	3102.8
875.62	3112.07
875.939	3109.81
876.258	3124.27
876.577	3070.03
876.896	3083.82
877.214	3125.17
877.533	3086.08
877.852	3076.81
878.17	3103.7
878.489	3073.42
878.807	3075.46
879.125	3071.39
879.444	3069.13
879.762	3074.55
880.08	3061.9
880.398	3006.98
880.716	3020.32
881.034	3045.63
881.352	3028.68
881.67	3051.5
881.988	3045.4
882.306	3032.52
882.624	2983.03
882.941	3004.05
883.259	2977.83
883.577	3012.41
883.894	2991.39
884.212	3001.56
884.529	2995.91
884.846	2969.24
885.164	2945.74
885.481	2940.54
885.798	2910.26
886.115	2904.16
886.432	2943.03
886.75	2912.07
887.067	2920.21
887.383	2916.82
887.7	2929.25
888.017	2900.77
888.334	2930.15
888.651	2897.16
888.967	2882.92
889.284	2853.09
889.6	2876.59
889.917	2866.65
890.233	2806.31
890.55	2821.68
890.866	2836.59
891.182	2811.96
891.498	2809.25
891.815	2810.83
892.131	2768.12
892.447	2775.8
892.763	2797.05
893.079	2791.85
893.395	2785.75
893.71	2754.79
894.026	2772.19
894.342	2758.85
894.657	2753.88
894.973	2745.3
895.289	2717.5
895.604	2724.5
895.92	2705.75
896.235	2697.61
896.55	2713.43
896.865	2690.16
897.181	2695.8
897.496	2687.22
897.811	2655.13
898.126	2654.22
898.441	2656.03
898.756	2655.35
899.071	2612.87
899.386	2623.72
899.7	2607.67
900.015	2640.21
900.33	2585.3
900.644	2575.13
900.959	2588.69
901.273	2572.42
901.588	2578.97
901.902	2552.53
902.216	2534.91
902.531	2525.19
902.845	2537.16
903.159	2528.8
903.473	2499.65
903.787	2521.35
904.101	2517.96
904.415	2524.28
904.729	2507.79
905.042	2486.32
905.356	2460.56
905.67	2455.36
905.984	2462.14
906.297	2456.72
906.611	2461.69
906.924	2426.89
907.237	2409.48
907.551	2406.32
907.864	2420.33
908.177	2384.4
908.491	2412.42
908.804	2389.15
909.117	2360.67
909.43	2369.26
909.743	2346.66
910.056	2348.7
910.368	2335.59
910.681	2299.66
910.994	2316.38
911.307	2330.62
911.619	2311.86
911.932	2309.6
912.244	2305.53
912.557	2270.73
912.869	2261.01
913.181	2272.31
913.494	2243.61
913.806	2258.53
914.118	2225.76
914.43	2231.18
914.742	2228.02
915.054	2237.51
915.366	2208.59
915.678	2196.16
915.99	2221.69
916.302	2179.66
916.613	2182.15
916.925	2161.13
917.236	2175.14
917.548	2146.44
917.859	2149.38
918.171	2121.13
918.482	2093.56
918.794	2122.94
919.105	2139.89
919.416	2094.46
919.727	2113.67
920.038	2118.64
920.349	2058.31
920.66	2063.05
920.971	2115.71
921.282	2085.65
921.593	2059.44
921.903	2033
922.214	2047.01
922.525	2040
922.835	2014.92
923.146	2012.66
923.456	2001.36
923.767	1999.55
924.077	2022.15
924.387	2017.18
924.697	1981.02
925.008	1959.1
925.318	1990.51
925.628	1983.51
925.938	1945.99
926.248	1945.32
926.558	1929.27
926.867	1954.36
927.177	1907.8
927.487	1920.46
927.796	1891.31
928.106	1915.71
928.416	1919.1
928.725	1882.94
929.034	1867.35
929.344	1866.22
929.653	1845.43
929.962	1860.35
930.271	1866.45
930.581	1856.28
930.89	1834.58
931.199	1840.46
931.508	1840.91
931.817	1817.18
932.125	1821.93
932.434	1839.33
932.743	1811.53
933.051	1798.88
933.36	1803.85
933.669	1759.78
933.977	1770.86
934.286	1795.94
934.594	1755.26
934.902	1763.85
935.21	1765.89
935.519	1755.26
935.827	1736.96
936.135	1730.18
936.443	1727.47
936.751	1746.23
937.059	1731.31
937.367	1724.3
937.674	1687.7
937.982	1718.66
938.29	1705.32
938.597	1706.45
938.905	1702.61
939.213	1685.21
939.52	1660.8
939.827	1657.41
940.135	1660.8
940.442	1656.28
940.749	1663.74
941.056	1657.19
941.363	1629.39
941.67	1597.53
941.977	1629.62
942.284	1615.83
942.591	1607.47
942.898	1586.91
943.205	1624.19
943.511	1597.98
943.818	1591.65
944.125	1586
944.431	1562.28
944.738	1581.03
945.044	1595.49
945.35	1559.11
945.657	1580.81
945.963	1556.85
946.269	1540.35
946.575	1543.52
946.881	1542.61
947.187	1550.3
947.493	1548.04
947.799	1520.02
948.105	1492.22
948.41	1507.14
948.716	1520.92
949.022	1497.87
949.327	1494.71
949.633	1484.54
949.938	1505.78
950.244	1469.4
950.549	1463.75
950.854	1454.26
951.16	1463.07
951.465	1455.61
951.77	1469.85
952.075	1440.02
952.38	1423.52
952.685	1441.15
952.99	1394.14
953.294	1401.83
953.599	1405.44
953.904	1417.42
954.209	1399.79
954.513	1416.52
954.818	1370.19
955.122	1389.62
955.426	1394.82
955.731	1365.22
956.035	1396.4
956.339	1387.36
956.643	1370.19
956.948	1362.28
957.252	1387.14
957.556	1361.38
957.86	1352.79
958.163	1343.3
958.467	1347.59
958.771	1331.55
959.075	1298.1
959.378	1329.97
959.682	1322.28
959.985	1310.76
960.289	1310.76
960.592	1306.01
960.896	1306.46
961.199	1304.2
961.502	1321.83
961.805	1281.6
962.108	1274.6
962.411	1293.13
962.714	1285.9
963.017	1264.88
963.32	1278.67
963.623	1262.62
963.926	1264.43
964.228	1248.61
964.531	1259.23
964.833	1252.9
965.136	1225.56
965.438	1250.65
965.741	1246.58
966.043	1237.99
966.345	1206.58
966.648	1236.63
966.95	1212
967.252	1193.7
967.554	1179.46
967.856	1196.64
968.158	1179.23
968.46	1192.34
968.761	1178.1
969.063	1190.76
969.365	1165
969.666	1146.47
969.968	1175.17
970.269	1164.09
970.571	1160.7
970.872	1160.93
971.174	1128.84
971.475	1140.59
971.776	1155.28
972.077	1145.34
972.378	1143.08
972.679	1124.77
972.98	1137.88
973.281	1127.71
973.582	1127.03
973.883	1117.09
974.183	1137.43
974.484	1105.11
974.785	1065.79
975.085	1133.36
975.386	1112.8
975.686	1108.5
975.986	1089.52
976.287	1100.59
976.587	1076.41
976.887	1079.8
977.187	1075.06
977.487	1077.77
977.787	1060.37
978.087	1044.32
978.387	1050.65
978.687	1048.84
978.987	1081.38
979.286	1045.68
979.586	1058.79
979.885	1057.66
980.185	1046.36
980.484	1045
980.784	1038.9
981.083	1049.75
981.382	1039.35
981.682	1039.58
981.981	1018.79
982.28	1036.64
982.579	1018.79
982.878	1009.3
983.177	1024.66
983.475	995.06
983.774	1021.27
984.073	975.85
984.372	994.38
984.67	986.25
984.969	994.83
985.267	975.17
985.566	1000.26
985.864	985.79
986.162	986.7
986.461	1005.45
986.759	957.55
987.057	954.83
987.355	952.57
987.653	948.51
987.951	960.26
988.249	957.55
988.547	980.14
988.844	946.02
989.142	955.51
989.44	927.94
989.737	936.3
990.035	907.38
990.332	927.72
990.63	951.9
990.927	929.98
991.224	901.95
991.521	927.49
991.819	893.37
992.116	913.03
992.413	913.03
992.71	918.22
993.006	900.15
993.303	895.63
993.6	899.69
993.897	897.66
994.193	881.84
994.49	899.92
994.787	891.33
995.083	891.78
995.379	869.86
995.676	903.31
995.972	850.88
996.268	857.21
996.565	859.92
996.861	867.6
997.157	861.28
997.453	863.31
997.749	843.88
998.044	842.97
998.34	840.26
998.636	854.5
998.932	852.46
999.227	836.19
999.523	840.49
999.818	844.55
1000.114	848.85
1000.409	805.23
1000.704	826.93
1001	809.75
1001.295	781.96
1001.59	799.58
1001.885	805.23
1002.18	807.04
1002.475	812.92
1002.77	800.49
1003.065	816.76
1003.359	793.71
1003.654	803.65
1003.949	785.8
1004.243	781.28
1004.538	782.63
1004.832	772.92
1005.127	792.58
1005.421	756.19
1005.715	761.17
1006.009	782.41
1006.304	780.37
1006.598	767.49
1006.892	764.33
1007.186	758.45
1007.48	754.16
1007.773	778.57
1008.067	747.38
1008.361	721.39
1008.655	745.57
1008.948	761.84
1009.242	735.63
1009.535	747.38
1009.829	749.64
1010.122	722.75
1010.415	703.99
1010.708	729.3
1011.001	705.8
1011.295	718
1011.588	707.38
1011.881	723.88
1012.173	697.89
1012.466	714.39
1012.759	727.49
1013.052	669.87
1013.344	676.65
1013.637	692.24
1013.93	675.07
1014.222	682.75
1014.514	693.15
1014.807	699.93
1015.099	699.25
1015.391	687.95
1015.683	671
1015.976	682.98
1016.268	671.68
1016.56	669.19
1016.851	660.38
1017.143	663.54
1017.435	665.12
1017.727	649.53
1018.018	668.74
1018.31	655.41
1018.602	646.14
1018.893	613.6
1019.185	640.49
1019.476	630.1
1019.767	628.97
1020.058	642.3
1020.35	634.84
1020.641	625.8
1020.932	621.06
1021.223	648.63
1021.514	608.18
1021.804	597.78
1022.095	622.86
1022.386	602.53
1022.677	596.2
1022.967	601.17
1023.258	622.41
1023.548	602.07
1023.839	606.59
1024.129	598.46
1024.419	605.46
1024.709	583.32
1025	583.77
1025.29	585.8
1025.58	610.66
1025.87	600.04
1026.16	579.48
1026.449	576.76
1026.739	571.57
1027.029	575.41
1027.319	556.43
1027.608	571.11
1027.898	571.79
1028.187	575.18
1028.477	548.29
1028.766	567.95
1029.055	586.03
1029.344	555.07
1029.634	565.47
1029.923	559.59
1030.212	565.47
1030.501	553.26
1030.79	554.84
1031.078	544
1031.367	549.42
1031.656	563.88
1031.945	531.79
1032.233	540.16
1032.522	543.32
1032.81	560.04
1033.099	522.98
1033.387	522.98
1033.675	529.31
1033.963	513.04
1034.251	504
1034.54	513.72
1034.828	533.15
1035.116	520.49
1035.403	517.56
1035.691	503.55
1035.979	526.37
1036.267	503.77
1036.554	512.13
1036.842	521.17
1037.129	513.72
1037.417	512.81
1037.704	516.88
1037.992	519.82
1038.279	492.25
1038.566	502.87
1038.853	502.87
1039.14	502.87
