Data from mousepad_grey_FLMS001491_00044.txt Node
Date: Wed Feb 08 14:29:29 GMT 2017
User: dcchb
Spectrometer: FLMS00149
Trigger mode: 0
Integration Time (sec): 2.000000E-2
Scans to average: 10
Electric dark correction enabled: true
Nonlinearity correction enabled: false
Boxcar width: 0
XAxis mode: Wavelengths
Number of Pixels in Spectrum: 2048
>>>>>Begin Spectral Data<<<<<
341.393	-1.72
341.776	-1.72
342.16	-1.72
342.543	-69.97
342.927	-71.78
343.31	-66.13
343.693	-59.35
344.077	-47.37
344.46	-60.03
344.843	-63.64
345.226	-45.11
345.61	-38.11
345.993	-12.34
346.376	-17.77
346.759	1.67
347.142	21.78
347.525	51.38
347.908	68.33
348.291	74.21
348.674	105.84
349.057	86.64
349.44	115.34
349.823	125.96
350.206	145.39
350.588	170.25
350.971	197.59
351.354	213.64
351.737	229.46
352.119	231.27
352.502	253.19
352.884	272.39
353.267	265.61
353.65	262.68
354.032	289.57
354.414	272.85
354.797	294.09
355.179	305.16
355.562	297.25
355.944	334.99
356.326	316.69
356.709	337.25
357.091	313.97
357.473	324.37
357.855	325.05
358.238	324.82
358.62	333.64
359.002	339.74
359.384	332.51
359.766	308.78
360.148	306.97
360.53	312.62
360.912	327.08
361.294	321.88
361.676	334.09
362.057	321.43
362.439	325.05
362.821	302.9
363.203	317.59
363.584	302.68
363.966	288.44
364.348	306.29
364.729	298.61
365.111	304.03
365.493	306.29
365.874	301.09
366.256	308.78
366.637	292.51
367.019	286.4
367.4	302.68
367.781	283.02
368.163	307.42
368.544	305.39
368.925	296.12
369.306	295.44
369.688	304.26
370.069	303.58
370.45	304.03
370.831	292.96
371.212	300.64
371.593	300.87
371.974	307.65
372.355	308.78
372.736	286.63
373.117	311.94
373.498	325.27
373.879	299.29
374.26	303.58
374.641	286.86
375.021	297.7
375.402	300.42
375.783	315.78
376.163	298.83
376.544	304.03
376.925	312.39
377.305	308.33
377.686	324.82
378.066	311.26
378.447	311.71
378.827	318.27
379.208	319.17
379.588	303.58
379.968	302
380.349	310.81
380.729	310.13
381.109	318.49
381.489	309.46
381.87	294.09
382.25	325.5
382.63	331.15
383.01	337.7
383.39	319.4
383.77	308.33
384.15	306.07
384.53	349.23
384.91	319.17
385.29	323.01
385.67	306.97
386.049	345.84
386.429	343.8
386.809	341.09
387.189	360.08
387.568	326.18
387.948	326.86
388.328	339.96
388.707	341.54
389.087	347.87
389.466	351.04
389.846	341.77
390.225	356.01
390.605	357.82
390.984	324.6
391.363	341.09
391.743	363.69
392.122	339.28
392.501	372.5
392.881	343.58
393.26	359.4
393.639	346.06
394.018	380.41
394.397	357.59
394.776	355.78
395.155	347.42
395.534	349.68
395.913	354.43
396.292	366.4
396.671	384.03
397.05	374.31
397.429	369.57
397.808	387.19
398.186	374.09
398.565	401.43
398.944	383.8
399.323	379.28
399.701	378.83
400.08	380.19
400.458	385.39
400.837	376.8
401.215	391.71
401.594	370.92
401.972	376.35
402.351	384.93
402.729	397.81
403.107	387.19
403.486	385.16
403.864	420.19
404.242	414.09
404.62	426.29
404.999	396.46
405.377	408.21
405.755	410.02
406.133	420.86
406.511	421.99
406.889	416.57
407.267	420.19
407.645	424.25
408.023	423.58
408.401	409.57
408.779	436.01
409.156	406.63
409.534	418.38
409.912	449.79
410.29	449.79
410.667	447.53
411.045	460.41
411.422	438.04
411.8	457.7
412.178	455.44
412.555	464.03
412.933	484.59
413.31	476.23
413.687	466.97
414.065	466.51
414.442	475.1
414.819	463.58
415.197	480.3
415.574	494.31
415.951	481.88
416.328	496.57
416.705	497.02
417.082	479.62
417.46	512.84
417.837	512.84
418.214	508.77
418.591	512.39
418.967	515.1
419.344	507.87
419.721	510.35
420.098	518.72
420.475	526.62
420.852	520.52
421.228	536.34
421.605	524.82
421.982	525.95
422.358	552.84
422.735	541.31
423.111	532.73
423.488	542.22
423.864	526.4
424.241	584.25
424.617	563.69
424.994	547.87
425.37	552.84
425.746	580.86
426.123	568.66
426.499	561.2
426.875	581.76
427.251	574.98
427.627	585.83
428.003	591.03
428.379	580.86
428.756	596.45
429.132	599.62
429.507	604.36
429.883	611.59
430.259	622.44
430.635	620.86
431.011	632.61
431.387	611.59
431.763	657.92
432.138	647.75
432.514	650.92
432.89	680.52
433.265	673.29
433.641	657.92
434.016	660.86
434.392	694.3
434.767	700.86
435.143	683
435.518	679.84
435.894	704.02
436.269	723
436.644	716.45
437.02	719.84
437.395	711.48
437.77	725.94
438.145	745.15
438.52	736.56
438.895	731.14
439.271	751.93
439.646	738.14
440.021	776.11
440.395	768.2
440.77	775.66
441.145	756.68
441.52	803
441.895	759.61
442.27	781.31
442.645	751.03
443.019	783.34
443.394	793.74
443.769	802.78
444.143	799.61
444.518	807.07
444.892	826.73
445.267	822.66
445.641	824.24
446.016	838.93
446.39	831.7
446.764	835.09
447.139	843.23
447.513	853.85
447.887	838.25
448.262	857.24
448.636	848.88
449.01	851.14
449.384	878.71
449.758	893.17
450.132	873.51
450.506	897.46
450.88	880.97
451.254	891.13
451.628	931.81
452.002	934.98
452.376	939.72
452.75	930
453.123	949.21
453.497	941.98
453.871	928.87
454.244	975.88
454.618	956.9
454.992	964.13
455.365	957.12
455.739	988.08
456.112	1007.52
456.486	1027.4
456.859	1025.14
457.232	1011.81
457.606	1046.61
457.979	1053.62
458.352	1072.82
458.725	1057.46
459.099	1069.44
459.472	1099.72
459.845	1109.21
460.218	1108.98
460.591	1115.76
460.964	1124.57
461.337	1146.04
461.71	1132.26
462.083	1151.47
462.456	1161.18
462.829	1177.45
463.201	1184.23
463.574	1195.31
463.947	1213.16
464.32	1225.36
464.692	1232.82
465.065	1263.33
465.438	1254.52
465.81	1286.6
466.183	1283.67
466.555	1309.88
466.928	1279.6
467.3	1294.97
467.672	1339.48
468.045	1390.1
468.417	1366.15
468.789	1351.24
469.161	1377.22
469.534	1428.75
469.906	1435.3
470.278	1439.82
470.65	1453.83
471.022	1457.22
471.394	1476.88
471.766	1499.03
472.138	1494.73
472.51	1529.99
472.882	1549.42
473.253	1607.27
473.625	1570.89
473.997	1631.68
474.369	1620.83
474.74	1668.97
475.112	1652.24
475.484	1709.42
475.855	1722.3
476.227	1765.69
476.598	1781.96
476.97	1771.34
477.341	1815.86
477.713	1858.79
478.084	1853.6
478.455	1899.02
478.827	1897.66
479.198	1958.68
479.569	1942.63
479.94	1987.38
480.311	2010.43
480.682	2078.9
481.053	2099.69
481.424	2136.53
481.795	2125
482.166	2173.13
482.537	2190.76
482.908	2220.59
483.279	2237.09
483.65	2296.97
484.021	2290.65
484.391	2358.44
484.762	2369.97
485.133	2369.51
485.503	2437.08
485.874	2449.74
486.244	2488.15
486.615	2549.17
486.985	2549.62
487.356	2602.73
487.726	2629.85
488.097	2669.17
488.467	2629.85
488.837	2718.88
489.207	2760.01
489.578	2780.12
489.948	2799.56
490.318	2827.36
490.688	2894.02
491.058	2906.9
491.428	2926.79
491.798	2964.07
492.168	3001.14
492.538	3002.72
492.908	3026.22
493.278	3113
493.648	3101.02
494.017	3114.81
494.387	3143.28
494.757	3132.21
495.126	3177.4
495.496	3208.81
495.866	3233.22
496.235	3262.6
496.605	3315.25
496.974	3284.52
497.344	3302.14
497.713	3332.2
498.082	3351.18
498.452	3402.03
498.821	3443.61
499.19	3430.28
499.559	3475.25
499.928	3490.61
500.298	3506.66
500.667	3544.4
501.036	3536.49
501.405	3517.96
501.774	3569.03
502.143	3580.56
502.512	3601.8
502.88	3607.22
503.249	3621.01
503.618	3685.41
503.987	3686.99
504.356	3726.31
504.724	3762.47
505.093	3757.05
505.462	3752.98
505.83	3769.7
506.199	3807.22
506.567	3877.95
506.936	3895.8
507.304	3919.98
507.672	3885.63
508.041	3943.48
508.409	3966.53
508.777	3976.48
509.145	4044.05
509.514	4013.99
509.882	4089.24
510.25	4070.26
510.618	4094.67
510.986	4135.8
511.354	4169.24
511.722	4227.77
512.09	4232.06
512.458	4222.8
512.826	4319.75
513.193	4285.17
513.561	4329.46
513.929	4303.7
514.297	4405.84
514.664	4378.5
515.032	4438.39
515.4	4483.36
515.767	4468.22
516.135	4474.32
516.502	4494.88
516.869	4540.53
517.237	4558.38
517.604	4556.8
517.972	4650.58
518.339	4674.31
518.706	4665.05
519.073	4686.06
519.44	4719.51
519.808	4774.42
520.175	4754.76
520.542	4815.55
520.909	4882.44
521.276	4836.34
521.643	4875.44
522.009	4887.87
522.376	4968.09
522.743	4987.3
523.11	5024.59
523.477	5042.44
523.843	5103.91
524.21	5153.62
524.577	5168.08
524.943	5142.55
525.31	5209.89
525.676	5272.26
526.043	5311.36
526.409	5343.45
526.776	5412.15
527.142	5455.53
527.508	5472.48
527.874	5460.73
528.241	5511.8
528.607	5476.32
528.973	5598.58
529.339	5558.58
529.705	5602.42
530.071	5632.93
530.437	5725.36
530.803	5711.8
531.169	5790.44
531.535	5758.35
531.901	5807.84
532.267	5820.72
532.632	5903.21
532.998	5888.07
533.364	5929.19
533.73	5919.7
534.095	5960.83
534.461	6034.95
534.826	6029.08
535.192	6090.32
535.557	6074.28
535.923	6100.04
536.288	6129.42
536.653	6182.3
537.019	6170.32
537.384	6187.72
537.749	6208.74
538.114	6240.37
538.479	6253.48
538.845	6302.74
539.21	6363.53
539.575	6315.85
539.94	6408.28
540.305	6373.7
540.67	6405.11
541.034	6430.88
541.399	6470.88
541.764	6550.65
542.129	6506.13
542.494	6572.12
542.858	6604.66
543.223	6584.09
543.587	6658.89
543.952	6615.5
544.316	6651.44
544.681	6670.19
545.045	6730.98
545.41	6752
545.774	6790.64
546.138	6770.98
546.503	6740.92
546.867	6817.53
547.231	6904.54
547.595	6938.21
547.959	6918.09
548.324	6934.82
548.688	6958.32
549.052	7027.24
549.416	7016.85
549.779	7051.2
550.143	7050.07
550.507	7068.37
550.871	7203.29
551.235	7142.27
551.599	7203.51
551.962	7232.44
552.326	7239.22
552.689	7302.94
553.053	7286.45
553.417	7309.05
553.78	7375.94
554.143	7343.85
554.507	7397.18
554.87	7444.18
555.234	7488.48
555.597	7463.17
555.96	7459.1
556.323	7588.13
556.686	7546.33
557.05	7589.26
557.413	7675.14
557.776	7634.46
558.139	7726.66
558.502	7724.63
558.865	7777.28
559.228	7756.26
559.59	7839.88
559.953	7785.87
560.316	7929.14
560.679	7932.53
561.041	8011.85
561.404	8052.98
561.767	7991.06
562.129	7958.75
562.492	8144.5
562.854	8083.04
563.217	8083.04
563.579	8146.76
563.941	8228.57
564.304	8223.37
564.666	8315.8
565.028	8303.6
565.39	8324.16
565.753	8377.27
566.115	8381.79
566.477	8463.37
566.839	8492.97
567.201	8449.81
567.563	8539.97
567.925	8537.26
568.287	8601.67
568.648	8585.62
569.01	8654.32
569.372	8682.34
569.734	8693.42
570.095	8726.86
570.457	8771.61
570.819	8761.66
571.18	8840.08
571.542	8859.06
571.903	8870.81
572.265	8943.35
572.626	8899.29
572.987	8958.95
573.349	9030.81
573.71	9076
574.071	9085.04
574.432	9101.77
574.794	9192.61
575.155	9149.9
575.516	9121.88
575.877	9181.76
576.238	9208.88
576.599	9221.99
576.96	9243.68
577.32	9227.19
577.681	9320.29
578.042	9231.25
578.403	9273.74
578.763	9319.16
579.124	9357.35
579.485	9320.29
579.845	9398.48
580.206	9347.86
580.566	9456.56
580.927	9385.6
581.287	9470.34
581.648	9416.79
582.008	9497.69
582.368	9407.3
582.728	9474.64
583.089	9446.39
583.449	9476.22
583.809	9432.61
584.169	9453.62
584.529	9486.16
584.889	9626.05
585.249	9461.3
585.609	9442.77
585.969	9540.4
586.329	9537.46
586.688	9515.54
587.048	9541.53
587.408	9478.25
587.768	9509.67
588.127	9442.55
588.487	9552.15
588.846	9596.44
589.206	9491.36
589.565	9471.93
589.925	9555.09
590.284	9537.24
590.643	9577.69
591.003	9568.87
591.362	9623.56
591.721	9632.37
592.08	9644.58
592.44	9644.58
592.799	9632.83
593.158	9623.33
593.517	9599.38
593.876	9690
594.235	9591.47
594.593	9590.79
594.952	9613.62
595.311	9550.57
595.67	9645.03
596.029	9653.16
596.387	9645.71
596.746	9742.65
597.104	9599.83
597.463	9591.92
597.822	9681.41
598.18	9634.41
598.538	9615.65
598.897	9724.35
599.255	9696.1
599.613	9762.09
599.972	9733.84
600.33	9735.2
600.688	9691.58
601.046	9736.33
601.404	9742.65
601.762	9713.95
602.12	9807.96
602.478	9770.68
602.836	9773.84
603.194	9743.33
603.552	9711.02
603.91	9647.06
604.268	9701.75
604.625	9703.33
604.983	9754.86
605.341	9765.7
605.698	9829.2
606.056	9763.67
606.413	9788.08
606.771	9829.43
607.128	9835.53
607.485	9785.14
607.843	9825.82
608.2	9846.38
608.557	9858.81
608.914	9883.44
609.272	9875.31
609.629	9924.57
609.986	9915.98
610.343	9849.77
610.7	9911.46
611.057	9888.64
611.414	9875.53
611.771	9896.1
612.127	10019.71
612.484	9960.5
612.841	10027.17
613.198	9922.76
613.554	9975.19
613.911	10052.93
614.267	9995.53
614.624	9950.33
614.98	10035.53
615.337	10071.01
615.693	10062.19
616.05	10063.1
616.406	10045.47
616.762	10072.81
617.118	10101.06
617.475	10079.59
617.831	10097.45
618.187	10098.12
618.543	10086.6
618.899	10172.25
619.255	10066.26
619.611	10216.31
619.967	10143.55
620.323	10201.4
620.678	10068.52
621.034	10102.64
621.39	10154.62
621.746	10100.16
622.101	10206.37
622.457	10101.51
622.812	10186.71
623.168	10195.07
623.523	10197.1
623.879	10216.31
624.234	10203.43
624.589	10245.92
624.945	10218.12
625.3	10203.43
625.655	10236.88
626.01	10194.39
626.365	10192.13
626.72	10151.91
627.075	10245.47
627.43	10269.19
627.785	10166.37
628.14	10182.87
628.495	10181.06
628.85	10146.48
629.205	10140.61
629.559	10175.18
629.914	10193.94
630.269	10229.65
630.623	10146.94
630.978	10141.74
631.332	10190.33
631.687	10221.51
632.041	10187.61
632.396	10178.8
632.75	10127.73
633.104	10153.49
633.459	10031.46
633.813	10138.35
634.167	10097.9
634.521	10102.42
634.875	10142.19
635.229	10151.91
635.583	10049.99
635.937	10040.72
636.291	10035.08
636.645	10069.42
636.999	10123.43
637.352	10019.26
637.706	9987.17
638.06	10038.24
638.413	9999.6
638.767	9973.83
639.121	9946.49
639.474	9922.08
639.828	9978.35
640.181	9978.81
640.534	9981.52
640.888	9915.53
641.241	9941.07
641.594	9947.17
641.947	9954.63
642.301	9885.93
642.654	9944.91
643.007	9952.59
643.36	9958.24
643.713	9868.07
644.066	9926.83
644.419	9908.52
644.771	9795.08
645.124	9724.12
645.477	9723.67
645.83	9746.95
646.182	9643.9
646.535	9657.46
646.888	9655.42
647.24	9567.52
647.593	9704.24
647.945	9620.85
648.298	9556.22
648.65	9523.45
649.002	9585.14
649.355	9567.29
649.707	9586.5
650.059	9560.96
650.411	9734.52
650.763	9779.49
651.115	9798.7
651.467	9842.99
651.819	9833.95
652.171	9839.83
652.523	9794.86
652.875	9793.05
653.227	9772.94
653.578	9857.23
653.93	9811.58
654.282	9774.97
654.633	9774.97
654.985	9779.71
655.337	9755.08
655.688	9869.43
656.039	9820.39
656.391	9690.68
656.742	9799.6
657.094	9708.53
657.445	9772.71
657.796	9797.12
658.147	9713.73
658.498	9777.91
658.849	9803.22
659.2	9773.39
659.551	9721.64
659.902	9864.23
660.253	9712.6
660.604	9785.82
660.955	9702.43
661.306	9797.79
661.656	9733.61
662.007	9792.6
662.358	9718.25
662.708	9775.42
663.059	9767.06
663.409	9711.47
663.76	9775.65
664.11	9751.47
664.461	9764.12
664.811	9797.12
665.161	9698.59
665.511	9690.45
665.862	9766.38
666.212	9751.92
666.562	9779.49
666.912	9748.53
667.262	9765.93
667.612	9667.18
667.962	9775.42
668.312	9776.55
668.662	9786.49
669.011	9732.94
669.361	9743.78
669.711	9690.45
670.06	9690.23
670.41	9785.36
670.76	9733.84
671.109	9752.6
671.459	9647.97
671.808	9627.18
672.157	9727.96
672.507	9651.13
672.856	9623.79
673.205	9675.76
673.554	9757.12
673.904	9583.11
674.253	9671.24
674.602	9659.72
674.951	9514.86
675.3	9545.82
675.649	9609.1
675.998	9644.8
676.346	9640.96
676.695	9649.1
677.044	9565.71
677.393	9538.59
677.741	9595.99
678.09	9558.7
678.438	9564.13
678.787	9600.74
679.135	9564.58
679.484	9519.83
679.832	9514.64
680.181	9439.38
680.529	9501.98
680.877	9468.08
681.225	9430.12
681.573	9472.38
681.922	9444.36
682.27	9377.69
682.618	9434.86
682.966	9400.29
683.314	9390.12
683.661	9342.44
684.009	9378.14
684.357	9295.43
684.705	9307.41
685.053	9273.29
685.4	9223.12
685.748	9253.85
686.095	9224.93
686.443	9163.91
686.79	9211.14
687.138	9193.06
687.485	9184.25
687.832	9146.96
688.18	9165.72
688.527	9062.9
688.874	9082.11
689.221	9103.8
689.568	9045.5
689.915	9052.95
690.262	8925.05
690.609	9021.09
690.956	8971.83
691.303	8956.46
691.65	8883.92
691.997	8854.32
692.344	8852.96
692.69	8823.81
693.037	8845.95
693.383	8731.83
693.73	8811.15
694.077	8794.43
694.423	8698.84
694.769	8744.04
695.116	8673.75
695.462	8710.82
695.808	8669.01
696.155	8591.27
696.501	8536.58
696.847	8550.37
697.193	8546.07
697.539	8534.78
697.885	8459.3
698.231	8506.08
698.577	8431.28
698.923	8396.93
699.269	8413.2
699.614	8302.69
699.96	8305.86
700.306	8309.02
700.651	8268.57
700.997	8252.07
701.342	8270.6
701.688	8256.59
702.033	8104.73
702.379	8078.29
702.724	8162.58
703.069	8141.57
703.415	8063.6
703.76	8069.7
704.105	8051.62
704.45	8012.76
704.795	8011.63
705.14	7959.65
705.485	7952.64
705.83	7881.23
706.175	7998.07
706.52	7895.47
706.865	7833.33
707.209	7840.56
707.554	7825.64
707.899	7863.15
708.243	7812.53
708.588	7769.82
708.932	7732.31
709.277	7741.58
709.621	7717.85
709.966	7671.07
710.31	7718.3
710.654	7598.3
710.998	7665.65
711.342	7584.74
711.687	7591.75
712.031	7520.11
712.375	7558.98
712.719	7568.02
713.063	7572.77
713.407	7545.42
713.75	7615.25
714.094	7458.65
714.438	7477.85
714.782	7561.69
715.125	7486.22
715.469	7467.01
715.812	7424.52
716.156	7375.03
716.499	7405.77
716.843	7421.36
717.186	7380.68
717.53	7405.77
717.873	7415.26
718.216	7432.43
718.559	7364.86
718.902	7356.05
719.246	7343.39
719.589	7311.53
719.932	7316.5
720.275	7281.93
720.617	7267.01
720.96	7368.03
721.303	7268.37
721.646	7271.08
721.989	7231.31
722.331	7298.2
722.674	7318.31
723.016	7266.79
723.359	7306.79
723.701	7210.29
724.044	7228.6
724.386	7190.86
724.729	7190.63
725.071	7230.18
725.413	7251.19
725.755	7226.79
726.097	7239.44
726.439	7134.81
726.782	7153.79
727.124	7202.61
727.465	7104.76
727.807	7172.78
728.149	7140.46
728.491	7245.09
728.833	7170.07
729.175	7201.7
729.516	7142.27
729.858	7164.19
730.199	7149.95
730.541	7160.35
730.882	7100.01
731.224	7161.48
731.565	7058.66
731.906	7134.13
732.248	7153.12
732.589	7091.2
732.93	7071.76
733.271	7099.11
733.612	7124.19
733.953	7105.66
734.294	7082.16
734.635	7144.98
734.976	7130.97
735.317	7066.11
735.658	7134.13
735.999	7082.16
736.339	7097.3
736.68	7127.81
737.021	7124.64
737.361	7054.81
737.702	7166.22
738.042	7118.54
738.383	7043.52
738.723	7069.05
739.063	7070.18
739.404	7093.01
739.744	7040.13
740.084	7064.31
740.424	7034.02
740.764	7051.42
741.104	7081.48
741.444	7040.8
741.784	7072.22
742.124	7053.46
742.464	7021.37
742.804	7071.31
743.143	7016.4
743.483	7052.1
743.823	6975.27
744.162	7024.98
744.502	7021.37
744.841	6988.38
745.181	7060.69
745.52	7055.04
745.86	7001.48
746.199	6980.69
746.538	6993.35
746.877	7072.22
747.216	7034.02
747.556	6986.12
747.895	7038.32
748.234	6952.22
748.573	7027.24
748.911	6964.87
749.25	6954.03
749.589	7020.92
749.928	6935.5
750.267	6958.55
750.605	7000.13
750.944	7056.62
751.283	6973.23
751.621	6984.31
751.96	6888.49
752.298	6959
752.636	6965.78
752.975	6899.56
753.313	6809.4
753.651	6916.97
753.989	6871.99
754.327	6920.81
754.666	6904.31
755.004	6843.29
755.342	6841.94
755.679	6920.13
756.017	6839.68
756.355	6826.35
756.693	6855.5
757.031	6827.02
757.368	6803.97
757.706	6799
758.044	6790.41
758.381	6800.36
758.719	6773.01
759.056	6761.04
759.394	6741.15
759.731	6701.6
760.068	6713.58
760.405	6649.63
760.743	6625
761.08	6610.53
761.417	6647.59
761.754	6622.96
762.091	6559.46
762.428	6580.48
762.765	6523.53
763.102	6583.41
763.438	6540.93
763.775	6543.42
764.112	6554.94
764.449	6494.83
764.785	6464.32
765.122	6472.23
765.458	6422.06
765.795	6453.7
766.131	6451.67
766.467	6402.18
766.804	6377.32
767.14	6341.16
767.476	6333.48
767.812	6269.98
768.148	6317.88
768.485	6276.98
768.821	6304.33
769.157	6256.42
769.492	6170.32
769.828	6248.28
770.164	6174.84
770.5	6132.35
770.836	6124.9
771.171	6173.48
771.507	6096.65
771.842	6077.67
772.178	6039.25
772.513	6037.89
772.849	6053.71
773.184	6000.6
773.519	5998.8
773.855	5978.68
774.19	5938.01
774.525	5942.3
774.86	5908.18
775.195	5916.54
775.53	5929.65
775.865	5849.87
776.2	5853.94
776.535	5793.83
776.87	5761.29
777.205	5813.72
777.539	5790.89
777.874	5754.51
778.209	5689.88
778.543	5714.28
778.878	5662.76
779.212	5683.33
779.547	5610.78
779.881	5607.17
780.215	5601.75
780.55	5649.43
780.884	5560.39
781.218	5530.79
781.552	5557.23
781.886	5533.95
782.22	5585.47
782.554	5439.26
782.888	5443.56
783.222	5398.36
783.556	5365.14
783.889	5375.54
784.223	5359.49
784.557	5389.77
784.89	5376.44
785.224	5342.32
785.557	5296.22
785.891	5286.05
786.224	5287.63
786.558	5281.98
786.891	5252.83
787.224	5236.56
787.557	5245.37
787.891	5166.28
788.224	5168.99
788.557	5180.97
788.89	5170.12
789.223	5192.94
789.556	5136.22
789.888	5127.18
790.221	5060.74
790.554	5077.01
790.887	5059.39
791.219	5030.23
791.552	5017.35
791.884	4996.79
792.217	4968.99
792.549	4985.72
792.882	4981.2
793.214	4915.66
793.546	4921.54
793.879	4891.03
794.211	4881.54
794.543	4878.6
794.875	4851.93
795.207	4885.61
795.539	4839.05
795.871	4871.14
796.203	4817.81
796.535	4778.26
796.867	4811.71
797.198	4768.77
797.53	4800.18
797.862	4767.42
798.193	4766.97
798.525	4708.44
798.856	4734.42
799.188	4650.13
799.519	4640.64
799.85	4641.77
800.182	4620.3
800.513	4651.71
800.844	4604.26
801.175	4581.89
801.506	4623.01
801.837	4544.6
802.168	4568.33
802.499	4553.19
802.83	4567.42
803.161	4502.79
803.491	4539.63
803.822	4498.72
804.153	4504.6
804.483	4473.41
804.814	4423.25
805.145	4460.98
805.475	4414.88
805.805	4426.18
806.136	4377.82
806.466	4487.42
806.796	4397.26
807.126	4423.02
807.457	4366.07
807.787	4355.9
808.117	4369.69
808.447	4361.55
808.777	4339.63
809.107	4331.72
809.436	4352.06
809.766	4294.89
810.096	4274.55
810.426	4280.65
810.755	4272.97
811.085	4268.9
811.414	4255.79
811.744	4202.69
812.073	4250.37
812.403	4199.52
812.732	4194.1
813.061	4153.87
813.39	4196.13
813.719	4169.24
814.049	4179.41
814.378	4183.93
814.707	4153.87
815.036	4119.07
815.365	4149.58
815.693	4089.47
816.022	4077.27
816.351	4089.92
816.68	4072.75
817.008	4113.87
817.337	4064.84
817.665	4040.66
817.994	4092.86
818.322	4023.26
818.651	4024.39
818.979	4015.57
819.307	4017.61
819.636	3990.26
819.964	3970.6
820.292	4028.68
820.62	3996.14
820.948	3962.92
821.276	4025.52
821.604	3994.56
821.932	3970.15
822.259	3972.64
822.587	3991.84
822.915	3980.77
823.243	3951.85
823.57	3982.8
823.898	3947.55
824.225	3984.16
824.553	3974.9
824.88	3999.98
825.207	3964.5
825.535	3947.55
825.862	3968.34
826.189	3912.3
826.516	3983.03
826.843	4011.5
827.17	3981.67
827.497	3976.7
827.824	3960.66
828.151	3936.25
828.478	3966.99
828.805	3948.68
829.131	3962.47
829.458	3935.8
829.785	3923.15
830.111	3948.68
830.438	3994.1
830.764	3972.86
831.09	3978.06
831.417	3970.83
831.743	3931.05
832.069	3938.06
832.395	3917.04
832.722	3970.38
833.048	3953.43
833.374	3953.65
833.7	3940.09
834.026	3935.57
834.351	3911.62
834.677	3934.44
835.003	3917.04
835.329	3904.39
835.654	3873.2
835.98	3911.17
836.306	3897.38
836.631	3904.61
836.956	3862.81
837.282	3908.91
837.607	3898.29
837.932	3898.29
838.258	3896.03
838.583	3859.64
838.908	3890.38
839.233	3842.92
839.558	3848.57
839.883	3821.45
840.208	3790.72
840.533	3808.8
840.858	3797.95
841.182	3836.59
841.507	3798.85
841.832	3780.1
842.156	3764.51
842.481	3810.61
842.805	3802.7
843.13	3800.66
843.454	3778.74
843.778	3761.57
844.103	3727.9
844.427	3758.4
844.751	3726.09
845.075	3729.93
845.399	3705.07
845.723	3696.94
846.047	3704.17
846.371	3698.74
846.695	3658.97
847.019	3668.46
847.343	3639.54
847.666	3621.23
847.99	3597.28
848.313	3588.92
848.637	3548.92
848.96	3569.03
849.284	3549.6
849.607	3571.52
849.931	3584.17
850.254	3537.17
850.577	3525.19
850.9	3515.47
851.223	3494.68
851.546	3449.94
851.869	3419.43
852.192	3465.98
852.515	3436.38
852.838	3441.12
853.161	3432.31
853.483	3407.45
853.806	3400.67
854.129	3389.37
854.451	3360
854.774	3322.71
855.096	3369.71
855.419	3325.65
855.741	3347.34
856.063	3303.73
856.385	3295.82
856.708	3344.18
857.03	3310.96
857.352	3351.64
857.674	3272.99
857.996	3256.5
858.318	3246.1
858.64	3235.03
858.961	3233.67
859.283	3220.11
859.605	3187.35
859.926	3256.04
860.248	3209.72
860.57	3210.85
860.891	3216.05
861.212	3203.62
861.534	3176.05
861.855	3183.96
862.176	3150.51
862.498	3154.35
862.819	3168.59
863.14	3169.27
863.461	3179.66
863.782	3151.19
864.103	3127.23
864.424	3163.62
864.745	3167.69
865.065	3088.14
865.386	3136.95
865.707	3138.08
866.027	3122.94
866.348	3119.78
866.668	3113.45
866.989	3100.79
867.309	3107.35
867.63	3055.82
867.95	3096.73
868.27	3074.13
868.59	3062.15
868.91	3089.72
869.23	3049.27
869.55	3016.5
869.87	3107.35
870.19	3028.03
870.51	3063.51
870.83	3026.67
871.15	2971.76
871.469	3045.65
871.789	3042.49
872.109	3028.03
872.428	3002.04
872.748	3005.88
873.067	3016.5
873.386	3034.13
873.706	3004.98
874.025	3016.05
874.344	2965.2
874.663	3017.18
874.982	2986.22
875.301	2996.39
875.62	2978.54
875.939	2980.12
876.258	2967.24
876.577	2942.83
876.896	2936.5
877.214	2951.42
877.533	2967.69
877.852	2921.82
878.17	2976.5
878.489	2937.18
878.807	2941.48
879.125	2928.6
879.444	2920.91
879.762	2914.81
880.08	2902.38
880.398	2896.28
880.716	2903.96
881.034	2903.51
881.352	2870.29
881.67	2886.34
881.988	2893.57
882.306	2908.93
882.624	2872.55
882.941	2901.03
883.259	2870.74
883.577	2851.54
883.894	2862.16
884.212	2880.46
884.529	2811.76
884.846	2790.75
885.164	2845.89
885.481	2831.42
885.798	2830.52
886.115	2801.82
886.432	2828.48
886.75	2786.9
887.067	2781.03
887.383	2753.23
887.7	2794.14
888.017	2759.11
888.334	2746.45
888.651	2759.79
888.967	2739.9
889.284	2735.15
889.6	2736.51
889.917	2708.04
890.233	2750.52
890.55	2690.41
890.866	2720.47
891.182	2702.16
891.498	2686.12
891.815	2692.44
892.131	2682.73
892.447	2681.82
892.763	2667.13
893.079	2686.34
893.395	2651.99
893.71	2633.46
894.026	2657.19
894.342	2594.59
894.657	2630.07
894.973	2634.82
895.289	2607.93
895.604	2615.61
895.92	2629.85
896.235	2597.53
896.55	2590.07
896.865	2589.62
897.181	2591.66
897.496	2606.12
897.811	2557.53
898.126	2576.74
898.441	2524.99
898.756	2561.83
899.071	2548.27
899.386	2533.58
899.7	2479.57
900.015	2502.62
900.33	2488.15
900.644	2487.48
900.959	2499.68
901.273	2500.36
901.588	2453.13
901.902	2479.79
902.216	2449.96
902.531	2445.67
902.845	2423.07
903.159	2425.78
903.473	2425.56
903.787	2413.13
904.101	2397.76
904.415	2367.25
904.729	2391.89
905.042	2356.63
905.356	2372.23
905.67	2353.24
905.984	2373.81
906.297	2356.18
906.611	2325.9
906.924	2312.79
907.237	2358.67
907.551	2332.45
907.864	2311.66
908.177	2315.5
908.491	2288.39
908.804	2323.19
909.117	2312.57
909.43	2271.89
909.743	2296.3
910.056	2282.28
910.368	2264.21
910.681	2233.7
910.994	2223.3
911.307	2202.06
911.619	2216.98
911.932	2206.58
912.244	2168.62
912.557	2157.09
912.869	2149.63
913.181	2158.45
913.494	2143.98
913.806	2164.1
914.118	2135.85
914.43	2142.63
914.742	2145.34
915.054	2136.75
915.366	2115.96
915.678	2096.53
915.99	2072.57
916.302	2081.16
916.613	2079.35
916.925	2072.8
917.236	2070.99
917.548	2061.27
917.859	2084.78
918.171	2014.27
918.482	2054.27
918.794	2056.98
919.105	2032.12
919.416	2029.18
919.727	2022.18
920.038	2035.96
920.349	2000.48
920.66	1999.13
920.971	2034.83
921.282	1948.51
921.593	1990.31
921.903	1904.22
922.214	1951.67
922.525	1920.49
922.835	1965.68
923.146	1905.57
923.456	1929.53
923.767	1927.04
924.077	1888.62
924.387	1910.09
924.697	1898.57
925.008	1884.55
925.318	1888.62
925.628	1906.25
925.938	1893.14
926.248	1861.96
926.558	1849.08
926.867	1851.56
927.177	1863.31
927.487	1843.65
927.796	1822.18
928.106	1833.26
928.416	1842.52
928.725	1821.51
929.034	1815.18
929.344	1799.59
929.653	1808.85
929.962	1811.11
930.271	1780.38
930.581	1761.17
930.89	1738.12
931.199	1727.95
931.508	1779.02
931.817	1753.26
932.125	1761.62
932.434	1741.06
932.743	1731.11
933.051	1719.36
933.36	1719.59
933.669	1731.56
933.977	1732.92
934.286	1722.98
934.594	1699.02
934.902	1684.33
935.21	1692.47
935.519	1673.94
935.827	1675.97
936.135	1663.77
936.443	1659.25
936.751	1663.77
937.059	1647.73
937.367	1664.9
937.674	1669.87
937.982	1618.57
938.29	1633.26
938.597	1637.78
938.905	1625.13
939.213	1630.78
939.52	1594.17
939.827	1584.45
940.135	1584.9
940.442	1603.66
940.749	1597.78
941.056	1564.56
941.363	1562.98
941.67	1562.3
941.977	1552.36
942.284	1547.84
942.591	1578.12
942.898	1540.61
943.205	1547.39
943.511	1558.91
943.818	1517.11
944.125	1502.64
944.431	1536.54
944.738	1522.08
945.044	1532.7
945.35	1495.64
945.657	1474.62
945.963	1495.41
946.269	1461.97
946.575	1490.67
946.881	1478.24
947.187	1473.94
947.493	1473.27
947.799	1458.13
948.105	1457.67
948.41	1464.68
948.716	1442.76
949.022	1408.64
949.327	1429.2
949.633	1428.75
949.938	1426.49
950.244	1391.91
950.549	1418.8
950.854	1405.7
951.16	1420.39
951.465	1398.47
951.77	1390.1
952.075	1390.56
952.38	1387.62
952.685	1405.92
952.99	1376.55
953.294	1376.09
953.599	1359.6
953.904	1376.55
954.209	1360.73
954.513	1336.77
954.818	1338.81
955.122	1370.44
955.426	1329.77
955.731	1306.49
956.035	1321.86
956.339	1313.95
956.643	1311.91
956.948	1336.32
957.252	1304.01
957.556	1286.83
957.86	1293.16
958.163	1287.73
958.467	1298.36
958.771	1298.58
959.075	1280.05
959.378	1270.11
959.682	1254.29
959.985	1274.85
960.289	1276.21
960.592	1277.34
960.896	1265.59
961.199	1247.28
961.502	1270.33
961.805	1225.59
962.108	1233.27
962.411	1243.22
962.714	1235.53
963.017	1219.49
963.32	1230.33
963.623	1247.06
963.926	1214.97
964.228	1218.36
964.531	1215.65
964.833	1214.97
965.136	1199.83
965.438	1181.52
965.741	1200.05
966.043	1180.84
966.345	1207.74
966.648	1180.84
966.95	1191.69
967.252	1159.83
967.554	1183.56
967.856	1174.29
968.158	1164.57
968.46	1140.17
968.761	1124.12
969.063	1149.43
969.365	1148.08
969.666	1136.55
969.968	1127.96
970.269	1133.84
970.571	1109.66
970.872	1139.72
971.174	1099.49
971.475	1100.17
971.776	1090.23
972.077	1097.68
972.378	1122.32
972.679	1099.72
972.98	1110.56
973.281	1097.23
973.582	1082.09
973.883	1081.64
974.183	1073.5
974.484	1052.49
974.785	1080.96
975.085	1052.71
975.386	1065.82
975.686	1090
975.986	1078.25
976.287	1060.17
976.587	1024.46
976.887	1042.09
977.187	1063.79
977.487	1024.24
977.787	1019.72
978.087	1044.13
978.387	1049.77
978.687	1062.66
978.987	1010.23
979.286	1031.47
979.586	1025.37
979.885	1040.28
980.185	1047.29
980.484	1003
980.784	1019.94
981.083	995.54
981.382	979.27
981.682	994.86
981.981	998.25
982.28	987.63
982.579	948.08
982.878	981.08
983.177	973.62
983.475	968.19
983.774	951.92
984.073	962.09
984.372	965.71
984.67	969.78
984.969	969.78
985.267	961.42
985.566	956.44
985.864	963.45
986.162	974.3
986.461	936.33
986.759	932.94
987.057	945.37
987.355	937.91
987.653	942.66
987.951	937.69
988.249	932.26
988.547	940.17
988.844	934.07
989.142	920.06
989.44	912.15
989.737	915.77
990.035	912.38
990.332	883
990.63	898.37
990.927	900.63
991.224	892.94
991.521	930.23
991.819	886.62
992.116	870.34
992.413	876.9
992.71	890.68
993.006	867.18
993.303	897.91
993.6	868.31
993.897	895.2
994.193	861.76
994.49	861.08
994.787	853.17
995.083	858.59
995.379	873.28
995.676	843
995.972	843.45
996.268	854.07
996.565	852.49
996.861	806.17
997.157	859.05
997.453	812.72
997.749	828.99
998.044	817.92
998.34	823.57
998.636	813.17
998.932	808.2
999.227	811.36
999.523	825.83
999.818	805.26
1000.114	798.03
1000.409	807.3
1000.704	800.97
1001	810.46
1001.295	790.12
1001.59	781.53
1001.885	792.38
1002.18	783.12
1002.475	781.76
1002.77	798.48
1003.065	771.14
1003.359	782.66
1003.654	767.07
1003.949	774.3
1004.243	758.26
1004.538	759.39
1004.832	766.17
1005.127	754.42
1005.421	758.71
1005.715	768.88
1006.009	762.1
1006.304	737.01
1006.598	770.46
1006.892	724.13
1007.186	732.04
1007.48	760.97
1007.773	738.6
1008.067	721.42
1008.361	712.38
1008.655	720.74
1008.948	708.54
1009.242	696.79
1009.535	712.16
1009.829	706.96
1010.122	713.96
1010.415	701.99
1010.708	717.81
1011.001	713.74
1011.295	689.78
1011.588	711.7
1011.881	683.68
1012.173	677.58
1012.466	660.41
1012.759	685.26
1013.052	676
1013.344	672.16
1013.637	685.72
1013.93	675.32
1014.222	658.15
1014.514	674.19
1014.807	670.12
1015.099	671.48
1015.391	645.72
1015.683	661.99
1015.976	665.38
1016.268	646.62
1016.56	658.6
1016.851	661.54
1017.143	667.64
1017.435	655.66
1017.727	650.92
1018.018	642.1
1018.31	629.45
1018.602	637.81
1018.893	607.75
1019.185	655.21
1019.476	626.28
1019.767	623.35
1020.058	632.84
1020.35	596.91
1020.641	615.66
1020.932	610.92
1021.223	611.82
1021.514	614.53
1021.804	614.31
1022.095	606.17
1022.386	594.65
1022.677	607.53
1022.967	592.84
1023.258	595.55
1023.548	592.39
1023.839	612.72
1024.129	601.88
1024.419	601.42
1024.709	589.9
1025	572.73
1025.29	593.97
1025.58	582.67
1025.87	584.25
1026.16	571.14
1026.449	573.4
1026.739	575.44
1027.029	564.59
1027.319	568.43
1027.608	555.55
1027.898	551.71
1028.187	544.48
1028.477	572.05
1028.766	533.4
1029.055	555.1
1029.344	560.75
1029.634	527.98
1029.923	513.74
1030.212	527.53
1030.501	528.43
1030.79	518.94
1031.078	543.12
1031.367	506.06
1031.656	527.75
1031.945	539.28
1032.233	534.53
1032.522	545.38
1032.81	502.44
1033.099	529.11
1033.387	528.66
1033.675	517.59
1033.963	525.72
1034.251	511.94
1034.54	493.63
1034.828	492.5
1035.116	500.64
1035.403	526.85
1035.691	499.05
1035.979	518.04
1036.267	484.82
1036.554	502.9
1036.842	490.92
1037.129	503.35
1037.417	510.58
1037.704	494.76
1037.992	481.2
1038.279	502.44
1038.566	460.64
1038.853	460.64
1039.14	460.64
