Data from mousepad_grey_FLMS001491_00086.txt Node
Date: Wed Feb 08 14:30:03 GMT 2017
User: dcchb
Spectrometer: FLMS00149
Trigger mode: 0
Integration Time (sec): 2.000000E-2
Scans to average: 10
Electric dark correction enabled: true
Nonlinearity correction enabled: false
Boxcar width: 0
XAxis mode: Wavelengths
Number of Pixels in Spectrum: 2048
>>>>>Begin Spectral Data<<<<<
341.393	-15.79
341.776	-15.79
342.16	-15.79
342.543	-65.05
342.927	-75.68
343.31	-40.87
343.693	-71.83
344.077	-53.53
344.46	-60.54
344.843	-59.63
345.226	-50.37
345.61	-33.42
345.993	-20.54
346.376	-18.95
346.759	6.36
347.142	34.6
347.525	25.56
347.908	70.76
348.291	64.89
348.674	95.39
349.057	112.12
349.44	118.44
349.823	146.92
350.206	157.31
350.588	181.27
350.971	181.49
351.354	196.41
351.737	220.81
352.119	243.41
352.502	213.58
352.884	255.84
353.267	264.2
353.65	272.79
354.032	285.44
354.414	284.31
354.797	281.15
355.179	306.23
355.562	295.39
355.944	291.55
356.326	311.43
356.709	327.93
357.091	304.2
357.473	320.92
357.855	321.83
358.238	325.22
358.62	295.84
359.002	330.64
359.384	315.95
359.766	316.86
360.148	298.78
360.53	319.79
360.912	330.19
361.294	317.31
361.676	325.67
362.057	307.59
362.439	311.43
362.821	316.4
363.203	286.12
363.584	316.63
363.966	324.99
364.348	310.3
364.729	294.26
365.111	302.17
365.493	293.13
365.874	289.51
366.256	295.61
366.637	306.01
367.019	284.31
367.4	305.1
367.781	295.16
368.163	296.52
368.544	292.45
368.925	290.19
369.306	296.07
369.688	302.17
370.069	297.65
370.45	279.57
370.831	303.98
371.212	293.35
371.593	291.55
371.974	300.59
372.355	283.64
372.736	282.05
373.117	295.16
373.498	306.46
373.879	319.79
374.26	308.72
374.641	307.36
375.021	306.01
375.402	295.61
375.783	306.23
376.163	310.75
376.544	301.72
376.925	297.65
377.305	299
377.686	302.17
378.066	306.46
378.447	302.85
378.827	311.88
379.208	308.04
379.588	306.46
379.968	332.67
380.349	298.33
380.729	313.69
381.109	323.86
381.489	313.92
381.87	324.99
382.25	295.61
382.63	317.99
383.01	322.96
383.39	313.69
383.77	321.6
384.15	324.99
384.53	335.84
384.91	331.77
385.29	317.08
385.67	351.43
386.049	348.27
386.429	329.96
386.809	340.36
387.189	338.1
387.568	334.03
387.948	334.26
388.328	316.63
388.707	329.96
389.087	338.78
389.466	326.35
389.846	353.92
390.225	353.24
390.605	346.23
390.984	345.56
391.363	349.85
391.743	365.89
392.122	359.57
392.501	344.88
392.881	355.05
393.26	364.76
393.639	365.22
394.018	366.12
394.397	347.59
394.776	334.03
395.155	352.11
395.534	351.66
395.913	354.14
396.292	360.24
396.671	386.91
397.05	374.03
397.429	363.63
397.808	369.74
398.186	404.76
398.565	374.93
398.944	367.25
399.323	378.32
399.701	393.69
400.08	355.27
400.458	368.15
400.837	389.4
401.215	375.39
401.594	388.72
401.972	393.01
402.351	387.81
402.729	407.93
403.107	384.42
403.486	396.18
403.864	405.67
404.242	386.01
404.62	420.58
404.999	405.22
405.377	428.72
405.755	412.67
406.133	413.8
406.511	428.72
406.889	440.92
407.267	423.52
407.645	434.82
408.023	431.66
408.401	436.63
408.779	435.27
409.156	432.56
409.534	457.42
409.912	447.47
410.29	444.54
410.667	434.82
411.045	468.26
411.422	452.22
411.8	460.13
412.178	472.56
412.555	474.14
412.933	460.36
413.31	450.41
413.687	474.14
414.065	478.66
414.442	485.67
414.819	475.72
415.197	473.69
415.574	499
415.951	485.44
416.328	496.29
416.705	516.85
417.082	488.38
417.46	478.89
417.837	510.52
418.214	501.94
418.591	517.98
418.967	506.91
419.344	545.32
419.721	536.74
420.098	532.67
420.475	518.88
420.852	541.93
421.228	545.1
421.605	519.56
421.982	550.3
422.358	559.56
422.735	547.13
423.111	541.93
423.488	541.26
423.864	561.37
424.241	559.11
424.617	565.21
424.994	584.87
425.37	587.58
425.746	567.24
426.123	568.83
426.499	593.23
426.875	579.45
427.251	609.05
427.627	605.89
428.003	614.7
428.379	607.24
428.756	619.67
429.132	617.87
429.507	626
429.883	622.38
430.259	625.1
430.635	640.24
431.011	614.02
431.387	661.25
431.763	664.87
432.138	672.55
432.514	675.49
432.89	669.16
433.265	689.05
433.641	686.34
434.016	663.06
434.392	664.42
434.767	708.26
435.143	701.25
435.518	709.39
435.894	705.32
436.269	711.2
436.644	762.72
437.02	717.75
437.395	722.04
437.77	743.51
438.145	754.13
438.52	761.36
438.895	762.95
439.271	744.87
439.646	759.1
440.021	801.36
440.395	790.06
440.77	760.23
441.145	768.37
441.52	817.63
441.895	802.94
442.27	794.13
442.645	783.28
443.019	804.98
443.394	792.32
443.769	812.66
444.143	807.24
444.518	804.75
444.892	821.02
445.267	812.66
445.641	833.23
446.016	856.5
446.39	838.42
446.764	860.34
447.139	830.97
447.513	865.99
447.887	870.74
448.262	858.08
448.636	858.99
449.01	873.23
449.384	877.52
449.758	917.29
450.132	882.72
450.506	905.99
450.88	892.89
451.254	901.25
451.628	924.98
452.002	919.1
452.376	929.04
452.75	957.29
453.123	974.92
453.497	925.43
453.871	970.17
454.244	964.52
454.618	981.02
454.992	989.61
455.365	971.3
455.739	1032.54
456.112	1007.69
456.486	1010.85
456.859	1057.63
457.232	1059.89
457.606	1047.46
457.979	1052.88
458.352	1072.77
458.725	1076.38
459.099	1109.83
459.472	1104.41
459.845	1108.47
460.218	1111.64
460.591	1129.94
460.964	1134.01
461.337	1169.72
461.71	1158.19
462.083	1186.44
462.456	1190.73
462.829	1197.96
463.201	1220.56
463.574	1191.18
463.947	1234.12
464.32	1276.15
464.692	1251.52
465.065	1261.46
465.438	1279.99
465.81	1291.07
466.183	1293.55
466.555	1345.53
466.928	1325.42
467.3	1339.43
467.672	1358.41
468.045	1371.52
468.417	1402.7
468.789	1391.63
469.161	1380.78
469.534	1421.46
469.906	1441.8
470.278	1456.04
470.65	1472.08
471.022	1473.21
471.394	1510.5
471.766	1514.34
472.138	1540.55
472.51	1571.29
472.882	1578.74
473.253	1609.93
473.625	1601.34
473.997	1641.12
474.369	1658.52
474.74	1658.97
475.112	1698.74
475.484	1751.85
475.855	1750.49
476.227	1793.2
476.598	1779.19
476.97	1799.75
477.341	1823.71
477.713	1852.63
478.084	1897.15
478.455	1930.82
478.827	1924.72
479.198	1965.17
479.569	2001.33
479.94	2031.16
480.311	2062.57
480.682	2105.28
481.053	2058.28
481.424	2126.07
481.795	2175.34
482.166	2206.75
482.537	2234.55
482.908	2254.43
483.279	2272.06
483.65	2308.67
484.021	2369.68
484.391	2373.98
484.762	2401.32
485.133	2400.64
485.503	2435.67
485.874	2512.05
486.244	2507.53
486.615	2573.29
486.985	2563.58
487.356	2623.69
487.726	2680.86
488.097	2669.79
488.467	2706.85
488.837	2774.87
489.207	2786.62
489.578	2810.8
489.948	2853.51
490.318	2867.3
490.688	2881.08
491.058	2903.68
491.428	2951.36
491.798	3006.28
492.168	3059.16
492.538	3050.34
492.908	3096.22
493.278	3107.74
493.648	3128.99
494.017	3156.78
494.387	3159.72
494.757	3217.57
495.126	3272.94
495.496	3220.96
495.866	3261.64
496.235	3302.77
496.605	3288.76
496.974	3353.39
497.344	3378.02
497.713	3378.24
498.082	3411.69
498.452	3421.41
498.821	3492.37
499.19	3463.67
499.559	3519.26
499.928	3527.85
500.298	3556.32
500.667	3612.81
501.036	3578.01
501.405	3580.5
501.774	3613.72
502.143	3653.49
502.512	3647.16
502.88	3662.98
503.249	3737.56
503.618	3748.63
503.987	3769.87
504.356	3800.38
504.724	3828.85
505.093	3813.49
505.462	3853.49
505.83	3855.97
506.199	3904.33
506.567	3930.55
506.936	3935.74
507.304	3938.68
507.672	3970.55
508.041	4029.3
508.409	4033.59
508.777	4047.61
509.145	4101.84
509.514	4091.22
509.882	4108.62
510.25	4140.26
510.618	4180.71
510.986	4217.54
511.354	4230.65
511.722	4252.57
512.09	4307.71
512.458	4303.42
512.826	4322.63
513.193	4345.68
513.561	4382.29
513.929	4385.22
514.297	4417.31
514.664	4469.97
515.032	4471.32
515.4	4500.47
515.767	4522.85
516.135	4514.03
516.502	4542.06
516.869	4566.69
517.237	4652.11
517.604	4625.9
517.972	4674.93
518.339	4715.61
518.706	4743.18
519.073	4730.98
519.44	4768.04
519.808	4838.09
520.175	4825.21
520.542	4881.93
520.909	4890.97
521.276	4909.5
521.643	4974.36
522.009	4950.41
522.376	5003.74
522.743	5067.69
523.11	5092.78
523.477	5165.77
523.843	5146.33
524.21	5175.94
524.577	5265.2
524.943	5285.54
525.31	5292.09
525.676	5351.3
526.043	5353.11
526.409	5382.94
526.776	5441.69
527.142	5512.43
527.508	5488.02
527.874	5600.56
528.241	5551.52
528.607	5567.11
528.973	5650.73
529.339	5647.79
529.705	5673.55
530.071	5719.2
530.437	5747.22
530.803	5782.93
531.169	5814.79
531.535	5773.89
531.901	5842.36
532.267	5853.66
532.632	5941.79
532.998	5925.52
533.364	5966.2
533.73	5942.02
534.095	6064.5
534.461	6076.03
534.826	6062.92
535.192	6130.49
535.557	6179.3
535.923	6141.79
536.288	6174.33
536.653	6233.31
537.019	6247.32
537.384	6252.75
537.749	6333.87
538.114	6322.57
538.479	6351.73
538.845	6371.61
539.21	6291.39
539.575	6403.25
539.94	6392.63
540.305	6499.07
540.67	6532.29
541.034	6541.55
541.399	6566.86
541.764	6542.23
542.129	6585.17
542.494	6556.01
542.858	6666.97
543.223	6670.36
543.587	6699.51
543.952	6712.62
544.316	6756.69
544.681	6755.56
545.045	6765.95
545.41	6868.55
545.774	6815.22
546.138	6892.5
546.503	6903.12
546.867	6821.09
547.231	6965.49
547.595	6981.31
547.959	6975.66
548.324	7050.24
548.688	7038.94
549.052	7063.8
549.416	7130.46
549.779	7065.38
550.143	7108.09
550.507	7173.85
550.871	7210.01
551.235	7222.89
551.599	7268.09
551.962	7265.15
552.326	7326.62
552.689	7403.9
553.053	7339.27
553.417	7424.01
553.78	7453.17
554.143	7514.18
554.507	7520.28
554.87	7501.07
555.234	7548.3
555.597	7502.43
555.96	7589.21
556.323	7648.19
556.686	7647.74
557.05	7786.26
557.413	7748.53
557.776	7744.01
558.139	7798.47
558.502	7818.35
558.865	7819.71
559.228	7907.84
559.59	7933.83
559.953	7908.29
560.316	7991.23
560.679	8028.29
561.041	8013.6
561.404	8062.19
561.767	8153.26
562.129	8131.57
562.492	8200.72
562.854	8220.15
563.217	8234.84
563.579	8252.01
563.941	8348.96
564.304	8336.76
564.666	8381.73
565.028	8407.26
565.39	8428.96
565.753	8442.97
566.115	8527.04
566.477	8583.31
566.839	8557.54
567.201	8575.4
567.563	8609.07
567.925	8675.73
568.287	8709.4
568.648	8651.78
569.01	8818.1
569.372	8833.47
569.734	8877.99
570.095	8866.91
570.457	8932.67
570.819	8891.32
571.18	8935.39
571.542	9008.6
571.903	9046.8
572.265	9019.9
572.626	8986.68
572.987	9088.83
573.349	9126.34
573.71	9175.83
574.071	9199.11
574.432	9254.02
574.794	9336.28
575.155	9233.91
575.516	9248.37
575.877	9282.5
576.238	9265.77
576.599	9348.93
576.96	9295.38
577.32	9437.97
577.681	9401.81
578.042	9344.64
578.403	9374.25
578.763	9421.7
579.124	9533.79
579.485	9508.25
579.845	9496.95
580.206	9479.78
580.566	9488.14
580.927	9503.73
581.287	9586.67
581.648	9517.52
582.008	9586.44
582.368	9588.48
582.728	9564.3
583.089	9549.38
583.449	9610.62
583.809	9599.1
584.169	9607.01
584.529	9612.88
584.889	9619.66
585.249	9643.84
585.609	9585.99
585.969	9590.51
586.329	9648.36
586.688	9629.38
587.048	9635.48
587.408	9626.89
587.768	9679.77
588.127	9643.62
588.487	9622.37
588.846	9674.12
589.206	9633.22
589.565	9669.6
589.925	9680
590.284	9626.22
590.643	9630.51
591.003	9730.17
591.362	9724.74
591.721	9665.54
592.08	9687.46
592.44	9694.01
592.799	9718.19
593.158	9704.18
593.517	9674.35
593.876	9701.47
594.235	9606.78
594.593	9728.81
594.952	9729.49
595.311	9689.72
595.67	9749.83
596.029	9751.86
596.387	9779.88
596.746	9784.63
597.104	9741.47
597.463	9736.72
597.822	9781.69
598.18	9828.02
598.538	9748.47
598.897	9808.81
599.255	9757.74
599.613	9897.62
599.972	9817.17
600.33	9844.06
600.688	9790.51
601.046	9790.73
601.404	9876.83
601.762	9797.06
602.12	9886.32
602.478	9887.68
602.836	9876.15
603.194	9838.41
603.552	9880.9
603.91	9820.34
604.268	9895.81
604.625	9841.8
604.983	9888.81
605.341	9853.33
605.698	9838.87
606.056	9899.43
606.413	9859.88
606.771	9874.8
607.128	9917.06
607.485	9886.55
607.843	9915.7
608.2	9960.22
608.557	9957.51
608.914	9953.66
609.272	9945.98
609.629	9956.83
609.986	10016.04
610.343	9959.77
610.7	10000.44
611.057	9962.03
611.414	9991.4
611.771	9990.73
612.127	10050.61
612.484	10096.03
612.841	10099.2
613.198	10036.6
613.554	10025.53
613.911	10128.12
614.267	10117.28
614.624	10156.15
614.98	10074.11
615.337	10222.36
615.693	10162.02
616.05	10129.03
616.406	10230.49
616.762	10197.05
617.118	10154.79
617.475	10157.5
617.831	10143.72
618.187	10178.74
618.543	10200.44
618.899	10267.33
619.255	10247.67
619.611	10238.86
619.967	10277.5
620.323	10322.02
620.678	10197.95
621.034	10188.91
621.39	10206.54
621.746	10188.91
622.101	10355.46
622.457	10267.55
622.812	10248.35
623.168	10274.11
623.523	10277.5
623.879	10341.9
624.234	10188.91
624.589	10299.87
624.945	10294.67
625.3	10268.23
625.655	10303.26
626.01	10258.97
626.365	10305.97
626.72	10288.57
627.075	10321.56
627.43	10310.94
627.785	10271.4
628.14	10266.88
628.495	10295.8
628.85	10279.76
629.205	10286.76
629.559	10361.11
629.914	10307.55
630.269	10265.75
630.623	10276.37
630.978	10292.41
631.332	10244.5
631.687	10278.4
632.041	10223.94
632.396	10251.06
632.75	10220.32
633.104	10185.98
633.459	10181.46
633.813	10134.68
634.167	10156.15
634.521	10181.46
634.875	10194.56
635.229	10162.25
635.583	10124.28
635.937	10070.95
636.291	10179.65
636.645	10175.13
636.999	10114.79
637.352	10096.03
637.706	10161.12
638.06	10070.72
638.413	10080.22
638.767	10064.85
639.121	10070.95
639.474	9985.3
639.828	10096.49
640.181	10040.44
640.534	10057.16
640.888	10072.76
641.241	9923.61
641.594	9955.47
641.947	10117.05
642.301	10037.5
642.654	10030.05
643.007	10021.46
643.36	10049.03
643.713	9983.04
644.066	9984.4
644.419	9907.56
644.771	9920.9
645.124	9792.99
645.477	9792.99
645.83	9709.6
646.182	9693.11
646.535	9713.45
646.888	9662.6
647.24	9694.91
647.593	9746.89
647.945	9739.43
648.298	9686.33
648.65	9663.05
649.002	9585.76
649.355	9649.72
649.707	9698.53
650.059	9636.16
650.411	9841.8
650.763	9828.47
651.115	9857.85
651.467	9852.65
651.819	9887.9
652.171	9914.12
652.523	9841.13
652.875	9846.55
653.227	9864.63
653.578	9900.33
653.93	9862.59
654.282	9843.16
654.633	9799.77
654.985	9853.55
655.337	9847.23
655.688	9839.54
656.039	9902.82
656.391	9768.36
656.742	9833.22
657.094	9789.83
657.445	9877.28
657.796	9888.58
658.147	9811.07
658.498	9856.94
658.849	9887.68
659.2	9853.55
659.551	9823.05
659.902	9820.34
660.253	9834.35
660.604	9801.35
660.955	9807.68
661.306	9821.92
661.656	9809.94
662.007	9870.05
662.358	9901.24
662.708	9858.07
663.059	9755.48
663.409	9813.33
663.76	9848.58
664.11	9836.61
664.461	9830.5
664.811	9821.01
665.161	9836.38
665.511	9754.8
665.862	9720.68
666.212	9865.31
666.562	9843.61
666.912	9824.63
667.262	9786.66
667.612	9765.87
667.962	9796.38
668.312	9806.55
668.662	9843.16
669.011	9862.82
669.361	9768.13
669.711	9750.96
670.06	9774.23
670.41	9757.96
670.76	9772.88
671.109	9747.57
671.459	9752.77
671.808	9705.54
672.157	9778.08
672.507	9719.77
672.856	9738.08
673.205	9685.2
673.554	9746.44
673.904	9737.85
674.253	9828.47
674.602	9702.6
674.951	9529.95
675.3	9551.19
675.649	9674.35
675.998	9671.41
676.346	9628.93
676.695	9683.16
677.044	9611.3
677.393	9605.88
677.741	9687.23
678.09	9649.04
678.438	9597.97
678.787	9616.27
679.135	9631.41
679.484	9569.72
679.832	9592.09
680.181	9557.97
680.529	9492.89
680.877	9543.28
681.225	9470.74
681.573	9554.13
681.922	9537.18
682.27	9388.03
682.618	9468.48
682.966	9431.19
683.314	9432.55
683.661	9398.43
684.009	9415.15
684.357	9328.14
684.705	9388.93
685.053	9383.96
685.4	9285.43
685.748	9287.47
686.095	9320.46
686.443	9280.01
686.79	9206.34
687.138	9274.36
687.485	9214.25
687.832	9165.89
688.18	9235.27
688.527	9057.64
688.874	9142.16
689.221	9111.2
689.568	9081.82
689.915	9130.86
690.262	9109.39
690.609	9000.92
690.956	9040.69
691.303	8967.7
691.65	8967.48
691.997	8914.82
692.344	8935.16
692.69	8867.37
693.037	8948.49
693.383	8835.05
693.73	8827.37
694.077	8823.07
694.423	8760.48
694.769	8663.53
695.116	8758.22
695.462	8732.45
695.808	8687.71
696.155	8664.66
696.501	8600.03
696.847	8569.75
697.193	8556.19
697.539	8535.62
697.885	8500.82
698.231	8475.96
698.577	8473.93
698.923	8445.91
699.269	8381.05
699.614	8359.13
699.96	8328.17
700.306	8303.09
700.651	8275.97
700.997	8281.39
701.342	8277.32
701.688	8279.58
702.033	8221.51
702.379	8184.22
702.724	8205.91
703.069	8190.77
703.415	8128.63
703.76	8117.1
704.105	8093.15
704.45	8120.27
704.795	7980.16
705.14	7965.02
705.485	8008.41
705.83	7920.27
706.175	7941.97
706.52	7957.33
706.865	7872.59
707.209	7898.8
707.554	7824
707.899	7894.51
708.243	7830.1
708.588	7800.5
708.932	7753.27
709.277	7762.76
709.621	7748.98
709.966	7703.1
710.31	7755.08
710.654	7675.98
710.998	7655.19
711.342	7699.26
711.687	7635.76
712.031	7610.22
712.375	7531.36
712.719	7614.74
713.063	7526.16
713.407	7612.94
713.75	7497.01
714.094	7523.22
714.438	7500.85
714.782	7503.56
715.125	7450
715.469	7491.36
715.812	7478.93
716.156	7493.39
716.499	7466.95
716.843	7444.58
717.186	7435.99
717.53	7425.14
717.873	7452.71
718.216	7386.5
718.559	7374.07
718.902	7371.13
719.246	7369.1
719.589	7356.67
719.932	7353.96
720.275	7353.96
720.617	7272.38
720.96	7333.17
721.303	7335.88
721.646	7385.6
721.989	7252.94
722.331	7362.55
722.674	7288.2
723.016	7289.1
723.359	7307.86
723.701	7287.75
724.044	7277.35
724.386	7299.5
724.729	7295.88
725.071	7283
725.413	7260.18
725.755	7247.75
726.097	7243.91
726.439	7264.47
726.782	7165.04
727.124	7203.91
727.465	7285.03
727.807	7195.77
728.149	7184.02
728.491	7191.93
728.833	7266.05
729.175	7168.65
729.516	7200.74
729.858	7210.91
730.199	7157.81
730.541	7173.4
730.882	7125.04
731.224	7165.26
731.565	7161.65
731.906	7165.04
732.248	7267.86
732.589	7143.8
732.93	7131.82
733.271	7147.41
733.612	7168.65
733.953	7164.59
734.294	7138.6
734.635	7139.28
734.976	7107.19
735.317	7116.9
735.658	7136.34
735.999	7150.35
736.339	7111.25
736.68	7140.86
737.021	7189.44
737.361	7115.55
737.702	7165.72
738.042	7126.62
738.383	7099.73
738.723	7156.9
739.063	7168.88
739.404	7170.91
739.744	7172.5
740.084	7142.44
740.424	7179.5
740.764	7127.07
741.104	7167.07
741.444	7096.34
741.784	7108.09
742.124	7116.9
742.464	7110.12
742.804	7073.97
743.143	7149.67
743.483	7111.25
743.823	6996.45
744.162	7077.13
744.502	7105.83
744.841	7026.28
745.181	7092.95
745.52	7091.59
745.86	7071.71
746.199	7104.93
746.538	7101.76
746.877	7104.47
747.216	7087.3
747.556	7094.08
747.895	7070.8
748.234	7066.06
748.573	7064.25
748.911	7048.2
749.25	7105.6
749.589	7045.04
749.928	7050.69
750.267	7035.78
750.605	7035.78
750.944	7077.81
751.283	7043.91
751.621	7083.68
751.96	7019.28
752.298	7005.27
752.636	7050.01
752.975	7039.84
753.313	6961.65
753.651	6977.02
753.989	6887.53
754.327	6911.03
754.666	6924.37
755.004	6941.99
755.342	6916.91
755.679	6914.42
756.017	6797.82
756.355	6923.91
756.693	6863.12
757.031	6891.6
757.368	6827.87
757.706	6869.45
758.044	6815.22
758.381	6850.7
758.719	6785.61
759.056	6835.33
759.394	6782.67
759.731	6750.13
760.068	6732.51
760.405	6765.05
760.743	6709
761.08	6698.61
761.417	6694.32
761.754	6687.99
762.091	6662
762.428	6663.36
762.765	6584.04
763.102	6637.82
763.438	6594.43
763.775	6598.27
764.112	6567.54
764.449	6610.48
764.785	6530.93
765.122	6497.26
765.458	6443.02
765.795	6534.55
766.131	6492.96
766.467	6519.18
766.804	6412.52
767.14	6373.65
767.476	6376.36
767.812	6388.33
768.148	6363.02
768.485	6353.08
768.821	6288.22
769.157	6295.46
769.492	6296.13
769.828	6270.15
770.164	6235.57
770.5	6192.86
770.836	6224.05
771.171	6162.58
771.507	6166.19
771.842	6116.93
772.178	6128.45
772.513	6099.75
772.849	6040.1
773.184	6080.09
773.519	6043.26
773.855	6039.19
774.19	6022.69
774.525	6015.01
774.86	5989.25
775.195	5988.57
775.53	5969.14
775.865	5901.34
776.2	5905.41
776.535	5860.21
776.87	5815.24
777.205	5823.38
777.539	5858.41
777.874	5817.28
778.209	5761.01
778.543	5737.73
778.878	5726.21
779.212	5683.72
779.547	5611.63
779.881	5689.14
780.215	5660.67
780.55	5616.83
780.884	5637.62
781.218	5605.98
781.552	5625.42
781.886	5555.14
782.22	5509.94
782.554	5565.53
782.888	5486.89
783.222	5477.4
783.556	5432.43
783.889	5446.44
784.223	5438.08
784.557	5395.59
784.89	5361.02
785.224	5378.87
785.557	5356.05
785.891	5292.32
786.224	5269.49
786.558	5316.27
786.891	5288.25
787.224	5264.3
787.557	5223.62
787.891	5230.63
788.224	5215.48
788.557	5199.21
788.89	5230.85
789.223	5220.68
789.556	5152.44
789.888	5130.29
790.221	5105.66
790.554	5133.68
790.887	5159.21
791.219	5115.83
791.552	5043.74
791.884	5070.18
792.217	5014.36
792.549	5022.04
792.882	5000.57
793.214	5007.58
793.546	5001.25
793.879	4968.26
794.211	4875.15
794.543	4926.45
794.875	4948.82
795.207	4933.68
795.539	4908.6
795.871	4890.07
796.203	4879.9
796.535	4844.65
796.867	4824.31
797.198	4822.05
797.53	4822.95
797.862	4793.57
798.193	4788.83
798.525	4713.12
798.856	4741.37
799.188	4734.59
799.519	4720.81
799.85	4637.42
800.182	4679.45
800.513	4664.99
800.844	4634.71
801.175	4615.5
801.506	4636.97
801.837	4612.34
802.168	4598.1
802.499	4613.24
802.83	4567.59
803.161	4566.46
803.491	4572.79
803.822	4579.79
804.153	4508.84
804.483	4518.55
804.814	4507.71
805.145	4453.02
805.475	4495.73
805.805	4500.47
806.136	4420.7
806.466	4462.51
806.796	4468.39
807.126	4396.97
807.457	4435.39
807.787	4401.27
808.117	4373.92
808.447	4370.99
808.777	4367.6
809.107	4382.74
809.436	4354.72
809.766	4357.43
810.096	4342.29
810.426	4276.75
810.755	4345.68
811.085	4316.52
811.414	4282.85
811.744	4283.53
812.073	4263.87
812.403	4266.58
812.732	4223.65
813.061	4321.04
813.39	4217.32
813.719	4189.3
814.049	4232.46
814.378	4218.22
814.707	4185.91
815.036	4154.95
815.365	4160.14
815.693	4095.74
816.022	4142.74
816.351	4152.24
816.68	4099.13
817.008	4135.96
817.337	4136.87
817.665	4077.21
817.994	4041.28
818.322	4090.09
818.651	4066.81
818.979	4052.8
819.307	4065.46
819.636	4034.95
819.964	4030.66
820.292	4068.62
820.62	4028.17
820.948	4038.11
821.276	4005.57
821.604	4027.27
821.932	3997.66
822.259	4039.24
822.587	4038.79
822.915	4020.71
823.243	4019.58
823.57	3984.1
823.898	4003.09
824.225	3999.25
824.553	3994.73
824.88	3979.58
825.207	3963.77
825.535	3963.77
825.862	4000.6
826.189	4002.18
826.516	4015.74
826.843	4017.1
827.17	4015.06
827.497	4023.65
827.824	4026.36
828.151	4004.89
828.478	3997.66
828.805	4000.15
829.131	3986.82
829.458	3962.41
829.785	3982.75
830.111	3988.4
830.438	3964.22
830.764	3987.95
831.09	4024.1
831.417	3981.17
831.743	3984.1
832.069	3970.32
832.395	3966.93
832.722	3959.25
833.048	3965.12
833.374	4010.09
833.7	3948.17
834.026	3968.29
834.351	3964.22
834.677	3956.08
835.003	3945.24
835.329	3926.7
835.654	3903.65
835.98	3944.56
836.306	3931.45
836.631	3920.15
836.956	3938.46
837.282	3947.95
837.607	3951.79
837.932	3881.06
838.258	3950.43
838.583	3931.68
838.908	3916.31
839.233	3910.21
839.558	3864.79
839.883	3865.01
840.208	3893.26
840.533	3840.83
840.858	3870.21
841.182	3885.35
841.507	3859.36
841.832	3820.49
842.156	3874.5
842.481	3817.55
842.805	3826.14
843.13	3846.25
843.454	3801.06
843.778	3766.26
844.103	3762.19
844.427	3756.77
844.751	3758.8
845.075	3759.7
845.399	3733.26
845.723	3801.96
846.047	3748.4
846.371	3699.14
846.695	3717.67
847.019	3685.36
847.343	3657.79
847.666	3611.01
847.99	3621.18
848.313	3629.76
848.637	3635.86
848.96	3584.34
849.284	3633.15
849.607	3610.33
849.931	3560.16
850.254	3534.4
850.577	3542.08
850.9	3495.53
851.223	3496.21
851.546	3498.02
851.869	3492.82
852.192	3506.38
852.515	3424.34
852.838	3464.34
853.161	3480.39
853.483	3458.02
853.806	3443.55
854.129	3399.26
854.451	3431.35
854.774	3376.89
855.096	3388.19
855.419	3342.09
855.741	3340.28
856.063	3364.91
856.385	3358.58
856.708	3335.99
857.03	3327.85
857.352	3353.16
857.674	3332.6
857.996	3274.29
858.318	3300.28
858.64	3302.09
858.961	3274.29
859.283	3241.98
859.605	3250.79
859.926	3269.77
860.248	3256.44
860.57	3209.89
860.891	3243.56
861.212	3204.01
861.534	3209.66
861.855	3182.32
862.176	3189.1
862.498	3204.46
862.819	3209.21
863.14	3184.58
863.461	3170.11
863.782	3163.79
864.103	3157.69
864.424	3167.63
864.745	3140.74
865.065	3122.66
865.386	3156.78
865.707	3143.9
866.027	3166.27
866.348	3108.87
866.668	3144.35
866.989	3118.82
867.309	3080.85
867.63	3113.17
867.95	3070
868.27	3089.44
868.59	3074.3
868.91	3076.56
869.23	3051.93
869.55	3079.72
869.87	3071.13
870.19	3042.43
870.51	3039.27
870.83	3094.64
871.15	3064.35
871.469	3080.17
871.789	3079.04
872.109	3031.81
872.428	3058.25
872.748	3059.61
873.067	3028.65
873.386	3002.21
873.706	3041.53
874.025	3000.4
874.344	2953.85
874.663	3038.82
874.982	3006.73
875.301	2970.57
875.62	2985.49
875.939	3014.19
876.258	2985.03
876.577	2999.5
876.896	3011.25
877.214	2951.14
877.533	3007.41
877.852	2948.43
878.17	2945.04
878.489	2961.31
878.807	2981.19
879.125	2948.43
879.444	2940.06
879.762	2911.82
880.08	2929.89
880.398	2933.51
880.716	2891.93
881.034	2917.47
881.352	2934.41
881.67	2907.75
881.988	2910.91
882.306	2885.15
882.624	2891.48
882.941	2872.72
883.259	2841.76
883.577	2872.5
883.894	2876.34
884.212	2871.14
884.529	2862.78
884.846	2842.21
885.164	2867.3
885.481	2831.37
885.798	2810.8
886.115	2793.63
886.432	2821.42
886.75	2821.2
887.067	2800.18
887.383	2809.45
887.7	2768.54
888.017	2804.02
888.334	2783.46
888.651	2769.9
888.967	2787.3
889.284	2770.8
889.6	2787.53
889.917	2720.41
890.233	2717.47
890.55	2744.59
890.866	2720.18
891.182	2728.32
891.498	2708.66
891.815	2739.84
892.131	2710.01
892.447	2702.33
892.763	2675.66
893.079	2665.04
893.395	2671.82
893.71	2656.91
894.026	2659.39
894.342	2661.2
894.657	2620.07
894.973	2638.15
895.289	2635.44
895.604	2600.41
895.92	2634.31
896.235	2594.99
896.55	2607.19
896.865	2596.8
897.181	2587.3
897.496	2582.79
897.811	2562.22
898.126	2566.51
898.441	2532.39
898.756	2562.22
899.071	2556.8
899.386	2518.15
899.7	2511.37
900.015	2537.36
900.33	2518.83
900.644	2475.44
900.959	2503.01
901.273	2491.26
901.588	2466.86
901.902	2482.45
902.216	2491.04
902.531	2468.21
902.845	2452.85
903.159	2454.2
903.473	2409.68
903.787	2385.28
904.101	2413.3
904.415	2388.89
904.729	2414.88
905.042	2396.12
905.356	2391.83
905.67	2399.74
905.984	2431.6
906.297	2381.43
906.611	2347.99
906.924	2351.38
907.237	2342.11
907.551	2319.06
907.864	2321.1
908.177	2304.37
908.491	2313.87
908.804	2281.55
909.117	2285.17
909.43	2279.52
909.743	2251.72
910.056	2282.45
910.368	2284.71
910.681	2244.04
910.994	2241.78
911.307	2237.94
911.619	2206.52
911.932	2209.91
912.244	2196.58
912.557	2197.48
912.869	2208.78
913.181	2175.11
913.494	2210.14
913.806	2200.65
914.118	2179.18
914.43	2166.98
914.742	2119.07
915.054	2151.84
915.366	2110.26
915.678	2104.83
915.99	2095.79
916.302	2103.7
916.613	2097.37
916.925	2082.01
917.236	2089.92
917.548	2085.62
917.859	2081.1
918.171	2045.17
918.482	2071.16
918.794	2049.69
919.105	2043.36
919.416	2009.24
919.727	2045.17
920.038	2030.26
920.349	1993.87
920.66	1979.86
920.971	1988
921.282	1975.12
921.593	1977.38
921.903	1954.33
922.214	1967.43
922.525	1980.99
922.835	1945.51
923.146	1968.79
923.456	1954.78
923.767	1915.46
924.077	1914.1
924.387	1942.35
924.697	1914.33
925.008	1941.9
925.318	1922.01
925.628	1923.59
925.938	1881.79
926.248	1883.14
926.558	1855.12
926.867	1876.82
927.177	1889.02
927.487	1831.84
927.796	1836.82
928.106	1838.17
928.416	1849.47
928.725	1813.77
929.034	1809.02
929.344	1807.66
929.653	1802.01
929.962	1799.98
930.271	1768.34
930.581	1814.22
930.89	1788.23
931.199	1788.91
931.508	1750.04
931.817	1769.47
932.125	1801.34
932.434	1764.5
932.743	1751.62
933.051	1733.09
933.36	1731.06
933.669	1732.19
933.977	1726.31
934.286	1706.65
934.594	1702.13
934.902	1689.93
935.21	1660.32
935.519	1665.3
935.827	1689.48
936.135	1684.05
936.443	1698.74
936.751	1639.53
937.059	1672.07
937.367	1641.79
937.674	1620.55
937.982	1639.31
938.29	1631.4
938.597	1631.17
938.905	1614
939.213	1624.17
939.52	1614.45
939.827	1594.79
940.135	1602.92
940.442	1610.16
940.749	1580.33
941.056	1557.73
941.363	1590.04
941.67	1556.6
941.977	1566.99
942.284	1566.09
942.591	1544.17
942.898	1557.05
943.205	1546.43
943.511	1512.76
943.818	1535.81
944.125	1521.57
944.431	1516.15
944.738	1496.49
945.044	1524.28
945.35	1496.94
945.657	1495.36
945.963	1490.84
946.269	1465.98
946.575	1515.47
946.881	1481.8
947.187	1458.52
947.493	1462.36
947.799	1483.15
948.105	1465.75
948.41	1459.88
948.716	1461.68
949.022	1424.85
949.327	1413.32
949.633	1444.28
949.938	1455.81
950.244	1438.63
950.549	1409.93
950.854	1435.24
951.16	1407.45
951.465	1383.27
951.77	1390.5
952.075	1381.69
952.38	1370.84
952.685	1368.81
952.99	1348.24
953.294	1374
953.599	1371.52
953.904	1385.3
954.209	1367.68
954.513	1354.79
954.818	1350.73
955.122	1336.94
955.426	1361.8
955.731	1319.32
956.035	1312.31
956.339	1321.58
956.643	1309.82
956.948	1333.1
957.252	1296.49
957.556	1302.59
957.86	1299.66
958.163	1313.67
958.467	1303.72
958.771	1283.84
959.075	1266.89
959.378	1261.24
959.682	1267.57
959.985	1259.43
960.289	1253.1
960.592	1288.36
960.896	1273.44
961.199	1265.76
961.502	1231.18
961.805	1258.53
962.108	1268.24
962.411	1227.57
962.714	1228.92
963.017	1255.36
963.32	1225.53
963.623	1226.44
963.926	1214.91
964.228	1230.96
964.531	1188.92
964.833	1204.29
965.136	1207.23
965.438	1197.96
965.741	1192.77
966.043	1186.21
966.345	1167.68
966.648	1143.05
966.95	1181.69
967.252	1176.72
967.554	1159.09
967.856	1133.33
968.158	1156.61
968.46	1143.28
968.761	1152.99
969.063	1160.9
969.365	1132.2
969.666	1132.65
969.968	1129.94
970.269	1130.39
970.571	1117.74
970.872	1106.67
971.174	1097.63
971.475	1124.52
971.776	1110.06
972.077	1106.67
972.378	1105.08
972.679	1102.82
972.98	1083.16
973.281	1092.65
973.582	1067.8
973.883	1080.45
974.183	1085.2
974.484	1086.78
974.785	1070.28
975.085	1063.73
975.386	1058.53
975.686	1053.11
975.986	1049.49
976.287	1052.88
976.587	1067.57
976.887	1069.15
977.187	1045.2
977.487	1046.78
977.787	1021.47
978.087	1029.38
978.387	1032.77
978.687	1022.6
978.987	1017.18
979.286	1015.37
979.586	1015.82
979.885	1016.95
980.185	1041.36
980.484	994.58
980.784	1017.85
981.083	1014.01
981.382	977.18
981.682	995.26
981.981	1014.69
982.28	995.93
982.579	997.52
982.878	966.78
983.177	990.06
983.475	959.55
983.774	978.31
984.073	976.5
984.372	960
984.67	971.98
984.969	952.55
985.267	944.18
985.566	941.25
985.864	942.38
986.162	954.81
986.461	940.12
986.759	936.95
987.057	934.47
987.355	931.3
987.653	934.69
987.951	940.57
988.249	918.65
988.547	911.64
988.844	881.81
989.142	899.21
989.44	900.12
989.737	916.84
990.035	876.16
990.332	908.48
990.63	876.16
990.927	883.85
991.224	894.24
991.521	906.45
991.819	869.84
992.116	875.71
992.413	894.47
992.71	856.5
993.006	880.01
993.303	873
993.6	886.11
993.897	865.99
994.193	866.67
994.49	856.95
994.787	836.84
995.083	851.76
995.379	847.24
995.676	845.43
995.972	829.38
996.268	860.57
996.565	865.32
996.861	836.16
997.157	840.01
997.453	829.16
997.749	834.36
998.044	823.28
998.34	802.49
998.636	832.77
998.932	820.35
999.227	799.1
999.523	822.15
999.818	770.63
1000.114	786.9
1000.409	797.07
1000.704	793.45
1001	791.87
1001.295	789.61
1001.59	791.19
1001.885	775.15
1002.18	796.17
1002.475	776.96
1002.77	768.82
1003.065	770.4
1003.359	788.48
1003.654	766.56
1003.949	772.66
1004.243	766.79
1004.538	746
1004.832	760.46
1005.127	748.48
1005.421	750.74
1005.715	748.94
1006.009	743.51
1006.304	744.64
1006.598	722.5
1006.892	734.02
1007.186	726.79
1007.48	721.14
1007.773	718.65
1008.067	732.89
1008.361	743.29
1008.655	736.28
1008.948	709.61
1009.242	717.98
1009.535	694.02
1009.829	702.38
1010.122	704.87
1010.415	694.02
1010.708	684.98
1011.001	694.25
1011.295	690.86
1011.588	685.66
1011.881	687.92
1012.173	668.03
1012.466	690.86
1012.759	671.2
1013.052	699.67
1013.344	680.46
1013.637	687.02
1013.93	664.19
1014.222	672.78
1014.514	641.82
1014.807	672.33
1015.099	634.36
1015.391	669.39
1015.683	655.6
1015.976	643.63
1016.268	639.33
1016.56	650.18
1016.851	626.68
1017.143	643.63
1017.435	642.27
1017.727	650.63
1018.018	635.49
1018.31	624.42
1018.602	611.54
1018.893	622.84
1019.185	601.37
1019.476	615.83
1019.767	630.29
1020.058	617.19
1020.35	597.98
1020.641	615.38
1020.932	605.89
1021.223	598.2
1021.514	593.68
1021.804	584.65
1022.095	586.45
1022.386	607.47
1022.677	602.05
1022.967	596.4
1023.258	610.18
1023.548	588.04
1023.839	598.43
1024.129	592.78
1024.419	588.26
1024.709	581.71
1025	551.88
1025.29	598.66
1025.58	573.8
1025.87	554.14
1026.16	584.42
1026.449	572.89
1026.739	560.47
1027.029	556.17
1027.319	556.17
1027.608	559.11
1027.898	565.66
1028.187	562.95
1028.477	548.94
1028.766	523.86
1029.055	530.64
1029.344	547.13
1029.634	544.87
1029.923	536.74
1030.212	518.43
1030.501	521.14
1030.79	535.61
1031.078	549.39
1031.367	518.88
1031.656	530.41
1031.945	521.14
1032.233	554.36
1032.522	519.79
1032.81	538.09
1033.099	526.79
1033.387	508.04
1033.675	489.28
1033.963	528.15
1034.251	497.87
1034.54	496.51
1034.828	513.46
1035.116	501.26
1035.403	500.35
1035.691	494.25
1035.979	524.76
1036.267	508.04
1036.554	510.3
1036.842	501.26
1037.129	484.99
1037.417	484.08
1037.704	496.51
1037.992	489.96
1038.279	489.96
1038.566	474.14
1038.853	474.14
1039.14	474.14
