Data from mousepad_grey_FLMS001491_00051.txt Node
Date: Wed Feb 08 14:29:37 GMT 2017
User: dcchb
Spectrometer: FLMS00149
Trigger mode: 0
Integration Time (sec): 2.000000E-2
Scans to average: 10
Electric dark correction enabled: true
Nonlinearity correction enabled: false
Boxcar width: 0
XAxis mode: Wavelengths
Number of Pixels in Spectrum: 2048
>>>>>Begin Spectral Data<<<<<
341.393	-22.92
341.776	-22.92
342.16	-22.92
342.543	-75.13
342.927	-53.88
343.31	-86.42
343.693	-67.44
344.077	-53.88
344.46	-56.37
344.843	-65.63
345.226	-35.35
345.61	-51.62
345.993	-9.36
346.376	-7.56
346.759	15.95
347.142	47.81
347.525	39.22
347.908	76.51
348.291	76.96
348.674	81.71
349.057	95.49
349.44	102.27
349.823	140.69
350.206	144.3
350.588	172.55
350.971	189.27
351.354	197.64
351.737	222.49
352.119	236.05
352.502	235.15
352.884	255.71
353.267	259.1
353.65	267.24
354.032	282.38
354.414	269.72
354.797	279.67
355.179	281.93
355.562	300.01
355.944	299.55
356.326	310.63
356.709	320.8
357.091	329.61
357.473	295.71
357.855	336.39
358.238	321.7
358.62	318.76
359.002	321.7
359.384	306.79
359.766	332.32
360.148	325.32
360.53	337.97
360.912	312.44
361.294	301.81
361.676	304.3
362.057	297.97
362.439	313.34
362.821	306.33
363.203	294.58
363.584	317.41
363.966	298.42
364.348	290.74
364.729	292.77
365.111	288.03
365.493	301.36
365.874	311.08
366.256	283.74
366.637	293.23
367.019	289.39
367.4	294.13
367.781	313.79
368.163	286.22
368.544	289.84
368.925	283.51
369.306	299.33
369.688	291.64
370.069	283.74
370.45	288.03
370.831	301.36
371.212	286
371.593	263.85
371.974	277.63
372.355	284.19
372.736	294.58
373.117	290.06
373.498	300.23
373.879	286
374.26	286
374.641	273.34
375.021	300.23
375.402	283.51
375.783	289.84
376.163	305.43
376.544	284.41
376.925	288.71
377.305	293
377.686	312.44
378.066	311.53
378.447	285.54
378.827	316.05
379.208	310.4
379.588	290.29
379.968	289.16
380.349	293.68
380.729	319.21
381.109	322.38
381.489	309.5
381.87	321.25
382.25	302.94
382.63	311.98
383.01	304.98
383.39	322.6
383.77	317.18
384.15	306.79
384.53	330.74
384.91	316.05
385.29	312.66
385.67	302.72
386.049	316.95
386.429	298.2
386.809	317.63
387.189	302.04
387.568	304.98
387.948	330.29
388.328	323.06
388.707	343.17
389.087	322.38
389.466	317.63
389.846	317.86
390.225	349.27
390.605	322.38
390.984	346.56
391.363	329.61
391.743	329.84
392.122	350.63
392.501	344.07
392.881	326.9
393.26	358.31
393.639	335.49
394.018	320.12
394.397	349.5
394.776	368.48
395.155	346.33
395.534	336.84
395.913	351.76
396.292	334.13
396.671	362.83
397.05	346.56
397.429	361.02
397.808	368.48
398.186	358.08
398.565	353.34
398.944	363.73
399.323	347.46
399.701	359.21
400.08	359.67
400.458	362.6
400.837	369.83
401.215	375.03
401.594	373.9
401.972	349.5
402.351	364.41
402.729	370.06
403.107	358.99
403.486	372.09
403.864	390.63
404.242	377.07
404.62	380.23
404.999	399.89
405.377	380.46
405.755	380.46
406.133	388.14
406.511	373.22
406.889	396.5
407.267	380
407.645	410.74
408.023	389.27
408.401	403.73
408.779	405.77
409.156	394.47
409.534	401.92
409.912	401.92
410.29	405.09
410.667	426.1
411.045	411.19
411.422	442.6
411.8	432.66
412.178	428.36
412.555	431.3
412.933	447.57
413.31	453.67
413.687	445.54
414.065	441.92
414.442	434.01
414.819	416.84
415.197	456.39
415.574	436.73
415.951	464.75
416.328	448.93
416.705	468.59
417.082	471.08
417.46	454.58
417.837	494.58
418.214	450.96
418.591	480.34
418.967	476.27
419.344	450.51
419.721	478.76
420.098	467.23
420.475	521.7
420.852	474.69
421.228	486.44
421.605	467.91
421.982	491.19
422.358	494.35
422.735	503.39
423.111	499.77
423.488	487.35
423.864	489.15
424.241	521.7
424.617	516.95
424.994	498.87
425.37	505.42
425.746	526.89
426.123	524.18
426.499	510.17
426.875	540.68
427.251	530.06
427.627	523.05
428.003	529.6
428.379	539.32
428.756	537.74
429.132	545.65
429.507	538.19
429.883	573.67
430.259	564.86
430.635	537.74
431.011	540
431.387	573.67
431.763	606.44
432.138	594.69
432.514	594.24
432.89	586.55
433.265	574.8
433.641	608.92
434.016	609.83
434.392	597.63
434.767	608.7
435.143	611.86
435.518	631.97
435.894	623.16
436.269	629.94
436.644	651.18
437.02	655.7
437.395	654.35
437.77	674.23
438.145	646.66
438.52	663.39
438.895	665.42
439.271	659.77
439.646	653.9
440.021	672.2
440.395	660.9
440.77	684.63
441.145	700.22
441.52	675.82
441.895	695.93
442.27	667.45
442.645	695.02
443.019	675.59
443.394	709.04
443.769	696.61
444.143	698.87
444.518	712.42
444.892	718.07
445.267	730.05
445.641	729.6
446.016	716.94
446.39	730.05
446.764	741.8
447.139	728.92
447.513	723.27
447.887	739.99
448.262	757.62
448.636	772.76
449.01	752.65
449.384	747.68
449.758	777.06
450.132	771.63
450.506	745.19
450.88	794
451.254	763.95
451.628	801.01
452.002	789.48
452.376	800.78
452.75	835.13
453.123	814.79
453.497	814.57
453.871	833.55
454.244	827.45
454.618	849.82
454.992	868.35
455.365	837.85
455.739	854.34
456.112	869.71
456.486	865.42
456.859	884.4
457.232	899.09
457.606	892.76
457.979	903.83
458.352	921.68
458.725	920.1
459.099	914.68
459.472	948.35
459.845	966.2
460.218	961.46
460.591	966.66
460.964	949.03
461.337	977.28
461.71	986.99
462.083	1000.1
462.456	991.29
462.829	1022.93
463.201	1022.47
463.574	1020.67
463.947	1049.14
464.32	1063.15
464.692	1058.18
465.065	1075.58
465.438	1072.19
465.81	1105.41
466.183	1094.34
466.555	1118.29
466.928	1129.81
467.3	1135.01
467.672	1131.4
468.045	1155.35
468.417	1157.38
468.789	1150.15
469.161	1175.24
469.534	1194.67
469.906	1241.68
470.278	1211.39
470.65	1231.73
471.022	1261.79
471.394	1291.17
471.766	1283.71
472.138	1275.57
472.51	1346.53
472.882	1328
473.253	1349.92
473.625	1352.86
473.997	1386.53
474.369	1386.98
474.74	1382.69
475.112	1419.3
475.484	1427.43
475.855	1459.98
476.227	1472.4
476.598	1512.18
476.97	1509.01
477.341	1541.78
477.713	1574.1
478.084	1599.86
478.455	1633.53
478.827	1635.79
479.198	1623.81
479.569	1636.02
479.94	1685.96
480.311	1721.44
480.682	1733.19
481.053	1758.72
481.424	1791.04
481.795	1818.38
482.166	1835.79
482.537	1822.45
482.908	1853.64
483.279	1887.76
483.65	1928.89
484.021	1976.12
484.391	1975.44
484.762	1994.88
485.133	1996.68
485.503	2048.21
485.874	2089.56
486.244	2068.32
486.615	2124.82
486.985	2132.73
487.356	2151.93
487.726	2170.69
488.097	2241.88
488.467	2204.36
488.837	2240.52
489.207	2280.75
489.578	2314.19
489.948	2318.03
490.318	2344.7
490.688	2361.87
491.058	2391.02
491.428	2448.42
491.798	2471.25
492.168	2479.16
492.538	2541.98
492.908	2557.8
493.278	2523.22
493.648	2549.66
494.017	2591.92
494.387	2626.27
494.757	2633.5
495.126	2690.45
495.496	2653.16
495.866	2710.79
496.235	2713.05
496.605	2747.63
496.974	2753.73
497.344	2782.43
497.713	2790.11
498.082	2799.83
498.452	2819.26
498.821	2883.89
499.19	2828.3
499.559	2876.66
499.928	2894.51
500.298	2941.07
500.667	2910.33
501.036	2922.31
501.405	2974.29
501.774	2972.25
502.143	3009.99
502.512	3040.95
502.88	3035.3
503.249	3044.57
503.618	3075.98
503.987	3103.32
504.356	3095.19
504.724	3119.59
505.093	3128.18
505.462	3162.3
505.83	3154.85
506.199	3179.7
506.567	3210.66
506.936	3202.98
507.304	3278.23
507.672	3289.98
508.041	3260.83
508.409	3355.29
508.777	3316.42
509.145	3363.43
509.514	3365.69
509.882	3402.52
510.25	3411.11
510.618	3413.14
510.986	3438.45
511.354	3491.79
511.722	3491.33
512.09	3529.3
512.458	3527.72
512.826	3576.76
513.193	3562.97
513.561	3611.11
513.929	3617.21
514.297	3614.04
514.664	3636.64
515.032	3682.52
515.4	3699.46
515.767	3709.18
516.135	3731.55
516.502	3693.36
516.869	3766.58
517.237	3783.08
517.604	3804.77
517.972	3843.42
518.339	3899.01
518.706	3903.3
519.073	3896.75
519.44	3917.99
519.808	3943.98
520.175	3970.19
520.542	3975.84
520.909	4047.48
521.276	4036.41
521.643	4063.98
522.009	4084.77
522.376	4130.19
522.743	4147.59
523.11	4199.56
523.477	4207.02
523.843	4214.93
524.21	4260.58
524.577	4289.05
524.943	4348.04
525.31	4324.08
525.676	4383.97
526.043	4450.63
526.409	4429.16
526.776	4490.4
527.142	4469.16
527.508	4482.72
527.874	4523.4
528.241	4541.25
528.607	4584.41
528.973	4601.14
529.339	4629.38
529.705	4699.66
530.071	4705.31
530.437	4677.74
530.803	4778.31
531.169	4786.89
531.535	4779.21
531.901	4802.71
532.267	4810.4
532.632	4811.53
532.998	4844.52
533.364	4906.44
533.73	4891.3
534.095	4950.51
534.461	4962.48
534.826	5047
535.192	5039.99
535.557	5066.43
535.923	5033.67
536.288	5136.04
536.653	5075.25
537.019	5134.46
537.384	5138.52
537.749	5195.47
538.114	5136.94
538.479	5194.11
538.845	5261.01
539.21	5193.44
539.575	5312.76
539.94	5233.44
540.305	5294.45
540.67	5333.09
541.034	5326.77
541.399	5348.46
541.764	5376.48
542.129	5427.56
542.494	5420.1
542.858	5455.58
543.223	5478.85
543.587	5519.53
543.952	5495.35
544.316	5503.49
544.681	5503.49
545.045	5581.45
545.41	5635.46
545.774	5604.05
546.138	5641.79
546.503	5663.71
546.867	5682.24
547.231	5722.91
547.595	5661.67
547.959	5705.74
548.324	5771.5
548.688	5787.55
549.052	5795
549.416	5790.94
549.779	5818.73
550.143	5864.38
550.507	5954.55
550.871	5922.23
551.235	5927.43
551.599	5975.11
551.962	6029.35
552.326	6034.54
552.689	6044.94
553.053	6016.47
553.417	6024.83
553.78	6072.96
554.143	6104.15
554.507	6145.73
554.87	6138.72
555.234	6245.16
555.597	6209.91
555.96	6214.2
556.323	6263.69
556.686	6254.65
557.05	6338.72
557.413	6296.46
557.776	6330.36
558.139	6374.87
558.502	6356.57
558.865	6411.26
559.228	6485.61
559.59	6461.65
559.953	6471.37
560.316	6515.66
560.679	6555.21
561.041	6615.77
561.404	6574.64
561.767	6622.33
562.129	6643.57
562.492	6710.23
562.854	6675.43
563.217	6707.3
563.579	6709.56
563.941	6773.73
564.304	6804.47
564.666	6862.32
565.028	6786.62
565.39	6847.63
565.753	6886.5
566.115	6912.04
566.477	6945.93
566.839	6951.36
567.201	7018.25
567.563	6987.74
567.925	7115.42
568.287	7104.8
568.648	7110
569.01	7103.44
569.372	7152.26
569.734	7172.14
570.095	7218.24
570.457	7230.22
570.819	7277.9
571.18	7285.36
571.542	7293.27
571.903	7325.36
572.265	7379.37
572.626	7374.4
572.987	7407.62
573.349	7410.33
573.71	7424.79
574.071	7485.35
574.432	7515.18
574.794	7537.33
575.155	7530.78
575.516	7556.31
575.877	7523.09
576.238	7531
576.599	7572.13
576.96	7564
577.32	7678.57
577.681	7674.73
578.042	7711.11
578.403	7659.81
578.763	7666.37
579.124	7748.4
579.485	7780.04
579.845	7794.27
580.206	7757.21
580.566	7742.07
580.927	7762.63
581.287	7749.75
581.648	7729.87
582.008	7827.27
582.368	7796.08
582.728	7821.84
583.089	7792.24
583.449	7829.98
583.809	7848.73
584.169	7818.45
584.529	7829.98
584.889	7873.59
585.249	7807.15
585.609	7842.63
585.969	7888.51
586.329	7867.72
586.688	7929.64
587.048	7846.93
587.408	7825.91
587.768	7869.3
588.127	7914.27
588.487	7811.45
588.846	7925.34
589.206	7887.6
589.565	7905.46
589.925	7936.19
590.284	7829.3
590.643	7913.37
591.003	7926.47
591.362	7888.28
591.721	7907.04
592.08	7961.95
592.44	7946.13
592.799	7978.22
593.158	7956.08
593.517	7950.2
593.876	7966.92
594.235	7931.67
594.593	7950.88
594.952	7926.7
595.311	7972.57
595.67	7911.11
596.029	7986.81
596.387	7956.08
596.746	7986.81
597.104	8025.23
597.463	8036.53
597.822	7996.75
598.18	7937.55
598.538	7912.46
598.897	8003.76
599.255	7894.83
599.613	8012.12
599.972	8037.2
600.33	8008.96
600.688	8020.93
601.046	8029.75
601.404	8056.86
601.762	8058.22
602.12	8025.68
602.478	8095.51
602.836	8033.81
603.194	8034.04
603.552	8018.9
603.91	8046.47
604.268	8063.87
604.625	8064.32
604.983	8110.2
605.341	8022.06
605.698	8138.67
606.056	8081.72
606.413	8042.63
606.771	8123.53
607.128	8124.89
607.485	8127.6
607.843	8126.47
608.2	8127.6
608.557	8143.87
608.914	8151.55
609.272	8206.47
609.629	8226.58
609.986	8223.19
610.343	8153.36
610.7	8236.29
611.057	8224.77
611.414	8189.06
611.771	8256.18
612.127	8243.98
612.484	8185
612.841	8259.8
613.198	8217.99
613.554	8209.4
613.911	8274.26
614.267	8283.07
614.624	8288.04
614.98	8289.85
615.337	8319
615.693	8337.76
616.05	8289.17
616.406	8335.28
616.762	8315.61
617.118	8305.67
617.475	8331.66
617.831	8327.37
618.187	8335.05
618.543	8386.57
618.899	8406.01
619.255	8441.04
619.611	8406.23
619.967	8454.37
620.323	8390.87
620.678	8401.26
621.034	8374.37
621.39	8379.57
621.746	8375.05
622.101	8488.94
622.457	8430.64
622.812	8431.77
623.168	8439.91
623.523	8445.1
623.879	8465.67
624.234	8416.63
624.589	8436.52
624.945	8435.39
625.3	8456.4
625.655	8463.18
626.01	8466.8
626.365	8451.2
626.72	8475.84
627.075	8482.39
627.43	8449.85
627.785	8482.62
628.14	8467.7
628.495	8423.86
628.85	8405.78
629.205	8446.01
629.559	8443.75
629.914	8424.99
630.269	8414.37
630.623	8439.45
630.978	8400.13
631.332	8450.98
631.687	8420.24
632.041	8429.51
632.396	8466.8
632.75	8432.45
633.104	8389.06
633.459	8329.4
633.813	8432.22
634.167	8414.14
634.521	8384.09
634.875	8326.46
635.229	8362.85
635.583	8330.3
635.937	8367.59
636.291	8395.16
636.645	8328.04
636.999	8319
637.352	8327.14
637.706	8321.04
638.06	8365.56
638.413	8317.42
638.767	8328.04
639.121	8336.63
639.474	8302.06
639.828	8244.43
640.181	8272.45
640.534	8272.45
640.888	8219.35
641.241	8218.22
641.594	8223.87
641.947	8266.8
642.301	8254.83
642.654	8312.68
643.007	8278.55
643.36	8220.93
643.713	8251.21
644.066	8322.39
644.419	8213.24
644.771	8169.18
645.124	8128.5
645.477	8058.9
645.83	8136.86
646.182	8004.66
646.535	8029.52
646.888	8055.06
647.24	7980.03
647.593	8058.67
647.945	8060.93
648.298	7995.62
648.65	7982.52
649.002	7952.91
649.355	7961.27
649.707	7946.58
650.059	8063.19
650.411	8121.27
650.763	8163.08
651.115	8186.58
651.467	8163.98
651.819	8157.2
652.171	8181.15
652.523	8150.65
652.875	8143.64
653.227	8158.33
653.578	8204.43
653.93	8135.96
654.282	8185.67
654.633	8157.65
654.985	8146.13
655.337	8115.85
655.688	8140.48
656.039	8192.68
656.391	8132.57
656.742	8122.4
657.094	8089.41
657.445	8199.91
657.796	8155.39
658.147	8121.5
658.498	8142.29
658.849	8218.67
659.2	8198.56
659.551	8120.14
659.902	8168.95
660.253	8166.47
660.604	8181.61
660.955	8153.81
661.306	8184.32
661.656	8138.22
662.007	8160.59
662.358	8110.87
662.708	8140.25
663.059	8119.46
663.409	8159.91
663.76	8130.08
664.11	8189.29
664.461	8189.29
664.811	8212.57
665.161	8135.96
665.511	8183.87
665.862	8163.08
666.212	8241.49
666.562	8174.38
666.912	8176.86
667.262	8199.23
667.612	8127.82
667.962	8167.14
668.312	8166.69
668.662	8282.17
669.011	8166.92
669.361	8069.07
669.711	8117.88
670.06	8139.8
670.41	8137.99
670.76	8090.31
671.109	8123.98
671.459	8139.8
671.808	8142.06
672.157	8133.7
672.507	8048.05
672.856	8051.44
673.205	8048.73
673.554	8116.75
673.904	8083.76
674.253	8132.34
674.602	8085.56
674.951	7955.85
675.3	7917.66
675.649	8079.24
675.998	8020.71
676.346	8049.86
676.695	8005.57
677.044	8010.31
677.393	8055.73
677.741	8099.8
678.09	8041.72
678.438	7977.32
678.787	7993.59
679.135	8008.96
679.484	7961.27
679.832	8011.89
680.181	7960.6
680.529	7919.24
680.877	7897.32
681.225	7928.05
681.573	7933.25
681.922	7875.17
682.27	7882.86
682.618	7911.33
682.966	7879.69
683.314	7900.94
683.661	7867.26
684.009	7872.69
684.357	7774.39
684.705	7834.95
685.053	7814.61
685.4	7822.52
685.748	7688.29
686.095	7732.58
686.443	7704.33
686.79	7699.59
687.138	7725.35
687.485	7715.4
687.832	7679.47
688.18	7651.45
688.527	7624.11
688.874	7609.42
689.221	7541.17
689.568	7579.14
689.915	7568.29
690.262	7457.78
690.609	7527.61
690.956	7471.57
691.303	7502.98
691.65	7477.67
691.997	7465.24
692.344	7425.24
692.69	7422.53
693.037	7376.88
693.383	7292.36
693.73	7340.27
694.077	7347.96
694.423	7316.09
694.769	7293.04
695.116	7242.65
695.462	7233.16
695.808	7238.13
696.155	7254.17
696.501	7208.98
696.847	7157
697.193	7137.79
697.539	7078.36
697.885	7058.25
698.231	7091.92
698.577	7006.04
698.923	7073.39
699.269	7013.95
699.614	6977.12
699.96	6967.18
700.306	7025.93
700.651	6952.03
700.997	6886.73
701.342	6883.56
701.688	6911.13
702.033	6906.39
702.379	6847.63
702.724	6813.51
703.069	6787.52
703.415	6736
703.76	6771.25
704.105	6749.55
704.45	6779.38
704.795	6674.53
705.14	6610.12
705.485	6681.76
705.83	6652.83
706.175	6626.39
706.52	6600.86
706.865	6606.28
707.209	6608.77
707.554	6550.01
707.899	6574.19
708.243	6532.61
708.588	6478.15
708.932	6516.57
709.277	6479.28
709.621	6485.15
709.966	6411.48
710.31	6437.02
710.654	6383.69
710.998	6414.87
711.342	6380.3
711.687	6364.25
712.031	6356.57
712.375	6344.37
712.719	6393.86
713.063	6318.61
713.407	6374.2
713.75	6314.99
714.094	6326.74
714.438	6299.17
714.782	6280.19
715.125	6311.15
715.469	6287.42
715.812	6267.31
716.156	6237.7
716.499	6219.4
716.843	6245.39
717.186	6248.78
717.53	6226.63
717.873	6266.85
718.216	6210.36
718.559	6199.06
718.902	6169.68
719.246	6209.68
719.589	6175.33
719.932	6147.99
720.275	6181.89
720.617	6147.76
720.96	6154.99
721.303	6162
721.646	6157.71
721.989	6150.02
722.331	6162.22
722.674	6144.82
723.016	6095.33
723.359	6139.85
723.701	6084.26
724.044	6057.14
724.386	6092.4
724.729	6089.68
725.071	6021.21
725.413	6063.02
725.755	6116.12
726.097	6067.31
726.439	6009.46
726.782	6004.26
727.124	6061.21
727.465	6072.74
727.807	6068.89
728.149	6060.08
728.491	6033.19
728.833	6082.23
729.175	6030.25
729.516	6032.96
729.858	6016.92
730.199	6036.8
730.541	6047.43
730.882	6024.6
731.224	6070.48
731.565	6014.21
731.906	6012.62
732.248	6017.14
732.589	6026.86
732.93	6006.75
733.271	6060.76
733.612	6004.94
733.953	5996.58
734.294	5955.45
734.635	5977.15
734.976	5971.95
735.317	5986.41
735.658	5947.77
735.999	6034.54
736.339	6007.43
736.68	6044.71
737.021	5993.42
737.361	5997.03
737.702	6003.81
738.042	6022.12
738.383	6042.91
738.723	5992.51
739.063	6007.43
739.404	5960.42
739.744	5981.44
740.084	5991.83
740.424	5992.29
740.764	5969.91
741.104	5990.7
741.444	5930.14
741.784	6000.87
742.124	5945.51
742.464	5952.29
742.804	5985.28
743.143	6018.05
743.483	5982.12
743.823	5952.74
744.162	5967.65
744.502	5999.07
744.841	5943.02
745.181	6032.28
745.52	5957.71
745.86	6029.57
746.199	5949.35
746.538	5942.8
746.877	6016.01
747.216	5935.56
747.556	5977.6
747.895	6008.33
748.234	5902.12
748.573	5927.88
748.911	5982.12
749.25	5907.09
749.589	5956.13
749.928	5912.74
750.267	5943.25
750.605	5883.14
750.944	5868.45
751.283	5897.37
751.621	5919.29
751.96	5892.18
752.298	5922.46
752.636	5964.26
752.975	5872.29
753.313	5846.53
753.651	5922.91
753.989	5891.95
754.327	5866.64
754.666	5850.14
755.004	5866.19
755.342	5849.01
755.679	5828.67
756.017	5764.04
756.355	5834.1
756.693	5825.06
757.031	5844.72
757.368	5747.55
757.706	5797.94
758.044	5746.19
758.381	5755.91
758.719	5744.83
759.056	5776.7
759.394	5702.35
759.731	5698.73
760.068	5681.56
760.405	5716.14
760.743	5686.31
761.08	5699.64
761.417	5645.85
761.754	5673.42
762.091	5604.5
762.428	5631.17
762.765	5576.48
763.102	5634.1
763.438	5628.91
763.775	5590.49
764.112	5590.49
764.449	5549.59
764.785	5517.04
765.122	5535.8
765.458	5484.73
765.795	5434.33
766.131	5503.03
766.467	5441.11
766.804	5470.49
767.14	5369.48
767.476	5402.24
767.812	5339.87
768.148	5438.85
768.485	5355.47
768.821	5348.01
769.157	5362.47
769.492	5324.51
769.828	5343.04
770.164	5287.45
770.5	5314.11
770.836	5261.01
771.171	5222.14
771.507	5236.37
771.842	5200.22
772.178	5186.66
772.513	5208.58
772.849	5145.53
773.184	5152.99
773.519	5147.79
773.855	5121.12
774.19	5083.38
774.525	5070.95
774.86	5073.44
775.195	5059.43
775.53	5039.32
775.865	5019.43
776.2	5014.23
776.535	5020.11
776.87	4958.87
777.205	4908.47
777.539	4934.69
777.874	4936.49
778.209	4865.31
778.543	4823.73
778.878	4861.92
779.212	4826.89
779.547	4863.5
779.881	4847.68
780.215	4803.62
780.55	4784.86
780.884	4791.64
781.218	4758.87
781.552	4733.11
781.886	4741.7
782.22	4714.35
782.554	4714.58
782.888	4633.23
783.222	4657.86
783.556	4628.71
783.889	4627.58
784.223	4570.4
784.557	4574.02
784.89	4589.38
785.224	4577.41
785.557	4531.31
785.891	4561.14
786.224	4507.13
786.558	4564.07
786.891	4480.91
787.224	4493.34
787.557	4470.74
787.891	4426.23
788.224	4477.3
788.557	4436.17
788.89	4427.36
789.223	4427.36
789.556	4423.29
789.888	4388.71
790.221	4392.78
790.554	4347.58
790.887	4333.57
791.219	4350.52
791.552	4341.48
791.884	4280.24
792.217	4293.12
792.549	4284.53
792.882	4261.48
793.214	4231.2
793.546	4254.7
793.879	4207.7
794.211	4182.84
794.543	4221.71
794.875	4165.22
795.207	4179.45
795.539	4176.51
795.871	4190.07
796.203	4145.78
796.535	4127.25
796.867	4116.4
797.198	4114.6
797.53	4119.11
797.862	4093.35
798.193	4054.26
798.525	4052.68
798.856	4079.34
799.188	4035.28
799.519	4038.89
799.85	3994.6
800.182	3994.82
800.513	3959.35
800.844	3988.27
801.175	3992.34
801.506	3965.22
801.837	3965.22
802.168	3945.79
802.499	3920.25
802.83	3908.27
803.161	3884.32
803.491	3884.09
803.822	3895.62
804.153	3854.04
804.483	3918.22
804.814	3863.98
805.145	3815.62
805.475	3828.95
805.805	3803.87
806.136	3829.63
806.466	3827.82
806.796	3799.12
807.126	3765.23
807.457	3762.97
807.787	3760.93
808.117	3751.89
808.447	3745.79
808.777	3738.79
809.107	3742.4
809.436	3768.62
809.766	3735.4
810.096	3704.44
810.426	3694.95
810.755	3693.59
811.085	3690.88
811.414	3660.14
811.744	3649.52
812.073	3646.58
812.403	3696.3
812.732	3626.02
813.061	3638
813.39	3610.88
813.719	3568.17
814.049	3625.12
814.378	3567.26
814.707	3583.08
815.036	3584.44
815.365	3583.54
815.693	3539.02
816.022	3584.21
816.351	3536.76
816.68	3514.38
817.008	3542.86
817.337	3502.41
817.665	3490.2
817.994	3508.51
818.322	3492.46
818.651	3487.49
818.979	3462.41
819.307	3469.41
819.636	3468.51
819.964	3414.73
820.292	3472.13
820.62	3467.61
820.948	3456.76
821.276	3447.95
821.604	3470.54
821.932	3480.71
822.259	3481.17
822.587	3424.67
822.915	3439.81
823.243	3471.45
823.57	3445.23
823.898	3468.74
824.225	3443.88
824.553	3401.17
824.88	3466.93
825.207	3422.86
825.535	3413.37
825.862	3447.72
826.189	3426.93
826.516	3432.35
826.843	3428.29
827.17	3480.49
827.497	3445.46
827.824	3459.02
828.151	3423.77
828.478	3460.15
828.805	3418.57
829.131	3429.64
829.458	3423.54
829.785	3387.83
830.111	3434.39
830.438	3461.96
830.764	3457.89
831.09	3447.27
831.417	3441.39
831.743	3440.26
832.069	3479.81
832.395	3405.91
832.722	3440.94
833.048	3385.12
833.374	3386.7
833.7	3385.35
834.026	3403.43
834.351	3375.18
834.677	3345.12
835.003	3405.69
835.329	3428.51
835.654	3391
835.98	3385.57
836.306	3382.64
836.631	3336.08
836.956	3383.54
837.282	3412.69
837.607	3363.65
837.932	3341.06
838.258	3367.5
838.583	3364.78
838.908	3322.98
839.233	3374.5
839.558	3295.63
839.883	3312.36
840.208	3294.28
840.533	3327.27
840.858	3290.44
841.182	3325.46
841.507	3275.3
841.832	3298.12
842.156	3280.49
842.481	3267.84
842.805	3270.32
843.13	3299.25
843.454	3244.56
843.778	3264.9
844.103	3229.65
844.427	3234.62
844.751	3268.74
845.075	3218.12
845.399	3199.59
845.723	3229.19
846.047	3185.13
846.371	3171.8
846.695	3208.18
847.019	3150.55
847.343	3121.17
847.666	3156.2
847.99	3122.98
848.313	3135.86
848.637	3104.68
848.96	3110.55
849.284	3108.97
849.607	3068.3
849.931	3045.24
850.254	3040.27
850.577	3051.12
850.9	3025.13
851.223	2993.49
851.546	3003.89
851.869	3015.42
852.192	3024.91
852.515	3000.5
852.838	2998.24
853.161	2945.13
853.483	2944.91
853.806	2933.16
854.129	2927.28
854.451	2905.81
854.774	2908.53
855.096	2907.62
855.419	2906.49
855.741	2891.8
856.063	2907.4
856.385	2874.85
856.708	2845.48
857.03	2864.46
857.352	2873.72
857.674	2871.92
857.996	2849.09
858.318	2828.3
858.64	2818.81
858.961	2800.73
859.283	2790.79
859.605	2774.52
859.926	2793.27
860.248	2825.59
860.57	2790.56
860.891	2795.53
861.212	2779.04
861.534	2765.48
861.855	2745.14
862.176	2796.66
862.498	2741.52
862.819	2744.91
863.14	2742.88
863.461	2760.28
863.782	2728.87
864.103	2738.13
864.424	2738.81
864.745	2727.06
865.065	2736.78
865.386	2700.4
865.707	2700.85
866.027	2699.27
866.348	2705.59
866.668	2704.69
866.989	2719.38
867.309	2693.39
867.63	2641.19
867.95	2686.61
868.27	2683.9
868.59	2655.65
868.91	2680.51
869.23	2687.97
869.55	2652.71
869.87	2655.2
870.19	2712.82
870.51	2667.85
870.83	2669.21
871.15	2634.41
871.469	2681.41
871.789	2640.96
872.109	2626.5
872.428	2651.81
872.748	2597.12
873.067	2627.85
873.386	2643.9
873.706	2623.56
874.025	2616.78
874.344	2600.28
874.663	2587.4
874.982	2609.1
875.301	2608.42
875.62	2623.33
875.939	2594.18
876.258	2567.74
876.577	2594.18
876.896	2583.11
877.214	2566.39
877.533	2550.79
877.852	2548.31
878.17	2557.12
878.489	2546.5
878.807	2550.34
879.125	2563
879.444	2536.33
879.762	2557.8
880.08	2551.02
880.398	2515.99
880.716	2540.4
881.034	2530
881.352	2504.69
881.67	2537.91
881.988	2488.2
882.306	2504.02
882.624	2507.41
882.941	2496.33
883.259	2507.18
883.577	2521.42
883.894	2492.49
884.212	2506.73
884.529	2501.3
884.846	2480.51
885.164	2457.24
885.481	2492.04
885.798	2460.4
886.115	2441.64
886.432	2460.85
886.75	2426.5
887.067	2452.27
887.383	2422.21
887.7	2418.82
888.017	2416.11
888.334	2392.38
888.651	2417.46
888.967	2390.8
889.284	2404.36
889.6	2388.99
889.917	2385.15
890.233	2412.72
890.55	2344.47
890.866	2393.51
891.182	2378.37
891.498	2339.73
891.815	2346.51
892.131	2339.73
892.447	2314.42
892.763	2338.82
893.079	2327.07
893.395	2306.96
893.71	2329.56
894.026	2315.77
894.342	2303.12
894.657	2295.66
894.973	2279.39
895.289	2292.95
895.604	2295.66
895.92	2259.05
896.235	2266.06
896.55	2296.56
896.865	2266.51
897.181	2240.75
897.496	2240.29
897.811	2268.77
898.126	2252.72
898.441	2240.75
898.756	2198.94
899.071	2209.56
899.386	2203.46
899.7	2211.14
900.015	2171.37
900.33	2200.52
900.644	2173.4
900.959	2191.71
901.273	2142.67
901.588	2182.67
901.902	2160.75
902.216	2169.34
902.531	2138.38
902.845	2144.25
903.159	2112.84
903.473	2111.71
903.787	2126.85
904.101	2111.71
904.415	2087.53
904.729	2097.7
905.042	2110.13
905.356	2088.66
905.67	2046.4
905.984	2101.54
906.297	2048.66
906.611	2052.95
906.924	2070.36
907.237	2052.73
907.551	2055.89
907.864	2039.85
908.177	2052.5
908.491	2003.92
908.804	2013.41
909.117	1978.38
909.43	2006.85
909.743	1987.65
910.056	1974.31
910.368	1976.57
910.681	1947.87
910.994	1936.12
911.307	1948.78
911.619	1953.3
911.932	1893.64
912.244	1950.58
912.557	1934.31
912.869	1901.55
913.181	1914.88
913.494	1908.1
913.806	1934.54
914.118	1913.75
914.43	1856.58
914.742	1879.17
915.054	1888.67
915.366	1852.73
915.678	1843.02
915.99	1866.74
916.302	1822.68
916.613	1845.05
916.925	1838.27
917.236	1845.95
917.548	1824.71
917.859	1820.87
918.171	1829.01
918.482	1816.58
918.794	1775
919.105	1801.21
919.416	1767.31
919.727	1796.01
920.038	1803.47
920.349	1742
920.66	1752.4
920.971	1771.61
921.282	1758.27
921.593	1721.89
921.903	1749.91
922.214	1717.82
922.525	1731.16
922.835	1716.47
923.146	1700.65
923.456	1702
923.767	1686.41
924.077	1687.54
924.387	1676.02
924.697	1677.6
925.008	1678.95
925.318	1657.03
925.628	1668.56
925.938	1637.82
926.248	1642.12
926.558	1655
926.867	1623.14
927.177	1635.79
927.487	1636.92
927.796	1580.88
928.106	1637.6
928.416	1577.26
928.725	1643.02
929.034	1598.5
929.344	1577.26
929.653	1628.11
929.962	1585.17
930.271	1604.83
930.581	1567.77
930.89	1597.83
931.199	1565.06
931.508	1573.19
931.817	1565.74
932.125	1537.71
932.434	1538.62
932.743	1549.01
933.051	1539.97
933.36	1516.92
933.669	1516.7
933.977	1507.88
934.286	1514.21
934.594	1499.07
934.902	1518.28
935.21	1492.97
935.519	1490.94
935.827	1465.17
936.135	1511.05
936.443	1468.56
936.751	1472.86
937.059	1451.84
937.367	1461.11
937.674	1438.73
937.982	1460.43
938.29	1458.17
938.597	1429.24
938.905	1440.77
939.213	1415.46
939.52	1423.82
939.827	1434.67
940.135	1407.55
940.442	1390.15
940.749	1384.05
941.056	1381.79
941.363	1391.28
941.67	1397.15
941.977	1389.02
942.284	1393.54
942.591	1368.45
942.898	1370.94
943.205	1372.52
943.511	1339.75
943.818	1366.87
944.125	1344.95
944.431	1378.4
944.738	1351.5
945.044	1340.43
945.35	1328.45
945.657	1334.1
945.963	1317.38
946.269	1325.29
946.575	1336.36
946.881	1329.13
947.187	1340.88
947.493	1315.35
947.799	1299.08
948.105	1269.02
948.41	1300.88
948.716	1291.84
949.022	1281.9
949.327	1291.17
949.633	1268.79
949.938	1255.46
950.244	1289.36
950.549	1248
950.854	1264.27
951.16	1261.79
951.465	1260.21
951.77	1252.52
952.075	1234.67
952.38	1234.67
952.685	1235.8
952.99	1238.96
953.294	1204.16
953.599	1226.76
953.904	1220.21
954.209	1215.24
954.513	1240.55
954.818	1222.69
955.122	1204.16
955.426	1212.75
955.731	1173.66
956.035	1203.94
956.339	1168.46
956.643	1171.4
956.948	1168.01
957.252	1164.84
957.556	1172.3
957.86	1171.62
958.163	1155.8
958.467	1150.38
958.771	1159.87
959.075	1146.54
959.378	1158.97
959.682	1145.18
959.985	1139.76
960.289	1108.8
960.592	1128.46
960.896	1137.05
961.199	1125.3
961.502	1117.61
961.805	1102.25
962.108	1118.97
962.411	1104.96
962.714	1087.78
963.017	1086.65
963.32	1110.15
963.623	1111.28
963.926	1079.42
964.228	1079.42
964.531	1090.72
964.833	1072.19
965.136	1081
965.438	1055.01
965.741	1054.79
966.043	1070.83
966.345	1071.06
966.648	1062.7
966.95	1081.68
967.252	1035.58
967.554	1050.04
967.856	1054.34
968.158	1042.81
968.46	1055.92
968.761	1036.48
969.063	1041
969.365	1026.99
969.666	1006.43
969.968	1026.77
970.269	1036.03
970.571	1008.01
970.872	1003.04
971.174	1004.62
971.475	1003.04
971.776	1010.95
972.077	998.07
972.378	1006.43
972.679	1000.1
972.98	979.31
973.281	996.03
973.582	984.51
973.883	963.49
974.183	1009.37
974.484	963.49
974.785	966.88
975.085	956.03
975.386	976.6
975.686	952.87
975.986	953.32
976.287	929.59
976.587	962.59
976.887	945.19
977.187	954
977.487	932.76
977.787	939.09
978.087	938.41
978.387	934.57
978.687	925.53
978.987	928.69
979.286	921.68
979.586	925.53
979.885	908.13
980.185	910.61
980.484	908.58
980.784	898.86
981.083	904.28
981.382	915.13
981.682	902.25
981.981	902.7
982.28	895.92
982.579	895.47
982.878	903.15
983.177	865.87
983.475	890.95
983.774	872.87
984.073	854.34
984.372	857.28
984.67	866.32
984.969	877.39
985.267	897.28
985.566	889.37
985.864	878.52
986.162	862.03
986.461	845.53
986.759	865.42
987.057	856.83
987.355	848.24
987.653	860.22
987.951	856.38
988.249	823.38
988.547	854.57
988.844	843.27
989.142	832.2
989.44	824.51
989.737	838.3
990.035	817.73
990.332	832.65
990.63	808.92
990.927	807.11
991.224	810.28
991.521	820.9
991.819	817.96
992.116	810.95
992.413	802.14
992.71	814.12
993.006	776.6
993.303	804.17
993.6	771.41
993.897	779.77
994.193	783.16
994.49	771.63
994.787	792.87
995.083	776.38
995.379	778.41
995.676	797.17
995.972	758.3
996.268	765.76
996.565	796.49
996.861	781.58
997.157	774.34
997.453	738.41
997.749	761.01
998.044	758.75
998.34	754.46
998.636	736.6
998.932	753.33
999.227	744.74
999.523	777.96
999.818	730.73
1000.114	711.29
1000.409	747.68
1000.704	740.67
1001	723.95
1001.295	734.12
1001.59	744.97
1001.885	737.73
1002.18	726.21
1002.475	707
1002.77	728.24
1003.065	693.22
1003.359	698.19
1003.654	717.85
1003.949	710.84
1004.243	697.28
1004.538	722.14
1004.832	676.04
1005.127	709.71
1005.421	689.37
1005.715	714.46
1006.009	707.23
1006.304	706.1
1006.598	664.97
1006.892	686.66
1007.186	686.66
1007.48	689.83
1007.773	699.32
1008.067	689.15
1008.361	678.3
1008.655	659.77
1008.948	664.06
1009.242	661.8
1009.535	671.75
1009.829	667.91
1010.122	647.79
1010.415	663.61
1010.708	648.7
1011.001	643.05
1011.295	641.01
1011.588	662.48
1011.881	637.17
1012.173	653.67
1012.466	627.68
1012.759	649.6
1013.052	624.97
1013.344	633.56
1013.637	641.47
1013.93	627.46
1014.222	610.28
1014.514	634.91
1014.807	631.3
1015.099	626.33
1015.391	626.33
1015.683	605.08
1015.976	603.73
1016.268	619.09
1016.56	599.43
1016.851	594.46
1017.143	600.56
1017.435	579.77
1017.727	598.98
1018.018	603.28
1018.31	605.31
1018.602	589.49
1018.893	586.78
1019.185	586.55
1019.476	577.51
1019.767	568.7
1020.058	576.38
1020.35	584.29
1020.641	586.55
1020.932	573.9
1021.223	572.99
1021.514	544.97
1021.804	557.4
1022.095	563.28
1022.386	546.55
1022.677	556.5
1022.967	562.6
1023.258	563.5
1023.548	542.49
1023.839	545.42
1024.129	555.14
1024.419	557.4
1024.709	562.6
1025	521.24
1025.29	555.82
1025.58	542.26
1025.87	537.29
1026.16	545.2
1026.449	537.29
1026.739	547.91
1027.029	551.3
1027.319	538.64
1027.608	533.9
1027.898	515.37
1028.187	526.89
1028.477	535.48
1028.766	510.62
1029.055	494.58
1029.344	508.81
1029.634	502.03
1029.923	526.67
1030.212	511.3
1030.501	512.88
1030.79	515.82
1031.078	508.59
1031.367	501.81
1031.656	493.45
1031.945	506.33
1032.233	526.44
1032.522	502.94
1032.81	485.54
1033.099	478.53
1033.387	494.35
1033.675	472.88
1033.963	489.15
1034.251	488.93
1034.54	483.28
1034.828	479.89
1035.116	478.98
1035.403	477.63
1035.691	483.73
1035.979	468.36
1036.267	481.92
1036.554	459.55
1036.842	465.65
1037.129	455.26
1037.417	477.4
1037.704	477.63
1037.992	450.96
1038.279	460.68
1038.566	476.27
1038.853	476.27
1039.14	476.27
