Data from mousepad_grey_FLMS001491_00016.txt Node
Date: Wed Feb 08 14:29:03 GMT 2017
User: dcchb
Spectrometer: FLMS00149
Trigger mode: 0
Integration Time (sec): 2.000000E-2
Scans to average: 10
Electric dark correction enabled: true
Nonlinearity correction enabled: false
Boxcar width: 0
XAxis mode: Wavelengths
Number of Pixels in Spectrum: 2048
>>>>>Begin Spectral Data<<<<<
341.393	-22.44
341.776	-22.44
342.16	-22.44
342.543	-83.01
342.927	-66.28
343.31	-58.83
343.693	-76.68
344.077	-72.39
344.46	-60.18
344.843	-47.3
345.226	-47.08
345.61	-31.03
345.993	-17.92
346.376	5.13
346.759	-3.46
347.142	14.62
347.525	65.69
347.908	75.41
348.291	65.24
348.674	91.9
349.057	96.88
349.44	147.72
349.823	143.2
350.206	159.7
350.588	175.07
350.971	203.31
351.354	207.83
351.737	226.36
352.119	235.4
352.502	258.23
352.884	253.93
353.267	273.82
353.65	270.2
354.032	287.61
354.414	297.77
354.797	307.04
355.179	289.19
355.562	330.32
355.944	321.28
356.326	314.27
356.709	323.99
357.091	319.47
357.473	303.42
357.855	302.52
358.238	329.64
358.62	322.18
359.002	311.56
359.384	345.23
359.766	312.92
360.148	328.28
360.53	333.93
360.912	335.97
361.294	322.18
361.676	304.1
362.057	336.42
362.439	312.46
362.821	306.36
363.203	333.25
363.584	314.27
363.966	300.94
364.348	293.48
364.729	295.74
365.111	307.72
365.493	298.23
365.874	294.16
366.256	294.84
366.637	298.45
367.019	304.33
367.4	284.22
367.781	291.67
368.163	309.3
368.544	283.31
368.925	296.42
369.306	314.05
369.688	288.51
370.069	317.21
370.45	312.69
370.831	286.25
371.212	287.38
371.593	280.6
371.974	298.23
372.355	294.61
372.736	308.17
373.117	310.88
373.498	302.29
373.879	307.04
374.26	302.97
374.641	292.58
375.021	318.79
375.402	315.18
375.783	308.85
376.163	312.69
376.544	319.47
376.925	302.75
377.305	305.23
377.686	302.07
378.066	311.56
378.447	298.23
378.827	336.64
379.208	329.41
379.588	311.33
379.968	291.9
380.349	305.68
380.729	313.59
381.109	314.95
381.489	311.33
381.87	314.5
382.25	326.93
382.63	343.65
383.01	340.49
383.39	312.69
383.77	329.41
384.15	316.31
384.53	311.56
384.91	324.67
385.29	334.16
385.67	345.91
386.049	339.13
386.429	335.51
386.809	326.47
387.189	332.8
387.568	319.69
387.948	342.07
388.328	342.52
388.707	345.46
389.087	353.82
389.466	352.46
389.846	318.34
390.225	346.59
390.605	352.69
390.984	329.64
391.363	353.59
391.743	342.29
392.122	346.81
392.501	358.56
392.881	361.73
393.26	370.32
393.639	377.55
394.018	373.25
394.397	388.17
394.776	387.72
395.155	364.21
395.534	359.24
395.913	366.93
396.292	365.8
396.671	374.83
397.05	349.3
397.429	373.7
397.808	382.29
398.186	379.13
398.565	399.01
398.944	386.13
399.323	406.25
399.701	380.26
400.08	370.99
400.458	382.74
400.837	397.21
401.215	392.69
401.594	399.92
401.972	410.77
402.351	403.76
402.729	405.12
403.107	385.68
403.486	388.62
403.864	408.51
404.242	386.81
404.62	404.66
404.999	426.81
405.377	441.5
405.755	434.04
406.133	402.86
406.511	439.69
406.889	412.12
407.267	422.74
407.645	418.9
408.023	409.18
408.401	427.26
408.779	430.2
409.156	421.84
409.534	450.99
409.912	437.88
410.29	457.77
410.667	462.06
411.045	472.91
411.422	453.93
411.8	449.41
412.178	486.02
412.555	468.39
412.933	465.68
413.31	486.47
413.687	485.79
414.065	473.14
414.442	486.24
414.819	492.57
415.197	479.69
415.574	496.64
415.951	493.48
416.328	495.51
416.705	513.36
417.082	513.36
417.46	496.64
417.837	508.62
418.214	508.84
418.591	513.59
418.967	529.41
419.344	535.73
419.721	536.64
420.098	540.03
420.475	538.67
420.852	511.1
421.228	538.67
421.605	564.43
421.982	556.52
422.358	531.21
422.735	553.36
423.111	550.42
423.488	559.24
423.864	556.75
424.241	570.31
424.617	583.42
424.994	579.35
425.37	577.09
425.746	593.13
426.123	569.63
426.499	572.57
426.875	597.2
427.251	595.17
427.627	615.73
428.003	631.33
428.379	612.57
428.756	616.64
429.132	614.38
429.507	635.84
429.883	643.08
430.259	632.91
430.635	640.14
431.011	657.77
431.387	648.27
431.763	654.83
432.138	648.27
432.514	662.51
432.89	655.96
433.265	698.67
433.641	668.39
434.016	693.92
434.392	690.31
434.767	698.67
435.143	695.5
435.518	716.07
435.894	715.62
436.269	742.28
436.644	735.96
437.02	762.4
437.395	734.15
437.77	763.98
438.145	734.15
438.52	774.6
438.895	782.51
439.271	766.24
439.646	788.16
440.021	784.32
440.395	780.47
440.77	762.17
441.145	769.85
441.52	788.84
441.895	795.84
442.27	827.93
442.645	818.66
443.019	839.68
443.394	813.24
443.769	814.82
444.143	798.33
444.518	847.59
444.892	839.68
445.267	848.49
445.641	866.8
446.016	829.29
446.39	867.48
446.764	878.78
447.139	860.47
447.513	864.54
447.887	900.24
448.262	888.49
448.636	878.32
449.01	876.97
449.384	897.08
449.758	879.68
450.132	910.87
450.506	906.35
450.88	914.71
451.254	927.36
451.628	941.15
452.002	936.63
452.376	946.12
452.75	958.1
453.123	948.61
453.497	967.14
453.871	975.5
454.244	1010.07
454.618	996.06
454.992	1000.81
455.365	990.64
455.739	1046.46
456.112	1028.83
456.486	1056.62
456.859	1070.41
457.232	1068.6
457.606	1075.61
457.979	1054.82
458.352	1098.21
458.725	1091.2
459.099	1114.7
459.472	1125.1
459.845	1121.71
460.218	1160.8
460.591	1168.94
460.964	1173.01
461.337	1180.24
461.71	1189.73
462.083	1214.59
462.456	1208.03
462.829	1212.1
463.201	1228.37
463.574	1246.45
463.947	1234.93
464.32	1290.74
464.692	1259.11
465.065	1296.17
465.438	1326
465.81	1336.84
466.183	1359.22
466.555	1343.4
466.928	1371.42
467.3	1368.71
467.672	1384.98
468.045	1397.63
468.417	1408.25
468.789	1415.49
469.161	1424.75
469.534	1450.29
469.906	1486.44
470.278	1499.55
470.65	1513.34
471.022	1531.41
471.394	1538.19
471.766	1573.67
472.138	1601.47
472.51	1598.98
472.882	1609.38
473.253	1627.68
473.625	1678.98
473.997	1716.04
474.369	1717.62
474.74	1726.21
475.112	1741.58
475.484	1790.62
475.855	1787.45
476.227	1787
476.598	1828.81
476.97	1865.87
477.341	1901.35
477.713	1927.56
478.084	1942.93
478.455	1993.32
478.827	1967.56
479.198	2063.83
479.569	2077.39
479.94	2086.43
480.311	2098.86
480.682	2162.36
481.053	2168.01
481.424	2222.24
481.795	2277.84
482.166	2271.06
482.537	2302.69
482.908	2346.76
483.279	2354.44
483.65	2379.75
484.021	2445.29
484.391	2460.2
484.762	2481.45
485.133	2512.63
485.503	2539.52
485.874	2585.4
486.244	2642.35
486.615	2650.48
486.985	2662.23
487.356	2721.44
487.726	2739.29
488.097	2800.31
488.467	2798.27
488.837	2870.81
489.207	2906.29
489.578	2914.66
489.948	2943.35
490.318	2997.36
490.688	2982.45
491.058	3014.77
491.428	3030.13
491.798	3125.5
492.168	3157.81
492.538	3185.83
492.908	3198.94
493.278	3248.21
493.648	3222.22
494.017	3300.18
494.387	3341.76
494.757	3346.51
495.126	3349.9
495.496	3386.96
495.866	3453.17
496.235	3442.78
496.605	3471.48
496.974	3469.22
497.344	3521.42
497.713	3551.7
498.082	3577.01
498.452	3597.8
498.821	3668.08
499.19	3602.55
499.559	3695.88
499.928	3677.8
500.298	3710.34
500.667	3722.09
501.036	3722.09
501.405	3771.58
501.774	3806.61
502.143	3794.18
502.512	3871.92
502.88	3882.31
503.249	3866.49
503.618	3897.68
503.987	3913.95
504.356	3928.64
504.724	3960.96
505.093	3987.85
505.462	4001.18
505.83	4059.71
506.199	4078.24
506.567	4119.14
506.936	4127.5
507.304	4178.12
507.672	4222.19
508.041	4192.14
508.409	4215.19
508.777	4304.45
509.145	4286.37
509.514	4290.66
509.882	4312.13
510.25	4323.21
510.618	4389.87
510.986	4413.15
511.354	4452.24
511.722	4472.13
512.09	4505.12
512.458	4487.27
512.826	4554.84
513.193	4560.49
513.561	4564.1
513.929	4646.81
514.297	4665.12
514.664	4679.13
515.032	4669.64
515.4	4722.07
515.767	4795.74
516.135	4815.17
516.502	4781.27
516.869	4864.43
517.237	4927.03
517.604	4860.82
517.972	4898.33
518.339	4987.59
518.706	4956.41
519.073	4975.84
519.44	5042.73
519.808	5077.31
520.175	5073.47
520.542	5124.54
520.909	5215.61
521.276	5215.39
521.643	5208.38
522.009	5326.57
522.376	5293.12
522.743	5325.67
523.11	5379.45
523.477	5398.66
523.843	5456.96
524.21	5551.87
524.577	5555.94
524.943	5621.48
525.31	5626.22
525.676	5680.23
526.043	5665.77
526.409	5684.75
526.776	5780.34
527.142	5802.04
527.508	5787.35
527.874	5844.07
528.241	5874.13
528.607	5935.14
528.973	5962.26
529.339	5962.26
529.705	6090.39
530.071	6084.97
530.437	6066.21
530.803	6145.08
531.169	6187.79
531.535	6191.63
531.901	6253.55
532.267	6295.13
532.632	6333.77
532.998	6360.44
533.364	6349.37
533.73	6392.08
534.095	6420.55
534.461	6424.39
534.826	6502.58
535.192	6507.55
535.557	6572.41
535.923	6555.24
536.288	6589.81
536.653	6662.81
537.019	6614.67
537.384	6643.82
537.749	6695.12
538.114	6702.35
538.479	6732.86
538.845	6741
539.21	6762.46
539.575	6826.19
539.94	6876.13
540.305	6926.53
540.67	6891.73
541.034	6911.61
541.399	6954.77
541.764	6958.84
542.129	7051.5
542.494	7029.8
542.858	7095.56
543.223	7084.26
543.587	7149.8
543.952	7184.15
544.316	7108.44
544.681	7172.62
545.045	7245.61
545.41	7260.98
545.774	7270.92
546.138	7277.48
546.503	7322.22
546.867	7363.58
547.231	7364.71
547.595	7426.85
547.959	7489
548.324	7504.82
548.688	7478.15
549.052	7479.73
549.416	7596.79
549.779	7543.91
550.143	7605.38
550.507	7676.56
550.871	7696.68
551.235	7723.34
551.599	7725.15
551.962	7794.98
552.326	7841.76
552.689	7897.8
553.053	7816.67
553.417	7806.05
553.78	7984.13
554.143	7881.98
554.507	7974.18
554.87	7970.79
555.234	8045.37
555.597	8034.75
555.96	8107.06
556.323	8121.75
556.686	8128.76
557.05	8190.67
557.413	8218.24
557.776	8243.55
558.139	8303.89
558.502	8309.09
558.865	8321.07
559.228	8372.59
559.59	8430.67
559.953	8423.44
560.316	8544.34
560.679	8516.77
561.041	8595.86
561.404	8573.26
561.767	8656.88
562.129	8603.77
562.492	8778
562.854	8723.99
563.217	8792.24
563.579	8755.86
563.941	8850.09
564.304	8875.63
564.666	8896.87
565.028	8993.59
565.39	9046.25
565.753	9035.17
566.115	9079.69
566.477	9102.97
566.839	9090.99
567.201	9205.56
567.563	9145
567.925	9248.73
568.287	9282.85
568.648	9285.33
569.01	9351.77
569.372	9378.67
569.734	9414.37
570.095	9447.59
570.457	9468.16
570.819	9493.69
571.18	9531.88
571.542	9534.14
571.903	9591.54
572.265	9664.08
572.626	9670.64
572.987	9657.3
573.349	9706.57
573.71	9698.21
574.071	9768.94
574.432	9822.72
574.794	9900.46
575.155	9809.16
575.516	9815.26
575.877	9909.73
576.238	9887.13
576.599	9946.56
576.96	9926.45
577.32	9916.05
577.681	10023.85
578.042	10022.26
578.403	10038.99
578.763	10016.16
579.124	10082.15
579.485	10024.07
579.845	10171.19
580.206	10087.57
580.566	10156.5
580.927	10110.62
581.287	10194.92
581.648	10178.64
582.008	10196.27
582.368	10140.23
582.728	10201.02
583.089	10164.18
583.449	10266.55
583.809	10210.96
584.169	10241.24
584.529	10229.04
584.889	10328.25
585.249	10291.64
585.609	10216.16
585.969	10223.84
586.329	10269.94
586.688	10248.7
587.048	10284.18
587.408	10241.92
587.768	10280.34
588.127	10260.9
588.487	10236.95
588.846	10336.38
589.206	10220
589.565	10288.02
589.925	10343.84
590.284	10324.18
590.643	10312.2
591.003	10343.61
591.362	10359.66
591.721	10370.73
592.08	10320.79
592.44	10427.23
592.799	10430.16
593.158	10390.39
593.517	10378.19
593.876	10400.56
594.235	10375.7
594.593	10321.01
594.952	10397.17
595.311	10358.53
595.67	10420.9
596.029	10460.9
596.387	10414.57
596.746	10481.46
597.104	10438.3
597.463	10424.06
597.822	10440.56
598.18	10452.76
598.538	10397.17
598.897	10484.85
599.255	10418.41
599.613	10555.36
599.972	10469.03
600.33	10508.35
600.688	10457.73
601.046	10534.79
601.404	10567.56
601.762	10501.12
602.12	10555.36
602.478	10520.56
602.836	10549.48
603.194	10500.44
603.552	10553.78
603.91	10504.51
604.268	10495.92
604.625	10565.98
604.983	10572.76
605.341	10515.36
605.698	10629.93
606.056	10654.11
606.413	10574.34
606.771	10614.34
607.128	10589.48
607.485	10611.18
607.843	10672.64
608.2	10618.41
608.557	10698.86
608.914	10638.07
609.272	10693.89
609.629	10711.51
609.986	10760.55
610.343	10714.22
610.7	10765.75
611.057	10768.69
611.414	10758.29
611.771	10762.81
612.127	10869.25
612.484	10777.95
612.841	10854.33
613.198	10776.6
613.554	10845.52
613.911	10834.45
614.267	10927.33
614.624	10821.57
614.98	10895.91
615.337	10968
615.693	10926.2
616.05	10912.18
616.406	10983.6
616.762	10925.07
617.118	10967.32
617.475	10933.88
617.831	10945.63
618.187	10964.16
618.543	10955.57
618.899	11077.15
619.255	11002.35
619.611	10976.14
619.967	11037.15
620.323	11112.18
620.678	11108.11
621.034	11025.18
621.39	11007.32
621.746	11057.72
622.101	11119.86
622.457	11036.48
622.812	11031.5
623.168	11064.95
623.523	11057.49
623.879	11064.05
624.234	11033.09
624.589	11001.45
624.945	11158.96
625.3	11071.73
625.655	11046.19
626.01	11097.49
626.365	11126.42
626.72	11111.5
627.075	11138.39
627.43	11080.99
627.785	11036.7
628.14	11168
628.495	11116.47
628.85	11110.82
629.205	11070.37
629.559	11099.98
629.914	11020.88
630.269	11076.93
630.623	11060.43
630.978	10974.78
631.332	11099.52
631.687	11100.2
632.041	11088.23
632.396	11078.96
632.75	11003.93
633.104	11033.54
633.459	10974.1
633.813	11007.1
634.167	10970.04
634.521	10932.75
634.875	11000.09
635.229	11038.06
635.583	10969.81
635.937	10909.25
636.291	11022.69
636.645	10886.87
636.999	10864.73
637.352	10968.45
637.706	10806.88
638.06	10927.33
638.413	10916.48
638.767	10907.21
639.121	10935.24
639.474	10785.18
639.828	10807.78
640.181	10832.41
640.534	10867.89
640.888	10863.82
641.241	10762.58
641.594	10787.44
641.947	10791.74
642.301	10778.63
642.654	10835.58
643.007	10864.05
643.36	10733.21
643.713	10802.81
644.066	10848.46
644.419	10813.43
644.771	10671.51
645.124	10581.8
645.477	10604.4
645.83	10551.74
646.182	10457.51
646.535	10532.99
646.888	10443.72
647.24	10406.66
647.593	10458.41
647.945	10536.38
648.298	10443.04
648.65	10390.16
649.002	10386.77
649.355	10474.68
649.707	10463.16
650.059	10506.55
650.411	10550.39
650.763	10576.83
651.115	10752.87
651.467	10663.38
651.819	10661.12
652.171	10667.45
652.523	10694.56
652.875	10645.07
653.227	10615.02
653.578	10661.34
653.93	10645.98
654.282	10627.9
654.633	10698.41
654.985	10622.7
655.337	10627.9
655.688	10628.35
656.039	10610.5
656.391	10560.56
656.742	10601.68
657.094	10535.25
657.445	10630.38
657.796	10628.8
658.147	10619.54
658.498	10620.44
658.849	10697.95
659.2	10637.84
659.551	10634.9
659.902	10619.31
660.253	10694.34
660.604	10670.61
660.955	10585.87
661.306	10652.08
661.656	10661.8
662.007	10583.83
662.358	10623.38
662.708	10604.62
663.059	10652.3
663.409	10539.31
663.76	10577.73
664.11	10627.9
664.461	10613.44
664.811	10657.05
665.161	10502.93
665.511	10590.84
665.862	10636.71
666.212	10628.8
666.562	10663.6
666.912	10554.91
667.262	10649.59
667.612	10649.59
667.962	10615.24
668.312	10583.61
668.662	10639.2
669.011	10622.25
669.361	10576.15
669.711	10611.85
670.06	10579.31
670.41	10544.51
670.76	10552.65
671.109	10553.78
671.459	10703.6
671.808	10584.96
672.157	10511.74
672.507	10488.47
672.856	10492.99
673.205	10502.7
673.554	10542.48
673.904	10542.25
674.253	10604.4
674.602	10553.78
674.951	10394.23
675.3	10347.68
675.649	10416.6
675.998	10475.13
676.346	10498.18
676.695	10501.57
677.044	10414.8
677.393	10485.76
677.741	10450.73
678.09	10448.02
678.438	10391.07
678.787	10381.35
679.135	10465.64
679.484	10391.75
679.832	10339.09
680.181	10353.56
680.529	10375.48
680.877	10334.57
681.225	10303.61
681.573	10379.77
681.922	10325.99
682.27	10305.2
682.618	10182.49
682.966	10238.76
683.314	10283.27
683.661	10265.42
684.009	10212.09
684.357	10188.59
684.705	10068.59
685.053	10130.06
685.4	10200.11
685.748	10104.75
686.095	10116.95
686.443	10001.25
686.79	10021.36
687.138	10011.19
687.485	9967.35
687.832	9994.24
688.18	9991.98
688.527	9861.37
688.874	10022.04
689.221	9913.57
689.568	9889.39
689.915	9856.62
690.262	9834.93
690.609	9802.61
690.956	9752.67
691.303	9793.8
691.65	9696.85
691.997	9710.63
692.344	9716.51
692.69	9630.18
693.037	9657.75
693.383	9645.33
693.73	9655.72
694.077	9554.48
694.423	9562.39
694.769	9479
695.116	9518.78
695.462	9407.14
695.808	9422.28
696.155	9467.03
696.501	9453.01
696.847	9358.55
697.193	9291.89
697.539	9364.65
697.885	9279.69
698.231	9267.48
698.577	9207.37
698.923	9186.13
699.269	9156.3
699.614	9128.28
699.96	9098.9
700.306	9101.84
700.651	9018.9
700.997	9015.06
701.342	8969.41
701.688	9027.26
702.033	9028.17
702.379	8917.21
702.724	8891
703.069	8925.57
703.415	8917.44
703.76	8842.86
704.105	8796.31
704.45	8778.91
704.795	8794.5
705.14	8755.63
705.485	8728.97
705.83	8678.57
706.175	8655.52
706.52	8707.95
706.865	8585.92
707.209	8605.35
707.554	8593.15
707.899	8637.22
708.243	8589.08
708.588	8545.47
708.932	8485.13
709.277	8482.64
709.621	8413.72
709.966	8438.35
710.31	8478.58
710.654	8390.67
710.998	8401.74
711.342	8451.46
711.687	8345.92
712.031	8326.72
712.375	8277.23
712.719	8277.23
713.063	8304.57
713.407	8330.78
713.75	8254.85
714.094	8208.3
714.438	8205.82
714.782	8260.96
715.125	8241.52
715.469	8248.98
715.812	8221.18
716.156	8169.88
716.499	8124.69
716.843	8199.71
717.186	8164.46
717.53	8184.35
717.873	8176.89
718.216	8142.09
718.559	8125.37
718.902	8119.04
719.246	8070.23
719.589	8052.6
719.932	8023
720.275	8015.99
720.617	8013.73
720.96	8030.68
721.303	8072.71
721.646	8032.71
721.989	7964.24
722.331	7978.25
722.674	7988.65
723.016	8015.76
723.359	8034.97
723.701	7956.56
724.044	7959.49
724.386	7942.55
724.729	7937.35
725.071	8018.7
725.413	7999.04
725.755	7939.38
726.097	7892.83
726.439	7862.77
726.782	7868.2
727.124	7990.23
727.465	7851.25
727.807	7855.54
728.149	7921.53
728.491	7827.07
728.833	7860.29
729.175	7898.48
729.516	7867.75
729.858	7846.05
730.199	7900.96
730.541	7823.9
730.882	7836.33
731.224	7862.32
731.565	7868.42
731.906	7825.49
732.248	7857.58
732.589	7775.09
732.93	7780.97
733.271	7783.91
733.612	7818.25
733.953	7792.94
734.294	7813.28
734.635	7808.31
734.976	7793.4
735.317	7734.42
735.658	7737.58
735.999	7790.23
736.339	7739.16
736.68	7761.99
737.021	7757.92
737.361	7698.03
737.702	7774.41
738.042	7828.42
738.383	7727.86
738.723	7718.37
739.063	7750.46
739.404	7799.95
739.744	7754.98
740.084	7727.86
740.424	7719.73
740.764	7755.21
741.104	7795.2
741.444	7721.99
741.784	7653.06
742.124	7683.8
742.464	7742.55
742.804	7698.03
743.143	7683.57
743.483	7695.09
743.823	7706.17
744.162	7713.62
744.502	7737.81
744.841	7692.38
745.181	7761.31
745.52	7662.1
745.86	7739.39
746.199	7698.71
746.538	7669.56
746.877	7703.46
747.216	7672.04
747.556	7704.13
747.895	7693.51
748.234	7653.29
748.573	7663
748.911	7682.89
749.25	7666.17
749.589	7656
749.928	7654.64
750.267	7661.42
750.605	7667.3
750.944	7662.55
751.283	7565.38
751.621	7592.72
751.96	7547.98
752.298	7599.05
752.636	7529.9
752.975	7546.62
753.313	7504.82
753.651	7571.93
753.989	7544.82
754.327	7511.82
754.666	7479.51
755.004	7546.62
755.342	7515.66
755.679	7501.43
756.017	7437.02
756.355	7516.79
756.693	7478.83
757.031	7472.05
757.368	7425.5
757.706	7388.89
758.044	7366.06
758.381	7380.3
758.719	7398.38
759.056	7344.37
759.394	7371.71
759.731	7341.43
760.068	7251.26
760.405	7263.47
760.743	7199.51
761.08	7209.23
761.417	7224.6
761.754	7205.39
762.091	7227.99
762.428	7147.76
762.765	7126.3
763.102	7188.67
763.438	7151.15
763.775	7069.35
764.112	7132.85
764.449	7116.8
764.785	7041.55
765.122	7057.37
765.458	6990.25
765.795	6969.69
766.131	6962.91
766.467	6974.21
766.804	6948.9
767.14	6928.11
767.476	6893.31
767.812	6837.49
768.148	6848.11
768.485	6808.79
768.821	6813.31
769.157	6763.14
769.492	6885.4
769.828	6747.32
770.164	6752.75
770.5	6708.45
770.836	6716.36
771.171	6662.35
771.507	6638.17
771.842	6610.83
772.178	6610.6
772.513	6619.42
772.849	6591.39
773.184	6557.05
773.519	6538.97
773.855	6488.57
774.19	6451.74
774.525	6477.95
774.86	6505.07
775.195	6460.1
775.53	6448.57
775.865	6385.75
776.2	6327.67
776.535	6278.18
776.87	6269.82
777.205	6309.82
777.539	6249.71
777.874	6268.47
778.209	6197.51
778.543	6205.42
778.878	6175.36
779.212	6175.36
779.547	6125.19
779.881	6154.57
780.215	6142.14
780.55	6098.98
780.884	6096.49
781.218	6120.22
781.552	6059.43
781.886	6001.13
782.22	6035.25
782.554	5970.17
782.888	5938.3
783.222	5874.13
783.556	5881.36
783.889	5856.5
784.223	5829.61
784.557	5815.6
784.89	5837.97
785.224	5797.74
785.557	5751.87
785.891	5780.12
786.224	5728.14
786.558	5709.16
786.891	5658.76
787.224	5671.19
787.557	5634.36
787.891	5663.06
788.224	5653.34
788.557	5656.5
788.89	5650.63
789.223	5646.79
789.556	5559.11
789.888	5521.37
790.221	5529.73
790.554	5520.01
790.887	5526.79
791.219	5477.75
791.552	5504.19
791.884	5432.78
792.217	5433.46
792.549	5402.95
792.882	5366.57
793.214	5358.88
793.546	5372.44
793.879	5386.23
794.211	5283.18
794.543	5292.9
794.875	5313.01
795.207	5313.91
795.539	5309.39
795.871	5297.42
796.203	5217.19
796.535	5223.52
796.867	5203.63
797.198	5175.39
797.53	5230.98
797.862	5148.95
798.193	5154.14
798.525	5194.82
798.856	5111.66
799.188	5012.68
799.519	5045.67
799.85	5080.93
800.182	5049.06
800.513	4996.41
800.844	4997.54
801.175	5059.01
801.506	5007.03
801.837	4990.53
802.168	4928.61
802.499	4965.67
802.83	4941.04
803.161	4896.3
803.491	4925.45
803.822	4934.94
804.153	4877.77
804.483	4847.94
804.814	4869.63
805.145	4849.97
805.475	4868.95
805.805	4813.81
806.136	4847.94
806.466	4816.07
806.796	4828.28
807.126	4749.18
807.457	4796.41
807.787	4766.36
808.117	4724.55
808.447	4748.73
808.777	4711.9
809.107	4712.8
809.436	4693.82
809.766	4686.13
810.096	4677.55
810.426	4681.61
810.755	4671.44
811.085	4659.02
811.414	4651.11
811.744	4611.11
812.073	4591.67
812.403	4623.76
812.732	4592.13
813.061	4563.65
813.39	4551.9
813.719	4558.91
814.049	4577.89
814.378	4551
814.707	4519.36
815.036	4497.44
815.365	4487.72
815.693	4446.59
816.022	4464.22
816.351	4455.86
816.68	4432.13
817.008	4472.58
817.337	4406.14
817.665	4402.07
817.994	4412.69
818.322	4393.49
818.651	4344.45
818.979	4387.38
819.307	4364.11
819.636	4344
819.964	4346.93
820.292	4370.89
820.62	4357.33
820.948	4351.23
821.276	4321.85
821.604	4347.84
821.932	4361.17
822.259	4314.84
822.587	4322.08
822.915	4322.08
823.243	4323.21
823.57	4291.12
823.898	4304
824.225	4305.58
824.553	4321.17
824.88	4337.67
825.207	4287.95
825.535	4308.06
825.862	4334.96
826.189	4284.11
826.516	4330.21
826.843	4348.74
827.17	4320.49
827.497	4356.43
827.824	4331.79
828.151	4334.05
828.478	4362.53
828.805	4377.67
829.131	4345.13
829.458	4333.6
829.785	4293.6
830.111	4324.11
830.438	4334.05
830.764	4299.7
831.09	4366.82
831.417	4353.26
831.743	4311.91
832.069	4319.59
832.395	4259.25
832.722	4294.05
833.048	4287.73
833.374	4293.83
833.7	4285.47
834.026	4263.55
834.351	4310.55
834.677	4298.12
835.003	4286.6
835.329	4270.55
835.654	4278.01
835.98	4285.69
836.306	4256.31
836.631	4243.43
836.956	4255.18
837.282	4231.91
837.607	4204.56
837.932	4230.55
838.258	4196.66
838.583	4237.78
838.908	4208.63
839.233	4226.03
839.558	4186.94
839.883	4166.83
840.208	4162.76
840.533	4179.48
840.858	4166.15
841.182	4126.6
841.507	4162.08
841.832	4127.73
842.156	4123.66
842.481	4099.48
842.805	4138.8
843.13	4097.45
843.454	4141.52
843.778	4093.61
844.103	4106.26
844.427	4058.13
844.751	4101.52
845.075	4053.83
845.399	4036.89
845.723	3978.36
846.047	4042.53
846.371	4020.61
846.695	4000.5
847.019	3956.66
847.343	3934.74
847.666	3934.97
847.99	3913.72
848.313	3915.76
848.637	3928.19
848.96	3875.08
849.284	3868.53
849.607	3855.87
849.931	3827.85
850.254	3861.97
850.577	3805.48
850.9	3821.3
851.223	3821.52
851.546	3758.7
851.869	3743.79
852.192	3772.49
852.515	3756.67
852.838	3766.84
853.161	3771.13
853.483	3729.55
853.806	3667.18
854.129	3739.49
854.451	3699.27
854.774	3657.23
855.096	3654.07
855.419	3669.89
855.741	3641.87
856.063	3621.3
856.385	3579.72
856.708	3593.06
857.03	3610.46
857.352	3584.69
857.674	3574.75
857.996	3574.75
858.318	3522.32
858.64	3512.83
858.961	3553.96
859.283	3501.08
859.605	3510.12
859.926	3540.18
860.248	3490.46
860.57	3490.46
860.891	3500.18
861.212	3505.37
861.534	3469.22
861.855	3434.42
862.176	3435.77
862.498	3434.42
862.819	3485.04
863.14	3452.72
863.461	3463.12
863.782	3400.07
864.103	3422.66
864.424	3439.39
864.745	3426.05
865.065	3413.17
865.386	3398.71
865.707	3405.94
866.027	3374.76
866.348	3403.23
866.668	3352.61
866.989	3365.49
867.309	3349.22
867.63	3393.51
867.95	3359.16
868.27	3310.12
868.59	3332.72
868.91	3322.1
869.23	3355.77
869.55	3339.5
869.87	3329.11
870.19	3327.53
870.51	3358.71
870.83	3315.55
871.15	3297.7
871.469	3323.01
871.789	3288.66
872.109	3298.37
872.428	3303.8
872.748	3316.23
873.067	3302.89
873.386	3296.57
873.706	3294.31
874.025	3248.43
874.344	3266.06
874.663	3294.08
874.982	3264.48
875.301	3275.1
875.62	3251.14
875.939	3247.3
876.258	3228.32
876.577	3229.67
876.896	3228.09
877.214	3215.44
877.533	3225.38
877.852	3220.64
878.17	3217.47
878.489	3158.26
878.807	3217.7
879.125	3192.39
879.444	3191.94
879.762	3156
880.08	3154.2
880.398	3168.66
880.716	3153.52
881.034	3174.31
881.352	3152.61
881.67	3173.86
881.988	3188.77
882.306	3123.01
882.624	3120.75
882.941	3134.31
883.259	3100.19
883.577	3103.8
883.894	3120.98
884.212	3159.39
884.529	3113.75
884.846	3070.81
885.164	3099.73
885.481	3074.88
885.798	3047.76
886.115	3044.6
886.432	3060.87
886.75	3049.11
887.067	2982.22
887.383	3025.16
887.7	3052.73
888.017	3017.03
888.334	3012.51
888.651	2997.82
888.967	3018.16
889.284	2992.17
889.6	2979.06
889.917	2962.34
890.233	2979.96
890.55	2945.61
890.866	2966.41
891.182	2965.28
891.498	2929.57
891.815	2950.81
892.131	2959.85
892.447	2953.52
892.763	2901.1
893.079	2906.07
893.395	2904.26
893.71	2901.1
894.026	2889.34
894.342	2878.95
894.657	2850.02
894.973	2802.57
895.289	2822.91
895.604	2856.13
895.92	2860.19
896.235	2822.91
896.55	2824.49
896.865	2825.84
897.181	2807.99
897.496	2782.68
897.811	2838.27
898.126	2793.3
898.441	2754.89
898.756	2762.12
899.071	2754.66
899.386	2774.55
899.7	2718.5
900.015	2718.05
900.33	2705.85
900.644	2685.06
900.959	2709.46
901.273	2707.65
901.588	2675.11
901.902	2704.94
902.216	2649.35
902.531	2670.82
902.845	2685.28
903.159	2634.89
903.473	2624.04
903.787	2596.92
904.101	2634.89
904.415	2570.48
904.729	2571.84
905.042	2570.94
905.356	2572.29
905.67	2553.76
905.984	2585.4
906.297	2546.98
906.611	2536.59
906.924	2578.84
907.237	2550.82
907.551	2538.62
907.864	2528.22
908.177	2531.84
908.491	2510.15
908.804	2489.81
909.117	2516.47
909.43	2462.46
909.743	2470.6
910.056	2484.38
910.368	2438.51
910.681	2463.37
910.994	2425.63
911.307	2407.32
911.619	2390.6
911.932	2410.04
912.244	2406.65
912.557	2393.09
912.869	2393.99
913.181	2340.66
913.494	2370.94
913.806	2354.9
914.118	2358.51
914.43	2326.87
914.742	2335.24
915.054	2276.93
915.366	2324.39
915.678	2301.79
915.99	2297.27
916.302	2281.68
916.613	2277.16
916.925	2284.62
917.236	2286.87
917.548	2241.68
917.859	2251.17
918.171	2231.28
918.482	2219.53
918.794	2212.07
919.105	2234.67
919.416	2225.63
919.727	2207.1
920.038	2196.03
920.349	2176.6
920.66	2199.42
920.971	2176.82
921.282	2151.96
921.593	2146.99
921.903	2144.73
922.214	2145.64
922.525	2159.87
922.835	2140.44
923.146	2075.13
923.456	2107.22
923.767	2092.53
924.077	2081.91
924.387	2066.09
924.697	2097.05
925.008	2073.1
925.318	2067.67
925.628	2048.92
925.938	2049.82
926.248	2057.05
926.558	2022.02
926.867	2052.53
927.177	2031.74
927.487	2003.04
927.796	1995.13
928.106	1958.97
928.416	1955.13
928.725	2005.3
929.034	1970.05
929.344	1978.41
929.653	1941.35
929.962	1947.9
930.271	1933.66
930.581	1924.4
930.89	1957.39
931.199	1926.21
931.508	1909.48
931.817	1932.31
932.125	1900.22
932.434	1905.19
932.743	1890.73
933.051	1906.55
933.36	1892.08
933.669	1849.82
933.977	1851.63
934.286	1861.12
934.594	1855.25
934.902	1820.45
935.21	1825.42
935.519	1828.36
935.827	1830.16
936.135	1786.78
936.443	1803.95
936.751	1788.36
937.059	1806.89
937.367	1801.24
937.674	1795.14
937.982	1786.32
938.29	1771.63
938.597	1780.9
938.905	1747
939.213	1771.86
939.52	1744.06
939.827	1748.58
940.135	1738.19
940.442	1714.46
940.749	1749.71
941.056	1728.02
941.363	1707.91
941.67	1704.74
941.977	1730.05
942.284	1677.85
942.591	1678.3
942.898	1688.25
943.205	1672.2
943.511	1662.94
943.818	1680.11
944.125	1659.09
944.431	1667.68
944.738	1645.76
945.044	1649.38
945.35	1629.04
945.657	1594.46
945.963	1590.17
946.269	1632.65
946.575	1614.58
946.881	1615.03
947.187	1586.55
947.493	1595.59
947.799	1557.63
948.105	1584.75
948.41	1577.97
948.716	1601.47
949.022	1546.78
949.327	1552.2
949.633	1538.65
949.938	1533.67
950.244	1546.56
950.549	1542.49
950.854	1523.05
951.16	1521.02
951.465	1551.53
951.77	1524.18
952.075	1480.34
952.38	1485.31
952.685	1516.73
952.99	1462.49
953.294	1475.82
953.599	1479.66
953.904	1466.56
954.209	1468.82
954.513	1488.7
954.818	1456.16
955.122	1447.12
955.426	1454.35
955.731	1449.83
956.035	1398.76
956.339	1438.54
956.643	1444.41
956.948	1395.37
957.252	1427.46
957.556	1414.81
957.86	1398.54
958.163	1400.57
958.467	1398.99
958.771	1415.03
959.075	1391.31
959.378	1370.51
959.682	1386.33
959.985	1355.83
960.289	1379.78
960.592	1377.07
960.896	1355.15
961.199	1354.92
961.502	1331.87
961.805	1342.27
962.108	1333.23
962.411	1327.8
962.714	1320.12
963.017	1362.15
963.32	1344.07
963.623	1300.91
963.926	1298.2
964.228	1297.75
964.531	1300.69
964.833	1314.47
965.136	1283.06
965.438	1278.31
965.741	1289.61
966.043	1298.88
966.345	1270.63
966.648	1286.45
966.95	1278.77
967.252	1269.73
967.554	1287.81
967.856	1282.61
968.158	1256.85
968.46	1229.05
968.761	1237.41
969.063	1264.08
969.365	1227.92
969.666	1214.36
969.968	1217.07
970.269	1218.65
970.571	1230.41
970.872	1220.91
971.174	1224.53
971.475	1218.88
971.776	1189.73
972.077	1190.63
972.378	1180.01
972.679	1192.67
972.98	1208.03
973.281	1192.67
973.582	1144.08
973.883	1179.56
974.183	1182.72
974.484	1165.77
974.785	1170.29
975.085	1172.33
975.386	1176.4
975.686	1135.27
975.986	1135.49
976.287	1149.28
976.587	1130.3
976.887	1150.86
977.187	1108.83
977.487	1125.55
977.787	1137.07
978.087	1139.11
978.387	1109.5
978.687	1092.33
978.987	1131.65
979.286	1099.79
979.586	1079.9
979.885	1092.78
980.185	1081.26
980.484	1102.27
980.784	1109.5
981.083	1070.18
981.382	1070.41
981.682	1079.22
981.981	1070.41
982.28	1068.6
982.579	1064.53
982.878	1046.68
983.177	1051.2
983.475	1020.02
983.774	1035.16
984.073	1027.92
984.372	1049.17
984.67	1044.42
984.969	1012.56
985.267	1026.8
985.566	1040.13
985.864	1030.64
986.162	1027.92
986.461	1011.88
986.759	1010.07
987.057	998.1
987.355	997.87
987.653	994.48
987.951	1014.37
988.249	998.77
988.547	1001.71
988.844	982.5
989.142	972.33
989.44	974.14
989.737	975.95
990.035	971.43
990.332	956.97
990.63	970.07
990.927	963.75
991.224	965.1
991.521	967.14
991.819	957.42
992.116	967.81
992.413	954.03
992.71	943.41
993.006	955.61
993.303	939.34
993.6	952.22
993.897	942.73
994.193	918.55
994.49	927.36
994.787	922.39
995.083	911.54
995.379	926.23
995.676	919.91
995.972	903.41
996.268	891.43
996.565	897.08
996.861	889.4
997.157	898.44
997.453	880.36
997.749	879
998.044	888.27
998.34	883.52
998.636	888.95
998.932	881.26
999.227	864.54
999.523	878.1
999.818	854.37
1000.114	875.61
1000.409	869.29
1000.704	869.06
1001	854.6
1001.295	859.57
1001.59	847.14
1001.885	841.72
1002.18	834.48
1002.475	837.42
1002.77	845.56
1003.065	880.58
1003.359	820.7
1003.654	816.86
1003.949	810.3
1004.243	828.38
1004.538	802.85
1004.832	788.61
1005.127	818.89
1005.421	789.29
1005.715	802.62
1006.009	789.51
1006.304	795.61
1006.598	779.34
1006.892	781.6
1007.186	789.74
1007.48	787.48
1007.773	786.12
1008.067	754.49
1008.361	767.59
1008.655	730.98
1008.948	769.4
1009.242	762.17
1009.535	769.17
1009.829	770.98
1010.122	762.17
1010.415	741.38
1010.708	743.86
1011.001	769.17
1011.295	737.99
1011.588	762.85
1011.881	729.85
1012.173	729.85
1012.466	723.07
1012.759	729.4
1013.052	725.11
1013.344	742.28
1013.637	724.43
1013.93	686.47
1014.222	726.24
1014.514	724.88
1014.807	685.56
1015.099	715.84
1015.391	685.11
1015.683	678.33
1015.976	706.58
1016.268	702.51
1016.56	669.74
1016.851	699.35
1017.143	684.21
1017.435	671.32
1017.727	683.08
1018.018	662.06
1018.31	695.5
1018.602	679.69
1018.893	656.64
1019.185	650.76
1019.476	652.34
1019.767	673.13
1020.058	652.12
1020.35	654.6
1020.641	655.51
1020.932	669.29
1021.223	655.73
1021.514	654.38
1021.804	632.68
1022.095	633.13
1022.386	651.89
1022.677	619.8
1022.967	615.51
1023.258	629.52
1023.548	625.68
1023.839	621.61
1024.129	606.92
1024.419	604.66
1024.709	620.25
1025	630.65
1025.29	623.19
1025.58	584.32
1025.87	592.23
1026.16	584.55
1026.449	615.96
1026.739	593.81
1027.029	617.31
1027.319	595.17
1027.608	590.42
1027.898	611.66
1028.187	570.76
1028.477	589.74
1028.766	580.03
1029.055	577.77
1029.344	566.24
1029.634	565.56
1029.923	576.64
1030.212	563.76
1030.501	559.91
1030.79	556.52
1031.078	564.89
1031.367	556.07
1031.656	572.12
1031.945	544.77
1032.233	566.24
1032.522	567.82
1032.81	571.67
1033.099	533.02
1033.387	553.81
1033.675	544.55
1033.963	534.83
1034.251	537.99
1034.54	541.84
1034.828	511.78
1035.116	535.51
1035.403	518.11
1035.691	545
1035.979	553.59
1036.267	558.78
1036.554	518.11
1036.842	521.72
1037.129	523.98
1037.417	525.34
1037.704	503.19
1037.992	519.92
1038.279	528.96
1038.566	513.14
1038.853	513.14
1039.14	513.14
