Data from mousepad_grey_FLMS001491_00058.txt Node
Date: Wed Feb 08 14:29:38 GMT 2017
User: dcchb
Spectrometer: FLMS00149
Trigger mode: 0
Integration Time (sec): 2.000000E-2
Scans to average: 10
Electric dark correction enabled: true
Nonlinearity correction enabled: false
Boxcar width: 0
XAxis mode: Wavelengths
Number of Pixels in Spectrum: 2048
>>>>>Begin Spectral Data<<<<<
341.393	-9.87
341.776	-9.87
342.16	-9.87
342.543	-64.56
342.927	-81.96
343.31	-65.01
343.693	-63.88
344.077	-52.58
344.46	-61.62
344.843	-55.52
345.226	-65.69
345.61	-30.44
345.993	-13.04
346.376	0.3
346.759	11.14
347.142	22.44
347.525	63.35
347.908	61.99
348.291	64.7
348.674	74.42
349.057	109.45
349.44	127.07
349.823	129.56
350.206	148.99
350.588	179.95
350.971	202.33
351.354	206.62
351.737	226.28
352.119	238.26
352.502	243
352.884	236
353.267	252.72
353.65	272.83
354.032	284.13
354.414	272.83
354.797	311.25
355.179	285.94
355.562	300.18
355.944	301.98
356.326	306.5
356.709	330.91
357.091	306.5
357.473	304.02
357.855	294.98
358.238	324.36
358.62	312.38
359.002	324.81
359.384	313.51
359.766	327.75
360.148	325.49
360.53	314.64
360.912	323.23
361.294	320.51
361.676	324.36
362.057	318.03
362.439	326.39
362.821	312.38
363.203	317.12
363.584	307.63
363.966	306.5
364.348	307.41
364.729	301.08
365.111	273.74
365.493	293.17
365.874	285.71
366.256	285.26
366.637	283.45
367.019	279.39
367.4	310.8
367.781	299.05
368.163	275.09
368.544	277.13
368.925	295.2
369.306	297.69
369.688	284.58
370.069	278.93
370.45	289.78
370.831	269.22
371.212	291.14
371.593	300.4
371.974	290.68
372.355	287.29
372.736	296.11
373.117	298.37
373.498	292.04
373.879	289.33
374.26	289.1
374.641	299.72
375.021	296.11
375.402	295.43
375.783	307.86
376.163	288.42
376.544	297.01
376.925	300.63
377.305	305.6
377.686	301.76
378.066	315.09
378.447	297.24
378.827	319.16
379.208	287.75
379.588	300.4
379.968	306.5
380.349	309.22
380.729	312.38
381.109	302.89
381.489	336.11
381.87	317.35
382.25	296.33
382.63	310.12
383.01	328.88
383.39	321.64
383.77	327.52
384.15	322.55
384.53	337.01
384.91	325.49
385.29	308.09
385.67	320.74
386.049	333.17
386.429	337.01
386.809	329.1
387.189	326.39
387.568	316.9
387.948	331.14
388.328	348.31
388.707	340.4
389.087	334.98
389.466	326.62
389.846	354.86
390.225	316.22
390.605	325.03
390.984	325.03
391.363	316.45
391.743	337.91
392.122	338.59
392.501	326.62
392.881	359.61
393.26	340.4
393.639	345.6
394.018	338.82
394.397	350.12
394.776	348.76
395.155	320.51
395.534	337.01
395.913	339.04
396.292	327.75
396.671	352.15
397.05	332.49
397.429	347.63
397.808	341.53
398.186	351.47
398.565	373.85
398.944	345.82
399.323	343.34
399.701	375.2
400.08	353.06
400.458	345.15
400.837	357.58
401.215	348.31
401.594	375.88
401.972	378.59
402.351	365.48
402.729	363.9
403.107	374.07
403.486	375.2
403.864	374.52
404.242	379.27
404.62	383.11
404.999	367.52
405.377	379.72
405.755	409.78
406.133	394.18
406.511	391.7
406.889	383.56
407.267	396.44
407.645	385.37
408.023	395.31
408.401	385.82
408.779	387.63
409.156	412.94
409.534	409.1
409.912	403.9
410.29	424.47
410.667	418.36
411.045	430.34
411.422	411.13
411.8	423.56
412.178	410.91
412.555	434.86
412.933	419.95
413.31	454.75
413.687	440.51
414.065	427.86
414.442	436.44
414.819	433.96
415.197	462.66
415.574	416.1
415.951	439.61
416.328	454.97
416.705	445.26
417.082	446.39
417.46	462.21
417.837	450.68
418.214	450.91
418.591	461.08
418.967	471.02
419.344	470.57
419.721	479.15
420.098	483.22
420.475	469.44
420.852	463.34
421.228	489.78
421.605	458.59
421.982	484.58
422.358	488.19
422.735	522.09
423.111	503.56
423.488	496.1
423.864	514.18
424.241	499.04
424.617	498.81
424.994	516.67
425.37	517.35
425.746	490.68
426.123	494.75
426.499	506.95
426.875	528.42
427.251	542.66
427.627	530.23
428.003	544.92
428.379	549.89
428.756	539.72
429.132	541.3
429.507	555.99
429.883	541.3
430.259	560.73
430.635	570.45
431.011	567.29
431.387	571.13
431.763	577.23
432.138	568.19
432.514	561.64
432.89	588.76
433.265	594.86
433.641	609.32
434.016	613.61
434.392	596.21
434.767	612.26
435.143	611.58
435.518	619.94
435.894	613.84
436.269	618.36
436.644	652.93
437.02	648.87
437.395	628.53
437.77	630.56
438.145	652.71
438.52	652.03
438.895	665.14
439.271	656.32
439.646	673.73
440.021	674.63
440.395	675.99
440.77	663.33
441.145	705.14
441.52	699.49
441.895	682.09
442.27	690
442.645	687.28
443.019	687.06
443.394	717.34
443.769	679.83
444.143	694.29
444.518	726.15
444.892	698.58
445.267	714.63
445.641	715.98
446.016	712.82
446.39	747.17
446.764	750.56
447.139	750.79
447.513	736.55
447.887	757.34
448.262	761.41
448.636	746.27
449.01	762.76
449.384	741.75
449.758	775.42
450.132	772.03
450.506	775.64
450.88	767.73
451.254	774.97
451.628	767.06
452.002	801.41
452.376	780.84
452.75	801.86
453.123	804.57
453.497	802.99
453.871	805.47
454.244	840.27
454.618	837.79
454.992	854.29
455.365	841.86
455.739	875.98
456.112	864
456.486	869.2
456.859	868.75
457.232	913.27
457.606	882.76
457.979	901.74
458.352	898.13
458.725	930.89
459.099	949.42
459.472	923.89
459.845	948.07
460.218	978.58
460.591	961.63
460.964	973.38
461.337	1005.92
461.71	960.27
462.083	991.46
462.456	999.59
462.829	1012.7
463.201	1031.68
463.574	1045.01
463.947	1039.59
464.32	1055.86
464.692	1069.87
465.065	1084.11
465.438	1105.35
465.81	1094.51
466.183	1094.51
466.555	1123.2
466.928	1126.37
467.3	1109.65
467.672	1137.89
468.045	1157.78
468.417	1147.16
468.789	1166.59
469.161	1208.4
469.534	1212.69
469.906	1216.08
470.278	1229.19
470.65	1251.79
471.022	1263.99
471.394	1228.74
471.766	1269.64
472.138	1280.49
472.51	1312.58
472.882	1311.9
473.253	1345.12
473.625	1359.13
473.997	1369.98
474.369	1386.47
474.74	1407.94
475.112	1424.21
475.484	1444.1
475.855	1458.11
476.227	1452.24
476.598	1488.17
476.97	1503.31
477.341	1505.79
477.713	1588.96
478.084	1570.2
478.455	1616.07
478.827	1620.82
479.198	1635.51
479.569	1654.49
479.94	1675.96
480.311	1716.64
480.682	1733.81
481.053	1768.61
481.424	1774.71
481.795	1823.53
482.166	1829.63
482.537	1820.14
482.908	1884.99
483.279	1898.1
483.65	1915.95
484.021	1950.98
484.391	1957.76
484.762	2013.13
485.133	2021.49
485.503	2028.49
485.874	2060.81
486.244	2052.22
486.615	2096.96
486.985	2141.48
487.356	2150.52
487.726	2190.52
488.097	2207.24
488.467	2221.48
488.837	2247.7
489.207	2278.2
489.578	2347.58
489.948	2344.42
490.318	2383.96
490.688	2403.17
491.058	2383.96
491.428	2414.92
491.798	2477.07
492.168	2515.94
492.538	2487.91
492.908	2536.73
493.278	2537.18
493.648	2548.7
494.017	2595.26
494.387	2601.36
494.757	2611.08
495.126	2653.56
495.496	2655.37
495.866	2659.21
496.235	2723.16
496.605	2689.04
496.974	2743.5
497.344	2801.13
497.713	2788.92
498.082	2791.64
498.452	2844.97
498.821	2843.61
499.19	2819.43
499.559	2873.22
499.928	2884.51
500.298	2932.65
500.667	2905.76
501.036	2953.89
501.405	2984.62
501.774	3010.16
502.143	2982.59
502.512	2997.28
502.88	3009.03
503.249	3064.62
503.618	3078.86
503.987	3109.59
504.356	3106.2
504.724	3132.64
505.093	3125.41
505.462	3135.81
505.83	3180.78
506.199	3189.59
506.567	3224.62
506.936	3238.63
507.304	3287.67
507.672	3267.78
508.041	3320.66
508.409	3334.22
508.777	3331.28
509.145	3387.55
509.514	3357.5
509.882	3403.14
510.25	3402.47
510.618	3413.09
510.986	3440.43
511.354	3482.01
511.722	3503.71
512.09	3519.98
512.458	3497.15
512.826	3592.52
513.193	3558.17
513.561	3617.15
513.929	3622.12
514.297	3630.03
514.664	3680.88
515.032	3660.77
515.4	3721.33
515.767	3716.58
516.135	3723.36
516.502	3707.77
516.869	3820.08
517.237	3839.29
517.604	3788.9
517.972	3836.58
518.339	3860.53
518.706	3881.32
519.073	3874.77
519.44	3931.94
519.808	3969.68
520.175	3936.01
520.542	3989.57
520.909	4015.78
521.276	4034.31
521.643	4069.57
522.009	4108.44
522.376	4129
522.743	4156.12
523.11	4200.64
523.477	4198.15
523.843	4249.68
524.21	4302.78
524.577	4301.65
524.943	4354.08
525.31	4322.67
525.676	4386.4
526.043	4390.46
526.409	4412.84
526.776	4461.87
527.142	4488.54
527.508	4471.14
527.874	4535.09
528.241	4537.8
528.607	4590.68
528.973	4592.27
529.339	4643.11
529.705	4679.95
530.071	4679.5
530.437	4726.27
530.803	4745.26
531.169	4770.34
531.535	4775.31
531.901	4754.97
532.267	4831.36
532.632	4834.52
532.998	4863.9
533.364	4922.2
533.73	4905.7
534.095	4962.2
534.461	4977.57
534.826	4998.58
535.192	5054.63
535.557	5032.93
535.923	5097.56
536.288	5097.56
536.653	5106.38
537.019	5111.8
537.384	5155.87
537.749	5156.55
538.114	5128.3
538.479	5152.7
538.845	5210.33
539.21	5232.25
539.575	5233.83
539.94	5305.24
540.305	5336.65
540.67	5333.94
541.034	5357.9
541.399	5394.05
541.764	5411.91
542.129	5355.86
542.494	5398.35
542.858	5434.5
543.223	5439.48
543.587	5529.42
543.952	5457.33
544.316	5474.05
544.681	5536.2
545.045	5544.33
545.41	5581.62
545.774	5580.26
546.138	5570.55
546.503	5633.14
546.867	5634.5
547.231	5702.29
547.595	5693.03
547.959	5757.43
548.324	5804.44
548.688	5735.51
549.052	5766.7
549.416	5826.13
549.779	5837.21
550.143	5825.91
550.507	5886.47
550.871	5907.94
551.235	5904.77
551.599	5934.6
551.962	5970.99
552.326	5963.3
552.689	6073.81
553.053	6021.61
553.417	6147.03
553.78	6102.51
554.143	6072
554.507	6134.82
554.87	6129.85
555.234	6200.59
555.597	6210.98
555.96	6231.09
556.323	6230.19
556.686	6264.99
557.05	6249.85
557.413	6283.52
557.776	6298.44
558.139	6355.38
558.502	6405.33
558.865	6414.82
559.228	6471.76
559.59	6481.26
559.953	6447.36
560.316	6519.67
560.679	6551.54
561.041	6570.07
561.404	6609.16
561.767	6598.32
562.129	6577.98
562.492	6706.56
562.854	6703.62
563.217	6720.8
563.579	6742.94
563.941	6729.16
564.304	6843.73
564.666	6843.28
565.028	6887.57
565.39	6839.89
565.753	6948.81
566.115	6940.45
566.477	6979.77
566.839	6998.3
567.201	7066.55
567.563	7026.1
567.925	7093.9
568.287	7112.88
568.648	7124.86
569.01	7141.58
569.372	7178.86
569.734	7177.28
570.095	7234.23
570.457	7233.33
570.819	7229.49
571.18	7239.88
571.542	7266.32
571.903	7274
572.265	7362.81
572.626	7326.66
572.987	7366.2
573.349	7423.15
573.71	7481
574.071	7464.96
574.432	7484.17
574.794	7594.45
575.155	7546.76
575.516	7525.75
575.877	7578.18
576.238	7581.34
576.599	7612.07
576.96	7609.36
577.32	7646.2
577.681	7636.25
578.042	7627.67
578.403	7663.15
578.763	7731.84
579.124	7673.99
579.485	7712.18
579.845	7756.7
580.206	7722.58
580.566	7717.38
580.927	7713.99
581.287	7810.03
581.648	7803.26
582.008	7827.66
582.368	7743.37
582.728	7789.92
583.089	7806.19
583.449	7837.38
583.809	7823.37
584.169	7829.02
584.529	7772.75
584.889	7901.56
585.249	7815.01
585.609	7800.54
585.969	7844.84
586.329	7863.82
586.688	7918.96
587.048	7837.6
587.408	7829.92
587.768	7834.21
588.127	7843.93
588.487	7836.7
588.846	7893.2
589.206	7891.39
589.565	7871.28
589.925	7922.12
590.284	7858.85
590.643	7898.17
591.003	7871.5
591.362	7912.86
591.721	7981.1
592.08	7915.79
592.44	7930.94
592.799	7934.1
593.158	7889.81
593.517	7931.16
593.876	7998.05
594.235	7960.31
594.593	7992.85
594.952	7986.98
595.311	7897.94
595.67	7984.49
596.029	8049.8
596.387	8023.59
596.746	7930.26
597.104	7995.11
597.463	7963.7
597.822	8015.91
598.18	7932.74
598.538	7943.82
598.897	8015
599.255	7938.84
599.613	8003.93
599.972	8005.51
600.33	8053.42
600.688	7979.75
601.046	7977.71
601.404	8056.81
601.762	8027.43
602.12	8088.22
602.478	8046.41
602.836	8035.11
603.194	8013.65
603.552	8050.03
603.91	7996.92
604.268	8009.13
604.625	8087.32
604.983	8046.64
605.341	8024.72
605.698	8124.15
606.056	8049.35
606.413	8125.28
606.771	8090.03
607.128	8097.48
607.485	8098.61
607.843	8150.14
608.2	8130.48
608.557	8166.64
608.914	8089.8
609.272	8205.05
609.629	8200.98
609.986	8186.07
610.343	8127.54
610.7	8256.8
611.057	8254.54
611.414	8277.14
611.771	8234.88
612.127	8283.92
612.484	8252.51
612.841	8249.12
613.198	8262.45
613.554	8271.04
613.911	8292.96
614.267	8279.17
614.624	8292.73
614.98	8200.08
615.337	8332.28
615.693	8367.99
616.05	8309.68
616.406	8378.61
616.762	8371.83
617.118	8298.38
617.475	8305.61
617.831	8367.53
618.187	8333.86
618.543	8327.99
618.899	8407.99
619.255	8399.17
619.611	8370.92
619.967	8409.57
620.323	8461.77
620.678	8444.14
621.034	8398.04
621.39	8436.68
621.746	8391.94
622.101	8481.88
622.457	8368.44
622.812	8441.88
623.168	8510.13
623.523	8425.61
623.879	8431.94
624.234	8454.99
624.589	8454.09
624.945	8451.15
625.3	8533.18
625.655	8470.81
626.01	8434.65
626.365	8506.06
626.72	8451.37
627.075	8445.5
627.43	8498.6
627.785	8448.21
628.14	8471.26
628.495	8485.05
628.85	8486.63
629.205	8430.13
629.559	8491.6
629.914	8444.14
630.269	8452.96
630.623	8458.61
630.978	8415.22
631.332	8483.01
631.687	8456.12
632.041	8464.25
632.396	8512.62
632.75	8450.02
633.104	8457.02
633.459	8339.96
633.813	8360.53
634.167	8337.25
634.521	8351.72
634.875	8390.58
635.229	8432.39
635.583	8331.83
635.937	8342.68
636.291	8324.15
636.645	8316.46
636.999	8324.6
637.352	8321.66
637.706	8297.03
638.06	8356.01
638.413	8337.7
638.767	8326.86
639.121	8308.1
639.474	8269.68
639.828	8260.64
640.181	8302.23
640.534	8268.33
640.888	8254.09
641.241	8219.74
641.594	8245.05
641.947	8275.33
642.301	8247.76
642.654	8259.29
643.007	8351.04
643.36	8346.74
643.713	8221.1
644.066	8292.73
644.419	8231.49
644.771	8170.93
645.124	8071.72
645.477	8084.6
645.83	8053.64
646.182	8087.99
646.535	7961.22
646.888	7976.13
647.24	7993.08
647.593	8070.82
647.945	8039.41
648.298	7963.93
648.65	7958.28
649.002	7966.87
649.355	7926.64
649.707	7968
650.059	8068.33
650.411	8116.02
650.763	8125.51
651.115	8215.22
651.467	8190.14
651.819	8212.06
652.171	8173.64
652.523	8158.73
652.875	8178.16
653.227	8139.74
653.578	8177.93
653.93	8217.03
654.282	8102.23
654.633	8154.43
654.985	8142.91
655.337	8144.94
655.688	8169.57
656.039	8181.1
656.391	8101.33
656.742	8153.53
657.094	8078.95
657.445	8197.37
657.796	8122.79
658.147	8128.44
658.498	8160.76
658.849	8126.64
659.2	8157.37
659.551	8092.97
659.902	8137.94
660.253	8197.82
660.604	8174.54
660.955	8150.59
661.306	8208.67
661.656	8118.05
662.007	8145.17
662.358	8213.41
662.708	8167.31
663.059	8167.54
663.409	8145.85
663.76	8166.18
664.11	8190.59
664.461	8216.8
664.811	8168.22
665.161	8148.56
665.511	8136.58
665.862	8156.69
666.212	8187.2
666.562	8182.91
666.912	8189.01
667.262	8131.61
667.612	8109.91
667.962	8123.7
668.312	8149.01
668.662	8126.64
669.011	8118.5
669.361	8134.77
669.711	8152.85
670.06	8120.54
670.41	8169.12
670.76	8150.82
671.109	8153.98
671.459	8113.3
671.808	8106.75
672.157	8079.18
672.507	8068.56
672.856	8120.31
673.205	8117.82
673.554	8127.77
673.904	8135.45
674.253	8130.03
674.602	8073.08
674.951	8023.59
675.3	7904.95
675.649	8077.15
675.998	8046.41
676.346	8056.58
676.695	8106.07
677.044	7980.43
677.393	8023.14
677.741	8036.92
678.09	7999.18
678.438	8036.92
678.787	8017.71
679.135	8014.32
679.484	7913.99
679.832	7984.49
680.181	7891.16
680.529	7991.05
680.877	7877.38
681.225	7917.83
681.573	7971.39
681.922	7916.47
682.27	7880.77
682.618	7869.24
682.966	7847.77
683.314	7874.44
683.661	7828.11
684.009	7791.5
684.357	7796.25
684.705	7739.3
685.053	7812.52
685.4	7774.1
685.748	7712.41
686.095	7738.62
686.443	7737.27
686.79	7740.88
687.138	7699.98
687.485	7655.91
687.832	7718.29
688.18	7717.83
688.527	7632.64
688.874	7587.44
689.221	7561.91
689.568	7576.82
689.915	7556.26
690.262	7549.93
690.609	7485.3
690.956	7491.17
691.303	7506.09
691.65	7443.04
691.997	7423.38
692.344	7406.88
692.69	7430.38
693.037	7394.45
693.383	7358.07
693.73	7392.42
694.077	7323.27
694.423	7330.27
694.769	7273.1
695.116	7256.15
695.462	7304.96
695.808	7251.86
696.155	7201.69
696.501	7183.61
696.847	7168.47
697.193	7131.18
697.539	7156.27
697.885	7046.66
698.231	7098.64
698.577	7072.2
698.923	7083.5
699.269	7081.47
699.614	7008.47
699.96	6979.77
700.306	6951.53
700.651	6954.24
700.997	6959.66
701.342	6911.75
701.688	6921.92
702.033	6885.31
702.379	6887.8
702.724	6832.89
703.069	6822.26
703.415	6759.89
703.76	6721.25
704.105	6763.73
704.45	6770.97
704.795	6730.06
705.14	6660.69
705.485	6672.44
705.83	6640.12
706.175	6628.82
706.52	6639.44
706.865	6560.58
707.209	6571.42
707.554	6610.52
707.899	6598.32
708.243	6495.49
708.588	6499.79
708.932	6482.39
709.277	6530.07
709.621	6487.13
709.966	6453.91
710.31	6435.83
710.654	6416.17
710.998	6394.25
711.342	6428.6
711.687	6311.32
712.031	6323.97
712.375	6337.98
712.719	6374.82
713.063	6369.85
713.407	6336.85
713.75	6355.16
714.094	6339.11
714.438	6241.04
714.782	6334.59
715.125	6274.03
715.469	6326.23
715.812	6269.96
716.156	6221.6
716.499	6256.18
716.843	6278.32
717.186	6222.51
717.53	6217.99
717.873	6254.82
718.216	6245.56
718.559	6136.18
718.902	6177.31
719.246	6185.44
719.589	6236.29
719.932	6174.37
720.275	6182.05
720.617	6163.52
720.96	6156.74
721.303	6150.87
721.646	6174.15
721.989	6158.33
722.331	6126.92
722.674	6152
723.016	6103.86
723.359	6083.75
723.701	6098.67
724.044	6142.06
724.386	6082.17
724.729	6092.34
725.071	6068.16
725.413	6115.84
725.755	6083.75
726.097	6105.9
726.439	6018.9
726.782	6049.86
727.124	6049.18
727.465	6046.92
727.807	6020.25
728.149	6072.91
728.491	6067.48
728.833	6105.45
729.175	6047.37
729.516	6021.61
729.858	6052.57
730.199	6059.35
730.541	6053.7
730.882	6083.53
731.224	6062.96
731.565	5981.83
731.906	6035.62
732.248	6042.17
732.589	6037.43
732.93	6014.83
733.271	6039.91
733.612	6037.43
733.953	6021.61
734.294	5997.43
734.635	5959.69
734.976	6039.46
735.317	6003.98
735.658	5995.85
735.999	5986.81
736.339	6003.53
736.68	5998.56
737.021	5971.44
737.361	5940.48
737.702	6014.38
738.042	5962.63
738.383	5999.46
738.723	5974.83
739.063	6039.01
739.404	6039.46
739.744	6025.45
740.084	6012.79
740.424	6032.23
740.764	6006.47
741.104	5994.26
741.444	5957.65
741.784	5987.03
742.124	5971.21
742.464	5963.76
742.804	5974.6
743.143	5938.67
743.483	5949.29
743.823	5958.11
744.162	5995.17
744.502	5975.73
744.841	5973.25
745.181	5971.21
745.52	6013.92
745.86	5973.25
746.199	6008.5
746.538	5971.21
746.877	5982.74
747.216	5989.74
747.556	5966.24
747.895	5935.51
748.234	5902.97
748.573	5944.1
748.911	5953.13
749.25	5931.89
749.589	5901.61
749.928	5928.5
750.267	5981.83
750.605	5916.53
750.944	5928.73
751.283	5915.85
751.621	5910.2
751.96	5882.4
752.298	5914.04
752.636	5898.9
752.975	5887.83
753.313	5842.85
753.651	5924.43
753.989	5864.32
754.327	5834.72
754.666	5882.85
755.004	5822.97
755.342	5880.59
755.679	5833.82
756.017	5822.06
756.355	5819.35
756.693	5816.64
757.031	5876.3
757.368	5820.03
757.706	5792.91
758.044	5764.21
758.381	5788.84
758.719	5759.24
759.056	5765.12
759.394	5743.65
759.731	5750.2
760.068	5729.41
760.405	5719.92
760.743	5642.41
761.08	5681.28
761.417	5685.57
761.754	5710.88
762.091	5630.88
762.428	5625.23
762.765	5622.52
763.102	5613.03
763.438	5593.37
763.775	5536.65
764.112	5558.57
764.449	5540.04
764.785	5595.86
765.122	5517.67
765.458	5478.12
765.795	5447.39
766.131	5487.84
766.467	5426.59
766.804	5438.35
767.14	5405.35
767.476	5444.67
767.812	5389.76
768.148	5405.13
768.485	5379.36
768.821	5351.57
769.157	5310.21
769.492	5358.12
769.828	5334.62
770.164	5326.94
770.5	5280.38
770.836	5284.9
771.171	5246.71
771.507	5265.47
771.842	5216.43
772.178	5192.93
772.513	5180.5
772.849	5179.37
773.184	5099.15
773.519	5120.16
773.855	5058.24
774.19	5052.37
774.525	5093.27
774.86	5048.75
775.195	5127.17
775.53	5011.01
775.865	5087.85
776.2	4992.93
776.535	4952.93
776.87	4947.06
777.205	4960.39
777.539	4950.22
777.874	4940.28
778.209	4883.78
778.543	4872.26
778.878	4822.77
779.212	4852.37
779.547	4852.15
779.881	4805.59
780.215	4826.84
780.55	4755.2
780.884	4750.23
781.218	4762.21
781.552	4747.52
781.886	4748.42
782.22	4703.45
782.554	4701.42
782.888	4677.24
783.222	4634.53
783.556	4676.33
783.889	4649.44
784.223	4603.34
784.557	4593.62
784.89	4608.54
785.224	4585.49
785.557	4576.67
785.891	4608.76
786.224	4580.06
786.558	4564.02
786.891	4512.04
787.224	4493.29
787.557	4495.32
787.891	4508.43
788.224	4464.59
788.557	4503.23
788.89	4449.45
789.223	4415.1
789.556	4389.33
789.888	4382.1
790.221	4360.18
790.554	4314.53
790.887	4337.58
791.219	4326.74
791.552	4330.13
791.884	4326.06
792.217	4259.39
792.549	4267.98
792.882	4305.49
793.214	4258.94
793.546	4265.95
793.879	4206.74
794.211	4193.63
794.543	4241.09
794.875	4178.27
795.207	4171.94
795.539	4164.48
795.871	4173.52
796.203	4149.57
796.535	4108.89
796.867	4101.88
797.198	4089.68
797.53	4084.03
797.862	4060.53
798.193	4088.1
798.525	4026.41
798.856	4062.79
799.188	4015.78
799.519	4011.49
799.85	3998.16
800.182	4004.03
800.513	4017.37
800.844	3959.74
801.175	3927.65
801.506	3988.67
801.837	3979.85
802.168	3968.55
802.499	3900.31
802.83	3863.92
803.161	3900.98
803.491	3899.18
803.822	3921.1
804.153	3881.1
804.483	3862.12
804.814	3834.77
805.145	3835.45
805.475	3816.47
805.805	3845.85
806.136	3800.42
806.466	3802.68
806.796	3764.27
807.126	3744.38
807.457	3766.53
807.787	3787.32
808.117	3733.53
808.447	3760.65
808.777	3740.54
809.107	3675.91
809.436	3718.39
809.766	3693.08
810.096	3715.68
810.426	3708
810.755	3698.05
811.085	3628
811.414	3639.97
811.744	3672.06
812.073	3663.03
812.403	3639.97
812.732	3644.04
813.061	3629.81
813.39	3614.89
813.719	3595.46
814.049	3630.26
814.378	3641.33
814.707	3582.12
815.036	3623.7
815.365	3573.54
815.693	3501.22
816.022	3534.89
816.351	3527.66
816.68	3548.45
817.008	3564.5
817.337	3519.75
817.665	3522.46
817.994	3506.65
818.322	3493.09
818.651	3491.96
818.979	3513.2
819.307	3491.05
819.636	3481.79
819.964	3432.97
820.292	3453.54
820.62	3451.73
820.948	3442.69
821.276	3434.33
821.604	3452.18
821.932	3435.46
822.259	3489.24
822.587	3436.14
822.915	3465.97
823.243	3439.08
823.57	3496.48
823.898	3455.8
824.225	3427.78
824.553	3454.44
824.88	3416.93
825.207	3421.68
825.535	3444.73
825.862	3430.49
826.189	3415.12
826.516	3501
826.843	3482.46
827.17	3434.1
827.497	3440.66
827.824	3420.09
828.151	3429.58
828.478	3423.26
828.805	3462.8
829.131	3456.93
829.458	3396.59
829.785	3424.61
830.111	3424.61
830.438	3456.93
830.764	3452.18
831.09	3379.87
831.417	3431.17
831.743	3415.8
832.069	3432.07
832.395	3429.13
832.722	3399.76
833.048	3432.52
833.374	3420.09
833.7	3420.09
834.026	3420.77
834.351	3412.64
834.677	3409.7
835.003	3451.05
835.329	3381.45
835.654	3410.6
835.98	3383.03
836.306	3423.26
836.631	3351.62
836.956	3365.41
837.282	3413.77
837.607	3385.74
837.932	3367.44
838.258	3357.5
838.583	3333.54
838.908	3305.75
839.233	3322.92
839.558	3302.13
839.883	3351.39
840.208	3335.8
840.533	3333.09
840.858	3282.47
841.182	3303.71
841.507	3297.61
841.832	3316.37
842.156	3278.4
842.481	3319.98
842.805	3286.54
843.13	3259.19
843.454	3274.56
843.778	3252.41
844.103	3277.5
844.427	3260.78
844.751	3258.74
845.075	3201.34
845.399	3230.72
845.723	3235.24
846.047	3207.67
846.371	3173.77
846.695	3187.33
847.019	3171.74
847.343	3159.76
847.666	3102.81
847.99	3150.27
848.313	3148.24
848.637	3137.16
848.96	3120.67
849.284	3126.54
849.607	3078.86
849.931	3109.82
850.254	3075.7
850.577	3008.35
850.9	3087
851.223	3030.05
851.546	2997.05
851.869	2972.42
852.192	3036.37
852.515	2971.74
852.838	2982.37
853.161	2966.09
853.483	2976.49
853.806	2991.86
854.129	2932.87
854.451	2946.21
854.774	2897.4
855.096	2928.36
855.419	2869.6
855.741	2932.65
856.063	2886.32
856.385	2852.2
856.708	2893.33
857.03	2889.26
857.352	2874.12
857.674	2876.15
857.996	2856.04
858.318	2814.69
858.64	2834.12
858.961	2823.5
859.283	2849.04
859.605	2808.36
859.926	2829.15
860.248	2813.1
860.57	2809.94
860.891	2788.92
861.212	2749.83
861.534	2764.52
861.855	2749.6
862.176	2739.21
862.498	2777.4
862.819	2776.72
863.14	2716.61
863.461	2749.83
863.782	2751.86
864.103	2716.38
864.424	2743.05
864.745	2715.71
865.065	2666.67
865.386	2724.97
865.707	2718.42
866.027	2719.32
866.348	2699.89
866.668	2687.23
866.989	2685.65
867.309	2655.37
867.63	2688.36
867.95	2675.48
868.27	2669.15
868.59	2670.28
868.91	2666.89
869.23	2701.47
869.55	2649.94
869.87	2681.36
870.19	2642.49
870.51	2651.07
870.83	2633
871.15	2678.87
871.469	2626.67
871.789	2628.48
872.109	2649.27
872.428	2618.53
872.748	2647.91
873.067	2620.57
873.386	2591.19
873.706	2602.71
874.025	2637.74
874.344	2630.51
874.663	2590.74
874.982	2608.82
875.301	2594.8
875.62	2586.44
875.939	2599.55
876.258	2597.06
876.577	2583.28
876.896	2579.21
877.214	2586.67
877.533	2577.63
877.852	2577.86
878.17	2552.32
878.489	2554.81
878.807	2549.38
879.125	2549.16
879.444	2555.26
879.762	2540.34
880.08	2561.81
880.398	2530.63
880.716	2530.4
881.034	2510.51
881.352	2526.78
881.67	2509.38
881.988	2519.1
882.306	2511.42
882.624	2486.78
882.941	2489.95
883.259	2495.6
883.577	2510.97
883.894	2468.03
884.212	2466.22
884.529	2479.55
884.846	2448.59
885.164	2469.84
885.481	2420.8
885.798	2457.18
886.115	2446.79
886.432	2477.07
886.75	2433.23
887.067	2471.64
887.383	2443.4
887.7	2446.79
888.017	2390.06
888.334	2453.34
888.651	2401.36
888.967	2419.67
889.284	2397.97
889.6	2397.07
889.917	2395.94
890.233	2378.09
890.55	2378.31
890.866	2364.75
891.182	2378.09
891.498	2361.59
891.815	2348.71
892.131	2361.36
892.447	2334.25
892.763	2365.43
893.079	2350.07
893.395	2357.97
893.71	2309.84
894.026	2330.18
894.342	2301.93
894.657	2287.69
894.973	2318.2
895.289	2283.17
895.604	2302.83
895.92	2263.51
896.235	2296.51
896.55	2267.13
896.865	2301.48
897.181	2228.94
897.496	2243.63
897.811	2236.62
898.126	2237.07
898.441	2219.45
898.756	2214.7
899.071	2196.85
899.386	2210.63
899.7	2157.08
900.015	2205.89
900.33	2205.66
900.644	2190.52
900.959	2183.74
901.273	2214.93
901.588	2129.96
901.902	2123.4
902.216	2146
902.531	2146
902.845	2152.56
903.159	2116.17
903.473	2090.64
903.787	2139
904.101	2115.72
904.415	2094.7
904.729	2094.48
905.042	2082.05
905.356	2070.98
905.67	2084.54
905.984	2084.76
906.297	2052.45
906.611	2053.8
906.924	2075.72
907.237	2048.6
907.551	2042.28
907.864	2018.32
908.177	2017.64
908.491	2023.75
908.804	1995.5
909.117	1972
909.43	2007.25
909.743	1978.78
910.056	1992.56
910.368	1948.95
910.681	1958.66
910.994	1965.44
911.307	1968.61
911.619	1924.54
911.932	1970.64
912.244	1911.88
912.557	1922.96
912.869	1935.16
913.181	1902.17
913.494	1920.7
913.806	1892.68
914.118	1905.11
914.43	1892.45
914.742	1903.52
915.054	1882.96
915.366	1863.75
915.678	1840.02
915.99	1870.08
916.302	1827.37
916.613	1819.91
916.925	1828.27
917.236	1834.82
917.548	1819.68
917.859	1810.42
918.171	1827.82
918.482	1824.66
918.794	1811.55
919.105	1802.51
919.416	1787.14
919.727	1809.29
920.038	1773.58
920.349	1753.47
920.66	1780.14
920.971	1754.15
921.282	1778.55
921.593	1734.49
921.903	1717.77
922.214	1725.67
922.525	1735.62
922.835	1710.31
923.146	1709.86
923.456	1704.43
923.767	1694.49
924.077	1701.72
924.387	1686.35
924.697	1699.46
925.008	1691.78
925.318	1668.5
925.628	1692.23
925.938	1663.98
926.248	1677.99
926.558	1660.37
926.867	1646.81
927.177	1625.34
927.487	1637.99
927.796	1611.55
928.106	1609.97
928.416	1613.81
928.725	1615.85
929.034	1631.44
929.344	1617.2
929.653	1578.79
929.962	1607.94
930.271	1582.63
930.581	1587.6
930.89	1580.37
931.199	1565
931.508	1548.28
931.817	1568.16
932.125	1584.66
932.434	1532.01
932.743	1536.75
933.051	1535.17
933.36	1546.7
933.669	1548.28
933.977	1545.34
934.286	1524.1
934.594	1514.83
934.902	1494.49
935.21	1479.35
935.519	1487.94
935.827	1497.88
936.135	1489.3
936.443	1422.18
936.751	1492.23
937.059	1473.03
937.367	1468.51
937.674	1448.39
937.982	1472.35
938.29	1442.07
938.597	1452.46
938.905	1416.98
939.213	1425.8
939.52	1418.79
939.827	1432.8
940.135	1400.26
940.442	1405.68
940.749	1422.41
941.056	1417.21
941.363	1386.02
941.67	1401.16
941.977	1345.35
942.284	1382.63
942.591	1375.4
942.898	1366.59
943.205	1359.13
943.511	1374.95
943.818	1377.44
944.125	1366.36
944.431	1359.81
944.738	1317.55
945.044	1344.22
945.35	1353.93
945.657	1355.52
945.963	1316.87
946.269	1346.48
946.575	1343.54
946.881	1308.51
947.187	1317.78
947.493	1325.01
947.799	1309.41
948.105	1312.13
948.41	1285.23
948.716	1270.32
949.022	1285.91
949.327	1298.79
949.633	1264.44
949.938	1286.59
950.244	1253.15
950.549	1251.34
950.854	1233.71
951.16	1261.05
951.465	1274.61
951.77	1240.49
952.075	1219.25
952.38	1245.46
952.685	1241.62
952.99	1241.62
953.294	1242.07
953.599	1221.73
953.904	1234.39
954.209	1212.92
954.513	1206.14
954.818	1207.27
955.122	1192.13
955.426	1189.19
955.731	1200.72
956.035	1158.23
956.339	1185.8
956.643	1194.16
956.948	1181.28
957.252	1157.78
957.556	1179.47
957.86	1169.76
958.163	1156.2
958.467	1170.44
958.771	1142.19
959.075	1134.96
959.378	1149.42
959.682	1165.24
959.985	1130.44
960.289	1126.14
960.592	1096.76
960.896	1136.31
961.199	1124.11
961.502	1118.01
961.805	1104
962.108	1142.64
962.411	1083.43
962.714	1118.46
963.017	1112.36
963.32	1108.29
963.623	1114.84
963.926	1086.82
964.228	1058.12
964.531	1065.81
964.833	1074.84
965.136	1085.47
965.438	1080.04
965.741	1067.39
966.043	1060.38
966.345	1058.8
966.648	1059.25
966.95	1062.19
967.252	1054.96
967.554	1057.9
967.856	1047.27
968.158	1032.59
968.46	1055.41
968.761	1022.19
969.063	1033.26
969.365	1064.68
969.666	1001.85
969.968	1031.23
970.269	1019.93
970.571	1013.83
970.872	1035.75
971.174	1025.58
971.475	976.32
971.776	1004.34
972.077	1020.16
972.378	1021.51
972.679	998.46
972.98	1010.89
973.281	964.34
973.582	988.75
973.883	991.23
974.183	987.84
974.484	951.68
974.785	970.44
975.085	984.45
975.386	984.9
975.686	951.46
975.986	941.51
976.287	984.68
976.587	957.79
976.887	946.26
977.187	924.79
977.487	945.36
977.787	941.06
978.087	941.29
978.387	955.07
978.687	942.19
978.987	936.32
979.286	917.33
979.586	920.27
979.885	945.58
980.185	928.41
980.484	930.22
980.784	902.87
981.083	924.57
981.382	887.96
981.682	913.04
981.981	892.25
982.28	900.16
982.579	905.58
982.878	876.88
983.177	895.19
983.475	873.27
983.774	892.25
984.073	883.21
984.372	843.89
984.67	867.39
984.969	874.62
985.267	864.68
985.566	861.74
985.864	871.01
986.162	843.44
986.461	856.55
986.759	860.61
987.057	854.96
987.355	857.45
987.653	864.23
987.951	841.18
988.249	856.55
988.547	825.36
988.844	815.64
989.142	845.7
989.44	833.72
989.737	820.61
990.035	824.91
990.332	815.64
990.63	815.87
990.927	817.45
991.224	804.34
991.521	804.34
991.819	814.29
992.116	820.84
992.413	779.94
992.71	789.43
993.006	788.3
993.303	788.98
993.6	795.08
993.897	805.25
994.193	788.52
994.49	797.34
994.787	798.02
995.083	789.43
995.379	787.39
995.676	770.45
995.972	752.59
996.268	769.99
996.565	765.93
996.861	751.01
997.157	776.1
997.453	762.54
997.749	740.16
998.044	762.99
998.34	736.1
998.636	746.27
998.932	737.9
999.227	764.12
999.523	760.5
999.818	749.66
1000.114	739.94
1000.409	732.25
1000.704	725.25
1001	711.69
1001.295	740.16
1001.59	737
1001.885	727.51
1002.18	711.24
1002.475	720.5
1002.77	709.2
1003.065	710.79
1003.359	717.34
1003.654	708.3
1003.949	701.52
1004.243	701.75
1004.538	699.04
1004.832	706.49
1005.127	688.41
1005.421	694.74
1005.715	701.75
1006.009	683.44
1006.304	694.52
1006.598	677.11
1006.892	692.93
1007.186	684.57
1007.48	678.02
1007.773	650.45
1008.067	647.96
1008.361	666.95
1008.655	657.45
1008.948	677.11
1009.242	672.6
1009.535	648.42
1009.829	665.14
1010.122	671.92
1010.415	639.15
1010.708	639.15
1011.001	623.78
1011.295	648.87
1011.588	663.1
1011.881	629.66
1012.173	642.31
1012.466	637.57
1012.759	628.3
1013.052	621.98
1013.344	627.17
1013.637	624.46
1013.93	642.54
1014.222	623.11
1014.514	605.93
1014.807	611.13
1015.099	599.38
1015.391	597.57
1015.683	607.51
1015.976	610
1016.268	607.51
1016.56	601.18
1016.851	601.18
1017.143	588.53
1017.435	590.34
1017.727	589.43
1018.018	593.73
1018.31	589.21
1018.602	609.77
1018.893	589.43
1019.185	593.73
1019.476	577.46
1019.767	565.71
1020.058	600.73
1020.35	589.43
1020.641	578.36
1020.932	581.52
1021.223	574.52
1021.514	559.15
1021.804	555.08
1022.095	561.64
1022.386	584.91
1022.677	541.75
1022.967	554.41
1023.258	548.76
1023.548	570.68
1023.839	540.85
1024.129	548.53
1024.419	553.73
1024.709	513.5
1025	528.64
1025.29	542.43
1025.58	547.17
1025.87	551.02
1026.16	528.87
1026.449	540.62
1026.739	523.9
1027.029	519.15
1027.319	530.68
1027.608	541.75
1027.898	544.24
1028.187	510.34
1028.477	526.61
1028.766	529.1
1029.055	505.37
1029.344	524.12
1029.634	495.2
1029.923	504.69
1030.212	511.92
1030.501	537.46
1030.79	518.93
1031.078	525.71
1031.367	506.95
1031.656	490.68
1031.945	483.22
1032.233	472.37
1032.522	474.41
1032.81	490.91
1033.099	495.65
1033.387	505.37
1033.675	514.18
1033.963	494.52
1034.251	473.73
1034.54	492.49
1034.828	465.6
1035.116	485.03
1035.403	478.48
1035.691	489.1
1035.979	490.23
1036.267	485.48
1036.554	471.7
1036.842	466.5
1037.129	461.08
1037.417	459.27
1037.704	457.01
1037.992	462.43
1038.279	455.88
1038.566	447.52
1038.853	447.52
1039.14	447.52
