Data from mousepad_grey_FLMS001491_00071.txt Node
Date: Wed Feb 08 14:29:54 GMT 2017
User: dcchb
Spectrometer: FLMS00149
Trigger mode: 0
Integration Time (sec): 2.000000E-2
Scans to average: 10
Electric dark correction enabled: true
Nonlinearity correction enabled: false
Boxcar width: 0
XAxis mode: Wavelengths
Number of Pixels in Spectrum: 2048
>>>>>Begin Spectral Data<<<<<
341.393	-6.88
341.776	-6.88
342.16	-6.88
342.543	-60.44
342.927	-66.31
343.31	-90.27
343.693	-58.85
344.077	-70.38
344.46	-69.02
344.843	-54.79
345.226	-27.89
345.61	-38.06
345.993	-4.84
346.376	-15.47
346.759	8.94
347.142	25.21
347.525	37.19
347.908	82.38
348.291	89.16
348.674	85.1
349.057	101.59
349.44	137.52
349.823	135.49
350.206	142.72
350.588	203.96
350.971	198.77
351.354	208.03
351.737	236.51
352.119	243.96
352.502	233.79
352.884	280.35
353.267	263.17
353.65	275.83
354.032	290.97
354.414	305.88
354.797	280.12
355.179	304.75
355.562	288.26
355.944	307.24
356.326	313.57
356.709	322.15
357.091	313.34
357.473	342.49
357.855	333.68
358.238	337.07
358.62	343.17
359.002	314.24
359.384	333.23
359.766	340.23
360.148	320.57
360.53	335.94
360.912	297.52
361.294	311.98
361.676	314.92
362.057	342.27
362.439	317.18
362.821	306.79
363.203	333.9
363.584	321.7
363.966	331.42
364.348	311.08
364.729	296.39
365.111	322.83
365.493	269.72
365.874	303.4
366.256	312.66
366.637	277.86
367.019	307.24
367.4	298.88
367.781	281.93
368.163	279.22
368.544	319.21
368.925	302.04
369.306	300.91
369.688	310.18
370.069	295.94
370.45	295.26
370.831	297.75
371.212	301.14
371.593	307.24
371.974	298.88
372.355	309.95
372.736	298.65
373.117	290.29
373.498	295.26
373.879	315.83
374.26	299.1
374.641	313.57
375.021	294.81
375.402	314.47
375.783	305.43
376.163	321.93
376.544	311.98
376.925	340.91
377.305	306.79
377.686	315.6
378.066	291.64
378.447	280.12
378.827	323.96
379.208	331.19
379.588	314.47
379.968	309.5
380.349	307.69
380.729	311.31
381.109	319.67
381.489	325.54
381.87	329.38
382.25	298.42
382.63	318.54
383.01	304.07
383.39	306.79
383.77	341.36
384.15	310.18
384.53	326.45
384.91	341.14
385.29	325.32
385.67	331.19
386.049	334.13
386.429	317.41
386.809	343.17
387.189	324.41
387.568	337.97
387.948	339.1
388.328	315.15
388.707	338.65
389.087	329.61
389.466	339.78
389.846	335.26
390.225	347.69
390.605	353.56
390.984	366.9
391.363	341.81
391.743	356.05
392.122	365.54
392.501	357.41
392.881	346.11
393.26	364.64
393.639	359.21
394.018	388.14
394.397	359.67
394.776	354.24
395.155	385.43
395.534	366.9
395.913	361.02
396.292	361.25
396.671	374.58
397.05	353.79
397.429	374.35
397.808	362.83
398.186	375.03
398.565	373.9
398.944	388.14
399.323	386.11
399.701	380.68
400.08	395.37
400.458	373.9
400.837	385.43
401.215	392.89
401.594	402.83
401.972	380.68
402.351	414.13
402.729	373.45
403.107	400.57
403.486	394.24
403.864	409.16
404.242	407.8
404.62	428.82
404.999	413.68
405.377	395.14
405.755	440.79
406.133	425.43
406.511	418.2
406.889	429.04
407.267	421.36
407.645	450.51
408.023	447.57
408.401	448.02
408.779	450.28
409.156	440.57
409.534	447.35
409.912	462.94
410.29	453.67
410.667	438.53
411.045	454.35
411.422	467.01
411.8	471.98
412.178	435.37
412.555	468.36
412.933	488.93
413.31	461.58
413.687	485.54
414.065	483.96
414.442	475.59
414.819	495.03
415.197	512.66
415.574	493.67
415.951	482.15
416.328	507.23
416.705	500
417.082	503.84
417.46	513.33
417.837	506.55
418.214	511.75
418.591	495.93
418.967	502.94
419.344	529.83
419.721	511.53
420.098	542.49
420.475	527.12
420.852	556.04
421.228	548.14
421.605	522.6
421.982	550.17
422.358	543.84
422.735	560.11
423.111	539.77
423.488	556.72
423.864	535.25
424.241	550.4
424.617	562.82
424.994	569.15
425.37	574.12
425.746	564.41
426.123	595.14
426.499	579.77
426.875	584.29
427.251	605.31
427.627	591.75
428.003	610.96
428.379	609.6
428.756	611.64
429.132	642.14
429.507	632.2
429.883	642.37
430.259	640.56
430.635	646.66
431.011	678.98
431.387	666.78
431.763	664.74
432.138	664.06
432.514	666.55
432.89	674.23
433.265	678.08
433.641	680.11
434.016	687.34
434.392	722.59
434.767	698.64
435.143	706.1
435.518	723.05
435.894	716.27
436.269	739.09
436.644	747.9
437.02	744.97
437.395	734.12
437.77	759.43
438.145	741.8
438.52	768.69
438.895	761.24
439.271	767.56
439.646	774.34
440.021	804.63
440.395	782.48
440.77	777.73
441.145	787.9
441.52	803.27
441.895	805.53
442.27	805.08
442.645	815.25
443.019	834.46
443.394	817.96
443.769	829.03
444.143	817.28
444.518	846.21
444.892	855.25
445.267	869.93
445.641	848.47
446.016	837.39
446.39	857.51
446.764	868.58
447.139	856.6
447.513	858.41
447.887	869.03
448.262	871.06
448.636	896.83
449.01	887.56
449.384	895.92
449.758	886.43
450.132	921.46
450.506	899.99
450.88	929.14
451.254	909.03
451.628	945.86
452.002	917.39
452.376	931.63
452.75	974.34
453.123	942.93
453.497	988.8
453.871	978.18
454.244	1011.4
454.618	990.16
454.992	1001.46
455.365	1038.07
455.739	1026.99
456.112	1016.6
456.486	1042.36
456.859	1078.97
457.232	1075.81
457.606	1065.41
457.979	1094.79
458.352	1096.14
458.725	1110.15
459.099	1121.68
459.472	1126.2
459.845	1138.4
460.218	1151.74
460.591	1140.89
460.964	1170.27
461.337	1178.63
461.71	1211.17
462.083	1201.23
462.456	1183.6
462.829	1229.93
463.201	1240.09
463.574	1219.53
463.947	1233.77
464.32	1283.03
464.692	1283.94
465.065	1289.13
465.438	1297.72
465.81	1332.07
466.183	1336.14
466.555	1358.28
466.928	1388.57
467.3	1368.9
467.672	1379.75
468.045	1425.4
468.417	1437.6
468.789	1422.24
469.161	1456.13
469.534	1443.48
469.906	1475.12
470.278	1499.07
470.65	1520.09
471.022	1536.58
471.394	1568
471.766	1559.63
472.138	1615.68
472.51	1601.44
472.882	1640.54
473.253	1644.6
473.625	1634.66
473.997	1710.14
474.369	1706.75
474.74	1732.96
475.112	1762.79
475.484	1767.09
475.855	1802.34
476.227	1805.05
476.598	1881.66
476.97	1877.14
477.341	1895.22
477.713	1896.12
478.084	1919.17
478.455	1990.58
478.827	1990.36
479.198	2020.86
479.569	2057.25
479.94	2093.86
480.311	2124.37
480.682	2169.56
481.053	2184.48
481.424	2190.8
481.795	2223.57
482.166	2274.87
482.537	2331.14
482.908	2365.94
483.279	2354.64
483.65	2364.58
484.021	2471.7
484.391	2445.94
484.762	2469.44
485.133	2503.34
485.503	2541.3
485.874	2583.11
486.244	2606.16
486.615	2637.8
486.985	2695.88
487.356	2687.06
487.726	2706.72
488.097	2777.46
488.467	2780.17
488.837	2839.15
489.207	2882.54
489.578	2911.24
489.948	2906.94
490.318	2981.29
490.688	2981.52
491.058	3024.23
491.428	3054.74
491.798	3064.91
492.168	3154.39
492.538	3135.41
492.908	3170.21
493.278	3225.35
493.648	3220.38
494.017	3249.99
494.387	3267.16
494.757	3335.41
495.126	3329.53
495.496	3388.51
495.866	3389.64
496.235	3406.37
496.605	3461.28
496.974	3442.3
497.344	3478.23
497.713	3515.97
498.082	3538.11
498.452	3586.7
498.821	3585.34
499.19	3595.29
499.559	3629.18
499.928	3642.29
500.298	3673.25
500.667	3681.16
501.036	3688.62
501.405	3764.55
501.774	3736.53
502.143	3791.89
502.512	3809.52
502.88	3854.26
503.249	3815.62
503.618	3914.83
503.987	3887.93
504.356	3919.57
504.724	3952.11
505.093	3983.98
505.462	3969.29
505.83	4001.38
506.199	4016.29
506.567	4049.74
506.936	4080.7
507.304	4092.45
507.672	4113.47
508.041	4192.11
508.409	4217.64
508.777	4226.91
509.145	4283.63
509.514	4265.78
509.882	4268.72
510.25	4304.87
510.618	4306.68
510.986	4345.1
511.354	4387.58
511.722	4423.97
512.09	4474.81
512.458	4451.54
512.826	4513.23
513.193	4508.26
513.561	4515.71
513.929	4577.18
514.297	4605.43
514.664	4609.27
515.032	4620.8
515.4	4665.99
515.767	4659.89
516.135	4710.74
516.502	4753
516.869	4856.5
517.237	4814.24
517.604	4826.44
517.972	4856.27
518.339	4904.4
518.706	4897.85
519.073	4972.65
519.44	4947.34
519.808	4991.41
520.175	4983.5
520.542	5087.22
520.909	5131.07
521.276	5123.16
521.643	5206.77
522.009	5141.01
522.376	5218.07
522.743	5246.09
523.11	5322.7
523.477	5359.53
523.843	5370.83
524.21	5425.97
524.577	5455.58
524.943	5522.69
525.31	5487.89
525.676	5592.07
526.043	5654.89
526.409	5612.86
526.776	5673.2
527.142	5707.77
527.508	5732.41
527.874	5792.97
528.241	5777.6
528.607	5785.06
528.973	5899.63
529.339	5874.77
529.705	5951.84
530.071	5978.73
530.437	6012.62
530.803	5984.15
531.169	6074.09
531.535	6067.76
531.901	6077.26
532.267	6127.2
532.632	6152.06
532.998	6164.48
533.364	6275.22
533.73	6251.26
534.095	6290.36
534.461	6337.81
534.826	6375.78
535.192	6380.98
535.557	6429.11
535.923	6438.83
536.288	6445.38
536.653	6522.67
537.019	6482.67
537.384	6603.34
537.749	6559.05
538.114	6594.3
538.479	6626.85
538.845	6658.26
539.21	6665.71
539.575	6653.96
539.94	6716.33
540.305	6762.21
540.67	6776.22
541.034	6774.64
541.399	6827.29
541.764	6854.41
542.129	6866.61
542.494	6872.49
542.858	6889.66
543.223	6970.11
543.587	7059.83
543.952	6976.89
544.316	7074.97
544.681	7043.56
545.045	7061.64
545.41	7097.12
545.774	7081.3
546.138	7140.73
546.503	7199.94
546.867	7162.2
547.231	7327.84
547.595	7295.75
547.959	7299.6
548.324	7345.7
548.688	7347.96
549.052	7390.67
549.416	7427.28
549.779	7401.51
550.143	7411.23
550.507	7496.88
550.871	7540.27
551.235	7552.92
551.599	7568.06
551.962	7598.57
552.326	7674.05
552.689	7689.87
553.053	7643.99
553.417	7735.06
553.78	7842.41
554.143	7781.17
554.507	7854.61
554.87	7832.24
555.234	7903.2
555.597	7906.81
555.96	7940.71
556.323	7994.27
556.686	7954.04
557.05	8063.42
557.413	8052.12
557.776	8053.93
558.139	8102.29
558.502	8147.71
558.865	8129.63
559.228	8240.14
559.59	8218.89
559.953	8289.17
560.316	8355.61
560.679	8373.01
561.041	8465.22
561.404	8454.59
561.767	8464.31
562.129	8468.83
562.492	8523.97
562.854	8600.35
563.217	8581.14
563.579	8603.06
563.941	8691.88
564.304	8688.03
564.666	8744.08
565.028	8768.03
565.39	8786.79
565.753	8832.44
566.115	8846.45
566.477	8933
566.839	8933.9
567.201	8920.12
567.563	8965.54
567.925	9001.92
568.287	9073.56
568.648	9039.89
569.01	9121.92
569.372	9177.29
569.734	9177.29
570.095	9316.94
570.457	9236.72
570.819	9305.19
571.18	9283.72
571.542	9393.78
571.903	9318.53
572.265	9398.52
572.626	9381.58
572.987	9487.56
573.349	9483.04
573.71	9492.98
574.071	9538.63
574.432	9563.04
574.794	9685.97
575.155	9594
575.516	9619.31
575.877	9688.23
576.238	9690.49
576.599	9735.24
576.96	9744.28
577.32	9732.07
577.681	9787.89
578.042	9859.53
578.403	9843.26
578.763	9776.59
579.124	9841.9
579.485	9903.37
579.845	9842.35
580.206	9876.93
580.566	9889.58
580.927	9894.56
581.287	9936.59
581.648	9925.52
582.008	9946.98
582.368	9989.47
582.728	9918.51
583.089	9951.28
583.449	9955.35
583.809	9949.24
584.169	9953.54
584.529	9992.86
584.889	10054.1
585.249	10008.9
585.609	9956.7
585.969	10014.33
586.329	9989.47
586.688	9982.69
587.048	10016.13
587.408	10001.67
587.768	10025.85
588.127	10034.89
588.487	10092.74
588.846	10119.86
589.206	10006.19
589.565	10145.17
589.925	10067.66
590.284	10032.86
590.643	10038.06
591.003	10089.58
591.362	10093.2
591.721	10087.09
592.08	10089.81
592.44	10071.27
592.799	10148.56
593.158	10124.83
593.517	10089.81
593.876	10117.38
594.235	10109.24
594.593	10175.9
594.952	10171.16
595.311	10128.67
595.67	10233.76
596.029	10147.43
596.387	10202.12
596.746	10100.65
597.104	10165.96
597.463	10167.54
597.822	10198.95
598.18	10148.56
598.538	10222.68
598.897	10228.78
599.255	10142.01
599.613	10296.58
599.972	10254.55
600.33	10263.59
600.688	10141.33
601.046	10198.95
601.404	10281.44
601.762	10239.41
602.12	10277.15
602.478	10236.47
602.836	10360.08
603.194	10231.72
603.552	10258.84
603.91	10190.82
604.268	10276.24
604.625	10236.02
604.983	10255.68
605.341	10244.15
605.698	10349.46
606.056	10369.8
606.413	10270.14
606.771	10335.67
607.128	10356.24
607.485	10307.88
607.843	10324.83
608.2	10441.89
608.557	10413.64
608.914	10358.27
609.272	10513.52
609.629	10396.69
609.986	10533.18
610.343	10370.7
610.7	10492.51
611.057	10480.98
611.414	10418.61
611.771	10467.87
612.127	10472.85
612.484	10495.44
612.841	10566.85
613.198	10505.16
613.554	10536.35
613.911	10608.44
614.267	10483.24
614.624	10514.88
614.98	10570.24
615.337	10577.25
615.693	10577.93
616.05	10552.84
616.406	10631.26
616.762	10620.86
617.118	10616.12
617.475	10620.64
617.831	10662.9
618.187	10662.45
618.543	10719.85
618.899	10726.4
619.255	10704.93
619.611	10650.92
619.967	10741.09
620.323	10686.4
620.678	10702.67
621.034	10620.19
621.39	10676.23
621.746	10690.47
622.101	10772.95
622.457	10635.55
622.812	10709.68
623.168	10704.93
623.523	10672.61
623.879	10780.18
624.234	10631.49
624.589	10734.31
624.945	10746.96
625.3	10784.7
625.655	10683.69
626.01	10757.58
626.365	10762.1
626.72	10699.73
627.075	10758.71
627.43	10730.47
627.785	10756.68
628.14	10723.46
628.495	10806.4
628.85	10757.58
629.205	10734.08
629.559	10765.95
629.914	10685.04
630.269	10758.26
630.623	10683.46
630.978	10726.85
631.332	10703.57
631.687	10764.59
632.041	10696.57
632.396	10698.38
632.75	10653.63
633.104	10659.28
633.459	10572.96
633.813	10668.55
634.167	10614.54
634.521	10584.03
634.875	10619.28
635.229	10646.17
635.583	10526.86
635.937	10562.56
636.291	10557.59
636.645	10564.82
636.999	10576.35
637.352	10590.36
637.706	10467.42
638.06	10546.97
638.413	10559.17
638.767	10525.73
639.121	10520.08
639.474	10424.94
639.828	10501.55
640.181	10506.74
640.534	10510.81
640.888	10462
641.241	10436.24
641.594	10389.46
641.947	10511.49
642.301	10447.99
642.654	10405.73
643.007	10465.39
643.36	10400.08
643.713	10424.03
644.066	10439.17
644.419	10440.08
644.771	10331.38
645.124	10226.98
645.477	10215.68
645.83	10177.03
646.182	10197.83
646.535	10104.27
646.888	10175
647.24	10115.12
647.593	10103.14
647.945	10183.59
648.298	10081.67
648.65	10029.92
649.002	10046.87
649.355	10031.73
649.707	10044.83
650.059	10122.35
650.411	10221.78
650.763	10277.37
651.115	10393.53
651.467	10360.31
651.819	10295.9
652.171	10308.78
652.523	10281.89
652.875	10299.29
653.227	10287.99
653.578	10234.21
653.93	10314.21
654.282	10278.5
654.633	10211.16
654.985	10290.48
655.337	10286.64
655.688	10294.09
656.039	10285.96
656.391	10283.25
656.742	10230.59
657.094	10241.89
657.445	10236.69
657.796	10261.1
658.147	10234.21
658.498	10274.43
658.849	10243.47
659.2	10236.02
659.551	10220.88
659.902	10320.08
660.253	10280.76
660.604	10248.22
660.955	10217.71
661.306	10299.29
661.656	10271.04
662.007	10232.63
662.358	10228.11
662.708	10284.38
663.059	10247.09
663.409	10193.53
663.76	10299.97
664.11	10222.01
664.461	10179.07
664.811	10216.58
665.161	10268.33
665.511	10210.25
665.862	10248.45
666.212	10271.27
666.562	10211.38
666.912	10266.98
667.262	10256.35
667.612	10240.08
667.962	10304.49
668.312	10183.59
668.662	10312.4
669.011	10279.63
669.361	10236.92
669.711	10132.29
670.06	10232.4
670.41	10207.09
670.76	10155.79
671.109	10234.66
671.459	10189.46
671.808	10171.84
672.157	10150.82
672.507	10113.53
672.856	10149.24
673.205	10092.97
673.554	10092.29
673.904	10113.99
674.253	10202.57
674.602	10206.86
674.951	9983.14
675.3	10012.29
675.649	10119.64
675.998	10065.4
676.346	10051.39
676.695	10117.83
677.044	10059.98
677.393	10084.16
677.741	10130.71
678.09	10045.06
678.438	10078.96
678.787	10035.57
679.135	10033.31
679.484	9969.81
679.832	9931.39
680.181	9930.26
680.529	10000.77
680.877	9920.77
681.225	9937.04
681.573	9981.79
681.922	9919.19
682.27	9823.37
682.618	9937.72
682.966	9887.32
683.314	9823.15
683.661	9826.76
684.009	9733.88
684.357	9792.86
684.705	9774.33
685.053	9752.87
685.4	9716.71
685.748	9727.78
686.095	9708.12
686.443	9710.83
686.79	9585.86
687.138	9665.64
687.485	9569.82
687.832	9611.63
688.18	9582.93
688.527	9558.97
688.874	9567.79
689.221	9470.16
689.568	9525.53
689.915	9508.8
690.262	9455.47
690.609	9428.35
690.956	9398.07
691.303	9366.43
691.65	9312.65
691.997	9390.61
692.344	9254.12
692.69	9310.16
693.037	9272.88
693.383	9195.37
693.73	9271.3
694.077	9152.88
694.423	9201.24
694.769	9089.61
695.116	9147.91
695.462	9062.94
695.808	9089.15
696.155	9037.63
696.501	8986.11
696.847	9034.69
697.193	8920.57
697.539	8930.74
697.885	8837.18
698.231	8819.78
698.577	8831.53
698.923	8776.85
699.269	8768.71
699.614	8750.41
699.96	8754.47
700.306	8755.38
700.651	8658.66
700.997	8583.86
701.342	8595.16
701.688	8614.36
702.033	8603.74
702.379	8569.39
702.724	8543.63
703.069	8561.26
703.415	8434.71
703.76	8500.24
704.105	8355.61
704.45	8476.06
704.795	8355.61
705.14	8350.42
705.485	8344.77
705.83	8315.84
706.175	8327.82
706.52	8310.19
706.865	8241.72
707.209	8269.97
707.554	8222.06
707.899	8268.16
708.243	8211.44
708.588	8151.55
708.932	8153.36
709.277	8092.57
709.621	8154.49
709.966	8071.33
710.31	8025.9
710.654	8071.78
710.998	8024.32
711.342	7999.46
711.687	7988.62
712.031	7989.3
712.375	7970.99
712.719	7936.42
713.063	7968.96
713.407	7963.76
713.75	7921.73
714.094	7954.04
714.438	7881.5
714.782	7920.82
715.125	7861.16
715.469	7856.87
715.812	7850.99
716.156	7820.49
716.499	7818.68
716.843	7876.98
717.186	7731.22
717.53	7790.43
717.873	7830.66
718.216	7775.29
718.559	7779.81
718.902	7718.57
719.246	7673.15
719.589	7701.39
719.932	7645.12
720.275	7751.56
720.617	7715.18
720.96	7652.36
721.303	7664.78
721.646	7657.33
721.989	7611.23
722.331	7620.27
722.674	7560.83
723.016	7680.6
723.359	7644.9
723.701	7627.5
724.044	7629.53
724.386	7531.91
724.729	7587.5
725.071	7564.45
725.413	7550.89
725.755	7576.2
726.097	7532.36
726.439	7555.18
726.782	7535.3
727.124	7601.96
727.465	7522.87
727.807	7504.34
728.149	7492.59
728.491	7442.64
728.833	7506.82
729.175	7580.49
729.516	7526.71
729.858	7488.97
730.199	7519.7
730.541	7535.07
730.882	7496.2
731.224	7498.46
731.565	7488.29
731.906	7457.56
732.248	7503.88
732.589	7402.42
732.93	7446.71
733.271	7445.81
733.612	7509.99
733.953	7495.3
734.294	7488.97
734.635	7401.51
734.976	7390.44
735.317	7412.14
735.658	7374.4
735.999	7458.24
736.339	7448.74
736.68	7435.19
737.021	7359.93
737.361	7408.07
737.702	7453.72
738.042	7436.54
738.383	7449.87
738.723	7402.42
739.063	7383.66
739.404	7440.61
739.744	7452.59
740.084	7376.66
740.424	7369.42
740.764	7384.57
741.104	7485.13
741.444	7350.67
741.784	7371.91
742.124	7413.72
742.464	7421.4
742.804	7377.56
743.143	7406.03
743.483	7351.8
743.823	7312.03
744.162	7383.66
744.502	7384.11
744.841	7308.41
745.181	7410.55
745.52	7338.92
745.86	7384.11
746.199	7358.35
746.538	7396.09
746.877	7338.01
747.216	7372.59
747.556	7301.4
747.895	7316.77
748.234	7295.98
748.573	7349.99
748.911	7316.32
749.25	7246.04
749.589	7287.62
749.928	7309.54
750.267	7251.24
750.605	7227.06
750.944	7260.5
751.283	7188.64
751.621	7250.33
751.96	7240.39
752.298	7249.2
752.636	7276.55
752.975	7265.92
753.313	7208.3
753.651	7238.58
753.989	7254.4
754.327	7202.2
754.666	7133.27
755.004	7177.11
755.342	7186.83
755.679	7127.4
756.017	7148.64
756.355	7176.89
756.693	7114.29
757.031	7108.64
757.368	7087.4
757.706	7128.75
758.044	7065.7
758.381	7159.49
758.719	7059.6
759.056	7070.9
759.394	7023.9
759.731	6978.47
760.068	7008.76
760.405	6984.12
760.743	6941.64
761.08	6954.07
761.417	6918.59
761.754	6864.35
762.091	6932.83
762.428	6864.13
762.765	6879.95
763.102	6841.53
763.438	6810.8
763.775	6768.31
764.112	6794.52
764.449	6825.48
764.785	6739.84
765.122	6775.54
765.458	6685.6
765.795	6648.77
766.131	6681.99
766.467	6673.62
766.804	6669.78
767.14	6649.22
767.476	6574.19
767.812	6590.24
768.148	6577.81
768.485	6538.71
768.821	6586.62
769.157	6530.58
769.492	6508.88
769.828	6498.71
770.164	6455.78
770.5	6465.95
770.836	6451.93
771.171	6416.68
771.507	6337.59
771.842	6359.51
772.178	6306.85
772.513	6324.93
772.849	6338.27
773.184	6313.86
773.519	6279.74
773.855	6181.89
774.19	6225.73
774.525	6138.5
774.86	6164.03
775.195	6184.82
775.53	6131.49
775.865	6130.81
776.2	6093.98
776.535	6043.58
776.87	6045.62
777.205	6019.18
777.539	5982.12
777.874	6015.34
778.209	5961.78
778.543	5942.34
778.878	5889.69
779.212	5924.27
779.547	5852.18
779.881	5869.35
780.215	5849.92
780.55	5859.63
780.884	5857.6
781.218	5825.06
781.552	5825.51
781.886	5756.13
782.22	5689.24
782.554	5700.54
782.888	5658.96
783.222	5700.99
783.556	5659.64
783.889	5703.71
784.223	5592.97
784.557	5632.3
784.89	5595.46
785.224	5548
785.557	5527.67
785.891	5517.72
786.224	5541.22
786.558	5496.93
786.891	5449.25
787.224	5429.14
787.557	5414.9
787.891	5414.9
788.224	5373.09
788.557	5442.24
788.89	5419.42
789.223	5388.69
789.556	5299.2
789.888	5344.39
790.221	5307.11
790.554	5286.77
790.887	5270.72
791.219	5275.47
791.552	5277.73
791.884	5240.89
792.217	5222.36
792.549	5174.45
792.882	5171.29
793.214	5161.57
793.546	5159.77
793.879	5130.39
794.211	5084.97
794.543	5094.68
794.875	5108.02
795.207	5096.49
795.539	5079.77
795.871	5052.88
796.203	4964.52
796.535	4972.43
796.867	4984.18
797.198	4959.09
797.53	5020.33
797.862	4954.8
798.193	4961.8
798.525	4930.62
798.856	4911.64
799.188	4835.71
799.519	4851.3
799.85	4877.96
800.182	4812.2
800.513	4835.48
800.844	4772.66
801.175	4844.07
801.506	4776.72
801.837	4776.05
802.168	4792.09
802.499	4702.6
802.83	4725.88
803.161	4710.96
803.491	4673.9
803.822	4716.61
804.153	4649.04
804.483	4638.2
804.814	4593.9
805.145	4668.48
805.475	4641.36
805.805	4638.42
806.136	4637.52
806.466	4604.75
806.796	4559.33
807.126	4585.09
807.457	4527.01
807.787	4546
808.117	4572.66
808.447	4548.48
808.777	4518.43
809.107	4550.29
809.436	4485.43
809.766	4521.14
810.096	4495.83
810.426	4457.19
810.755	4449.95
811.085	4446.34
811.414	4381.48
811.744	4360.69
812.073	4419.22
812.403	4379.67
812.732	4374.7
813.061	4380.8
813.39	4345.55
813.719	4345.32
814.049	4363.85
814.378	4334.48
814.707	4323.63
815.036	4327.47
815.365	4288.6
815.693	4223.97
816.022	4305.55
816.351	4264.65
816.68	4242.05
817.008	4245.89
817.337	4194.14
817.665	4207.25
817.994	4188.27
818.322	4228.94
818.651	4174.25
818.979	4153.46
819.307	4173.58
819.636	4147.36
819.964	4193.46
820.292	4198.43
820.62	4151.66
820.948	4169.96
821.276	4164.31
821.604	4147.59
821.932	4170.86
822.259	4194.14
822.587	4130.41
822.915	4087.03
823.243	4115.5
823.57	4098.1
823.898	4156.85
824.225	4158.66
824.553	4113.47
824.88	4150.98
825.207	4122.28
825.535	4124.31
825.862	4095.39
826.189	4140.13
826.516	4098.32
826.843	4179.23
827.17	4163.86
827.497	4117.98
827.824	4155.72
828.151	4117.53
828.478	4125.89
828.805	4188.49
829.131	4129.28
829.458	4142.39
829.785	4119.34
830.111	4158.89
830.438	4132.9
830.764	4107.36
831.09	4122.73
831.417	4129.96
831.743	4082.73
832.069	4146.91
832.395	4062.62
832.722	4159.57
833.048	4084.09
833.374	4149.4
833.7	4084.77
834.026	4073.01
834.351	4078.44
834.677	4108.27
835.003	4087.25
835.329	4076.18
835.654	4041.83
835.98	4051.77
836.306	4075.95
836.631	4066.23
836.956	4068.27
837.282	4091.09
837.607	4039.79
837.932	4009.29
838.258	3997.31
838.583	4021.49
838.908	4021.94
839.233	3997.54
839.558	4032.56
839.883	4028.95
840.208	3990.53
840.533	3949.85
840.858	3970.42
841.182	3984.43
841.507	3930.42
841.832	3958.89
842.156	3961.38
842.481	3927.26
842.805	3918.67
843.13	3950.08
843.454	3930.19
843.778	3933.58
844.103	3920.7
844.427	3903.98
844.751	3889.97
845.075	3863.3
845.399	3841.61
845.723	3848.84
846.047	3845.9
846.371	3828.5
846.695	3817.65
847.019	3820.82
847.343	3835.28
847.666	3790.31
847.99	3753.93
848.313	3719.58
848.637	3713.02
848.96	3730.42
849.284	3718.45
849.607	3681.84
849.931	3706.7
850.254	3619.92
850.577	3647.71
850.9	3608.17
851.223	3594.16
851.546	3586.47
851.869	3550.54
852.192	3572.91
852.515	3562.97
852.838	3581.05
853.161	3577.21
853.483	3528.17
853.806	3514.16
854.129	3502.18
854.451	3489.3
854.774	3470.54
855.096	3459.47
855.419	3470.32
855.741	3448.62
856.063	3458.12
856.385	3453.37
856.708	3430.55
857.03	3403.65
857.352	3412.92
857.674	3408.63
857.996	3379.02
858.318	3402.07
858.64	3388.29
858.961	3357.1
859.283	3354.16
859.605	3332.92
859.926	3351.68
860.248	3320.04
860.57	3275.52
860.891	3342.41
861.212	3311.68
861.534	3277.33
861.855	3314.16
862.176	3314.62
862.498	3282.3
862.819	3265.35
863.14	3261.96
863.461	3279.81
863.782	3318.91
864.103	3312.81
864.424	3226.48
864.745	3245.01
865.065	3232.81
865.386	3222.19
865.707	3204.56
866.027	3250.44
866.348	3215.41
866.668	3201.62
866.989	3180.61
867.309	3189.87
867.63	3183.32
867.95	3165.47
868.27	3164.56
868.59	3177.9
868.91	3201.17
869.23	3152.36
869.55	3171.12
869.87	3216.77
870.19	3151
870.51	3193.94
870.83	3152.36
871.15	3153.26
871.469	3134.96
871.789	3185.81
872.109	3150.78
872.428	3142.42
872.748	3097.67
873.067	3124.11
873.386	3092.93
873.706	3107.62
874.025	3104.9
874.344	3140.61
874.663	3133.83
874.982	3082.31
875.301	3091.57
875.62	3110.55
875.939	3059.93
876.258	3092.02
876.577	3082.53
876.896	3091.35
877.214	3026.94
877.533	3048.86
877.852	3041.63
878.17	3059.93
878.489	3079.59
878.807	3068.52
879.125	3038.92
879.444	3045.24
879.762	3052.25
880.08	2983.55
880.398	3042.98
880.716	2999.37
881.034	3009.54
881.352	3005.02
881.67	3017.45
881.988	2998.47
882.306	2961.18
882.624	2992.82
882.941	2967.96
883.259	2989.88
883.577	2940.61
883.894	2950.78
884.212	2929.77
884.529	2920.05
884.846	2937.45
885.164	2895.87
885.481	2924.34
885.798	2912.37
886.115	2896.1
886.432	2913.5
886.75	2883.67
887.067	2906.04
887.383	2894.06
887.7	2848.41
888.017	2863.1
888.334	2832.6
888.651	2837.11
888.967	2847.28
889.284	2834.4
889.6	2846.83
889.917	2802.99
890.233	2847.74
890.55	2771.81
890.866	2814.52
891.182	2827.17
891.498	2787.17
891.815	2784.91
892.131	2741.3
892.447	2755.99
892.763	2772.71
893.079	2753.28
893.395	2745.37
893.71	2740.17
894.026	2746.27
894.342	2727.74
894.657	2710.11
894.973	2719.6
895.289	2723.67
895.604	2692.94
895.92	2681.64
896.235	2682.09
896.55	2704.46
896.865	2724.12
897.181	2649.32
897.496	2658.59
897.811	2675.54
898.126	2607.74
898.441	2632.37
898.756	2630.34
899.071	2596.22
899.386	2590.34
899.7	2576.78
900.015	2585.6
900.33	2570.23
900.644	2579.04
900.959	2582.43
901.273	2571.36
901.588	2547.63
901.902	2542.43
902.216	2543.34
902.531	2522.09
902.845	2533.39
903.159	2537.46
903.473	2515.99
903.787	2479.16
904.101	2475.32
904.415	2487.97
904.729	2501.53
905.042	2475.99
905.356	2458.82
905.67	2418.59
905.984	2432.38
906.297	2433.51
906.611	2403.91
906.924	2446.39
907.237	2402.1
907.551	2403.23
907.864	2403.68
908.177	2388.09
908.491	2386.28
908.804	2385.83
909.117	2330.91
909.43	2351.48
909.743	2326.39
910.056	2314.19
910.368	2363.23
910.681	2314.64
910.994	2309.44
911.307	2311.48
911.619	2285.94
911.932	2277.81
912.244	2252.05
912.557	2262.89
912.869	2243.91
913.181	2226.06
913.494	2247.53
913.806	2246.4
914.118	2240.29
914.43	2232.16
914.742	2232.16
915.054	2212.05
915.366	2186.96
915.678	2158.04
915.99	2166.62
916.302	2169.56
916.613	2147.64
916.925	2165.95
917.236	2123.91
917.548	2129.79
917.859	2129.11
918.171	2097.47
918.482	2120.07
918.794	2072.84
919.105	2101.54
919.416	2099.96
919.727	2069.23
920.038	2104.7
920.349	2072.84
920.66	2065.84
920.971	2053.18
921.282	2052.95
921.593	2017.02
921.903	2048.21
922.214	2031.26
922.525	2005.95
922.835	1993.97
923.146	1984.48
923.456	2019.51
923.767	1981.77
924.077	1998.27
924.387	1956.91
924.697	1982.67
925.008	1961.43
925.318	1972.28
925.628	1949.68
925.938	1916.91
926.248	1932.05
926.558	1940.87
926.867	1897.03
927.177	1877.14
927.487	1918.04
927.796	1892.05
928.106	1886.63
928.416	1903.81
928.725	1873.07
929.034	1870.36
929.344	1882.34
929.653	1854.99
929.962	1860.64
930.271	1838.72
930.581	1856.35
930.89	1829.01
931.199	1821.32
931.508	1836.46
931.817	1816.8
932.125	1763.24
932.434	1798.05
932.743	1754.88
933.051	1776.8
933.36	1771.15
933.669	1783.13
933.977	1789.23
934.286	1739.52
934.594	1775.9
934.902	1740.65
935.21	1731.83
935.519	1758.27
935.827	1713.53
936.135	1732.28
936.443	1717.14
936.751	1718.73
937.059	1705.17
937.367	1689.12
937.674	1693.19
937.982	1712.85
938.29	1683.7
938.597	1674.66
938.905	1673.98
939.213	1635.34
939.52	1628.11
939.827	1698.16
940.135	1659.52
940.442	1626.53
940.749	1614.77
941.056	1650.25
941.363	1615.45
941.67	1611.61
941.977	1597.37
942.284	1591.95
942.591	1591.95
942.898	1578.39
943.205	1571.61
943.511	1562.35
943.818	1568.9
944.125	1558.05
944.431	1570.03
944.738	1577.03
945.044	1559.86
945.35	1555.34
945.657	1556.24
945.963	1562.57
946.269	1502.01
946.575	1540.65
946.881	1500.43
947.187	1523.02
947.493	1517.15
947.799	1516.7
948.105	1499.97
948.41	1504.27
948.716	1496.13
949.022	1472.18
949.327	1483.25
949.633	1482.57
949.938	1440.99
950.244	1467.89
950.549	1446.42
950.854	1460.43
951.16	1458.62
951.465	1435.57
951.77	1459.07
952.075	1448.45
952.38	1405.29
952.685	1410.71
952.99	1383.14
953.294	1420.43
953.599	1412.75
953.904	1430.82
954.209	1405.74
954.513	1378.62
954.818	1386.76
955.122	1370.71
955.426	1401.45
955.731	1375.68
956.035	1358.51
956.339	1354.67
956.643	1384.95
956.948	1361.9
957.252	1352.41
957.556	1344.72
957.86	1332.3
958.163	1302.24
958.467	1309.47
958.771	1297.04
959.075	1332.07
959.378	1303.6
959.682	1292.52
959.985	1290.71
960.289	1304.27
960.592	1326.87
960.896	1286.65
961.199	1273.09
961.502	1295.69
961.805	1284.39
962.108	1241
962.411	1235.12
962.714	1224.5
963.017	1251.85
963.32	1273.09
963.623	1259.98
963.926	1230.38
964.228	1263.37
964.531	1236.93
964.833	1244.39
965.136	1259.76
965.438	1211.39
965.741	1191.06
966.043	1226.31
966.345	1224.95
966.648	1222.47
966.95	1222.47
967.252	1180.66
967.554	1195.58
967.856	1210.04
968.158	1186.54
968.46	1196.48
968.761	1195.12
969.063	1191.06
969.365	1185.86
969.666	1144.05
969.968	1169.81
970.269	1167.33
970.571	1151.51
970.872	1138.4
971.174	1118.74
971.475	1161.23
971.776	1116.03
972.077	1112.64
972.378	1131.4
972.679	1135.01
972.98	1116.48
973.281	1112.19
973.582	1102.25
973.883	1113.32
974.183	1131.17
974.484	1126.65
974.785	1085.75
975.085	1103.37
975.386	1103.83
975.686	1083.94
975.986	1069.25
976.287	1060.44
976.587	1061.79
976.887	1084.84
977.187	1078.74
977.487	1056.14
977.787	1052.98
978.087	1057.05
978.387	1043.49
978.687	1052.98
978.987	1044.17
979.286	1032.42
979.586	1024.05
979.885	1037.61
980.185	1034
980.484	1029.25
980.784	1037.39
981.083	1036.03
981.382	998.97
981.682	1027.67
981.981	1014.56
982.28	1012.08
982.579	1013.21
982.878	1013.89
983.177	1015.69
983.475	1026.31
983.774	1011.85
984.073	1007.78
984.372	993.32
984.67	988.58
984.969	982.25
985.267	960.1
985.566	954.45
985.864	991.51
986.162	960.1
986.461	959.42
986.759	958.52
987.057	963.94
987.355	959.42
987.653	981.57
987.951	945.19
988.249	957.16
988.547	941.35
988.844	923.49
989.142	964.17
989.44	939.54
989.737	914
990.035	901.35
990.332	923.27
990.63	918.3
990.927	908.58
991.224	908.35
991.521	917.84
991.819	911.97
992.116	910.61
992.413	892.08
992.71	874.68
993.006	903.15
993.303	875.13
993.6	892.53
993.897	859.77
994.193	888.69
994.49	864.96
994.787	875.58
995.083	885.08
995.379	859.77
995.676	862.7
995.972	848.92
996.268	880.56
996.565	839.88
996.861	840.78
997.157	852.76
997.453	848.47
997.749	840.33
998.044	847.56
998.34	856.38
998.636	839.88
998.932	818.64
999.227	810.28
999.523	814.79
999.818	806.66
1000.114	793.55
1000.409	800.56
1000.704	834.46
1001	804.17
1001.295	800.56
1001.59	821.35
1001.885	798.52
1002.18	818.41
1002.475	808.24
1002.77	794.23
1003.065	784.97
1003.359	787.9
1003.654	783.16
1003.949	788.35
1004.243	791.97
1004.538	791.29
1004.832	755.14
1005.127	758.53
1005.421	765.3
1005.715	754.91
1006.009	762.37
1006.304	757.85
1006.598	787.45
1006.892	742.93
1007.186	743.84
1007.48	761.91
1007.773	745.87
1008.067	740.45
1008.361	729.37
1008.655	742.48
1008.948	732.31
1009.242	718.53
1009.535	730.5
1009.829	707
1010.122	715.81
1010.415	708.13
1010.708	708.36
1011.001	702.48
1011.295	706.32
1011.588	690.73
1011.881	698.19
1012.173	702.26
1012.466	701.8
1012.759	683.72
1013.052	700.22
1013.344	698.41
1013.637	668.13
1013.93	702.71
1014.222	667.45
1014.514	664.74
1014.807	682.6
1015.099	677.4
1015.391	659.09
1015.683	670.39
1015.976	659.77
1016.268	669.94
1016.56	658.19
1016.851	642.14
1017.143	658.19
1017.435	615.03
1017.727	651.86
1018.018	633.78
1018.31	657.06
1018.602	662.71
1018.893	647.57
1019.185	631.97
1019.476	630.39
1019.767	619.09
1020.058	635.82
1020.35	629.04
1020.641	638.08
1020.932	629.04
1021.223	628.59
1021.514	612.09
1021.804	607.79
1022.095	604.86
1022.386	608.92
1022.677	617.96
1022.967	603.95
1023.258	609.38
1023.548	601.24
1023.839	605.53
1024.129	587
1024.419	602.6
1024.709	576.38
1025	589.49
1025.29	575.71
1025.58	592.43
1025.87	584.29
1026.16	588.59
1026.449	597.4
1026.739	582.26
1027.029	562.37
1027.319	567.34
1027.608	570.96
1027.898	566.21
1028.187	558.3
1028.477	552.2
1028.766	571.41
1029.055	548.14
1029.344	561.02
1029.634	557.85
1029.923	539.32
1030.212	546.78
1030.501	550.85
1030.79	535.25
1031.078	530.96
1031.367	534.58
1031.656	555.37
1031.945	521.02
1032.233	520.11
1032.522	541.36
1032.81	536.61
1033.099	542.71
1033.387	510.85
1033.675	540
1033.963	508.59
1034.251	514.69
1034.54	523.5
1034.828	519.66
1035.116	510.62
1035.403	518.76
1035.691	491.64
1035.979	493.22
1036.267	491.19
1036.554	507.01
1036.842	485.31
1037.129	512.2
1037.417	483.73
1037.704	493.22
1037.992	480.34
1038.279	488.7
1038.566	491.87
1038.853	491.87
1039.14	491.87
