Data from mousepad_grey_FLMS001491_00043.txt Node
Date: Wed Feb 08 14:29:29 GMT 2017
User: dcchb
Spectrometer: FLMS00149
Trigger mode: 0
Integration Time (sec): 2.000000E-2
Scans to average: 10
Electric dark correction enabled: true
Nonlinearity correction enabled: false
Boxcar width: 0
XAxis mode: Wavelengths
Number of Pixels in Spectrum: 2048
>>>>>Begin Spectral Data<<<<<
341.393	-5.65
341.776	-5.65
342.16	-5.65
342.543	-72.31
342.927	-79.55
343.31	-68.92
343.693	-93.56
344.077	-70.05
344.46	-64.86
344.843	-36.16
345.226	-44.07
345.61	-22.6
345.993	-10.17
346.376	-4.07
346.759	5.88
347.142	38.87
347.525	29.15
347.908	76.61
348.291	66.66
348.674	85.42
349.057	111.86
349.44	135.82
349.823	143.95
350.206	168.13
350.588	185.76
350.971	187.79
351.354	201.58
351.737	220.11
352.119	244.51
352.502	237.73
352.884	258.98
353.267	250.39
353.65	287.68
354.032	290.39
354.414	293.1
354.797	297.17
355.179	277.51
355.562	307.56
355.944	294.91
356.326	324.74
356.709	314.79
357.091	331.97
357.473	315.47
357.855	305.08
358.238	304.85
358.62	322.03
359.002	331.06
359.384	336.26
359.766	311.86
360.148	312.31
360.53	321.57
360.912	312.31
361.294	332.65
361.676	325.87
362.057	313.89
362.439	311.18
362.821	294.46
363.203	304.17
363.584	327.9
363.966	294.68
364.348	286.55
364.729	313.44
365.111	303.72
365.493	296.94
365.874	294
366.256	295.36
366.637	306.43
367.019	295.81
367.4	294
367.781	296.72
368.163	293.55
368.544	287.68
368.925	285.42
369.306	286.09
369.688	301.46
370.069	285.87
370.45	299.88
370.831	295.81
371.212	308.01
371.593	300.33
371.974	287.45
372.355	293.55
372.736	298.3
373.117	308.69
373.498	306.88
373.879	310.05
374.26	287.9
374.641	298.52
375.021	308.69
375.402	300.56
375.783	296.49
376.163	312.99
376.544	289.26
376.925	320.9
377.305	315.02
377.686	317.51
378.066	310.27
378.447	294.23
378.827	320.22
379.208	309.82
379.588	317.73
379.968	315.92
380.349	308.01
380.729	300.56
381.109	317.96
381.489	324.06
381.87	326.09
382.25	332.19
382.63	341.69
383.01	318.41
383.39	342.14
383.77	324.96
384.15	315.7
384.53	292.65
384.91	330.84
385.29	343.49
385.67	330.61
386.049	327.9
386.429	324.74
386.809	324.96
387.189	338.97
387.568	321.8
387.948	346.21
388.328	322.93
388.707	329.48
389.087	350.27
389.466	331.97
389.846	351.4
390.225	350.95
390.605	359.99
390.984	347.11
391.363	343.04
391.743	332.19
392.122	360.22
392.501	348.47
392.881	350.5
393.26	356.6
393.639	339.2
394.018	350.27
394.397	350.95
394.776	360.89
395.155	348.24
395.534	382.59
395.913	379.43
396.292	367.9
396.671	342.36
397.05	360.67
397.429	345.75
397.808	368.35
398.186	388.92
398.565	366.77
398.944	374.68
399.323	383.49
399.701	378.52
400.08	374.91
400.458	389.59
400.837	378.75
401.215	353.66
401.594	385.07
401.972	377.17
402.351	378.52
402.729	398.86
403.107	383.27
403.486	415.58
403.864	414
404.242	400.44
404.62	408.8
404.999	405.41
405.377	393.89
405.755	416.26
406.133	393.89
406.511	395.24
406.889	426.88
407.267	398.63
407.645	429.82
408.023	434.34
408.401	430.95
408.779	423.27
409.156	446.77
409.534	444.28
409.912	442.93
410.29	462.13
410.667	463.26
411.045	475.24
411.422	461.68
411.8	459.2
412.178	458.07
412.555	452.87
412.933	458.75
413.31	455.13
413.687	466.2
414.065	482.47
414.442	481.12
414.819	476.82
415.197	466.2
415.574	488.8
415.951	490.61
416.328	489.25
416.705	482.93
417.082	483.38
417.46	484.28
417.837	513.66
418.214	496.94
418.591	509.82
418.967	517.5
419.344	497.39
419.721	541
420.098	506.65
420.475	536.48
420.852	520.89
421.228	512.98
421.605	515.92
421.982	548.01
422.358	531.74
422.735	546.65
423.111	547.56
423.488	556.82
423.864	541
424.241	562.47
424.617	541
424.994	569.02
425.37	543.71
425.746	581.23
426.123	577.61
426.499	577.16
426.875	585.52
427.251	621.68
427.627	588.46
428.003	578.06
428.379	596.14
428.756	591.4
429.132	623.49
429.507	606.99
429.883	611.28
430.259	641.79
430.635	629.81
431.011	636.37
431.387	638.63
431.763	633.43
432.138	647.44
432.514	663.94
432.89	666.2
433.265	665.29
433.641	673.2
434.016	662.13
434.392	688.34
434.767	677.04
435.143	683.6
435.518	696.25
435.894	693.32
436.269	701.68
436.644	705.74
437.02	722.92
437.395	719.76
437.77	748.91
438.145	742.58
438.52	725.18
438.895	745.52
439.271	743.71
439.646	760.66
440.021	771.05
440.395	722.92
440.77	759.3
441.145	777.15
441.52	789.36
441.895	772.64
442.27	783.26
442.645	795.46
443.019	811.05
443.394	784.39
443.769	818.74
444.143	830.71
444.518	815.8
444.892	816.7
445.267	819.64
445.641	809.47
446.016	805.63
446.39	832.75
446.764	832.97
447.139	838.17
447.513	861.22
447.887	853.08
448.262	848.57
448.636	839.3
449.01	853.76
449.384	857.6
449.758	862.8
450.132	882.91
450.506	872.52
450.88	895.57
451.254	882.69
451.628	910.94
452.002	892.41
452.376	903.25
452.75	952.07
453.123	951.16
453.497	950.71
453.871	934.66
454.244	966.53
454.618	988
454.992	970.82
455.365	981.67
455.739	1010.14
456.112	1028.45
456.486	1023.7
456.859	1021.67
457.232	1044.27
457.606	1020.99
457.979	1043.59
458.352	1100.76
458.725	1058.96
459.099	1084.04
459.472	1075.9
459.845	1090.14
460.218	1103.7
460.591	1124.26
460.964	1129.46
461.337	1141.66
461.71	1148.44
462.083	1163.13
462.456	1138.5
462.829	1159.52
463.201	1207.2
463.574	1198.84
463.947	1226.18
464.32	1223.7
464.692	1209.46
465.065	1249.46
465.438	1273.64
465.81	1271.83
466.183	1258.05
466.555	1311.6
466.928	1318.38
467.3	1333.98
467.672	1325.16
468.045	1380.3
468.417	1358.83
468.789	1362.68
469.161	1390.7
469.534	1425.95
469.906	1439.74
470.278	1438.83
470.65	1440.87
471.022	1471.83
471.394	1509.79
471.766	1500.3
472.138	1514.76
472.51	1554.08
472.882	1550.92
473.253	1557.7
473.625	1596.12
473.997	1637.47
474.369	1633.86
474.74	1646.06
475.112	1671.82
475.484	1703.91
475.855	1721.54
476.227	1764.02
476.598	1760.41
476.97	1773.06
477.341	1813.29
477.713	1861.42
478.084	1855.09
478.455	1894.87
478.827	1902.77
479.198	1956.11
479.569	2003.56
479.94	2003.34
480.311	2023.45
480.682	2025.71
481.053	2070.91
481.424	2102.09
481.795	2134.18
482.166	2132.15
482.537	2174.63
482.908	2254.63
483.279	2261.64
483.65	2255.31
484.021	2353.38
484.391	2335.76
484.762	2393.16
485.133	2377.34
485.503	2442.87
485.874	2466.15
486.244	2469.31
486.615	2537.11
486.985	2538.01
487.356	2578.24
487.726	2626.15
488.097	2611.68
488.467	2634.96
488.837	2692.81
489.207	2734.62
489.578	2763.32
489.948	2751.57
490.318	2820.94
490.688	2844.9
491.058	2862.07
491.428	2916.31
491.798	2924.89
492.168	2987.72
492.538	2994.27
492.908	3030.88
493.278	3081.5
493.648	3067.49
494.017	3092.57
494.387	3163.98
494.757	3154.04
495.126	3202.63
495.496	3163.76
495.866	3219.35
496.235	3258.22
496.605	3286.02
496.974	3295.51
497.344	3324.21
497.713	3357.2
498.082	3384.77
498.452	3390.65
498.821	3406.69
499.19	3412.57
499.559	3439.46
499.928	3486.46
500.298	3499.12
500.667	3562.17
501.036	3559.91
501.405	3547.7
501.774	3550.64
502.143	3585.22
502.512	3643.52
502.88	3630.41
503.249	3664.31
503.618	3703.63
503.987	3733.46
504.356	3668.6
504.724	3777.75
505.093	3832.89
505.462	3775.27
505.83	3851.88
506.199	3834.7
506.567	3879.67
506.936	3883.51
507.304	3907.02
507.672	3918.99
508.041	3943.17
508.409	3992.44
508.777	4011.87
509.145	4010.97
509.514	4010.06
509.882	4071.53
510.25	4085.77
510.618	4156.27
510.986	4115.37
511.354	4137.29
511.722	4213.67
512.09	4187.91
512.458	4217.52
512.826	4268.36
513.193	4293.67
513.561	4316.72
513.929	4323.5
514.297	4394.91
514.664	4394.01
515.032	4421.58
515.4	4446.44
515.767	4473.1
516.135	4475.36
516.502	4470.84
516.869	4530.28
517.237	4610.05
517.604	4562.14
517.972	4632.19
518.339	4669.93
518.706	4677.17
519.073	4702.25
519.44	4728.46
519.808	4768.24
520.175	4783.38
520.542	4837.61
520.909	4843.26
521.276	4850.95
521.643	4906.31
522.009	4904.73
522.376	4962.13
522.743	4967.55
523.11	5062.47
523.477	5062.47
523.843	5067.89
524.21	5175.46
524.577	5175.46
524.943	5196.93
525.31	5210.71
525.676	5279.41
526.043	5313.08
526.409	5351.5
526.776	5351.05
527.142	5403.7
527.508	5451.83
527.874	5480.76
528.241	5472.17
528.607	5528.67
528.973	5578.61
529.339	5571.6
529.705	5592.17
530.071	5701.55
530.437	5724.14
530.803	5724.82
531.169	5767.98
531.535	5771.6
531.901	5803.69
532.267	5816.34
532.632	5863.8
532.998	5870.35
533.364	5919.39
533.73	5910.81
534.095	6046.85
534.461	6011.37
534.826	6056.11
535.192	6019.05
535.557	6069.44
535.923	6089.33
536.288	6078.71
536.653	6153.96
537.019	6155.09
537.384	6150.8
537.749	6201.19
538.114	6262.43
538.479	6261.76
538.845	6262.66
539.21	6305.82
539.575	6370
539.94	6388.31
540.305	6432.83
540.67	6447.74
541.034	6480.06
541.399	6496.1
541.764	6534.07
542.129	6518.92
542.494	6562.77
542.858	6574.52
543.223	6589.43
543.587	6616.1
543.952	6638.7
544.316	6683.21
544.681	6661.07
545.045	6696.1
545.41	6748.52
545.774	6805.47
546.138	6771.12
546.503	6765.25
546.867	6795.3
547.231	6862.64
547.595	6913.94
547.959	6972.02
548.324	6929.99
548.688	6988.74
549.052	7029.87
549.416	7037.56
549.779	7066.48
550.143	7110.32
550.507	7111.45
550.871	7099.25
551.235	7163.2
551.599	7235.06
551.962	7237.32
552.326	7256.08
552.689	7242.07
553.053	7258.11
553.417	7271.45
553.78	7420.14
554.143	7326.81
554.507	7390.54
554.87	7365.46
555.234	7512.8
555.597	7483.19
555.96	7475.96
556.323	7505.79
556.686	7571.1
557.05	7612.91
557.413	7587.15
557.776	7626.92
558.139	7707.37
558.502	7759.12
558.865	7755.5
559.228	7795.05
559.59	7764.54
559.953	7857.65
560.316	7908.72
560.679	7896.06
561.041	7950.98
561.404	7990.3
561.767	8014.7
562.129	8018.77
562.492	8125.21
562.854	8116.4
563.217	8066.45
563.579	8166.11
563.941	8185.77
564.304	8287.47
564.666	8311.87
565.028	8322.94
565.39	8316.17
565.753	8377.86
566.115	8430.51
566.477	8381.02
566.839	8503.05
567.201	8495.6
567.563	8537.63
567.925	8552.09
568.287	8607.01
568.648	8605.42
569.01	8685.65
569.372	8792.31
569.734	8708.7
570.095	8717.06
570.457	8754.35
570.819	8827.79
571.18	8752.99
571.542	8923.83
571.903	8909.37
572.265	8921.8
572.626	8941.01
572.987	8953.66
573.349	9013.77
573.71	9069.14
574.071	9069.59
574.432	9052.64
574.794	9162.7
575.155	9161.34
575.516	9103.26
575.877	9176.03
576.238	9201.34
576.599	9228.68
576.96	9219.42
577.32	9291.51
577.681	9301.22
578.042	9336.93
578.403	9326.76
578.763	9325.63
579.124	9377.61
579.485	9352.07
579.845	9444.05
580.206	9382.58
580.566	9403.59
580.927	9437.04
581.287	9447.21
581.648	9406.53
582.008	9473.88
582.368	9446.08
582.728	9461.45
583.089	9480.43
583.449	9498.51
583.809	9465.29
584.169	9495.12
584.529	9484.27
584.889	9559.07
585.249	9477.49
585.609	9506.87
585.969	9521.56
586.329	9464.61
586.688	9569.01
587.048	9476.81
587.408	9445.18
587.768	9506.64
588.127	9496.25
588.487	9525.63
588.846	9574.21
589.206	9507.09
589.565	9538.05
589.925	9579.64
590.284	9590.48
590.643	9534.44
591.003	9614.44
591.362	9545.96
591.721	9610.82
592.08	9577.38
592.44	9610.37
592.799	9560.65
593.158	9570.37
593.517	9636.36
593.876	9652.18
594.235	9627.54
594.593	9645.17
594.952	9631.84
595.311	9565.4
595.67	9620.09
596.029	9588
596.387	9658.5
596.746	9717.48
597.104	9622.35
597.463	9614.89
597.822	9675.23
598.18	9619.41
598.538	9625.51
598.897	9688.78
599.255	9661.44
599.613	9694.21
599.972	9764.72
600.33	9691.72
600.688	9703.7
601.046	9661.89
601.404	9743.25
601.762	9693.08
602.12	9763.13
602.478	9737.82
602.836	9796.35
603.194	9733.76
603.552	9741.44
603.91	9685.62
604.268	9791.38
604.625	9705.28
604.983	9786.41
605.341	9776.69
605.698	9772.17
606.056	9808.78
606.413	9798.39
606.771	9877.25
607.128	9784.15
607.485	9834.32
607.843	9771.04
608.2	9837.03
608.557	9879.06
608.914	9856.69
609.272	9854.66
609.629	9872.51
609.986	9973.98
610.343	9884.49
610.7	9921.32
611.057	9874.54
611.414	9910.7
611.771	9904.82
612.127	9971.04
612.484	9924.26
612.841	9997.48
613.198	9901.43
613.554	9947.31
613.911	10009
614.267	9996.12
614.624	9969.68
614.98	10042
615.337	10040.19
615.693	10056.23
616.05	10025.95
616.406	10076.12
616.762	10060.07
617.118	10078.83
617.475	10029.34
617.831	10067.31
618.187	10077.93
618.543	10110.92
618.899	10154.31
619.255	10154.76
619.611	10076.35
619.967	10097.14
620.323	10163.8
620.678	10171.48
621.034	10108.66
621.39	10162.44
621.746	10145.5
622.101	10215.55
622.457	10204.25
622.812	10171.03
623.168	10190.24
623.523	10139.17
623.879	10230.47
624.234	10130.58
624.589	10188.43
624.945	10208.09
625.3	10231.82
625.655	10217.58
626.01	10199.05
626.365	10222.33
626.72	10253.97
627.075	10151.15
627.43	10172.16
627.785	10218.26
628.14	10158.83
628.495	10203.35
628.85	10222.33
629.205	10147.53
629.559	10219.17
629.914	10196.57
630.269	10210.13
630.623	10149.56
630.978	10167.42
631.332	10208.09
631.687	10173.52
632.041	10152.5
632.396	10261.43
632.75	10146.85
633.104	10151.6
633.459	10089.9
633.813	10163.8
634.167	10100.07
634.521	10076.8
634.875	10132.61
635.229	10100.07
635.583	10035.89
635.937	10064.82
636.291	10046.29
636.645	10064.37
636.999	9999.74
637.352	10064.82
637.706	10022.79
638.06	10044.71
638.413	10029.11
638.767	9934.88
639.121	10034.31
639.474	9913.41
639.828	10047.19
640.181	9959.06
640.534	9931.04
640.888	9913.41
641.241	9882.45
641.594	9923.58
641.947	9952.28
642.301	9912.51
642.654	9893.07
643.007	9928.33
643.36	9911.38
643.713	9902.56
644.066	9939.63
644.419	9847.88
644.771	9854.2
645.124	9828.89
645.477	9763.81
645.83	9718.39
646.182	9652.63
646.535	9633.42
646.888	9632.74
647.24	9598.84
647.593	9753.64
647.945	9613.98
648.298	9601.1
648.65	9524.72
649.002	9511.39
649.355	9667.32
649.707	9527.89
650.059	9653.31
650.411	9783.92
650.763	9691.04
651.115	9932.62
651.467	9809.46
651.819	9789.12
652.171	9794.77
652.523	9776.47
652.875	9758.84
653.227	9691.5
653.578	9780.31
653.93	9889.01
654.282	9757.71
654.633	9744.15
654.985	9829.35
655.337	9749.35
655.688	9778.95
656.039	9823.92
656.391	9783.92
656.742	9753.87
657.094	9780.76
657.445	9827.99
657.796	9771.49
658.147	9812.62
658.498	9824.37
658.849	9800.87
659.2	9703.93
659.551	9753.42
659.902	9743.02
660.253	9774.66
660.604	9771.04
660.955	9751.83
661.306	9773.53
661.656	9826.18
662.007	9743.7
662.358	9793.19
662.708	9745.28
663.059	9782.57
663.409	9755.22
663.76	9855.56
664.11	9776.24
664.461	9786.64
664.811	9746.41
665.161	9807.88
665.511	9687.88
665.862	9788.44
666.212	9709.12
666.562	9797.26
666.912	9742.79
667.262	9726.3
667.612	9719.52
667.962	9768.56
668.312	9718.16
668.662	9733.3
669.011	9696.69
669.361	9713.19
669.711	9715.45
670.06	9698.95
670.41	9649.46
670.76	9713.19
671.109	9656.7
671.459	9754.32
671.808	9674.77
672.157	9678.16
672.507	9702.57
672.856	9675.68
673.205	9683.14
673.554	9682.91
673.904	9662.34
674.253	9675.68
674.602	9657.6
674.951	9492.63
675.3	9465.06
675.649	9644.94
675.998	9550.03
676.346	9615.79
676.695	9663.47
677.044	9517.49
677.393	9552.52
677.741	9586.64
678.09	9562.23
678.438	9550.94
678.787	9531.73
679.135	9470.03
679.484	9505.29
679.832	9593.65
680.181	9456.7
680.529	9477.72
680.877	9479.52
681.225	9458.96
681.573	9477.04
681.922	9438.62
682.27	9426.64
682.618	9409.24
682.966	9378.74
683.314	9457.38
683.661	9386.87
684.009	9288.57
684.357	9388.23
684.705	9295.57
685.053	9281.11
685.4	9285.18
685.748	9216.48
686.095	9251.51
686.443	9191.85
686.79	9140.55
687.138	9145.97
687.485	9207.89
687.832	9155.24
688.18	9177.61
688.527	9065.75
688.874	9024.4
689.221	9066.2
689.568	9005.64
689.915	9022.81
690.262	9026.2
690.609	8931.97
690.956	8982.36
691.303	8926.54
691.65	8903.04
691.997	8888.81
692.344	8887.45
692.69	8881.8
693.037	8834.57
693.383	8755.48
693.73	8731.75
694.077	8739.88
694.423	8675.93
694.769	8693.78
695.116	8673.9
695.462	8652.65
695.808	8686.78
696.155	8643.61
696.501	8605.2
696.847	8541.92
697.193	8506.44
697.539	8459.66
697.885	8426.67
698.231	8427.35
698.577	8415.82
698.923	8368.37
699.269	8379.44
699.614	8325.2
699.96	8344.41
700.306	8311.19
700.651	8249.73
700.997	8271.42
701.342	8233.46
701.688	8232.33
702.033	8173.34
702.379	8149.39
702.724	8142.16
703.069	8175.83
703.415	8075.95
703.76	8002.05
704.105	8080.69
704.45	8018.09
704.795	7924.99
705.14	7952.79
705.485	7936.06
705.83	7941.49
706.175	7867.36
706.52	7904.42
706.865	7841.15
707.209	7900.58
707.554	7768.84
707.899	7828.49
708.243	7758.89
708.588	7749.17
708.932	7726.35
709.277	7750.53
709.621	7765.22
709.966	7654.94
710.31	7669.18
710.654	7614.49
710.998	7647.48
711.342	7584.89
711.687	7611.78
712.031	7607.48
712.375	7491.55
712.719	7583.08
713.063	7548.5
713.407	7549.41
713.75	7525.68
714.094	7527.94
714.438	7491.78
714.782	7522.29
715.125	7442.52
715.469	7492.68
715.812	7422.4
716.156	7392.12
716.499	7442.06
716.843	7417.43
717.186	7401.16
717.53	7478.22
717.873	7501.72
718.216	7365.91
718.559	7363.65
718.902	7368.62
719.246	7378.34
719.589	7304.89
719.932	7314.38
720.275	7312.58
720.617	7328.85
720.96	7271.67
721.303	7277.1
721.646	7329.75
721.989	7309.41
722.331	7305.8
722.674	7235.97
723.016	7213.37
723.359	7249.07
723.701	7294.95
724.044	7237.78
724.386	7236.87
724.729	7251.33
725.071	7189.42
725.413	7260.6
725.755	7139.7
726.097	7232.58
726.439	7116.42
726.782	7151.68
727.124	7184.9
727.465	7177.21
727.807	7168.85
728.149	7130.66
728.491	7152.58
728.833	7196.42
729.175	7138.8
729.516	7131.79
729.858	7168.85
730.199	7153.94
730.541	7163.43
730.882	7096.99
731.224	7143.99
731.565	7125.69
731.906	7107.61
732.248	7165.69
732.589	7093.15
732.93	7123.2
733.271	7141.51
733.612	7106.93
733.953	7161.85
734.294	7103.77
734.635	7087.05
734.976	7137.67
735.317	7097.21
735.658	7084.56
735.999	7143.99
736.339	7058.35
736.68	7097.67
737.021	7090.89
737.361	7128.4
737.702	7096.99
738.042	7089.98
738.383	7089.53
738.723	7098.57
739.063	7110.1
739.404	7059.02
739.744	7061.51
740.084	7003.21
740.424	7093.82
740.764	7064.45
741.104	7122.75
741.444	7018.35
741.784	7002.53
742.124	7087.72
742.464	7027.39
742.804	7035.07
743.143	7035.52
743.483	7049.31
743.823	7032.13
744.162	7053.83
744.502	7051.79
744.841	6984.22
745.181	7057.67
745.52	7078.68
745.86	7024.9
746.199	6959.59
746.538	7000.72
746.877	7097.44
747.216	7078.68
747.556	7021.96
747.895	7042.98
748.234	7005.69
748.573	7009.31
748.911	6974.28
749.25	7065.58
749.589	7004.79
749.928	6913.26
750.267	7028.06
750.605	6964.11
750.944	7047.27
751.283	6925.69
751.621	6941.06
751.96	6946.03
752.298	6893.83
752.636	6963.21
752.975	6909.42
753.313	6923.66
753.651	6899.71
753.989	6874.17
754.327	6917.56
754.666	6880.5
755.004	6886.15
755.342	6871.91
755.679	6866.94
756.017	6864.45
756.355	6889.76
756.693	6833.49
757.031	6849.54
757.368	6816.09
757.706	6775.87
758.044	6754.62
758.381	6738.58
758.719	6725.47
759.056	6713.04
759.394	6779.03
759.731	6683.89
760.068	6686.38
760.405	6623.1
760.743	6655.19
761.08	6659.03
761.417	6633.5
761.754	6602.99
762.091	6611.13
762.428	6561.41
762.765	6492.94
763.102	6663.33
763.438	6563.44
763.775	6551.47
764.112	6539.49
764.449	6600.05
764.785	6443.22
765.122	6486.38
765.458	6378.59
765.795	6390.57
766.131	6410.9
766.467	6384.92
766.804	6337.23
767.14	6307.18
767.476	6346.5
767.812	6284.13
768.148	6305.14
768.485	6270.8
768.821	6238.48
769.157	6196.67
769.492	6220.4
769.828	6195.32
770.164	6192.61
770.5	6172.72
770.836	6165.94
771.171	6114.42
771.507	6119.16
771.842	5989.45
772.178	6084.13
772.513	6087.75
772.849	6036.45
773.184	5996
773.519	5997.13
773.855	6015.66
774.19	5959.62
774.525	5936.79
774.86	5998.03
775.195	5928.66
775.53	5926.4
775.865	5833.29
776.2	5847.08
776.535	5793.75
776.87	5807.98
777.205	5778.61
777.539	5799.17
777.874	5770.02
778.209	5699.74
778.543	5667.65
778.878	5652.51
779.212	5644.37
779.547	5633.3
779.881	5647.54
780.215	5574.54
780.55	5603.92
780.884	5567.54
781.218	5535.67
781.552	5577.48
781.886	5546.29
782.22	5509.01
782.554	5452.74
782.888	5432.63
783.222	5466.75
783.556	5426.52
783.889	5422.46
784.223	5421.78
784.557	5365.06
784.89	5353.98
785.224	5295.23
785.557	5337.94
785.891	5259.97
786.224	5264.04
786.558	5282.8
786.891	5283.48
787.224	5171.39
787.557	5188.79
787.891	5166.87
788.224	5176.81
788.557	5281.22
788.89	5175.68
789.223	5187.66
789.556	5170.49
789.888	5098.17
790.221	5078.96
790.554	5030.6
790.887	5044.84
791.219	5013.88
791.552	5043.71
791.884	5011.39
792.217	4965.97
792.549	4978.4
792.882	4987.89
793.214	4868.57
793.546	4922.36
793.879	4949.93
794.211	4907.89
794.543	4903.83
794.875	4845.07
795.207	4875.35
795.539	4865.41
795.871	4783.83
796.203	4848.46
796.535	4796.26
796.867	4784.51
797.198	4796.03
797.53	4768.01
797.862	4742.7
798.193	4752.87
798.525	4720.33
798.856	4692.76
799.188	4664.74
799.519	4612.76
799.85	4621.12
800.182	4620.9
800.513	4661.35
800.844	4623.16
801.175	4626.77
801.506	4615.47
801.837	4594.68
802.168	4585.64
802.499	4565.3
802.83	4555.36
803.161	4509.03
803.491	4479.66
803.822	4494.8
804.153	4490.96
804.483	4471.29
804.814	4466.1
805.145	4427.68
805.475	4432.65
805.805	4442.14
806.136	4463.39
806.466	4406.66
806.796	4431.07
807.126	4358.98
807.457	4361.92
807.787	4402.82
808.117	4362.6
808.447	4315.37
808.777	4365.31
809.107	4320.79
809.436	4314.46
809.766	4335.71
810.096	4287.34
810.426	4255.03
810.755	4258.65
811.085	4239.89
811.414	4270.62
811.744	4225.2
812.073	4241.47
812.403	4187.01
812.732	4178.2
813.061	4203.28
813.39	4174.81
813.719	4138.42
814.049	4212.09
814.378	4187.91
814.707	4173
815.036	4128.93
815.365	4144.07
815.693	4083.51
816.022	4089.38
816.351	4126.22
816.68	4061.81
817.008	4118.08
817.337	4037.41
817.665	4040.8
817.994	4068.37
818.322	4040.12
818.651	4008.26
818.979	4010.74
819.307	4060.23
819.636	3978.2
819.964	4008.03
820.292	3977.97
820.62	4014.36
820.948	3983.17
821.276	3962.16
821.604	4013.45
821.932	3963.96
822.259	3936.17
822.587	3983.17
822.915	3951.99
823.243	3988.37
823.57	3974.36
823.898	3981.82
824.225	3953.57
824.553	3973
824.88	4004.19
825.207	3957.86
825.535	3958.77
825.862	3956.51
826.189	3971.2
826.516	4001.02
826.843	4014.58
827.17	3975.04
827.497	4000.8
827.824	3953.34
828.151	3982.27
828.478	3967.81
828.805	3982.72
829.131	3944.98
829.458	3927.35
829.785	3928.94
830.111	3918.32
830.438	4007.35
830.764	3966.22
831.09	3953.34
831.417	3898.65
831.743	3953.34
832.069	3939.56
832.395	3957.18
832.722	3965.77
833.048	3949.05
833.374	3929.16
833.7	3926
834.026	3944.08
834.351	3947.24
834.677	3901.14
835.003	3896.62
835.329	3918.99
835.654	3913.12
835.98	3904.08
836.306	3920.12
836.631	3884.42
836.956	3895.04
837.282	3904.98
837.607	3895.94
837.932	3863.18
838.258	3856.85
838.583	3884.42
838.908	3869.95
839.233	3864.08
839.558	3868.15
839.883	3836.06
840.208	3816.85
840.533	3816.85
840.858	3799.67
841.182	3843.06
841.507	3831.31
841.832	3793.8
842.156	3778.43
842.481	3799.45
842.805	3770.07
843.13	3827.02
843.454	3770.07
843.778	3727.13
844.103	3719.22
844.427	3769.17
844.751	3737.98
845.075	3715.38
845.399	3736.17
845.723	3673.35
846.047	3719.22
846.371	3678.1
846.695	3707.47
847.019	3642.39
847.343	3619.57
847.666	3615.5
847.99	3627.25
848.313	3598.1
848.637	3570.08
848.96	3552.45
849.284	3588.61
849.607	3541.83
849.931	3531.88
850.254	3502.51
850.577	3527.59
850.9	3509.51
851.223	3464.99
851.546	3451.21
851.869	3434.49
852.192	3467.25
852.515	3424.54
852.838	3452.11
853.161	3417.54
853.483	3409.85
853.806	3380.02
854.129	3382.96
854.451	3351.1
854.774	3394.04
855.096	3351.55
855.419	3355.17
855.741	3372.34
856.063	3321.27
856.385	3337.77
856.708	3319.46
857.03	3309.52
857.352	3307.26
857.674	3290.53
857.996	3314.04
858.318	3244.21
858.64	3237.88
858.961	3246.47
859.283	3240.59
859.605	3199.01
859.926	3185.9
860.248	3226.58
860.57	3196.98
860.891	3232.68
861.212	3198.33
861.534	3213.47
861.855	3154.72
862.176	3188.39
862.498	3170.54
862.819	3180.48
863.14	3150.2
863.461	3146.81
863.782	3105.46
864.103	3141.16
864.424	3156.3
864.745	3145.68
865.065	3142.06
865.386	3142.29
865.707	3116.08
866.027	3102.52
866.348	3103.2
866.668	3125.34
866.989	3097.32
867.309	3077.89
867.63	3093.93
867.95	3083.53
868.27	3103.87
868.59	3085.79
868.91	3097.55
869.23	3057.55
869.55	3042.18
869.87	3038.11
870.19	3038.79
870.51	3043.76
870.83	3047.15
871.15	3003.31
871.469	3041.73
871.789	3054.38
872.109	3033.59
872.428	3011.9
872.748	3026.14
873.067	2988.62
873.386	3004.44
873.706	3020.26
874.025	3012.58
874.344	2987.49
874.663	2994.05
874.982	2974.61
875.301	2955.18
875.62	2991.56
875.939	2968.51
876.258	2972.8
876.577	2968.28
876.896	2967.38
877.214	2942.52
877.533	2942.97
877.852	2946.82
878.17	2931.22
878.489	2940.71
878.807	2925.57
879.125	2892.58
879.444	2959.02
879.762	2911.79
880.08	2964.67
880.398	2890.09
880.716	2920.15
881.034	2940.49
881.352	2928.51
881.67	2874.5
881.988	2891.68
882.306	2887.38
882.624	2885.57
882.941	2848.51
883.259	2888.51
883.577	2852.58
883.894	2837.21
884.212	2844.22
884.529	2831.56
884.846	2782.07
885.164	2832.92
885.481	2842.86
885.798	2827.95
886.115	2811.9
886.432	2825.91
886.75	2777.1
887.067	2787.05
887.383	2751.34
887.7	2756.31
888.017	2788.4
888.334	2779.59
888.651	2735.3
888.967	2745.69
889.284	2722.19
889.6	2719.7
889.917	2754.96
890.233	2711.12
890.55	2734.84
890.866	2706.82
891.182	2695.07
891.498	2712.92
891.815	2660.72
892.131	2698.69
892.447	2705.92
892.763	2661.4
893.079	2656.43
893.395	2657.33
893.71	2667.73
894.026	2648.97
894.342	2631.34
894.657	2616.88
894.973	2640.38
895.289	2636.09
895.604	2600.84
895.92	2589.54
896.235	2620.95
896.55	2599.48
896.865	2625.24
897.181	2590.44
897.496	2575.53
897.811	2546.6
898.126	2588.63
898.441	2548.41
898.756	2522.87
899.071	2508.41
899.386	2523.55
899.7	2505.92
900.015	2520.84
900.33	2518.13
900.644	2478.58
900.959	2502.76
901.273	2478.8
901.588	2468.86
901.902	2442.87
902.216	2456.21
902.531	2446.72
902.845	2409.65
903.159	2419.6
903.473	2446.49
903.787	2399.03
904.101	2400.61
904.415	2380.95
904.729	2402.2
905.042	2370.11
905.356	2375.53
905.67	2353.16
905.984	2384.8
906.297	2343.44
906.611	2343.67
906.924	2339.15
907.237	2328.98
907.551	2308.41
907.864	2331.24
908.177	2287.4
908.491	2301.63
908.804	2285.82
909.117	2273.39
909.43	2277.91
909.743	2286.27
910.056	2269.77
910.368	2238.36
910.681	2241.07
910.994	2210.56
911.307	2250.34
911.619	2221.41
911.932	2229.77
912.244	2210.11
912.557	2183.67
912.869	2194.07
913.181	2151.81
913.494	2139.6
913.806	2195.2
914.118	2152.71
914.43	2147.74
914.742	2136.67
915.054	2142.32
915.366	2127.4
915.678	2131.7
915.99	2027.97
916.302	2060.28
916.613	2077.23
916.925	2088.98
917.236	2066.61
917.548	2077.23
917.859	2055.09
918.171	2042.21
918.482	2032.26
918.794	2049.89
919.105	2053.28
919.416	2036.33
919.727	2065.93
920.038	2011.7
920.349	1999.27
920.66	1996.11
920.971	1973.73
921.282	1999.5
921.593	2001.98
921.903	1941.19
922.214	1961.98
922.525	1936.67
922.835	1946.16
923.146	1924.24
923.456	1903.9
923.767	1941.19
924.077	1889.67
924.387	1899.61
924.697	1899.16
925.008	1910.01
925.318	1898.48
925.628	1901.19
925.938	1870.91
926.248	1862.55
926.558	1859.61
926.867	1863.91
927.177	1870.23
927.487	1822.55
927.796	1841.76
928.106	1836.56
928.416	1815.55
928.725	1857.13
929.034	1796.11
929.344	1822.1
929.653	1802.89
929.962	1777.35
930.271	1795.43
930.581	1775.77
930.89	1781.87
931.199	1759.73
931.508	1773.96
931.817	1752.72
932.125	1738.03
932.434	1732.61
932.743	1705.94
933.051	1715.89
933.36	1660.97
933.669	1681.09
933.977	1709.79
934.286	1680.41
934.594	1660.07
934.902	1669.79
935.21	1692.84
935.519	1679.05
935.827	1676.57
936.135	1663.91
936.443	1645.15
936.751	1630.92
937.059	1650.58
937.367	1642.44
937.674	1620.75
937.982	1665.94
938.29	1623.01
938.597	1627.3
938.905	1616.68
939.213	1602.44
939.52	1592.5
939.827	1612.16
940.135	1590.69
940.442	1584.59
940.749	1552.73
941.056	1595.44
941.363	1553.63
941.67	1573.52
941.977	1546.4
942.284	1511.82
942.591	1525.84
942.898	1550.69
943.205	1538.49
943.511	1503.69
943.818	1530.13
944.125	1495.55
944.431	1531.94
944.738	1540.3
945.044	1514.99
945.35	1481.77
945.657	1510.02
945.963	1506.63
946.269	1479.28
946.575	1471.6
946.881	1485.16
947.187	1478.15
947.493	1475.89
947.799	1483.12
948.105	1439.28
948.41	1447.19
948.716	1437.93
949.022	1435.67
949.327	1443.8
949.633	1430.7
949.938	1424.6
950.244	1428.21
950.549	1417.59
950.854	1390.25
951.16	1379.17
951.465	1406.29
951.77	1388.44
952.075	1378.95
952.38	1367.65
952.685	1383.24
952.99	1357.93
953.294	1342.34
953.599	1364.26
953.904	1369.68
954.209	1359.74
954.513	1339.4
954.818	1355.44
955.122	1350.7
955.426	1343.24
955.731	1326.07
956.035	1331.72
956.339	1328.78
956.643	1309.57
956.948	1326.29
957.252	1321.1
957.556	1297.59
957.86	1296.01
958.163	1284.03
958.467	1302.11
958.771	1283.81
959.075	1301.43
959.378	1281.1
959.682	1296.46
959.985	1291.27
960.289	1269.12
960.592	1238.84
960.896	1251.27
961.199	1243.36
961.502	1249.91
961.805	1240.19
962.108	1257.59
962.411	1256.01
962.714	1252.4
963.017	1224.37
963.32	1202.91
963.623	1210.82
963.926	1232.96
964.228	1228.22
964.531	1221.21
964.833	1221.66
965.136	1164.72
965.438	1194.09
965.741	1195.22
966.043	1209.69
966.345	1169.23
966.648	1166.3
966.95	1174.88
967.252	1183.47
967.554	1168.1
967.856	1175.56
968.158	1177.6
968.46	1164.04
968.761	1155.9
969.063	1140.08
969.365	1148.44
969.666	1130.59
969.968	1128.33
970.269	1145.28
970.571	1124.94
970.872	1111.84
971.174	1095.56
971.475	1120.42
971.776	1132.4
972.077	1094.66
972.378	1093.53
972.679	1095.34
972.98	1079.29
973.281	1079.29
973.582	1117.26
973.883	1098.5
974.183	1077.03
974.484	1089.91
974.785	1067.99
975.085	1042.23
975.386	1082.23
975.686	1075.68
975.986	1058.28
976.287	1071.16
976.587	1059.86
976.887	1071.16
977.187	1039.75
977.487	1038.84
977.787	1065.73
978.087	1018.28
978.387	1039.29
978.687	1025.51
978.987	1026.64
979.286	1016.47
979.586	1012.85
979.885	977.38
980.185	996.36
980.484	1010.37
980.784	1034.1
981.083	1013.08
981.382	990.48
981.682	1004.27
981.981	982.57
982.28	995.68
982.579	967.43
982.878	978.28
983.177	979.41
983.475	981.9
983.774	969.24
984.073	973.76
984.372	944.61
984.67	938.51
984.969	965.85
985.267	953.2
985.566	957.49
985.864	945.74
986.162	954.1
986.461	943.7
986.759	947.09
987.057	921.78
987.355	922.24
987.653	922.91
987.951	929.24
988.249	915.23
988.547	912.29
988.844	924.04
989.142	904.16
989.44	903.25
989.737	900.32
990.035	909.35
990.332	893.54
990.63	889.24
990.927	904.61
991.224	894.89
991.521	877.94
991.819	864.61
992.116	860.54
992.413	882.91
992.71	865.51
993.006	863.03
993.303	865.51
993.6	858.96
993.897	866.64
994.193	851.73
994.49	844.5
994.787	855.34
995.083	835.01
995.379	851.28
995.676	876.14
995.972	856.93
996.268	830.94
996.565	844.5
996.861	840.43
997.157	846.31
997.453	813.76
997.749	836.59
998.044	818.51
998.34	825.97
998.636	800.88
998.932	806.76
999.227	808.11
999.523	818.74
999.818	798.4
1000.114	807.44
1000.409	784.16
1000.704	805.18
1001	792.3
1001.295	781
1001.59	776.93
1001.885	794.56
1002.18	783.26
1002.475	797.95
1002.77	791.39
1003.065	783.71
1003.359	784.84
1003.654	760.21
1003.949	766.53
1004.243	754.56
1004.538	757.27
1004.832	763.82
1005.127	749.81
1005.421	740.32
1005.715	724.73
1006.009	717.95
1006.304	745.07
1006.598	717.95
1006.892	747.78
1007.186	721.34
1007.48	739.19
1007.773	734.44
1008.067	726.08
1008.361	718.63
1008.655	704.16
1008.948	716.59
1009.242	715.01
1009.535	733.09
1009.829	731.73
1010.122	686.08
1010.415	702.81
1010.708	690.15
1011.001	695.8
1011.295	690.6
1011.588	687.67
1011.881	681.34
1012.173	670.04
1012.466	684.95
1012.759	664.62
1013.052	686.08
1013.344	686.54
1013.637	669.59
1013.93	647.67
1014.222	662.81
1014.514	659.64
1014.807	678.17
1015.099	625.97
1015.391	671.17
1015.683	667.1
1015.976	676.59
1016.268	637.05
1016.56	630.94
1016.851	651.28
1017.143	630.04
1017.435	637.5
1017.727	621.9
1018.018	622.13
1018.31	640.89
1018.602	630.72
1018.893	633.2
1019.185	621.9
1019.476	616.25
1019.767	633.88
1020.058	618.74
1020.35	597.05
1020.641	586.88
1020.932	612.41
1021.223	597.72
1021.514	605.41
1021.804	623.49
1022.095	610.38
1022.386	600.21
1022.677	590.49
1022.967	590.27
1023.258	584.39
1023.548	572.41
1023.839	560.66
1024.129	585.75
1024.419	577.39
1024.709	578.29
1025	536.26
1025.29	589.14
1025.58	571.74
1025.87	584.84
1026.16	567.44
1026.449	575.35
1026.739	551.17
1027.029	552.3
1027.319	566.31
1027.608	559.76
1027.898	570.83
1028.187	548.46
1028.477	545.97
1028.766	560.66
1029.055	545.52
1029.344	553.88
1029.634	539.65
1029.923	549.59
1030.212	567.44
1030.501	532.42
1030.79	523.83
1031.078	528.35
1031.367	526.77
1031.656	538.74
1031.945	507.33
1032.233	527.22
1032.522	519.31
1032.81	520.66
1033.099	508.69
1033.387	534
1033.675	520.66
1033.963	514.79
1034.251	509.37
1034.54	507.78
1034.828	534
1035.116	515.92
1035.403	498.74
1035.691	512.3
1035.979	528.57
1036.267	514.79
1036.554	474.56
1036.842	512.08
1037.129	481.8
1037.417	493.77
1037.704	471.17
1037.992	495.35
1038.279	487.44
1038.566	484.51
1038.853	484.51
1039.14	484.51
