Data from mousepad_grey_FLMS001491_00090.txt Node
Date: Wed Feb 08 14:30:04 GMT 2017
User: dcchb
Spectrometer: FLMS00149
Trigger mode: 0
Integration Time (sec): 2.000000E-2
Scans to average: 10
Electric dark correction enabled: true
Nonlinearity correction enabled: false
Boxcar width: 0
XAxis mode: Wavelengths
Number of Pixels in Spectrum: 2048
>>>>>Begin Spectral Data<<<<<
341.393	-14.63
341.776	-14.63
342.16	-14.63
342.543	-59.38
342.927	-72.48
343.31	-75.65
343.693	-60.73
344.077	-73.61
344.46	-64.8
344.843	-54.63
345.226	-49.43
345.61	-20.96
345.993	-24.35
346.376	-22.99
346.759	17.01
347.142	41.64
347.525	35.99
347.908	55.42
348.291	73.73
348.674	100.84
349.057	122.54
349.44	121.64
349.823	113.05
350.206	167.51
350.588	171.13
350.971	194.18
351.354	202.09
351.737	213.61
352.119	228.98
352.502	245.93
352.884	248.86
353.267	270.33
353.65	271.24
354.032	291.8
354.414	303.55
354.797	295.19
355.179	318.01
355.562	318.47
355.944	320.95
356.326	300.84
356.709	295.42
357.091	312.82
357.473	322.76
357.855	322.08
358.238	344.23
358.62	315.53
359.002	332.7
359.384	304.68
359.766	301.52
360.148	319.37
360.53	316.66
360.912	319.82
361.294	307.62
361.676	288.41
362.057	287.73
362.439	305.81
362.821	301.52
363.203	299.94
363.584	302.2
363.966	311.23
364.348	313.04
364.729	281.86
365.111	308.07
365.493	300.39
365.874	299.71
366.256	307.17
366.637	281.63
367.019	291.35
367.4	299.26
367.781	292.93
368.163	299.03
368.544	295.19
368.925	297.9
369.306	286.15
369.688	310.33
370.069	292.03
370.45	309.43
370.831	289.99
371.212	291.35
371.593	282.76
371.974	295.42
372.355	298.81
372.736	306.26
373.117	313.04
373.498	328.86
373.879	304.46
374.26	288.41
374.641	300.84
375.021	292.93
375.402	305.59
375.783	301.97
376.163	317.11
376.544	313.04
376.925	316.66
377.305	284.12
377.686	286.15
378.066	308.3
378.447	307.17
378.827	297.45
379.208	304.91
379.588	327.28
379.968	313.04
380.349	304
380.729	311.01
381.109	315.75
381.489	317.56
381.87	333.61
382.25	315.3
382.63	313.72
383.01	337
383.39	337.22
383.77	308.07
384.15	310.56
384.53	311.91
384.91	330.44
385.29	333.61
385.67	341.52
386.049	338.13
386.429	330.44
386.809	317.11
387.189	330.67
387.568	341.29
387.948	318.69
388.328	342.65
388.707	321.63
389.087	329.77
389.466	328.86
389.846	357.34
390.225	359.14
390.605	331.57
390.984	360.72
391.363	336.32
391.743	348.52
392.122	341.29
392.501	329.54
392.881	340.61
393.26	367.5
393.639	352.36
394.018	351.23
394.397	366.83
394.776	349.65
395.155	345.13
395.534	370.67
395.913	355.08
396.292	376.09
396.671	371.57
397.05	375.19
397.429	360.72
397.808	369.76
398.186	354.62
398.565	369.99
398.944	379.48
399.323	384.23
399.701	369.31
400.08	377.9
400.458	368.18
400.837	371.35
401.215	377.45
401.594	402.98
401.972	388.29
402.351	394.17
402.729	393.72
403.107	399.37
403.486	396.88
403.864	401.85
404.242	433.27
404.62	399.59
404.999	409.31
405.377	414.96
405.755	401.63
406.133	403.89
406.511	438.01
406.889	427.16
407.267	428.52
407.645	436.2
408.023	425.81
408.401	431.23
408.779	456.99
409.156	433.94
409.534	435.98
409.912	423.32
410.29	458.8
410.667	434.62
411.045	463.32
411.422	456.09
411.8	464.45
412.178	462.19
412.555	457.22
412.933	461.29
413.31	472.81
413.687	468.29
414.065	483.21
414.442	474.85
414.819	478.46
415.197	475.07
415.574	482.76
415.951	482.98
416.328	489.31
416.705	472.13
417.082	496.54
417.46	487.95
417.837	509.42
418.214	511.68
418.591	514.62
418.967	519.59
419.344	502.19
419.721	522.75
420.098	520.95
420.475	543.32
420.852	530.21
421.228	533.15
421.605	532.92
421.982	543.77
422.358	567.27
422.735	528.86
423.111	540.16
423.488	548.52
423.864	572.7
424.241	551.68
424.617	560.49
424.994	567.73
425.37	558.91
425.746	585.58
426.123	574.96
426.499	586.26
426.875	605.46
427.251	598.91
427.627	590.1
428.003	594.62
428.379	609.08
428.756	641.62
429.132	616.09
429.507	599.14
429.883	621.28
430.259	660.15
430.635	615.18
431.011	652.02
431.387	641.17
431.763	644.56
432.138	641.62
432.514	687.04
432.89	667.61
433.265	675.07
433.641	692.24
434.016	689.76
434.392	713.48
434.767	697.44
435.143	681.39
435.518	705.35
435.894	716.87
436.269	713.48
436.644	729.53
437.02	703.09
437.395	723.2
437.77	746.03
438.145	767.27
438.52	745.8
438.895	731.34
439.271	769.98
439.646	778.57
440.021	774.95
440.395	784.89
440.77	783.76
441.145	776.31
441.52	779.92
441.895	807.27
442.27	827.83
442.645	791.67
443.019	802.75
443.394	803.2
443.769	817.89
444.143	805.23
444.518	797.55
444.892	833.03
445.267	820.83
445.641	830.32
446.016	847.94
446.39	833.71
446.764	852.24
447.139	859.69
447.513	868.51
447.887	870.54
448.262	883.65
448.636	859.47
449.01	892.24
449.384	884.33
449.758	892.46
450.132	873.93
450.506	891.56
450.88	903.31
451.254	905.12
451.628	913.93
452.002	941.27
452.376	953.7
452.75	934.27
453.123	938.34
453.497	949.64
453.871	928.85
454.244	973.82
454.618	967.26
454.992	998.45
455.365	994.15
455.739	1003.19
456.112	1025.11
456.486	1013.14
456.859	1040.71
457.232	1033.93
457.606	1040.48
457.979	1052.01
458.352	1051.33
458.725	1086.81
459.099	1091.78
459.472	1102.17
459.845	1116.86
460.218	1121.16
460.591	1112.8
460.964	1135.62
461.337	1156.18
461.71	1190.31
462.083	1178.1
462.456	1191.44
462.829	1219.69
463.201	1226.01
463.574	1225.11
463.947	1233.47
464.32	1236.41
464.692	1251.32
465.065	1257.65
465.438	1274.6
465.81	1280.93
466.183	1290.64
466.555	1336.07
466.928	1320.7
467.3	1348.5
467.672	1353.69
468.045	1376.74
468.417	1367.93
468.789	1391.21
469.161	1407.93
469.534	1425.1
469.906	1466.68
470.278	1463.29
470.65	1482.73
471.022	1513.91
471.394	1530.64
471.766	1510.07
472.138	1566.57
472.51	1584.42
472.882	1598.88
473.253	1620.35
473.625	1608.6
473.997	1636.62
474.369	1638.21
474.74	1665.32
475.112	1668.49
475.484	1713.68
475.855	1761.59
476.227	1776.96
476.598	1785.09
476.97	1812.21
477.341	1859.67
477.713	1845.43
478.084	1886.33
478.455	1948.03
478.827	1926.79
479.198	1981.02
479.569	1969.5
479.94	2051.98
480.311	2064.63
480.682	2100.11
481.053	2137.85
481.424	2176.04
481.795	2183.5
482.166	2197.06
482.537	2207
482.908	2272.99
483.279	2287
483.65	2320.22
484.021	2366.32
484.391	2400.67
484.762	2407.45
485.133	2414.23
485.503	2505.98
485.874	2518.41
486.244	2522.25
486.615	2587.56
486.985	2595.47
487.356	2637.28
487.726	2615.13
488.097	2695.8
488.467	2717.05
488.837	2750.04
489.207	2783.03
489.578	2836.14
489.948	2852.41
490.318	2872.07
490.688	2925.63
491.058	2901.9
491.428	2996.36
491.798	2951.39
492.168	3075.23
492.538	3038.17
492.908	3092.18
493.278	3094.89
493.648	3127.88
494.017	3148.9
494.387	3168.11
494.757	3195
495.126	3231.16
495.496	3242.46
495.866	3254.43
496.235	3331.27
496.605	3341.89
496.974	3336.01
497.344	3384.15
497.713	3393.41
498.082	3389.8
498.452	3479.51
498.821	3497.59
499.19	3473.41
499.559	3481.32
499.928	3550.92
500.298	3537.14
500.667	3584.14
501.036	3553.86
501.405	3591.37
501.774	3651.49
502.143	3686.29
502.512	3671.15
502.88	3730.58
503.249	3718.15
503.618	3703.91
503.987	3780.3
504.356	3750.47
504.724	3764.7
505.093	3829.56
505.462	3796.79
505.83	3881.31
506.199	3910.24
506.567	3911.14
506.936	3920.41
507.304	3942.33
507.672	3947.75
508.041	4026.39
508.409	4028.2
508.777	4041.53
509.145	4087.63
509.514	4063.45
509.882	4152.49
510.25	4105.49
510.618	4197.46
510.986	4177.35
511.354	4216.89
511.722	4279.72
512.09	4262.77
512.458	4340.28
512.826	4304.12
513.193	4347.74
513.561	4383.67
513.929	4388.42
514.297	4418.02
514.664	4424.12
515.032	4454.18
515.4	4478.81
515.767	4521.75
516.135	4553.16
516.502	4531.24
516.869	4633.16
517.237	4591.57
517.604	4643.32
517.972	4651.69
518.339	4676.09
518.706	4706.83
519.073	4756.32
519.44	4751.12
519.808	4807.84
520.175	4787.5
520.542	4838.57
520.909	4879.25
521.276	4929.87
521.643	4917.67
522.009	4999.25
522.376	5033.6
522.743	4996.99
523.11	5067.04
523.477	5155.18
523.843	5167.15
524.21	5242.18
524.577	5271.1
524.943	5234.72
525.31	5283.76
525.676	5332.57
526.043	5387.26
526.409	5383.64
526.776	5459.8
527.142	5450.76
527.508	5526.46
527.874	5507.71
528.241	5575.28
528.607	5593.58
528.973	5651.21
529.339	5655.28
529.705	5712.67
530.071	5685.78
530.437	5750.41
530.803	5794.71
531.169	5817.53
531.535	5883.97
531.901	5848.49
532.267	5874.25
532.632	5895.04
532.998	5941.6
533.364	5958.09
533.73	5987.47
534.095	6039.67
534.461	6100.91
534.826	6065.89
535.192	6117.41
535.557	6175.04
535.923	6119.9
536.288	6187.92
536.653	6187.01
537.019	6264.75
537.384	6242.83
537.749	6286.9
538.114	6279.67
538.479	6299.55
538.845	6343.84
539.21	6383.62
539.575	6468.59
539.94	6496.38
540.305	6517.4
540.67	6463.16
541.034	6532.99
541.399	6568.02
541.764	6597.85
542.129	6611.63
542.494	6630.16
542.858	6669.71
543.223	6696.6
543.587	6646.89
543.952	6669.71
544.316	6727.34
544.681	6766.88
545.045	6763.72
545.41	6828.8
545.774	6876.94
546.138	6803.27
546.503	6892.98
546.867	6895.92
547.231	6936.6
547.595	6989.48
547.959	6999.65
548.324	7002.58
548.688	7045.52
549.052	7091.62
549.416	7027.44
549.779	7158.96
550.143	7160.32
550.507	7250.49
550.871	7234.89
551.235	7233.99
551.599	7252.07
551.962	7305.4
552.326	7393.08
552.689	7294.78
553.053	7338.39
553.417	7374.78
553.78	7482.35
554.143	7464.27
554.507	7523.7
554.87	7566.19
555.234	7587.88
555.597	7603.02
555.96	7601.66
556.323	7585.62
556.686	7627.2
557.05	7715.11
557.413	7683.7
557.776	7740.64
558.139	7802.11
558.502	7804.6
558.865	7865.84
559.228	7878.04
559.59	7901.32
559.953	7924.14
560.316	8014.99
560.679	7996.68
561.041	8050.69
561.404	8061.31
561.767	8127.07
562.129	8115.1
562.492	8215.89
562.854	8141.31
563.217	8226.73
563.579	8332.04
563.941	8309.44
564.304	8358.03
564.666	8392.6
565.028	8402.77
565.39	8452.04
565.753	8457.91
566.115	8540.4
566.477	8541.3
566.839	8581.75
567.201	8652.71
567.563	8620.17
567.925	8649.09
568.287	8710.56
568.648	8757.57
569.01	8738.58
569.372	8813.84
569.734	8807.06
570.095	8859.94
570.457	8908.07
570.819	8928.64
571.18	8946.94
571.542	8985.81
571.903	8939.26
572.265	9060.61
572.626	9039.59
572.987	9004.57
573.349	9074.39
573.71	9138.35
574.071	9211.11
574.432	9165.92
574.794	9323.88
575.155	9248.17
575.516	9222.86
575.877	9295.41
576.238	9311.68
576.599	9290.43
576.96	9333.37
577.32	9407.72
577.681	9403.2
578.042	9341.73
578.403	9341.28
578.763	9405.68
579.124	9428.96
579.485	9386.25
579.845	9439.81
580.206	9447.94
580.566	9459.47
580.927	9517.09
581.287	9587.6
581.648	9504.89
582.008	9574.27
582.368	9504.89
582.728	9578.11
583.089	9531.33
583.449	9601.84
583.809	9547.15
584.169	9598
584.529	9571.33
584.889	9687.71
585.249	9652.23
585.609	9616.53
585.969	9612.46
586.329	9665.11
586.688	9691.1
587.048	9594.61
587.408	9606.58
587.768	9607.94
588.127	9577.88
588.487	9645.68
588.846	9747.82
589.206	9589.18
589.565	9607.04
589.925	9691.1
590.284	9662.4
590.643	9690.42
591.003	9707.6
591.362	9666.69
591.721	9657.66
592.08	9677.99
592.44	9666.69
592.799	9729.74
593.158	9676.86
593.517	9749.18
593.876	9726.81
594.235	9704.66
594.593	9660.14
594.952	9740.37
595.311	9701.5
595.67	9725.22
596.029	9822.85
596.387	9832.57
596.746	9753.02
597.104	9760.48
597.463	9758.44
597.822	9754.38
598.18	9780.82
598.538	9747.14
598.897	9770.2
599.255	9716.41
599.613	9892.23
599.972	9757.54
600.33	9815.62
600.688	9765.68
601.046	9874.6
601.404	9820.36
601.762	9823.98
602.12	9883.19
602.478	9898.33
602.836	9889.74
603.194	9838.22
603.552	9832.34
603.91	9816.75
604.268	9858.55
604.625	9783.75
604.983	9832.34
605.341	9783.98
605.698	9852.23
606.056	9934.03
606.413	9885.22
606.771	9935.84
607.128	9934.71
607.485	9899.23
607.843	9954.37
608.2	9954.15
608.557	9977.87
608.914	9940.36
609.272	9959.57
609.629	9975.16
609.986	10060.13
610.343	9986.23
610.7	10074.37
611.057	10043.18
611.414	9945.78
611.771	10026.91
612.127	10031.21
612.484	10091.99
612.841	10013.35
613.198	10084.09
613.554	10045.89
613.911	10087.25
614.267	10103.97
614.624	10094.03
614.98	10139
615.337	10124.76
615.693	10102.16
616.05	10090.86
616.406	10176.29
616.762	10183.07
617.118	10183.07
617.475	10192.1
617.831	10175.83
618.187	10169.05
618.543	10212.67
618.899	10270.07
619.255	10223.52
619.611	10244.98
619.967	10239.79
620.323	10205.89
620.678	10212.44
621.034	10196.62
621.39	10221.93
621.746	10260.58
622.101	10340.8
622.457	10198.21
622.812	10215.83
623.168	10274.36
623.523	10290.18
623.879	10357.3
624.234	10324.53
624.589	10287.92
624.945	10245.89
625.3	10269.84
625.655	10297.86
626.01	10262.16
626.365	10357.75
626.72	10236.62
627.075	10264.65
627.43	10256.96
627.785	10282.5
628.14	10314.14
628.495	10307.36
628.85	10272.78
629.205	10223.06
629.559	10306.23
629.914	10193.91
630.269	10221.26
630.623	10241.37
630.978	10241.82
631.332	10231.65
631.687	10300.12
632.041	10238.66
632.396	10257.64
632.75	10185.1
633.104	10251.31
633.459	10168.6
633.813	10192.1
634.167	10150.75
634.521	10141.71
634.875	10148.04
635.229	10178.55
635.583	10153.46
635.937	10103.29
636.291	10070.75
636.645	10065.78
636.999	10049.96
637.352	10103.75
637.706	10015.61
638.06	10126.12
638.413	10062.16
638.767	10019.45
639.121	10055.16
639.474	10056.97
639.828	10061.49
640.181	10054.03
640.534	10059.9
640.888	10023.07
641.241	9893.36
641.594	9950.08
641.947	10087.02
642.301	10018.32
642.654	10021.49
643.007	9989.4
643.36	9996.4
643.713	9917.76
644.066	9975.84
644.419	9931.32
644.771	9948.04
645.124	9807.93
645.477	9838.67
645.83	9712.8
646.182	9783.98
646.535	9687.94
646.888	9712.12
647.24	9612.01
647.593	9802.96
647.945	9731.33
648.298	9663.08
648.65	9659.69
649.002	9601.61
649.355	9657.43
649.707	9643.19
650.059	9676.64
650.411	9784.88
650.763	9809.29
651.115	9971.77
651.467	9868.72
651.819	9877.99
652.171	9883.41
652.523	9859.46
652.875	9778.33
653.227	9862.17
653.578	9897.2
653.93	9890.19
654.282	9825.79
654.633	9834.83
654.985	9786.92
655.337	9861.94
655.688	9894.49
656.039	9875.73
656.391	9799.8
656.742	9852.68
657.094	9861.04
657.445	9887.25
657.796	9844.09
658.147	9797.99
658.498	9789.18
658.849	9825.56
659.2	9841.15
659.551	9870.31
659.902	9836.18
660.253	9836.18
660.604	9843.41
660.955	9794.38
661.306	9778.78
661.656	9852.9
662.007	9807.26
662.358	9830.53
662.708	9802.74
663.059	9823.3
663.409	9802.51
663.76	9851.1
664.11	9770.2
664.461	9861.94
664.811	9786.01
665.161	9808.16
665.511	9833.7
665.862	9808.61
666.212	9881.6
666.562	9846.8
666.912	9863.3
667.262	9760.7
667.612	9832.57
667.962	9869.4
668.312	9819.01
668.662	9879.57
669.011	9865.33
669.361	9828.72
669.711	9833.92
670.06	9742.17
670.41	9791.21
670.76	9720.03
671.109	9775.84
671.459	9769.52
671.808	9709.18
672.157	9753.02
672.507	9684.55
672.856	9708.5
673.205	9772
673.554	9721.16
673.904	9728.16
674.253	9714.83
674.602	9735.17
674.951	9618.33
675.3	9560.03
675.649	9706.02
675.998	9681.38
676.346	9678.22
676.695	9695.39
677.044	9572.69
677.393	9688.16
677.741	9673.02
678.09	9605.91
678.438	9594.15
678.787	9651.78
679.135	9612.23
679.484	9566.58
679.832	9541.05
680.181	9519.58
680.529	9564.1
680.877	9537.66
681.225	9486.59
681.573	9513.03
681.922	9518.9
682.27	9455.4
682.618	9476.64
682.966	9363.43
683.314	9485.91
683.661	9419.47
684.009	9423.09
684.357	9434.84
684.705	9340.38
685.053	9369.08
685.4	9366.59
685.748	9312.35
686.095	9281.39
686.443	9313.03
686.79	9228.97
687.138	9235.75
687.485	9275.07
687.832	9221.28
688.18	9182.64
688.527	9136.09
688.874	9124.56
689.221	9143.54
689.568	9098.57
689.915	9091.57
690.262	9059.25
690.609	9053.15
690.956	9024.9
691.303	9030.78
691.65	8907.62
691.997	8896.32
692.344	8889.99
692.69	8852.71
693.037	8880.95
693.383	8800.96
693.73	8852.48
694.077	8803.44
694.423	8760.5
694.769	8746.72
695.116	8729.09
695.462	8717.34
695.808	8638.47
696.155	8625.37
696.501	8628.3
696.847	8570.68
697.193	8602.99
697.539	8466.95
697.885	8507.86
698.231	8492.04
698.577	8452.26
698.923	8429.44
699.269	8419.5
699.614	8384.92
699.96	8401.64
700.306	8397.12
700.651	8271.7
700.997	8266.28
701.342	8259.73
701.688	8275.55
702.033	8217.69
702.379	8264.02
702.724	8147.64
703.069	8166.17
703.415	8076.68
703.76	8121.88
704.105	8072.84
704.45	8078.26
704.795	7977.7
705.14	7951.71
705.485	8003.69
705.83	7909.45
706.175	7971.82
706.52	7917.59
706.865	7849.34
707.209	7989.22
707.554	7895.44
707.899	7872.84
708.243	7845.73
708.588	7818.16
708.932	7784.94
709.277	7790.13
709.621	7720.98
709.966	7687.54
710.31	7716.24
710.654	7643.47
710.998	7664.04
711.342	7666.07
711.687	7645.05
712.031	7581.78
712.375	7542.68
712.719	7621.33
713.063	7537.71
713.407	7622.68
713.75	7574.55
714.094	7547.43
714.438	7525.06
714.782	7575
715.125	7501.1
715.469	7491.61
715.812	7546.52
716.156	7459.07
716.499	7444.38
716.843	7451.39
717.186	7364.16
717.53	7467.43
717.873	7466.53
718.216	7381.56
718.559	7379.07
718.902	7351.05
719.246	7356.7
719.589	7402.12
719.932	7304.5
720.275	7390.6
720.617	7366.64
720.96	7256.14
721.303	7364.38
721.646	7345.4
721.989	7304.5
722.331	7305.4
722.674	7275.8
723.016	7311.73
723.359	7297.27
723.701	7324.84
724.044	7257.27
724.386	7177.72
724.729	7290.49
725.071	7255.68
725.413	7236.48
725.755	7241.45
726.097	7266.76
726.439	7232.41
726.782	7249.36
727.124	7257.49
727.465	7180.21
727.807	7177.95
728.149	7199.42
728.491	7210.94
728.833	7189.25
729.175	7215.46
729.516	7238.51
729.858	7211.62
730.199	7224.5
730.541	7200.09
730.882	7147.21
731.224	7189.02
731.565	7153.77
731.906	7173.2
732.248	7202.8
732.589	7155.12
732.93	7129.13
733.271	7165.97
733.612	7194.44
733.953	7139.98
734.294	7185.4
734.635	7151.96
734.976	7168.68
735.317	7108.34
735.658	7164.61
735.999	7104.73
736.339	7129.59
736.68	7133.43
737.021	7085.75
737.361	7158.29
737.702	7090.72
738.042	7145.86
738.383	7113.99
738.723	7137.95
739.063	7148.34
739.404	7137.04
739.744	7190.38
740.084	7111.51
740.424	7121.68
740.764	7080.55
741.104	7131.85
741.444	7064.05
741.784	7017.05
742.124	7073.54
742.464	7100.89
742.804	7150.6
743.143	7055.92
743.483	7075.58
743.823	7034.22
744.162	7044.62
744.502	7095.24
744.841	7058.4
745.181	7113.09
745.52	7094.33
745.86	7087.55
746.199	7115.8
746.538	7078.74
746.877	7128.23
747.216	7112.86
747.556	7062.02
747.895	7111.51
748.234	7086.2
748.573	7026.99
748.911	7069.7
749.25	7050.72
749.589	7044.17
749.928	7037.61
750.267	7052.07
750.605	7064.05
750.944	6992.19
751.283	6986.54
751.621	6988.57
751.96	6987.9
752.298	6955.35
752.636	6979.31
752.975	6962.36
753.313	6972.53
753.651	7045.07
753.989	6971.62
754.327	7023.83
754.666	6932.76
755.004	6914.9
755.342	6896.82
755.679	6885.53
756.017	6868.58
756.355	6923.26
756.693	6851.4
757.031	6843.04
757.368	6872.87
757.706	6877.84
758.044	6828.58
758.381	6851.4
758.719	6816.83
759.056	6784.74
759.394	6791.74
759.731	6802.36
760.068	6781.35
760.405	6774.12
760.743	6746.77
761.08	6732.99
761.417	6720.33
761.754	6685.98
762.091	6668.81
762.428	6619.09
762.765	6594.91
763.102	6661.58
763.438	6587
763.775	6541.81
764.112	6571.18
764.449	6587.91
764.785	6496.61
765.122	6513.78
765.458	6442.6
765.795	6540.9
766.131	6474.69
766.467	6438.98
766.804	6487.34
767.14	6380.23
767.476	6462.26
767.812	6409.15
768.148	6418.19
768.485	6289.83
768.821	6294.81
769.157	6297.29
769.492	6292.09
769.828	6324.18
770.164	6220.91
770.5	6203.51
770.836	6174.13
771.171	6185.2
771.507	6160.57
771.842	6114.92
772.178	6123.51
772.513	6099.56
772.849	6131.87
773.184	6053.46
773.519	6066.34
773.855	5997.41
774.19	5990.86
774.525	6010.07
774.86	5957.87
775.195	5980.24
775.53	5927.81
775.865	5910.86
776.2	5854.14
776.535	5852.11
776.87	5849.17
777.205	5810.3
777.539	5821.6
777.874	5818.89
778.209	5742.96
778.543	5793.12
778.878	5695.95
779.212	5728.04
779.547	5639.23
779.881	5707.25
780.215	5632.9
780.55	5663.86
780.884	5630.19
781.218	5594.03
781.552	5554.71
781.886	5557.88
782.22	5536.18
782.554	5549.29
782.888	5531.89
783.222	5493.02
783.556	5485.79
783.889	5442.63
784.223	5427.26
784.557	5367.37
784.89	5388.84
785.224	5374.6
785.557	5360.14
785.891	5349.75
786.224	5353.36
786.558	5318.11
786.891	5297.09
787.224	5260.26
787.557	5204.89
787.891	5265
788.224	5238.79
788.557	5244.89
788.89	5216.19
789.223	5203.76
789.556	5157.21
789.888	5131.45
790.221	5142.52
790.554	5124.44
790.887	5125.8
791.219	5096.42
791.552	5100.94
791.884	5032.92
792.217	5083.99
792.549	5019.59
792.882	5004.9
793.214	4933.26
793.546	4970.55
793.879	4930.77
794.211	4926.03
794.543	4912.24
794.875	4905.24
795.207	4924.45
795.539	4927.84
795.871	4844.67
796.203	4863.88
796.535	4855.07
796.867	4799.7
797.198	4800.83
797.53	4799.03
797.862	4775.52
798.193	4809.87
798.525	4679.03
798.856	4723.77
799.188	4708.18
799.519	4673.83
799.85	4630.67
800.182	4660.5
800.513	4677.45
800.844	4622.31
801.175	4685.36
801.506	4669.54
801.837	4684.45
802.168	4623.21
802.499	4643.1
802.83	4561.29
803.161	4559.26
803.491	4542.99
803.822	4548.86
804.153	4485.36
804.483	4505.25
804.814	4527.17
805.145	4506.15
805.475	4472.48
805.805	4441.07
806.136	4521.97
806.466	4487.85
806.796	4480.84
807.126	4431.8
807.457	4442.43
807.787	4406.95
808.117	4411.24
808.447	4389.77
808.777	4429.32
809.107	4426.15
809.436	4373.27
809.766	4368.3
810.096	4291.92
810.426	4324.91
810.755	4312.71
811.085	4290.57
811.414	4290.11
811.744	4234.97
812.073	4272.26
812.403	4247.85
812.732	4258.02
813.061	4234.52
813.39	4231.13
813.719	4215.31
814.049	4203.56
814.378	4209.66
814.707	4208.31
815.036	4156.78
815.365	4148.2
815.693	4131.02
816.022	4168.53
816.351	4096.9
816.68	4091.7
817.008	4112.26
817.337	4148.42
817.665	4060.74
817.994	4138.03
818.322	4094.64
818.651	4064.81
818.979	4034.07
819.307	4094.86
819.636	4056.45
819.964	4035.43
820.292	4052.38
820.62	4058.93
820.948	3967.86
821.276	4050.57
821.604	4012.15
821.932	4028.88
822.259	4017.13
822.587	4022.78
822.915	3972.16
823.243	4022.32
823.57	3941.2
823.898	4025.94
824.225	4025.71
824.553	3959.05
824.88	3963.79
825.207	4046.28
825.535	3979.39
825.862	3975.77
826.189	4025.04
826.516	4008.54
826.843	4032.49
827.17	4009.67
827.497	3999.27
827.824	4068.65
828.151	4031.14
828.478	4025.94
828.805	3999.05
829.131	3968.99
829.458	3963.12
829.785	3982.32
830.111	3979.16
830.438	3997.69
830.764	3985.94
831.09	4014.64
831.417	3985.04
831.743	3990.01
832.069	4021.19
832.395	3963.34
832.722	4011.48
833.048	3977.81
833.374	3973.96
833.7	3950.24
834.026	3996.34
834.351	3993.85
834.677	3956.11
835.003	3960.86
835.329	3923.12
835.654	3954.08
835.98	3953.62
836.306	3928.09
836.631	3937.81
836.956	3958.14
837.282	3960.18
837.607	3897.36
837.932	3941.42
838.258	3943.46
838.583	3914.3
838.908	3885.83
839.233	3905.94
839.558	3869.11
839.883	3867.07
840.208	3893.06
840.533	3874.76
840.858	3861.65
841.182	3822.55
841.507	3833.85
841.832	3803.57
842.156	3830.92
842.481	3817.36
842.805	3789.34
843.13	3765.61
843.454	3847.41
843.778	3820.75
844.103	3814.42
844.427	3766.06
844.751	3780.75
845.075	3778.26
845.399	3803.57
845.723	3756.34
846.047	3748.88
846.371	3721.31
846.695	3750.69
847.019	3679.06
847.343	3675.89
847.666	3654.65
847.99	3649
848.313	3616.91
848.637	3609.45
848.96	3605.39
849.284	3599.96
849.607	3595.89
849.931	3557.93
850.254	3524.48
850.577	3530.81
850.9	3541.66
851.223	3492.62
851.546	3502.11
851.869	3501.89
852.192	3444.26
852.515	3434.32
852.838	3427.09
853.161	3477.71
853.483	3439.29
853.806	3439.06
854.129	3431.38
854.451	3377.14
854.774	3392.51
855.096	3412.4
855.419	3381.21
855.741	3379.18
856.063	3340.08
856.385	3342.79
856.708	3330.82
857.03	3306.41
857.352	3320.42
857.674	3290.14
857.996	3299.63
858.318	3288.11
858.64	3262.8
858.961	3265.28
859.283	3267.54
859.605	3293.3
859.926	3258.28
860.248	3268.45
860.57	3225.96
860.891	3214.89
861.212	3196.81
861.534	3217.6
861.855	3199.29
862.176	3183.02
862.498	3209.69
862.819	3191.84
863.14	3188
863.461	3170.37
863.782	3175.79
864.103	3170.59
864.424	3161.56
864.745	3185.28
865.065	3151.84
865.386	3124.49
865.707	3136.7
866.027	3114.32
866.348	3152.97
866.668	3115
866.989	3121.78
867.309	3145.51
867.63	3108.45
867.95	3126.08
868.27	3095.57
868.59	3085.63
868.91	3091.5
869.23	3095.12
869.55	3056.25
869.87	3072.97
870.19	3122.91
870.51	3095.79
870.83	3073.42
871.15	3050.37
871.469	3111.39
871.789	3087.21
872.109	3049.02
872.428	3033.42
872.748	3075.23
873.067	3012.63
873.386	3048.34
873.706	2986.42
874.025	3028.23
874.344	3014.21
874.663	3011.95
874.982	2982.58
875.301	3010.15
875.62	3036.81
875.939	2990.71
876.258	2992.29
876.577	2959.3
876.896	2956.59
877.214	2941.9
877.533	2969.92
877.852	2970.15
878.17	2991.16
878.489	2973.54
878.807	3006.53
879.125	2975.57
879.444	2941
879.762	2941.45
880.08	2945.52
880.398	2919.98
880.716	2931.5
881.034	2920.21
881.352	2903.48
881.67	2902.13
881.988	2939.87
882.306	2897.38
882.624	2931.73
882.941	2902.35
883.259	2864.16
883.577	2847.44
883.894	2879.98
884.212	2845.63
884.529	2839.76
884.846	2843.6
885.164	2820.55
885.481	2817.84
885.798	2828.46
886.115	2828
886.432	2809.7
886.75	2824.16
887.067	2808.12
887.383	2815.8
887.7	2776.25
888.017	2789.36
888.334	2815.8
888.651	2789.81
888.967	2811.73
889.284	2779.64
889.6	2782.81
889.917	2722.47
890.233	2722.7
890.55	2701
890.866	2748.01
891.182	2704.39
891.498	2690.83
891.815	2692.87
892.131	2720.44
892.447	2716.37
892.763	2677.95
893.079	2684.28
893.395	2660.55
893.71	2662.59
894.026	2672.75
894.342	2653.55
894.657	2669.59
894.973	2632.76
895.289	2621.23
895.604	2599.99
895.92	2613.32
896.235	2594.56
896.55	2611.97
896.865	2626.43
897.181	2607.67
897.496	2625.75
897.811	2575.81
898.126	2588.46
898.441	2532.42
898.756	2550.72
899.071	2536.04
899.386	2575.36
899.7	2509.6
900.015	2505.98
900.33	2518.41
900.644	2466.21
900.959	2468.24
901.273	2447
901.588	2457.84
901.902	2460.1
902.216	2450.16
902.531	2435.92
902.845	2461.69
903.159	2391.18
903.473	2419.43
903.787	2397.96
904.101	2416.04
904.415	2376.49
904.729	2402.03
905.042	2383.72
905.356	2412.2
905.67	2379.2
905.984	2378.98
906.297	2338.3
906.611	2330.16
906.924	2338.07
907.237	2341.01
907.551	2331.07
907.864	2308.7
908.177	2281.8
908.491	2317.28
908.804	2299.88
909.117	2262.82
909.43	2256.72
909.743	2259.88
910.056	2268.02
910.368	2269.83
910.681	2249.71
910.994	2227.57
911.307	2242.94
911.619	2191.86
911.932	2213.78
912.244	2214.46
912.557	2181.69
912.869	2190.28
913.181	2146.89
913.494	2199.32
913.806	2168.14
914.118	2159.32
914.43	2155.25
914.742	2145.31
915.054	2124.07
915.366	2149.6
915.678	2133.79
915.99	2102.37
916.302	2096.05
916.613	2065.99
916.925	2118.87
917.236	2079.32
917.548	2069.15
917.859	2055.14
918.171	2064.63
918.482	2078.42
918.794	2031.19
919.105	2038.19
919.416	2034.35
919.727	2020.12
920.038	2033
920.349	2008.37
920.66	2018.76
920.971	1995.03
921.282	1997.29
921.593	1975.15
921.903	1988.93
922.214	1982.83
922.525	1972.43
922.835	1955.49
923.146	1943.06
923.456	1941.93
923.767	1917.75
924.077	1913.9
924.387	1945.09
924.697	1933.79
925.008	1915.03
925.318	1907.8
925.628	1897.63
925.938	1903.74
926.248	1866.22
926.558	1882.04
926.867	1854.02
927.177	1856.73
927.487	1846.56
927.796	1850.18
928.106	1848.6
928.416	1808.82
928.725	1783.96
929.034	1834.36
929.344	1800.46
929.653	1813.57
929.962	1776.96
930.271	1816.51
930.581	1792.1
930.89	1780.8
931.199	1733.12
931.508	1744.19
931.817	1745.1
932.125	1770.86
932.434	1730.86
932.743	1724.08
933.051	1735.38
933.36	1719.79
933.669	1736.28
933.977	1732.67
934.286	1721.59
934.594	1693.57
934.902	1680.24
935.21	1673.68
935.519	1688.6
935.827	1687.7
936.135	1670.07
936.443	1658.32
936.751	1654.02
937.059	1659.67
937.367	1652.89
937.674	1659.22
937.982	1644.31
938.29	1611.54
938.597	1638.66
938.905	1606.79
939.213	1621.26
939.52	1591.88
939.827	1628.94
940.135	1601.37
940.442	1598.43
940.749	1598.43
941.056	1586.68
941.363	1586
941.67	1590.3
941.977	1576.29
942.284	1541.48
942.591	1568.83
942.898	1522.5
943.205	1521.6
943.511	1545.78
943.818	1521.6
944.125	1531.99
944.431	1501.49
944.738	1511.66
945.044	1514.59
945.35	1499.68
945.657	1470.07
945.963	1497.87
946.269	1469.85
946.575	1489.96
946.881	1473.69
947.187	1470.3
947.493	1480.24
947.799	1449.06
948.105	1453.58
948.41	1466.46
948.716	1470.53
949.022	1453.58
949.327	1449.06
949.633	1438.44
949.938	1452.9
950.244	1437.53
950.549	1404.99
950.854	1421.26
951.16	1409.96
951.465	1436.63
951.77	1415.61
952.075	1405.44
952.38	1360.25
952.685	1385.56
952.99	1390.53
953.294	1384.65
953.599	1380.36
953.904	1345.78
954.209	1380.36
954.513	1357.31
954.818	1361.15
955.122	1331.09
955.426	1341.94
955.731	1330.87
956.035	1329.29
956.339	1319.57
956.643	1315.28
956.948	1301.27
957.252	1293.36
957.556	1325.45
957.86	1308.72
958.163	1303.75
958.467	1299.46
958.771	1261.72
959.075	1271.66
959.378	1291.32
959.682	1228.72
959.985	1286.12
960.289	1273.24
960.592	1273.47
960.896	1274.6
961.199	1250.42
961.502	1264.43
961.805	1241.83
962.108	1255.84
962.411	1223.3
962.714	1219.69
963.017	1232.11
963.32	1210.87
963.623	1234.6
963.926	1233.24
964.228	1244.77
964.531	1205.9
964.833	1206.58
965.136	1200.93
965.438	1187.6
965.741	1202.96
966.043	1171.78
966.345	1187.14
966.648	1178.56
966.95	1166.35
967.252	1166.35
967.554	1174.26
967.856	1163.87
968.158	1156.41
968.46	1149.4
968.761	1171.33
969.063	1150.53
969.365	1158.67
969.666	1160.7
969.968	1127.71
970.269	1136.07
970.571	1128.16
970.872	1095.39
971.174	1137.2
971.475	1086.81
971.776	1124.77
972.077	1095.17
972.378	1103.98
972.679	1115.06
972.98	1113.47
973.281	1100.82
973.582	1098.56
973.883	1085.9
974.183	1070.31
974.484	1095.62
974.785	1068.28
975.085	1082.29
975.386	1070.31
975.686	1082.74
975.986	1070.31
976.287	1073.47
976.587	1080.25
976.887	1029.41
977.187	1020.37
977.487	1057.66
977.787	1049.97
978.087	1034.61
978.387	1062.4
978.687	1033.02
978.987	1009.52
979.286	1028.73
979.586	1016.07
979.885	1022.18
980.185	1006.58
980.484	992.35
980.784	1011.56
981.083	999.8
981.382	973.82
981.682	1007.04
981.981	969.3
982.28	990.99
982.579	973.14
982.878	989.63
983.177	1014.27
983.475	955.51
983.774	971.33
984.073	994.61
984.372	1000.71
984.67	957.77
984.969	959.58
985.267	973.59
985.566	946.02
985.864	952.35
986.162	969.07
986.461	915.96
986.759	936.3
987.057	913.48
987.355	941.5
987.653	914.61
987.951	926.36
988.249	941.27
988.547	925.23
988.844	887.04
989.142	920.03
989.44	900.15
989.737	892.69
990.035	904.21
990.332	904.89
990.63	907.6
990.927	922.74
991.224	891.56
991.521	889.07
991.819	902.41
992.116	884.33
992.413	888.85
992.71	873.48
993.006	862.86
993.303	877.32
993.6	869.41
993.897	856.08
994.193	855.4
994.49	864.21
994.787	874.61
995.083	863.76
995.379	860.82
995.676	831.45
995.972	812.69
996.268	856.98
996.565	822.86
996.861	825.35
997.157	841.39
997.453	829.64
997.749	831.67
998.044	828.74
998.34	816.53
998.636	808.4
998.932	800.04
999.227	807.94
999.523	814.05
999.818	824.44
1000.114	793.03
1000.409	794.84
1000.704	792.35
1001	807.72
1001.295	782.18
1001.59	775.63
1001.885	786.02
1002.18	786.02
1002.475	769.53
1002.77	763.88
1003.065	748.29
1003.359	783.54
1003.654	766.59
1003.949	751
1004.243	757.78
1004.538	759.58
1004.832	764.56
1005.127	760.71
1005.421	755.74
1005.715	751.45
1006.009	738.12
1006.304	759.58
1006.598	761.84
1006.892	734.5
1007.186	751.9
1007.48	752.58
1007.773	736.08
1008.067	714.39
1008.361	719.81
1008.655	715.07
1008.948	698.34
1009.242	715.74
1009.535	689.3
1009.829	713.03
1010.122	689.53
1010.415	707.61
1010.708	696.31
1011.001	698.8
1011.295	699.93
1011.588	724.56
1011.881	678.46
1012.173	691.34
1012.466	674.16
1012.759	663.99
1013.052	662.41
1013.344	676.42
1013.637	680.94
1013.93	660.83
1014.222	676.2
1014.514	661.06
1014.807	659.47
1015.099	674.39
1015.391	659.93
1015.683	650.66
1015.976	664.67
1016.268	647.72
1016.56	661.06
1016.851	643.66
1017.143	626.71
1017.435	654.05
1017.727	638.91
1018.018	656.76
1018.31	655.63
1018.602	617.67
1018.893	647.72
1019.185	631.23
1019.476	605.92
1019.767	625.35
1020.058	604.79
1020.35	612.92
1020.641	625.58
1020.932	599.59
1021.223	590.1
1021.514	603.2
1021.804	601.62
1022.095	602.53
1022.386	607.05
1022.677	602.3
1022.967	602.3
1023.258	577.22
1023.548	599.36
1023.839	580.83
1024.129	566.82
1024.419	588.06
1024.709	574.5
1025	565.69
1025.29	587.39
1025.58	563.88
1025.87	553.49
1026.16	572.7
1026.449	550.1
1026.739	555.07
1027.029	563.66
1027.319	586.26
1027.608	544.67
1027.898	548.74
1028.187	544.22
1028.477	558.69
1028.766	569.08
1029.055	541.06
1029.344	534.28
1029.634	524.11
1029.923	536.99
1030.212	547.84
1030.501	531.79
1030.79	544.45
1031.078	539.93
1031.367	525.24
1031.656	547.39
1031.945	513.04
1032.233	528.63
1032.522	533.38
1032.81	509.42
1033.099	530.21
1033.387	522.75
1033.675	509.2
1033.963	502.87
1034.251	495.18
1034.54	494.73
1034.828	476.2
1035.116	520.95
1035.403	515.07
1035.691	513.72
1035.979	478.24
1036.267	494.28
1036.554	488.41
1036.842	494.28
1037.129	489.99
1037.417	500.38
1037.704	484.11
1037.992	497.22
1038.279	469.65
1038.566	475.52
1038.853	475.52
1039.14	475.52
