Data from mousepad_grey_FLMS001491_00057.txt Node
Date: Wed Feb 08 14:29:38 GMT 2017
User: dcchb
Spectrometer: FLMS00149
Trigger mode: 0
Integration Time (sec): 2.000000E-2
Scans to average: 10
Electric dark correction enabled: true
Nonlinearity correction enabled: false
Boxcar width: 0
XAxis mode: Wavelengths
Number of Pixels in Spectrum: 2048
>>>>>Begin Spectral Data<<<<<
341.393	-6.72
341.776	-6.72
342.16	-6.72
342.543	-54.86
342.927	-73.61
343.31	-63.9
343.693	-79.49
344.077	-66.16
344.46	-53.28
344.843	-50.79
345.226	-22.09
345.61	-40.85
345.993	6.38
346.376	-15.99
346.759	-4.69
347.142	32.37
347.525	31.24
347.908	51.13
348.291	58.36
348.674	93.39
349.057	124.35
349.44	132.48
349.823	141.07
350.206	152.14
350.588	188.3
350.971	202.54
351.354	193.27
351.737	226.94
352.119	229.2
352.502	244.12
352.884	257.22
353.267	243.21
353.65	251.8
354.032	273.5
354.414	295.64
354.797	286.6
355.179	331.12
355.562	317.79
355.944	295.64
356.326	315.53
356.709	289.77
357.091	298.81
357.473	328.41
357.855	322.08
358.238	335.41
358.62	315.08
359.002	301.07
359.384	323.44
359.766	319.37
360.148	302.87
360.53	315.3
360.912	319.6
361.294	331.12
361.676	329.77
362.057	328.41
362.439	325.7
362.821	300.39
363.203	316.21
363.584	308.3
363.966	307.17
364.348	305.36
364.729	293.38
365.111	309.88
365.493	303.1
365.874	285.7
366.256	306.49
366.637	300.39
367.019	266.26
367.4	292.93
367.781	273.95
368.163	301.07
368.544	309.88
368.925	301.29
369.306	315.98
369.688	287.05
370.069	300.39
370.45	269.88
370.831	259.26
371.212	304
371.593	283.66
371.974	291.57
372.355	283.66
372.736	296.32
373.117	305.81
373.498	283.21
373.879	299.03
374.26	279.15
374.641	301.52
375.021	277.79
375.402	296.32
375.783	294.51
376.163	301.07
376.544	294.51
376.925	298.81
377.305	310.56
377.686	298.13
378.066	301.52
378.447	310.33
378.827	297.22
379.208	304.68
379.588	298.58
379.968	323.66
380.349	299.71
380.729	312.14
381.109	301.29
381.489	320.05
381.87	328.86
382.25	317.56
382.63	315.75
383.01	322.76
383.39	326.15
383.77	309.43
384.15	297.9
384.53	329.09
384.91	310.78
385.29	334.96
385.67	319.82
386.049	327.51
386.429	315.75
386.809	320.95
387.189	325.7
387.568	324.34
387.948	313.04
388.328	362.53
388.707	312.14
389.087	329.77
389.466	344
389.846	351.91
390.225	332.48
390.605	349.2
390.984	334.06
391.363	329.54
391.743	355.08
392.122	359.6
392.501	322.53
392.881	326.83
393.26	346.94
393.639	348.3
394.018	340.84
394.397	343.78
394.776	344.45
395.155	354.4
395.534	361.4
395.913	355.08
396.292	361.63
396.671	358.01
397.05	353.72
397.429	361.4
397.808	341.52
398.186	365.47
398.565	353.27
398.944	346.26
399.323	351.23
399.701	354.85
400.08	380.39
400.458	367.96
400.837	377
401.215	366.6
401.594	360.95
401.972	354.17
402.351	381.29
402.729	358.69
403.107	374.28
403.486	379.93
403.864	387.16
404.242	371.12
404.62	382.65
404.999	392.81
405.377	399.82
405.755	369.76
406.133	380.61
406.511	409.76
406.889	385.36
407.267	397.79
407.645	389.65
408.023	405.02
408.401	399.14
408.779	387.16
409.156	413.83
409.534	408.18
409.912	430.78
410.29	416.77
410.667	417.22
411.045	429.65
411.422	419.03
411.8	419.25
412.178	419.25
412.555	436.88
412.933	436.88
413.31	436.66
413.687	442.98
414.065	456.99
414.442	426.49
414.819	454.06
415.197	418.12
415.574	466.26
415.951	439.82
416.328	462.87
416.705	462.64
417.082	450.67
417.46	448.86
417.837	454.96
418.214	472.36
418.591	466.03
418.967	466.26
419.344	492.25
419.721	468.97
420.098	459.25
420.475	495.64
420.852	487.28
421.228	463.1
421.605	472.81
421.982	489.08
422.358	487.73
422.735	466.03
423.111	515.75
423.488	501.51
423.864	493.38
424.241	519.36
424.617	520.04
424.994	521.85
425.37	506.03
425.746	523.66
426.123	520.49
426.499	511.46
426.875	528.18
427.251	528.63
427.627	538.12
428.003	540.16
428.379	559.59
428.756	548.74
429.132	555.07
429.507	559.14
429.883	554.17
430.259	572.02
430.635	556.43
431.011	560.27
431.387	578.8
431.763	594.84
432.138	591.23
432.514	571.11
432.89	587.39
433.265	595.52
433.641	603.88
434.016	602.75
434.392	626.71
434.767	619.48
435.143	623.99
435.518	616.76
435.894	642.53
436.269	636.88
436.644	605.24
437.02	656.31
437.395	646.59
437.77	642.98
438.145	657.89
438.52	661.73
438.895	661.96
439.271	649.53
439.646	698.57
440.021	687.27
440.395	691.56
440.77	692.24
441.145	729.08
441.52	712.35
441.895	687.5
442.27	695.86
442.645	702.64
443.019	743.54
443.394	722.07
443.769	712.13
444.143	715.29
444.518	739.92
444.892	705.12
445.267	753.93
445.641	726.82
446.016	736.31
446.39	733.14
446.764	748.51
447.139	727.04
447.513	739.02
447.887	748.96
448.262	761.84
448.636	734.73
449.01	743.31
449.384	779.7
449.758	750.55
450.132	779.25
450.506	776.99
450.88	797.78
451.254	815.63
451.628	784.89
452.002	803.43
452.376	791
452.75	802.75
453.123	814.05
453.497	827.15
453.871	820.15
454.244	852.69
454.618	859.47
454.992	835.06
455.365	841.62
455.739	860.82
456.112	893.82
456.486	863.08
456.859	889.52
457.232	913.48
457.606	897.21
457.979	911.9
458.352	931.11
458.725	936.3
459.099	932.01
459.472	953.25
459.845	965
460.218	980.82
460.591	972.23
460.964	972.23
461.337	981.73
461.71	995.51
462.083	1008.84
462.456	1008.39
462.829	1037.77
463.201	1057.88
463.574	1029.18
463.947	1026.7
464.32	1044.32
464.692	1057.2
465.065	1072.57
465.438	1103.3
465.81	1092.01
466.183	1103.76
466.555	1122.06
466.928	1115.06
467.3	1121.38
467.672	1155.05
468.045	1159.8
468.417	1157.77
468.789	1176.75
469.161	1164.55
469.534	1203.41
469.906	1219.46
470.278	1227.37
470.65	1228.27
471.022	1264.2
471.394	1284.54
471.766	1277.54
472.138	1285.9
472.51	1315.05
472.882	1339
473.253	1354.15
473.625	1365.44
473.997	1389.17
474.369	1411.32
474.74	1410.19
475.112	1433.47
475.484	1467.81
475.855	1469.62
476.227	1482.28
476.598	1499.23
476.97	1522.5
477.341	1539.45
477.713	1582.16
478.084	1576.06
478.455	1624.19
478.827	1594.36
479.198	1648.15
479.569	1637.53
479.94	1690.63
480.311	1729.95
480.682	1749.16
481.053	1756.62
481.424	1790.52
481.795	1833.68
482.166	1832.1
482.537	1856.73
482.908	1873.23
483.279	1884.98
483.65	1917.07
484.021	1951.19
484.391	1973.56
484.762	1987.35
485.133	2025.99
485.503	2004.52
485.874	2064.63
486.244	2061.92
486.615	2111.64
486.985	2139.44
487.356	2150.96
487.726	2185.31
488.097	2215.37
488.467	2251.52
488.837	2282.26
489.207	2309.83
489.578	2306.21
489.948	2321.58
490.318	2377.62
490.688	2370.62
491.058	2390.05
491.428	2411.97
491.798	2445.19
492.168	2495.81
492.538	2513.66
492.908	2549.59
493.278	2602.93
493.648	2588.01
494.017	2571.06
494.387	2654.9
494.757	2652.42
495.126	2661.23
495.496	2651.96
495.866	2668.69
496.235	2717.95
496.605	2735.8
496.974	2737.16
497.344	2798.85
497.713	2792.98
498.082	2803.82
498.452	2834.11
498.821	2808.12
499.19	2877.27
499.559	2875.69
499.928	2907.32
500.298	2930.83
500.667	2902.35
501.036	2941.67
501.405	2975.57
501.774	2985.74
502.143	2997.49
502.512	3039.3
502.88	3008.79
503.249	3055.34
503.618	3052.18
503.987	3081.33
504.356	3095.57
504.724	3114.1
505.093	3188.67
505.462	3146.41
505.83	3197.71
506.199	3223.47
506.567	3241.33
506.936	3241.55
507.304	3267.32
507.672	3293.3
508.041	3361.32
508.409	3301.66
508.777	3349.35
509.145	3342.57
509.514	3357.48
509.882	3367.2
510.25	3431.38
510.618	3436.58
510.986	3459.63
511.354	3477.71
511.722	3491.94
512.09	3558.83
512.458	3523.81
512.826	3547.76
513.193	3553.86
513.561	3569.23
513.929	3621.43
514.297	3608.32
514.664	3689.68
515.032	3668.43
515.4	3714.99
515.767	3772.84
516.135	3749.34
516.502	3747.08
516.869	3804.93
517.237	3806.06
517.604	3833.18
517.972	3878.82
518.339	3850.8
518.706	3886.73
519.073	3919.05
519.44	3950.24
519.808	3987.3
520.175	3954.75
520.542	4009.67
520.909	4021.65
521.276	4044.92
521.643	4123.34
522.009	4090.12
522.376	4143.68
522.743	4169.44
523.11	4209.44
523.477	4209.44
523.843	4269.55
524.21	4239.72
524.577	4309.77
524.943	4312.94
525.31	4352.94
525.676	4394.97
526.043	4358.81
526.409	4420.51
526.776	4465.48
527.142	4471.13
527.508	4519.94
527.874	4525.14
528.241	4570.11
528.607	4635.41
528.973	4604.46
529.339	4666.15
529.705	4671.57
530.071	4704.57
530.437	4670.67
530.803	4705.24
531.169	4792.47
531.535	4785.92
531.901	4776.43
532.267	4787.5
532.632	4826.37
532.998	4909.98
533.364	4912.02
533.73	4963.09
534.095	4933.71
534.461	5004.22
534.826	5032.92
535.192	4964.45
535.557	5023.43
535.923	5003.54
536.288	5053.71
536.653	5118.57
537.019	5086.02
537.384	5156.08
537.749	5176.19
538.114	5180.03
538.479	5183.42
538.845	5214.38
539.21	5231.11
539.575	5251.22
539.94	5245.12
540.305	5336.19
540.67	5273.59
541.034	5345
541.399	5357.66
541.764	5344.1
542.129	5406.02
542.494	5453.25
542.858	5421.83
543.223	5459.12
543.587	5482.85
543.952	5516.97
544.316	5510.42
544.681	5523.08
545.045	5611.21
545.41	5552
545.774	5575.05
546.138	5648.5
546.503	5661.83
546.867	5643.3
547.231	5709.06
547.595	5700.02
547.959	5766.46
548.324	5745.44
548.688	5772.11
549.052	5769.62
549.416	5833.58
549.779	5815.72
550.143	5857.76
550.507	5917.64
550.871	5926
551.235	5955.15
551.599	5961.03
551.962	6003.06
552.326	6017.07
552.689	6002.84
553.053	6039.22
553.417	6074.25
553.78	6140.23
554.143	6073.12
554.507	6108.14
554.87	6160.57
555.234	6242.38
555.597	6215.03
555.96	6186.11
556.323	6247.58
556.686	6212.32
557.05	6330.96
557.413	6357.18
557.776	6296.39
558.139	6347.23
558.502	6374.35
558.865	6383.39
559.228	6464.52
559.59	6476.04
559.953	6511.52
560.316	6511.75
560.679	6552.65
561.041	6594.46
561.404	6681.01
561.767	6704.29
562.129	6625.19
562.492	6681.69
562.854	6705.64
563.217	6686.43
563.579	6718.52
563.941	6749.26
564.304	6783.61
564.666	6804.17
565.028	6855.92
565.39	6896.15
565.753	6899.08
566.115	6895.02
566.477	6963.26
566.839	7001
567.201	6981.12
567.563	7075.35
567.925	7083.26
568.287	7078.74
568.648	7115.8
569.01	7159.19
569.372	7198.51
569.734	7188.57
570.095	7205.52
570.457	7264.5
570.819	7265.18
571.18	7313.31
571.542	7292.52
571.903	7340.43
572.265	7349.24
572.626	7321.9
572.987	7424.27
573.349	7438.73
573.71	7482.12
574.071	7486.87
574.432	7540.65
574.794	7539.75
575.155	7541.1
575.516	7549.46
575.877	7580.65
576.238	7609.57
576.599	7560.99
576.96	7589.24
577.32	7619.07
577.681	7676.01
578.042	7644.6
578.403	7666.97
578.763	7703.36
579.124	7693.87
579.485	7805.27
579.845	7706.97
580.206	7747.2
580.566	7737.48
580.927	7801.43
581.287	7793.52
581.648	7782.9
582.008	7828.55
582.368	7791.04
582.728	7791.49
583.089	7845.5
583.449	7831.26
583.809	7836.23
584.169	7840.75
584.529	7848.44
584.889	7890.24
585.249	7854.09
585.609	7853.86
585.969	7866.52
586.329	7866.29
586.688	7845.27
587.048	7893.86
587.408	7806.18
587.768	7869.45
588.127	7887.98
588.487	7837.82
588.846	7939.51
589.206	7889.57
589.565	7891.83
589.925	7926.4
590.284	7904.03
590.643	7930.47
591.003	7946.51
591.362	7916.46
591.721	7925.05
592.08	7920.3
592.44	7937.7
592.799	7950.58
593.158	7886.4
593.517	7926.4
593.876	7916.68
594.235	7961.2
594.593	7955.33
594.952	7982.67
595.311	7872.17
595.67	7943.35
596.029	7980.19
596.387	8026.29
596.746	8059.73
597.104	7940.64
597.463	8020.64
597.822	7970.69
598.18	7951.26
598.538	7964.14
598.897	7981.32
599.255	7959.62
599.613	8033.52
599.972	7984.71
600.33	8085.95
600.688	7997.13
601.046	7999.62
601.404	8037.59
601.762	8030.81
602.12	8029.68
602.478	8050.69
602.836	8078.26
603.194	8055.66
603.552	8050.92
603.91	8002.56
604.268	8062.44
604.625	8067.19
604.983	8089.79
605.341	8073.97
605.698	8079.17
606.056	8111.48
606.413	8095.89
606.771	8113.74
607.128	8142.22
607.485	8091.6
607.843	8125.49
608.2	8167.53
608.557	8192.38
608.914	8143.35
609.272	8246.85
609.629	8222.21
609.986	8219.05
610.343	8183.12
610.7	8215.21
611.057	8213.63
611.414	8256.11
611.771	8223.57
612.127	8254.08
612.484	8238.26
612.841	8324.58
613.198	8278.71
613.554	8233.06
613.911	8285.71
614.267	8305.37
614.624	8303.57
614.98	8288.43
615.337	8293.62
615.693	8302.44
616.05	8317.8
616.406	8389.67
616.762	8341.53
617.118	8389.44
617.475	8422.66
617.831	8329.33
618.187	8334.53
618.543	8406.16
618.899	8472.83
619.255	8342.89
619.611	8387.18
619.967	8448.2
620.323	8453.62
620.678	8402.1
621.034	8351.02
621.39	8407.52
621.746	8411.36
622.101	8546.05
622.457	8433.51
622.812	8445.71
623.168	8485.03
623.523	8491.13
623.879	8492.71
624.234	8432.83
624.589	8486.16
624.945	8462.66
625.3	8455.65
625.655	8433.96
626.01	8465.82
626.365	8488.42
626.72	8518.25
627.075	8477.12
627.43	8457.01
627.785	8431.93
628.14	8508.99
628.495	8508.08
628.85	8455.2
629.205	8424.92
629.559	8502.43
629.914	8433.73
630.269	8487.52
630.623	8397.35
630.978	8406.39
631.332	8442.77
631.687	8461.53
632.041	8426.5
632.396	8537.46
632.75	8355.54
633.104	8435.99
633.459	8339.72
633.813	8393.73
634.167	8382.66
634.521	8369.55
634.875	8400.51
635.229	8417.46
635.583	8374.75
635.937	8360.51
636.291	8354.41
636.645	8325.71
636.999	8284.81
637.352	8316.22
637.706	8314.87
638.06	8320.74
638.413	8302.66
638.767	8250.24
639.121	8327.75
639.474	8277.58
639.828	8267.41
640.181	8337.01
640.534	8345.15
640.888	8252.27
641.241	8214.08
641.594	8273.29
641.947	8264.47
642.301	8236.45
642.654	8295.66
643.007	8292.49
643.36	8235.32
643.713	8240.74
644.066	8290.01
644.419	8239.39
644.771	8163.46
645.124	8113.74
645.477	8127.53
645.83	8121.42
646.182	8033.97
646.535	8013.18
646.888	7997.59
647.24	7958.27
647.593	8050.24
647.945	8015.66
648.298	7981.32
648.65	8007.98
649.002	7953.07
649.355	8010.47
649.707	7946.29
650.059	8013.86
650.411	8143.12
650.763	8164.14
651.115	8193.74
651.467	8190.58
651.819	8167.98
652.171	8175.89
652.523	8194.42
652.875	8144.7
653.227	8148.54
653.578	8220.18
653.93	8153.06
654.282	8140.18
654.633	8153.74
654.985	8123.23
655.337	8150.58
655.688	8198.48
656.039	8184.93
656.391	8129.56
656.742	8142.22
657.094	8124.59
657.445	8225.38
657.796	8154.87
658.147	8132.27
658.498	8194.87
658.849	8126.17
659.2	8179.05
659.551	8120.97
659.902	8118.71
660.253	8152.61
660.604	8181.08
660.955	8139.05
661.306	8198.03
661.656	8177.47
662.007	8219.05
662.358	8145.15
662.708	8153.29
663.059	8214.76
663.409	8104.02
663.76	8168.88
664.11	8203.23
664.461	8159.39
664.811	8184.7
665.161	8207.07
665.511	8133.85
665.862	8125.72
666.212	8135.89
666.562	8155.77
666.912	8188.77
667.262	8120.07
667.612	8149.9
667.962	8158.94
668.312	8108.54
668.662	8218.82
669.011	8130.92
669.361	8174.98
669.711	8170.92
670.06	8109.9
670.41	8123.68
670.76	8124.59
671.109	8151.93
671.459	8205.04
671.808	8134.08
672.157	8133.18
672.507	8030.35
672.856	8060.41
673.205	8069.45
673.554	8054.53
673.904	8120.52
674.253	8130.92
674.602	8105.15
674.951	8033.07
675.3	7915.1
675.649	8019.51
675.998	7993.52
676.346	8035.1
676.695	8034.87
677.044	7957.59
677.393	8005.5
677.741	8059.51
678.09	8015.21
678.438	7971.82
678.787	7942.22
679.135	7943.58
679.484	7944.93
679.832	7973.18
680.181	7927.08
680.529	7956.68
680.877	7967.08
681.225	7918.04
681.573	7950.81
681.922	7923.24
682.27	7852.73
682.618	7981.77
682.966	7912.16
683.314	7904.93
683.661	7891.83
684.009	7812.73
684.357	7813.41
684.705	7730.02
685.053	7760.76
685.4	7795.11
685.748	7823.58
686.095	7712.4
686.443	7683.92
686.79	7724.6
687.138	7690.25
687.485	7750.81
687.832	7711.49
688.18	7652.51
688.527	7657.26
688.874	7586.98
689.221	7609.12
689.568	7623.58
689.915	7590.37
690.262	7549.69
690.609	7542.46
690.956	7575
691.303	7543.13
691.65	7413.87
691.997	7378.85
692.344	7361.9
692.69	7449.13
693.037	7353.08
693.383	7352.41
693.73	7397.6
694.077	7247.1
694.423	7309.92
694.769	7254.33
695.116	7321.22
695.462	7247.55
695.808	7228.79
696.155	7212.75
696.501	7189.92
696.847	7196.93
697.193	7140.21
697.539	7148.8
697.885	7073.77
698.231	7118.06
698.577	7092.53
698.923	7075.58
699.269	6990.16
699.614	6939.76
699.96	7020.21
700.306	6964.62
700.651	6858.41
700.997	6932.53
701.342	6840.33
701.688	6857.73
702.033	6816.37
702.379	6866.99
702.724	6806.88
703.069	6826.32
703.415	6743.83
703.76	6775.25
704.105	6706.32
704.45	6785.87
704.795	6689.6
705.14	6684.4
705.485	6700.9
705.83	6635.14
706.175	6672.88
706.52	6633.78
706.865	6547.91
707.209	6559.21
707.554	6520.56
707.899	6576.61
708.243	6534.35
708.588	6518.98
708.932	6483.73
709.277	6408.93
709.621	6460.68
709.966	6425.88
710.31	6474.01
710.654	6387.01
710.998	6398.08
711.342	6394.69
711.687	6398.08
712.031	6387.46
712.375	6298.65
712.719	6306.78
713.063	6364.86
713.407	6383.62
713.75	6377.29
714.094	6351.08
714.438	6306.11
714.782	6310.4
715.125	6302.26
715.469	6249.84
715.812	6263.17
716.156	6183.85
716.499	6255.71
716.843	6240.34
717.186	6274.47
717.53	6233.34
717.873	6253.68
718.216	6166.9
718.559	6163.06
718.902	6134.13
719.246	6206.45
719.589	6244.86
719.932	6192.44
720.275	6167.35
720.617	6179.1
720.96	6147.92
721.303	6123.96
721.646	6147.69
721.989	6139.56
722.331	6162.38
722.674	6131.19
723.016	6179.78
723.359	6100.69
723.701	6100.91
724.044	6096.85
724.386	6092.1
724.729	6174.81
725.071	6105.21
725.413	6094.36
725.755	6083.29
726.097	6042.84
726.439	6026.56
726.782	6099.78
727.124	6095.49
727.465	6054.81
727.807	6031.99
728.149	6041.48
728.491	6078.09
728.833	6066.56
729.175	6068.15
729.516	6013.46
729.858	6067.92
730.199	6034.7
730.541	6005.1
730.882	6077.18
731.224	6105.43
731.565	6065.43
731.906	6033.57
732.248	6032.44
732.589	6019.33
732.93	6038.99
733.271	6009.84
733.612	5996.96
733.953	6001.93
734.294	6035.15
734.635	5996.73
734.976	5985.44
735.317	5973.91
735.658	5984.08
735.999	6032.89
736.339	5984.08
736.68	6090.52
737.021	5990.63
737.361	6001.48
737.702	6032.21
738.042	5983.18
738.383	6004.42
738.723	5991.31
739.063	6016.62
739.404	6001.71
739.744	6020.69
740.084	6011.42
740.424	6001.93
740.764	5926
741.104	5977.3
741.444	6017.75
741.784	5954.02
742.124	6003.06
742.464	5943.86
742.804	5961.93
743.143	5982.05
743.483	5949.5
743.823	6008.03
744.162	5981.82
744.502	6004.87
744.841	5993.57
745.181	5957.64
745.52	5980.01
745.86	6009.39
746.199	5981.82
746.538	5969.39
746.877	6019.56
747.216	6011.42
747.556	5982.27
747.895	5975.04
748.234	5834.03
748.573	5930.3
748.911	5911.54
749.25	5963.06
749.589	5921.03
749.928	5911.31
750.267	5940.24
750.605	5951.09
750.944	5966
751.283	5934.59
751.621	5925.78
751.96	5868.83
752.298	5965.32
752.636	5909.96
752.975	5907.47
753.313	5844.2
753.651	5943.4
753.989	5875.61
754.327	5914.93
754.666	5816.85
755.004	5834.03
755.342	5916.74
755.679	5822.28
756.017	5830.19
756.355	5822.28
756.693	5768.49
757.031	5881.03
757.368	5787.02
757.706	5782.5
758.044	5766.23
758.381	5809.4
758.719	5791.54
759.056	5746.57
759.394	5733.47
759.731	5713.13
760.068	5741.6
760.405	5733.24
760.743	5677.42
761.08	5705.44
761.417	5679.46
761.754	5635.61
762.091	5639.46
762.428	5615.5
762.765	5545.45
763.102	5615.95
763.438	5584.09
763.775	5531.89
764.112	5593.81
764.449	5589.97
764.785	5550.42
765.122	5480.82
765.458	5478.56
765.795	5505.9
766.131	5457.31
766.467	5467.03
766.804	5479.91
767.14	5397.43
767.476	5445.56
767.812	5413.7
768.148	5442.4
768.485	5389.07
768.821	5305
769.157	5275.85
769.492	5344.32
769.828	5304.32
770.164	5271.78
770.5	5297.77
770.836	5217.55
771.171	5225.91
771.507	5247.15
771.842	5246.25
772.178	5209.64
772.513	5160.37
772.849	5172.35
773.184	5141.16
773.519	5164.89
773.855	5133.93
774.19	5065.69
774.525	5133.93
774.86	5126.25
775.195	5091.9
775.53	5032.24
775.865	5022.52
776.2	5005.57
776.535	5019.13
776.87	4967.38
777.205	4955.41
777.539	4966.48
777.874	4979.13
778.209	4891
778.543	4898.46
778.878	4870.21
779.212	4868.18
779.547	4828.18
779.881	4861.62
780.215	4806.26
780.55	4811.23
780.884	4806.94
781.218	4811.46
781.552	4806.48
781.886	4748.86
782.22	4736.88
782.554	4721.06
782.888	4645.13
783.222	4639.03
783.556	4630.22
783.889	4664.57
784.223	4587.73
784.557	4592.7
784.89	4550.45
785.224	4552.03
785.557	4545.47
785.891	4571.24
786.224	4509.99
786.558	4578.92
786.891	4520.62
787.224	4485.59
787.557	4503.67
787.891	4495.76
788.224	4453.95
788.557	4440.62
788.89	4473.61
789.223	4419.83
789.556	4389.77
789.888	4373.05
790.221	4414.4
790.554	4322.2
790.887	4328.3
791.219	4298.93
791.552	4338.02
791.884	4262.32
792.217	4310.45
792.549	4293.95
792.882	4219.15
793.214	4247.4
793.546	4243.33
793.879	4257.35
794.211	4223.9
794.543	4223.9
794.875	4221.41
795.207	4191.81
795.539	4196.78
795.871	4184.81
796.203	4147.07
796.535	4113.85
796.867	4088.99
797.198	4110.23
797.53	4139.38
797.862	4079.05
798.193	4089.67
798.525	4093.51
798.856	4060.74
799.188	4008.76
799.519	4051.02
799.85	4023
800.182	3992.27
800.513	3949.78
800.844	3947.3
801.175	3975.55
801.506	3989.78
801.837	3950.01
802.168	3954.3
802.499	3970.35
802.83	3935.09
803.161	3886.73
803.491	3895.32
803.822	3891.48
804.153	3880.86
804.483	3828.2
804.814	3831.82
805.145	3878.6
805.475	3879.28
805.805	3837.24
806.136	3853.51
806.466	3867.3
806.796	3790.47
807.126	3787.08
807.457	3762.22
807.787	3784.59
808.117	3733.74
808.447	3781.88
808.777	3742.78
809.107	3774.19
809.436	3776
809.766	3700.07
810.096	3701.88
810.426	3719.28
810.755	3674.31
811.085	3663.69
811.414	3660.75
811.744	3696.23
812.073	3680.19
812.403	3664.37
812.732	3606.97
813.061	3643.58
813.39	3595.44
813.719	3607.19
814.049	3596.8
814.378	3606.97
814.707	3586.85
815.036	3617.36
815.365	3625.95
815.693	3551.6
816.022	3555.22
816.351	3550.25
816.68	3505.73
817.008	3517.7
817.337	3506.18
817.665	3536.69
817.994	3482.22
818.322	3499.63
818.651	3494.65
818.979	3463.02
819.307	3523.58
819.636	3471.38
819.964	3473.41
820.292	3463.69
820.62	3481.55
820.948	3444.03
821.276	3476.12
821.604	3479.29
821.932	3461.89
822.259	3471.6
822.587	3446.97
822.915	3432.06
823.243	3498.72
823.57	3434.09
823.898	3448.55
824.225	3451.94
824.553	3439.97
824.88	3444.94
825.207	3463.47
825.535	3401.1
825.862	3458.27
826.189	3426.86
826.516	3497.59
826.843	3496.46
827.17	3475.9
827.497	3470.7
827.824	3481.55
828.151	3443.36
828.478	3466.63
828.805	3456.46
829.131	3425.05
829.458	3453.3
829.785	3389.8
830.111	3438.84
830.438	3446.97
830.764	3444.94
831.09	3390.7
831.417	3427.31
831.743	3438.84
832.069	3451.49
832.395	3421.89
832.722	3405.84
833.048	3376.24
833.374	3416.24
833.7	3394.77
834.026	3418.27
834.351	3412.4
834.677	3387.09
835.003	3397.71
835.329	3410.36
835.654	3396.8
835.98	3418.27
836.306	3372.62
836.631	3348.22
836.956	3343.25
837.282	3398.84
837.607	3357.03
837.932	3356.13
838.258	3375.79
838.583	3345.05
838.908	3308.44
839.233	3327.88
839.558	3335.79
839.883	3349.8
840.208	3322.91
840.533	3325.62
840.858	3350.02
841.182	3301.44
841.507	3293.08
841.832	3293.76
842.156	3293.98
842.481	3265.51
842.805	3322
843.13	3260.99
843.454	3262.8
843.778	3270.48
844.103	3246.3
844.427	3245.39
844.751	3294.43
845.075	3240.65
845.399	3263.47
845.723	3231.16
846.047	3204.94
846.371	3193.87
846.695	3164.27
847.019	3137.15
847.343	3175.34
847.666	3141.22
847.99	3160.65
848.313	3111.84
848.637	3077.26
848.96	3085.17
849.284	3121.78
849.607	3109.35
849.931	3086.53
850.254	3077.72
850.577	3045.63
850.9	3030.26
851.223	3031.39
851.546	3025.97
851.869	3021.67
852.192	3038.17
852.515	3004.5
852.838	2940.77
853.161	2923.14
853.483	3006.31
853.806	2916.36
854.129	2960.2
854.451	2954.33
854.774	2889.25
855.096	2896.48
855.419	2913.88
855.741	2876.37
856.063	2888.79
856.385	2904.16
856.708	2879.3
857.03	2914.1
857.352	2895.8
857.674	2853.99
857.996	2828
858.318	2840.66
858.64	2822.58
858.961	2830.49
859.283	2806.99
859.605	2795.46
859.926	2814.22
860.248	2806.31
860.57	2829.13
860.891	2791.62
861.212	2792.98
861.534	2768.57
861.855	2764.05
862.176	2773.99
862.498	2778.29
862.819	2781
863.14	2745.97
863.461	2734.45
863.782	2727.67
864.103	2722.02
864.424	2741.23
864.745	2741.91
865.065	2719.53
865.386	2717.5
865.707	2721.34
866.027	2718.18
866.348	2738.52
866.668	2709.82
866.989	2695.35
867.309	2683.38
867.63	2692.42
867.95	2718.86
868.27	2667.56
868.59	2696.71
868.91	2675.01
869.23	2685.41
869.55	2646.31
869.87	2684.73
870.19	2654.22
870.51	2681.79
870.83	2652.42
871.15	2646.99
871.469	2634.34
871.789	2639.08
872.109	2630.5
872.428	2633.21
872.748	2623.72
873.067	2626.65
873.386	2646.77
873.706	2618.29
874.025	2651.74
874.344	2630.72
874.663	2612.87
874.982	2569.25
875.301	2592.76
875.62	2629.14
875.939	2598.63
876.258	2586.66
876.577	2583.94
876.896	2593.89
877.214	2588.69
877.533	2575.81
877.852	2569.93
878.17	2581.46
878.489	2585.53
878.807	2590.72
879.125	2588.46
879.444	2589.37
879.762	2573.32
880.08	2548.69
880.398	2547.56
880.716	2554.34
881.034	2551.85
881.352	2532.87
881.67	2514.11
881.988	2555.02
882.306	2544.4
882.624	2522.25
882.941	2520.89
883.259	2471.86
883.577	2505.08
883.894	2488.13
884.212	2486.77
884.529	2455.81
884.846	2487.9
885.164	2471.18
885.481	2463.27
885.798	2465.3
886.115	2457.84
886.432	2457.39
886.75	2465.98
887.067	2424.17
887.383	2428.02
887.7	2405.64
888.017	2408.81
888.334	2449.71
888.651	2427.34
888.967	2432.76
889.284	2413.1
889.6	2409.71
889.917	2373.33
890.233	2394.12
890.55	2352.76
890.866	2375.14
891.182	2373.1
891.498	2339.2
891.815	2362.03
892.131	2358.41
892.447	2334.46
892.763	2345.53
893.079	2338.98
893.395	2329.71
893.71	2321.35
894.026	2315.48
894.342	2300.79
894.657	2304.18
894.973	2324.29
895.289	2316.15
895.604	2312.99
895.92	2301.24
896.235	2279.54
896.55	2292.65
896.865	2285.65
897.181	2240.22
897.496	2288.13
897.811	2259.21
898.126	2246.78
898.441	2241.58
898.756	2210.85
899.071	2220.56
899.386	2234.12
899.7	2171.75
900.015	2159.77
900.33	2198.42
900.644	2192.99
900.959	2163.84
901.273	2197.74
901.588	2174.24
901.902	2182.15
902.216	2164.29
902.531	2169.94
902.845	2134.92
903.159	2150.28
903.473	2117.29
903.787	2141.02
904.101	2097.85
904.415	2125.88
904.729	2132.88
905.042	2070.06
905.356	2099.66
905.67	2089.72
905.984	2087.01
906.297	2071.41
906.611	2074.58
906.924	2038.87
907.237	2015.6
907.551	2071.64
907.864	2030.96
908.177	2024.86
908.491	1991.87
908.804	2007.24
909.117	1998.42
909.43	1985.99
909.743	1987.35
910.056	2014.69
910.368	1971.98
910.681	1983.28
910.994	1945.99
911.307	1962.72
911.619	1957.75
911.932	1916.39
912.244	1929.27
912.557	1904.19
912.869	1929.05
913.181	1937.18
913.494	1927.69
913.806	1891.08
914.118	1915.94
914.43	1920.01
914.742	1882.94
915.054	1894.7
915.366	1857.18
915.678	1860.8
915.99	1844.08
916.302	1862.83
916.613	1833.91
916.925	1810.4
917.236	1842.95
917.548	1842.49
917.859	1818.99
918.171	1820.12
918.482	1808.37
918.794	1783.06
919.105	1812.21
919.416	1785.32
919.727	1768.82
920.038	1774.02
920.349	1790.07
920.66	1759.33
920.971	1761.59
921.282	1766.56
921.593	1724.98
921.903	1727.69
922.214	1730.41
922.525	1738.99
922.835	1711.88
923.146	1677.3
923.456	1736.96
923.767	1698.54
924.077	1689.28
924.387	1708.26
924.697	1687.47
925.008	1705.32
925.318	1675.94
925.628	1678.2
925.938	1645.21
926.248	1671.2
926.558	1660.13
926.867	1669.62
927.177	1636.17
927.487	1631.88
927.796	1618.09
928.106	1631.88
928.416	1614.25
928.725	1622.39
929.034	1619.22
929.344	1591.2
929.653	1632.78
929.962	1596.4
930.271	1598.21
930.581	1615.83
930.89	1578.32
931.199	1549.39
931.508	1559.34
931.817	1578.77
932.125	1554.37
932.434	1577.42
932.743	1516.17
933.051	1525.44
933.36	1543.29
933.669	1523.41
933.977	1507.81
934.286	1517.76
934.594	1505.33
934.902	1500.13
935.21	1481.83
935.519	1497.42
935.827	1501.26
936.135	1474.59
936.443	1462.39
936.751	1480.24
937.059	1457.65
937.367	1456.74
937.674	1483.18
937.982	1433.92
938.29	1438.44
938.597	1458.32
938.905	1438.89
939.213	1397.76
939.52	1424.65
939.827	1443.41
940.135	1448.61
940.442	1406.8
940.749	1397.31
941.056	1417.42
941.363	1392.34
941.67	1384.65
941.977	1393.01
942.284	1399.34
942.591	1402.96
942.898	1359.34
943.205	1379
943.511	1360.02
943.818	1364.99
944.125	1365.9
944.431	1342.39
944.738	1368.16
945.044	1321.6
945.35	1333.58
945.657	1372.9
945.963	1320.47
946.269	1341.94
946.575	1327.71
946.881	1290.42
947.187	1297.65
947.493	1336.29
947.799	1320.93
948.105	1301.94
948.41	1306.91
948.716	1282.96
949.022	1273.7
949.327	1290.87
949.633	1292.68
949.938	1262.17
950.244	1288.84
950.549	1276.41
950.854	1265.33
951.16	1238.22
951.465	1250.87
951.77	1269.85
952.075	1236.18
952.38	1252.45
952.685	1241.61
952.99	1244.77
953.294	1245
953.599	1229.4
953.904	1216.07
954.209	1200.7
954.513	1244.32
954.818	1252
955.122	1222.4
955.426	1219.69
955.731	1214.94
956.035	1193.7
956.339	1180.59
956.643	1186.47
956.948	1169.74
957.252	1166.81
957.556	1182.62
957.86	1158.22
958.163	1174.71
958.467	1171.33
958.771	1146.69
959.075	1169.29
959.378	1176.52
959.682	1136.98
959.985	1144.89
960.289	1155.96
960.592	1126.81
960.896	1142.85
961.199	1123.87
961.502	1120.48
961.805	1108.95
962.108	1109.63
962.411	1106.24
962.714	1068.05
963.017	1129.97
963.32	1093.59
963.623	1083.19
963.926	1105.11
964.228	1068.5
964.531	1102.85
964.833	1101.04
965.136	1088.62
965.438	1061.72
965.741	1077.32
966.043	1043.19
966.345	1049.52
966.648	1063.76
966.95	1053.59
967.252	1063.98
967.554	1021.5
967.856	1065.57
968.158	1041.61
968.46	1051.55
968.761	1046.36
969.063	1008.39
969.365	1050.88
969.666	1039.35
969.968	1042.06
970.269	1038.22
970.571	1024.89
970.872	987.15
971.174	1009.3
971.475	1010.88
971.776	1005.68
972.077	1010.43
972.378	993.93
972.679	993.93
972.98	990.09
973.281	996.87
973.582	975.17
973.883	994.61
974.183	1001.16
974.484	985.79
974.785	977.66
975.085	969.07
975.386	965
975.686	985.34
975.986	977.21
976.287	952.35
976.587	947.38
976.887	961.61
977.187	960.26
977.487	979.01
977.787	933.14
978.087	944.44
978.387	965.68
978.687	945.57
978.987	935.63
979.286	960.71
979.586	944.44
979.885	912.12
980.185	892.69
980.484	920.94
980.784	913.48
981.083	920.26
981.382	891.78
981.682	922.74
981.981	903.31
982.28	904.21
982.579	900.15
982.878	901.05
983.177	894.72
983.475	888.17
983.774	878.68
984.073	892.01
984.372	873.03
984.67	871.22
984.969	885
985.267	861.95
985.566	865.57
985.864	882.07
986.162	875.97
986.461	844.55
986.759	866.47
987.057	842.75
987.355	857.21
987.653	845.01
987.951	843.88
988.249	820.83
988.547	853.82
988.844	828.51
989.142	859.02
989.44	826.02
989.737	822.86
990.035	830.32
990.332	822.18
990.63	828.28
990.927	854.27
991.224	835.29
991.521	846.59
991.819	800.94
992.116	848.4
992.413	804.1
992.71	805.23
993.006	809.53
993.303	813.59
993.6	812.69
993.897	815.63
994.193	782.86
994.49	811.79
994.787	804.1
995.083	780.15
995.379	769.53
995.676	754.39
995.972	792.35
996.268	786.48
996.565	758
996.861	765.69
997.157	769.08
997.453	782.63
997.749	779.02
998.044	751.22
998.34	768.17
998.636	784.44
998.932	750.55
999.227	768.85
999.523	758.23
999.818	723.88
1000.114	734.05
1000.409	720.04
1000.704	726.59
1001	739.7
1001.295	753.48
1001.59	721.62
1001.885	746.7
1002.18	724.78
1002.475	721.17
1002.77	713.26
1003.065	725.24
1003.359	713.03
1003.654	687.5
1003.949	709.19
1004.243	701.51
1004.538	715.52
1004.832	693.15
1005.127	674.62
1005.421	702.86
1005.715	675.74
1006.009	683.65
1006.304	677.33
1006.598	685.01
1006.892	685.24
1007.186	639.81
1007.48	678
1007.773	683.2
1008.067	663.32
1008.361	662.19
1008.655	684.33
1008.948	667.38
1009.242	664.22
1009.535	654.73
1009.829	640.27
1010.122	659.7
1010.415	649.53
1010.708	640.49
1011.001	638.01
1011.295	628.29
1011.588	668.51
1011.881	621.74
1012.173	638.23
1012.466	647.05
1012.759	616.99
1013.052	626.93
1013.344	622.41
1013.637	605.01
1013.93	603.88
1014.222	609.76
1014.514	618.57
1014.807	625.8
1015.099	608.85
1015.391	610.89
1015.683	601.17
1015.976	629.64
1016.268	609.08
1016.56	600.94
1016.851	600.72
1017.143	620.61
1017.435	609.08
1017.727	597.33
1018.018	622.19
1018.31	604.56
1018.602	577.44
1018.893	583.54
1019.185	597.1
1019.476	573.37
1019.767	582.64
1020.058	588.06
1020.35	586.48
1020.641	574.73
1020.932	579.25
1021.223	568.63
1021.514	571.57
1021.804	572.47
1022.095	567.27
1022.386	545.35
1022.677	586.93
1022.967	569.99
1023.258	566.6
1023.548	537.44
1023.839	556.65
1024.129	564.11
1024.419	532.02
1024.709	555.3
1025	562.08
1025.29	562.75
1025.58	522.53
1025.87	551.23
1026.16	548.52
1026.449	538.12
1026.739	534.96
1027.029	535.64
1027.319	533.38
1027.608	536.54
1027.898	511.46
1028.187	519.59
1028.477	521.85
1028.766	500.16
1029.055	510.1
1029.344	499.25
1029.634	532.25
1029.923	522.98
1030.212	499.48
1030.501	494.51
1030.79	511.46
1031.078	508.74
1031.367	495.86
1031.656	499.7
1031.945	501.74
1032.233	495.18
1032.522	484.56
1032.81	493.6
1033.099	493.83
1033.387	490.89
1033.675	487.73
1033.963	493.15
1034.251	472.81
1034.54	501.29
1034.828	490.89
1035.116	475.75
1035.403	460.38
1035.691	479.37
1035.979	475.75
1036.267	470.55
1036.554	487.28
1036.842	466.48
1037.129	483.21
1037.417	477.33
1037.704	466.71
1037.992	440.04
1038.279	456.54
1038.566	448.41
1038.853	448.41
1039.14	448.41
