Data from mousepad_grey_FLMS001491_00022.txt Node
Date: Wed Feb 08 14:29:11 GMT 2017
User: dcchb
Spectrometer: FLMS00149
Trigger mode: 0
Integration Time (sec): 2.000000E-2
Scans to average: 10
Electric dark correction enabled: true
Nonlinearity correction enabled: false
Boxcar width: 0
XAxis mode: Wavelengths
Number of Pixels in Spectrum: 2048
>>>>>Begin Spectral Data<<<<<
341.393	-19.04
341.776	-19.04
342.16	-19.04
342.543	-57
342.927	-52.03
343.31	-70.11
343.693	-90.68
344.077	-69.89
344.46	-68.08
344.843	-26.95
345.226	-48.42
345.61	-28.3
345.993	-25.59
346.376	0.62
346.759	1.98
347.142	17.34
347.525	43.56
347.908	58.93
348.291	77.91
348.674	105.93
349.057	121.75
349.44	126.49
349.823	124.91
350.206	159.49
350.588	182.99
350.971	191.8
351.354	217.34
351.737	211.46
352.119	241.75
352.502	252.59
352.884	245.81
353.267	266.83
353.65	291.01
354.032	288.52
354.414	294.85
354.797	306.38
355.179	298.01
355.562	306.6
355.944	302.08
356.326	329.65
356.709	318.35
357.091	310.22
357.473	340.5
357.855	307.28
358.238	302.08
358.62	317.68
359.002	328.75
359.384	332.36
359.766	329.65
360.148	319.26
360.53	316.32
360.912	317.45
361.294	300.27
361.676	306.38
362.057	330.56
362.439	305.47
362.821	307.96
363.203	302.08
363.584	315.64
363.966	320.16
364.348	282.87
364.729	305.25
365.111	312.48
365.493	302.53
365.874	293.95
366.256	300.95
366.637	290.78
367.019	286.49
367.4	305.02
367.781	296.21
368.163	291.46
368.544	271.35
368.925	311.8
369.306	326.49
369.688	286.26
370.069	276.77
370.45	292.59
370.831	312.7
371.212	304.12
371.593	300.73
371.974	295.98
372.355	301.18
372.736	310.9
373.117	291.24
373.498	305.7
373.879	297.34
374.26	282.65
374.641	297.34
375.021	290.33
375.402	294.63
375.783	294.4
376.163	297.11
376.544	302.08
376.925	282.87
377.305	285.13
377.686	260.73
378.066	287.17
378.447	286.49
378.827	315.64
379.208	291.91
379.588	309.54
379.968	331.01
380.349	304.34
380.729	320.84
381.109	297.79
381.489	315.87
381.87	311.12
382.25	313.38
382.63	321.97
383.01	320.84
383.39	322.19
383.77	327.17
384.15	304.57
384.53	309.31
384.91	332.59
385.29	319.94
385.67	313.16
386.049	322.19
386.429	316.77
386.809	352.7
387.189	347.5
387.568	328.07
387.948	319.26
388.328	319.71
388.707	340.27
389.087	320.16
389.466	328.97
389.846	344.79
390.225	348.86
390.605	342.08
390.984	337.56
391.363	326.71
391.743	339.37
392.122	342.99
392.501	343.66
392.881	341.18
393.26	335.08
393.639	349.09
394.018	349.76
394.397	346.38
394.776	353.61
395.155	361.06
395.534	352.25
395.913	369.43
396.292	352.7
396.671	362.87
397.05	373.04
397.429	356.32
397.808	364.68
398.186	359.03
398.565	371.46
398.944	350.89
399.323	374.4
399.701	370.78
400.08	368.52
400.458	359.03
400.837	392.7
401.215	396.54
401.594	366.49
401.972	392.48
402.351	375.3
402.729	387.5
403.107	380.27
403.486	367.62
403.864	373.94
404.242	379.82
404.62	370.56
404.999	394.96
405.377	390.67
405.755	425.92
406.133	401.06
406.511	388.86
406.889	408.97
407.267	416.2
407.645	411.46
408.023	405.81
408.401	406.49
408.779	422.76
409.156	407.62
409.534	409.2
409.912	418.01
410.29	422.08
410.667	433.6
411.045	417.56
411.422	434.06
411.8	444.45
412.178	434.96
412.555	439.03
412.933	443.77
413.31	443.77
413.687	477.9
414.065	456.43
414.442	433.38
414.819	472.02
415.197	460.95
415.574	475.86
415.951	438.58
416.328	464.79
416.705	467.28
417.082	487.84
417.46	477.45
417.837	501.4
418.214	477.67
418.591	478.8
418.967	493.72
419.344	476.99
419.721	519.7
420.098	503.66
420.475	508.4
420.852	509.53
421.228	501.63
421.605	528.29
421.982	513.15
422.358	502.76
422.735	526.71
423.111	519.48
423.488	529.87
423.864	533.94
424.241	514.05
424.617	535.07
424.994	526.71
425.37	556.99
425.746	531.23
426.123	554.51
426.499	539.14
426.875	558.35
427.251	544.79
427.627	562.64
428.003	571.23
428.379	566.03
428.756	545.01
429.132	571.68
429.507	605.13
429.883	584.11
430.259	605.35
430.635	599.7
431.011	596.99
431.387	607.61
431.763	636.54
432.138	598.57
432.514	627.95
432.89	607.84
433.265	651.45
433.641	631.11
434.016	619.14
434.392	648.51
434.767	670.21
435.143	639.25
435.518	672.47
435.894	651.9
436.269	683.32
436.644	667.72
437.02	700.72
437.395	691.22
437.77	700.49
438.145	687.84
438.52	686.48
438.895	688.96
439.271	695.52
439.646	711.56
440.021	712.24
440.395	725.35
440.77	726.93
441.145	734.39
441.52	746.82
441.895	726.93
442.27	722.41
442.645	751.11
443.019	730.32
443.394	768.74
443.769	760.38
444.143	745.23
444.518	742.52
444.892	775.52
445.267	773.48
445.641	781.84
446.016	761.51
446.39	809.41
446.764	789.08
447.139	783.65
447.513	803.31
447.887	811.22
448.262	802.18
448.636	798.79
449.01	793.82
449.384	812.8
449.758	826.14
450.132	819.58
450.506	832.92
450.88	845.57
451.254	822.97
451.628	850.54
452.002	863.2
452.376	856.64
452.75	885.12
453.123	880.82
453.497	901.16
453.871	879.69
454.244	905.91
454.618	889.86
454.992	909.52
455.365	890.09
455.739	932.8
456.112	944.33
456.486	935.74
456.859	966.47
457.232	964.44
457.606	964.44
457.979	980.26
458.352	985
458.725	992.46
459.099	1003.53
459.472	1020.48
459.845	1008.05
460.218	1041.5
460.591	1033.14
460.964	1038.11
461.337	1065.9
461.71	1083.3
462.083	1081.72
462.456	1074.27
462.829	1071.78
463.201	1122.85
463.574	1107.03
463.947	1121.5
464.32	1135.96
464.692	1154.49
465.065	1150.65
465.438	1176.86
465.81	1185.45
466.183	1219.35
466.555	1221.61
466.928	1248.05
467.3	1203.53
467.672	1243.3
468.045	1238.78
468.417	1250.31
468.789	1259.8
469.161	1280.81
469.534	1296.86
469.906	1325.33
470.278	1320.13
470.65	1366.24
471.022	1365.78
471.394	1374.6
471.766	1392.9
472.138	1406.69
472.51	1423.86
472.882	1412.11
473.253	1444.43
473.625	1482.39
473.997	1495.05
474.369	1505.21
474.74	1521.49
475.112	1546.57
475.484	1555.83
475.855	1564.42
476.227	1568.72
476.598	1622.5
476.97	1641.03
477.341	1657.53
477.713	1693.68
478.084	1724.42
478.455	1798.09
478.827	1741.37
479.198	1777.98
479.569	1813.68
479.94	1854.13
480.311	1853.45
480.682	1855.04
481.053	1918.09
481.424	1955.6
481.795	1918.09
482.166	1997.63
482.537	2017.97
482.908	2060.45
483.279	2057.06
483.65	2063.39
484.021	2122.6
484.391	2169.15
484.762	2148.59
485.133	2186.1
485.503	2216.83
485.874	2267
486.244	2277.85
486.615	2306.55
486.985	2327.11
487.356	2386.32
487.726	2388.13
488.097	2444.17
488.467	2444.85
488.837	2493.89
489.207	2499.76
489.578	2522.59
489.948	2529.14
490.318	2582.25
490.688	2575.47
491.058	2642.81
491.428	2682.81
491.798	2681
492.168	2689.14
492.538	2720.1
492.908	2755.58
493.278	2824.73
493.648	2805.29
494.017	2837.16
494.387	2861.11
494.757	2883.03
495.126	2885.07
495.496	2955.57
495.866	2976.14
496.235	2959.19
496.605	2988.79
496.974	3011.62
497.344	3053.2
497.713	3006.19
498.082	3050.03
498.452	3095
498.821	3150.82
499.19	3144.27
499.559	3168.67
499.928	3181.78
500.298	3156.02
500.667	3200.76
501.036	3238.05
501.405	3255.68
501.774	3237.37
502.143	3269.46
502.512	3287.54
502.88	3331.61
503.249	3319.4
503.618	3332.06
503.987	3330.25
504.356	3398.05
504.724	3424.94
505.093	3471.94
505.462	3490.7
505.83	3451.6
506.199	3486.18
506.567	3509.91
506.936	3555.78
507.304	3570.02
507.672	3591.94
508.041	3634.2
508.409	3601.88
508.777	3660.64
509.145	3659.51
509.514	3699.28
509.882	3698.6
510.25	3730.01
510.618	3745.83
510.986	3781.99
511.354	3791.48
511.722	3814.53
512.09	3882.55
512.458	3853.63
512.826	3897.69
513.193	3873.29
513.561	3897.92
513.929	3954.42
514.297	3957.81
514.664	3985.38
515.032	4003
515.4	4021.53
515.767	4061.31
516.135	4111.47
516.502	4072.6
516.869	4119.84
517.237	4121.19
517.604	4131.36
517.972	4159.16
518.339	4172.72
518.706	4204.35
519.073	4272.83
519.44	4244.13
519.808	4306.04
520.175	4355.99
520.542	4383.11
520.909	4401.41
521.276	4412.93
521.643	4449.32
522.009	4466.72
522.376	4498.58
522.743	4499.71
523.11	4572.03
523.477	4602.08
523.843	4608.41
524.21	4614.29
524.577	4751.68
524.943	4732.93
525.31	4762.3
525.676	4797.78
526.043	4810.44
526.409	4837.56
526.776	4913.26
527.142	4896.54
527.508	4898.12
527.874	4987.16
528.241	4986.25
528.607	4986.03
528.973	5100.15
529.339	4978.57
529.705	5076.42
530.071	5134.27
530.437	5155.97
530.803	5198.9
531.169	5228.05
531.535	5208.62
531.901	5211.11
532.267	5270.77
532.632	5303.08
532.998	5273.48
533.364	5394.15
533.73	5341.05
534.095	5406.36
534.461	5369.29
534.826	5464.21
535.192	5488.16
535.557	5504.66
535.923	5510.76
536.288	5550.08
536.653	5588.95
537.019	5585.56
537.384	5622.17
537.749	5617.2
538.114	5689.74
538.479	5686.57
538.845	5714.82
539.21	5719.57
539.575	5704.65
539.94	5750.07
540.305	5811.77
540.67	5802.05
541.034	5825.1
541.399	5866.23
541.764	5887.02
542.129	5863.07
542.494	5948.49
542.858	5931.54
543.223	5982.84
543.587	6002.5
543.952	5996.85
544.316	6022.16
544.681	6063.06
545.045	6063.96
545.41	6120.46
545.774	6125.88
546.138	6135.83
546.503	6143.96
546.867	6169.05
547.231	6202.94
547.595	6229.16
547.959	6216.5
548.324	6287.01
548.688	6315.26
549.052	6356.61
549.416	6361.81
549.779	6395.48
550.143	6380.11
550.507	6393.22
550.871	6409.72
551.235	6455.14
551.599	6503.28
551.962	6499.66
552.326	6551.41
552.689	6521.58
553.053	6514.12
553.417	6602.26
553.78	6682.93
554.143	6616.49
554.507	6668.92
554.87	6692.2
555.234	6713.44
555.597	6693.1
555.96	6762.93
556.323	6813.1
556.686	6780.33
557.05	6880.44
557.413	6874.79
557.776	6887.9
558.139	6946.88
558.502	7002.25
558.865	7000.89
559.228	7003.38
559.59	7048.8
559.953	7028.69
560.316	7150.26
560.679	7150.04
561.041	7166.08
561.404	7234.56
561.767	7269.58
562.129	7197.95
562.492	7296.93
562.854	7200.66
563.217	7313.2
563.579	7301.45
563.941	7440.65
564.304	7421.22
564.666	7422.8
565.028	7425.51
565.39	7514.32
565.753	7568.33
566.115	7633.87
566.477	7620.31
566.839	7695.79
567.201	7667.31
567.563	7640.65
567.925	7756.58
568.287	7768.55
568.648	7759.97
569.01	7823.69
569.372	7870.02
569.734	7831.6
570.095	7913.86
570.457	7923.58
570.819	7951.37
571.18	7924.48
571.542	7939.4
571.903	7968.32
572.265	8038.38
572.626	8069.79
572.987	8065.72
573.349	8069.56
573.71	8147.3
574.071	8149.56
574.432	8207.64
574.794	8250.35
575.155	8240.4
575.516	8216.45
575.877	8283.12
576.238	8230.46
576.599	8366.05
576.96	8286.73
577.32	8326.5
577.681	8315.66
578.042	8346.39
578.403	8361.31
578.763	8381.42
579.124	8428.65
579.485	8418.03
579.845	8428.65
580.206	8419.84
580.566	8481.53
580.927	8463
581.287	8473.17
581.648	8482.88
582.008	8517.69
582.368	8588.64
582.728	8543.67
583.089	8540.51
583.449	8551.58
583.809	8523.11
584.169	8567.63
584.529	8590.23
584.889	8622.77
585.249	8548.42
585.609	8516.33
585.969	8591.13
586.329	8570.79
586.688	8627.06
587.048	8527.4
587.408	8581.41
587.768	8605.82
588.127	8583.22
588.487	8616.67
588.846	8680.62
589.206	8573.05
589.565	8635.87
589.925	8699.6
590.284	8651.92
590.643	8629.32
591.003	8595.42
591.362	8634.97
591.721	8663.22
592.08	8605.59
592.44	8662.31
592.799	8641.07
593.158	8593.16
593.517	8654.18
593.876	8710
594.235	8609.89
594.593	8697.34
594.952	8683.78
595.311	8655.54
595.67	8624.12
596.029	8682.2
596.387	8706.38
596.746	8757.68
597.104	8669.09
597.463	8599.49
597.822	8743.44
598.18	8678.13
598.538	8677.23
598.897	8684.46
599.255	8648.76
599.613	8839.26
599.972	8732.37
600.33	8721.97
600.688	8700.05
601.046	8684.01
601.404	8818.47
601.762	8782.99
602.12	8789.99
602.478	8783.89
602.836	8753.39
603.194	8750.67
603.552	8752.93
603.91	8802.88
604.268	8737.34
604.625	8766.72
604.983	8772.37
605.341	8836.77
605.698	8824.57
606.056	8849.65
606.413	8848.75
606.771	8853.5
607.128	8806.72
607.485	8805.14
607.843	8812.59
608.2	8870.44
608.557	8903.44
608.914	8879.94
609.272	8943.44
609.629	8944.34
609.986	8931.23
610.343	8894.17
610.7	8912.25
611.057	8926.04
611.414	8891.91
611.771	8951.57
612.127	8989.99
612.484	8925.36
612.841	9010.78
613.198	8999.71
613.554	8985.24
613.911	9022.76
614.267	9030.67
614.624	9014.62
614.98	9074.28
615.337	9117.9
615.693	9005.36
616.05	9025.02
616.406	9072.7
616.762	9059.37
617.118	9062.76
617.475	9108.86
617.831	9140.49
618.187	9112.25
618.543	9178.69
618.899	9163.09
619.255	9120.83
619.611	9142.98
619.967	9182.98
620.323	9190.44
620.678	9216.65
621.034	9203.77
621.39	9116.99
621.746	9127.39
622.101	9216.42
622.457	9096.88
622.812	9213.94
623.168	9188.63
623.523	9166.71
623.879	9204.45
624.234	9168.29
624.589	9186.59
624.945	9164.45
625.3	9184.56
625.655	9208.74
626.01	9202.41
626.365	9185.69
626.72	9222.53
627.075	9216.65
627.43	9218.91
627.785	9221.17
628.14	9132.13
628.495	9213.49
628.85	9192.7
629.205	9186.14
629.559	9201.51
629.914	9156.09
630.269	9167.16
630.623	9230.89
630.978	9109.76
631.332	9124.68
631.687	9154.73
632.041	9080.16
632.396	9174.17
632.75	9135.52
633.104	9115.86
633.459	9133.04
633.813	9111.34
634.167	9111.12
634.521	9093.04
634.875	9059.14
635.229	9147.27
635.583	9088.74
635.937	9100.04
636.291	9046.71
636.645	9047.16
636.999	8967.39
637.352	9110.21
637.706	9037.22
638.06	9077.44
638.413	9068.41
638.767	9024.34
639.121	9045.36
639.474	9011.68
639.828	9028.41
640.181	9069.54
640.534	9011.23
640.888	8954.06
641.241	8912.03
641.594	8996.32
641.947	9004.9
642.301	8963.32
642.654	8971.91
643.007	9024.56
643.36	8983.21
643.713	8957
644.066	8982.31
644.419	8936.43
644.771	8837.23
645.124	8754.97
645.477	8764.23
645.83	8731.47
646.182	8660.96
646.535	8696.21
646.888	8749.77
647.24	8658.7
647.593	8716.78
647.945	8702.99
648.298	8651.24
648.65	8655.08
649.002	8611.24
649.355	8734.4
649.707	8681.3
650.059	8709.77
650.411	8742.54
650.763	8837.23
651.115	8851.01
651.467	8876.32
651.819	8858.02
652.171	8851.69
652.523	8849.2
652.875	8878.13
653.227	8783.67
653.578	8847.39
653.93	8789.09
654.282	8834.51
654.633	8771.24
654.985	8888.07
655.337	8858.92
655.688	8809.66
656.039	8886.04
656.391	8752.71
656.742	8845.13
657.094	8854.63
657.445	8766.04
657.796	8823.89
658.147	8851.01
658.498	8789.54
658.849	8848.07
659.2	8805.81
659.551	8782.31
659.902	8865.7
660.253	8840.16
660.604	8851.69
660.955	8811.46
661.306	8801.29
661.656	8780.96
662.007	8849.88
662.358	8840.39
662.708	8876.77
663.059	8776.89
663.409	8789.99
663.76	8809.2
664.11	8794.97
664.461	8850.78
664.811	8872.48
665.161	8846.26
665.511	8771.01
665.862	8843.33
666.212	8828.86
666.562	8805.59
666.912	8823.44
667.262	8792.71
667.612	8794.06
667.962	8827.06
668.312	8814.63
668.662	8896.66
669.011	8912.03
669.361	8801.97
669.711	8753.39
670.06	8771.24
670.41	8789.09
670.76	8746.38
671.109	8792.48
671.459	8813.27
671.808	8740.73
672.157	8807.4
672.507	8715.42
672.856	8725.59
673.205	8750.9
673.554	8768.07
673.904	8792.03
674.253	8742.76
674.602	8735.31
674.951	8644.46
675.3	8537.57
675.649	8737.11
675.998	8661.86
676.346	8678.36
676.695	8739.37
677.044	8657.57
677.393	8669.32
677.741	8684.01
678.09	8653.73
678.438	8621.19
678.787	8665.7
679.135	8658.7
679.484	8608.53
679.832	8658.47
680.181	8581.41
680.529	8575.54
680.877	8608.3
681.225	8558.81
681.573	8679.72
681.922	8586.16
682.27	8472.04
682.618	8512.26
682.966	8505.26
683.314	8522.43
683.661	8492.83
684.009	8495.09
684.357	8424.81
684.705	8363.11
685.053	8483.56
685.4	8401.08
685.748	8460.74
686.095	8389.33
686.443	8331.48
686.79	8383.68
687.138	8286.51
687.485	8339.84
687.832	8309.56
688.18	8259.39
688.527	8229.56
688.874	8160.41
689.221	8195.89
689.568	8216
689.915	8183.46
690.262	8191.82
690.609	8115.66
690.956	8080.18
691.303	8072.73
691.65	8065.27
691.997	8088.09
692.344	8019.39
692.69	8006.96
693.037	8022.78
693.383	7909.11
693.73	8017.36
694.077	7899.62
694.423	7894.43
694.769	7845.16
695.116	7936.46
695.462	7803.81
695.808	7827.76
696.155	7784.82
696.501	7777.59
696.847	7766.97
697.193	7707.99
697.539	7740.08
697.885	7662.79
698.231	7595.9
698.577	7618.27
698.923	7650.82
699.269	7574.89
699.614	7539.18
699.96	7585.05
700.306	7479.75
700.651	7455.11
700.997	7427.77
701.342	7445.85
701.688	7365.63
702.033	7356.13
702.379	7425.06
702.724	7320.88
703.069	7414.44
703.415	7259.87
703.76	7278.85
704.105	7226.65
704.45	7227.32
704.795	7219.87
705.14	7201.34
705.485	7170.38
705.83	7105.07
706.175	7161.34
706.52	7095.8
706.865	7134.67
707.209	7107.33
707.554	7109.81
707.899	7089.02
708.243	7025.52
708.588	7064.39
708.932	6955.47
709.277	7002.02
709.621	6934.45
709.966	6954.11
710.31	6946.88
710.654	6902.59
710.998	6891.97
711.342	6916.6
711.687	6896.94
712.031	6872.31
712.375	6847.67
712.719	6859.2
713.063	6859.2
713.407	6894
713.75	6826.43
714.094	6803.15
714.438	6759.54
714.782	6854.9
715.125	6747.11
715.469	6800.44
715.812	6778.75
716.156	6703.04
716.499	6743.27
716.843	6748.47
717.186	6735.13
717.53	6740.78
717.873	6720.44
718.216	6705.3
718.559	6681.8
718.902	6675.7
719.246	6679.54
719.589	6642.48
719.932	6617.17
720.275	6612.65
720.617	6627.34
720.96	6649.26
721.303	6625.76
721.646	6699.65
721.989	6613.55
722.331	6582.6
722.674	6509.83
723.016	6629.37
723.359	6659.66
723.701	6620.33
724.044	6568.36
724.386	6548.7
724.729	6535.59
725.071	6582.82
725.413	6569.94
725.755	6566.32
726.097	6535.82
726.439	6526.55
726.782	6513.9
727.124	6550.96
727.465	6519.55
727.807	6529.72
728.149	6538.98
728.491	6536.04
728.833	6559.09
729.175	6532.43
729.516	6551.86
729.858	6518.19
730.199	6523.39
730.541	6510.28
730.882	6535.82
731.224	6563.39
731.565	6480.45
731.906	6449.04
732.248	6512.77
732.589	6563.61
732.93	6474.12
733.271	6489.94
733.612	6506.67
733.953	6430.28
734.294	6437.97
734.635	6430.96
734.976	6505.54
735.317	6489.94
735.658	6456.27
735.999	6495.14
736.339	6455.59
736.68	6480.23
737.021	6474.58
737.361	6458.53
737.702	6508.47
738.042	6455.14
738.383	6488.13
738.723	6456.27
739.063	6475.48
739.404	6459.66
739.744	6490.85
740.084	6405.42
740.424	6466.67
740.764	6449.49
741.104	6469.6
741.444	6445.2
741.784	6444.75
742.124	6451.75
742.464	6433.22
742.804	6452.88
743.143	6424.41
743.483	6449.72
743.823	6380.57
744.162	6412.66
744.502	6491.07
744.841	6444.97
745.181	6444.07
745.52	6364.3
745.86	6448.59
746.199	6481.58
746.538	6442.49
746.877	6442.94
747.216	6498.3
747.556	6391.87
747.895	6429.15
748.234	6365.43
748.573	6359.78
748.911	6323.85
749.25	6416.05
749.589	6371.3
749.928	6384.41
750.267	6401.36
750.605	6421.47
750.944	6401.13
751.283	6363.39
751.621	6419.44
751.96	6367.23
752.298	6340.57
752.636	6406.55
752.975	6357.74
753.313	6347.12
753.651	6351.19
753.989	6268.48
754.327	6291.76
754.666	6277.52
755.004	6364.3
755.342	6309.38
755.679	6308.25
756.017	6278.87
756.355	6277.97
756.693	6233.23
757.031	6256.95
757.368	6229.16
757.706	6261.47
758.044	6249.5
758.381	6225.09
758.719	6231.87
759.056	6188.71
759.394	6203.85
759.731	6167.01
760.068	6149.39
760.405	6123.85
760.743	6095.15
761.08	6138.09
761.417	6097.41
761.754	6064.87
762.091	6031.65
762.428	6044.76
762.765	6122.04
763.102	6043.4
763.438	5997.3
763.775	5959.56
764.112	6056.51
764.449	5981.71
764.785	5944.87
765.122	5951.88
765.458	5892.22
765.795	5933.12
766.131	5886.34
766.467	5924.76
766.804	5833.24
767.14	5857.42
767.476	5827.81
767.812	5805.67
768.148	5753.69
768.485	5799.79
768.821	5768.83
769.157	5780.81
769.492	5755.72
769.828	5715.5
770.164	5648.16
770.5	5666.91
770.836	5715.27
771.171	5595.28
771.507	5597.31
771.842	5570.87
772.178	5630.08
772.513	5564.09
772.849	5577.88
773.184	5503.75
773.519	5500.14
773.855	5501.49
774.19	5444.09
774.525	5509.18
774.86	5446.13
775.195	5428.73
775.53	5426.69
775.865	5423.76
776.2	5352.12
776.535	5331.1
776.87	5325.45
777.205	5336.07
777.539	5335.85
777.874	5322.74
778.209	5248.17
778.543	5261.95
778.878	5256.08
779.212	5267.6
779.547	5203.65
779.881	5198.9
780.215	5156.87
780.55	5174.04
780.884	5127.04
781.218	5173.37
781.552	5142.63
781.886	5112.8
782.22	5022.18
782.554	5004.33
782.888	4991.45
783.222	5010.43
783.556	5012.24
783.889	4969.76
784.223	4987.38
784.557	4920.04
784.89	4942.64
785.224	4919.81
785.557	4865.8
785.891	4911
786.224	4885.69
786.558	4913.94
786.891	4838.01
787.224	4777.67
787.557	4861.96
787.891	4798.01
788.224	4819.03
788.557	4786.71
788.89	4802.98
789.223	4765.02
789.556	4767.28
789.888	4719.59
790.221	4694.96
790.554	4673.04
790.887	4698.58
791.219	4655.41
791.552	4608.41
791.884	4646.83
792.217	4654.96
792.549	4592.37
792.882	4584.91
793.214	4619.26
793.546	4574.29
793.879	4512.82
794.211	4501.52
794.543	4521.18
794.875	4556.43
795.207	4537.23
795.539	4517.34
795.871	4513.72
796.203	4461.07
796.535	4423.78
796.867	4386.95
797.198	4395.31
797.53	4402.77
797.862	4360.05
798.193	4423.78
798.525	4406.16
798.856	4390.11
799.188	4297.23
799.519	4338.13
799.85	4291.81
800.182	4269.44
800.513	4270.34
800.844	4227.85
801.175	4270.57
801.506	4270.11
801.837	4262.88
802.168	4263.79
802.499	4226.95
802.83	4206.84
803.161	4203.22
803.491	4201.87
803.822	4149.21
804.153	4170.68
804.483	4095.66
804.814	4078.48
805.145	4130
805.475	4143.34
805.805	4098.37
806.136	4153.96
806.466	4071.02
806.796	4071.25
807.126	4051.81
807.457	4053.62
807.787	4038.03
808.117	3990.35
808.447	3994.87
808.777	4049.55
809.107	4032.83
809.436	4011.82
809.766	3996.22
810.096	3942.21
810.426	3922.78
810.755	3949.67
811.085	3956.45
811.414	3963.91
811.744	3918.71
812.073	3930.24
812.403	3888.43
812.732	3873.74
813.061	3905.15
813.39	3855.44
813.719	3882.1
814.049	3837.81
814.378	3877.58
814.707	3841.2
815.036	3835.77
815.365	3827.41
815.693	3811.59
816.022	3836.23
816.351	3780.86
816.68	3782.89
817.008	3760.97
817.337	3757.58
817.665	3772.27
817.994	3779.05
818.322	3746.29
818.651	3704.03
818.979	3701.99
819.307	3728.43
819.636	3738.83
819.964	3688.89
820.292	3667.64
820.62	3690.47
820.948	3711.48
821.276	3696.34
821.604	3690.02
821.932	3703.8
822.259	3678.04
822.587	3689.56
822.915	3691.6
823.243	3684.59
823.57	3676.91
823.898	3635.55
824.225	3660.41
824.553	3659.51
824.88	3659.06
825.207	3672.39
825.535	3650.69
825.862	3657.93
826.189	3632.39
826.516	3700.19
826.843	3704.03
827.17	3696.8
827.497	3675.78
827.824	3728.89
828.151	3676.91
828.478	3697.02
828.805	3708.55
829.131	3673.29
829.458	3666.29
829.785	3674.2
830.111	3650.69
830.438	3665.84
830.764	3672.84
831.09	3648.89
831.417	3639.62
831.743	3659.51
832.069	3653.86
832.395	3644.59
832.722	3627.87
833.048	3636.01
833.374	3655.89
833.7	3644.14
834.026	3617.25
834.351	3567.31
834.677	3629.9
835.003	3638.49
835.329	3583.8
835.654	3599.17
835.98	3631.26
836.306	3626.74
836.631	3590.13
836.956	3636.68
837.282	3614.09
837.607	3558.04
837.932	3618.61
838.258	3556.23
838.583	3620.87
838.908	3570.92
839.233	3546.29
839.558	3565.73
839.883	3552.17
840.208	3534.77
840.533	3557.59
840.858	3513.75
841.182	3543.81
841.507	3527.31
841.832	3544.71
842.156	3497.93
842.481	3544.26
842.805	3490.25
843.13	3496.57
843.454	3479.4
843.778	3516.01
844.103	3487.99
844.427	3451.83
844.751	3485.73
845.075	3472.17
845.399	3429.68
845.723	3445.95
846.047	3406.86
846.371	3392.62
846.695	3446.41
847.019	3371.61
847.343	3370.25
847.666	3353.75
847.99	3353.75
848.313	3331.61
848.637	3316.24
848.96	3307.43
849.284	3296.58
849.607	3335
849.931	3293.87
850.254	3278.73
850.577	3255
850.9	3188.33
851.223	3243.47
851.546	3195.57
851.869	3173.42
852.192	3233.08
852.515	3170.71
852.838	3156.7
853.161	3143.36
853.483	3163.02
853.806	3159.86
854.129	3129.58
854.451	3151.95
854.774	3097.94
855.096	3093.65
855.419	3092.74
855.741	3092.07
856.063	3082.8
856.385	3039.41
856.708	3088.22
857.03	3034.21
857.352	3060.65
857.674	3065.4
857.996	3037.6
858.318	3018.4
858.64	3053.42
858.961	2989.02
859.283	3027.43
859.605	2992.18
859.926	2999.86
860.248	2968
860.57	2960.09
860.891	2987.66
861.212	2961.22
861.534	2968.45
861.855	2941.11
862.176	2938.17
862.498	2954.67
862.819	2941.11
863.14	2958.28
863.461	2905.4
863.782	2926.42
864.103	2947.66
864.424	2904.05
864.745	2901.11
865.065	2910.15
865.386	2881.68
865.707	2865.86
866.027	2886.65
866.348	2877.83
866.668	2853.65
866.989	2855.24
867.309	2859.08
867.63	2839.87
867.95	2874.67
868.27	2858.4
868.59	2821.11
868.91	2848
869.23	2830.38
869.55	2808.91
869.87	2852.07
870.19	2840.09
870.51	2816.37
870.83	2823.82
871.15	2823.82
871.469	2805.97
871.789	2809.14
872.109	2816.37
872.428	2803.49
872.748	2778.4
873.067	2789.25
873.386	2775.92
873.706	2777.95
874.025	2788.57
874.344	2775.01
874.663	2781.34
874.982	2780.66
875.301	2807.1
875.62	2761.9
875.939	2721.45
876.258	2750.83
876.577	2737.72
876.896	2725.52
877.214	2772.3
877.533	2749.7
877.852	2754.22
878.17	2745.86
878.489	2725.07
878.807	2715.35
879.125	2712.19
879.444	2696.37
879.762	2712.87
880.08	2696.6
880.398	2664.05
880.716	2695.69
881.034	2653.43
881.352	2657.27
881.67	2628.12
881.988	2671.06
882.306	2673.55
882.624	2684.84
882.941	2681.23
883.259	2660.21
883.577	2657.95
883.894	2660.44
884.212	2651.63
884.529	2629.93
884.846	2604.62
885.164	2626.77
885.481	2614.11
885.798	2615.24
886.115	2577.5
886.432	2583.38
886.75	2596.03
887.067	2604.62
887.383	2606.88
887.7	2588.58
888.017	2568.92
888.334	2586.77
888.651	2582.47
888.967	2514.45
889.284	2523.94
889.6	2546.32
889.917	2497.05
890.233	2496.15
890.55	2554
890.866	2522.14
891.182	2539.76
891.498	2505.41
891.815	2488.01
892.131	2497.73
892.447	2495.92
892.763	2457.28
893.079	2458.86
893.395	2462.48
893.71	2477.17
894.026	2428.58
894.342	2429.94
894.657	2427.45
894.973	2444.4
895.289	2441.46
895.604	2433.33
895.92	2427
896.235	2402.37
896.55	2382.93
896.865	2351.97
897.181	2400.78
897.496	2407.34
897.811	2374.57
898.126	2365.08
898.441	2366.89
898.756	2361.92
899.071	2354.46
899.386	2338.19
899.7	2319.2
900.015	2327.34
900.33	2333.67
900.644	2321.92
900.959	2320.56
901.273	2268.58
901.588	2263.61
901.902	2284.86
902.216	2282.82
902.531	2292.99
902.845	2252.99
903.159	2258.87
903.473	2244.4
903.787	2201.24
904.101	2232.65
904.415	2244.18
904.729	2241.47
905.042	2188.13
905.356	2184.74
905.67	2211.18
905.984	2143.16
906.297	2185.2
906.611	2178.87
906.924	2141.58
907.237	2175.03
907.551	2131.64
907.864	2165.54
908.177	2128.02
908.491	2151.98
908.804	2140.23
909.117	2105.2
909.43	2114.92
909.743	2110.62
910.056	2103.62
910.368	2089.38
910.681	2100.23
910.994	2080.57
911.307	2052.32
911.619	2038.99
911.932	2041.92
912.244	2063.17
912.557	2017.29
912.869	2028.82
913.181	2005.99
913.494	1994.47
913.806	2014.81
914.118	2019.33
914.43	1978.65
914.742	1979.33
915.054	1996.95
915.366	1996.95
915.678	1966.22
915.99	1975.03
916.302	1935.49
916.613	1913.11
916.925	1927.12
917.236	1900.01
917.548	1909.72
917.859	1923.73
918.171	1911.98
918.482	1889.61
918.794	1858.43
919.105	1903.85
919.416	1865.43
919.727	1888.93
920.038	1881.48
920.349	1879.67
920.66	1851.87
920.971	1833.57
921.282	1848.26
921.593	1829.05
921.903	1812.33
922.214	1826.34
922.525	1783.17
922.835	1810.97
923.146	1783.63
923.456	1808.71
923.767	1798.09
924.077	1786.56
924.387	1765.32
924.697	1759.45
925.008	1779.78
925.318	1763.51
925.628	1745.43
925.938	1765.55
926.248	1724.64
926.558	1722.84
926.867	1705.66
927.177	1698.43
927.487	1730.75
927.796	1709.05
928.106	1702.05
928.416	1700.69
928.725	1680.13
929.034	1674.93
929.344	1692.1
929.653	1680.13
929.962	1664.08
930.271	1667.24
930.581	1661.37
930.89	1650.52
931.199	1622.73
931.508	1663.63
931.817	1616.4
932.125	1625.44
932.434	1603.74
932.743	1602.61
933.051	1627.7
933.36	1595.61
933.669	1578.66
933.977	1614.14
934.286	1576.85
934.594	1589.51
934.902	1562.16
935.21	1531.65
935.519	1569.39
935.827	1560.35
936.135	1521.94
936.443	1537.76
936.751	1544.54
937.059	1524.65
937.367	1554.7
937.674	1522.84
937.982	1527.13
938.29	1514.25
938.597	1510.86
938.905	1496.18
939.213	1500.92
939.52	1507.7
939.827	1500.24
940.135	1501.15
940.442	1479
940.749	1497.53
941.056	1490.53
941.363	1475.84
941.67	1464.54
941.977	1455.5
942.284	1451.2
942.591	1451.88
942.898	1426.35
943.205	1413.47
943.511	1458.21
943.818	1423.41
944.125	1429.51
944.431	1403.07
944.738	1394.26
945.044	1412.79
945.35	1432.22
945.657	1388.38
945.963	1367.14
946.269	1366.46
946.575	1394.48
946.881	1378.89
947.187	1373.92
947.493	1337.54
947.799	1354.94
948.105	1371.88
948.41	1356.97
948.716	1343.19
949.022	1326.46
949.327	1355.16
949.633	1326.46
949.938	1351.77
950.244	1356.52
950.549	1320.59
950.854	1335.95
951.16	1314.94
951.465	1322.39
951.77	1324.88
952.075	1254.6
952.38	1314.49
952.685	1292.79
952.99	1293.47
953.294	1256.41
953.599	1296.86
953.904	1279.01
954.209	1311.32
954.513	1261.15
954.818	1265.45
955.122	1246.69
955.426	1270.19
955.731	1264.99
956.035	1244.43
956.339	1237.2
956.643	1258.89
956.948	1205.11
957.252	1219.12
957.556	1232.68
957.86	1221.83
958.163	1201.95
958.467	1208.95
958.771	1207.14
959.075	1183.19
959.378	1235.84
959.682	1181.16
959.985	1187.26
960.289	1203.3
960.592	1186.58
960.896	1180.93
961.199	1182.96
961.502	1195.17
961.805	1165.79
962.108	1173.47
962.411	1147.71
962.714	1143.19
963.017	1133.7
963.32	1183.64
963.623	1129.18
963.926	1154.94
964.228	1121.5
964.531	1132.34
964.833	1130.99
965.136	1134.83
965.438	1093.25
965.741	1119.91
966.043	1114.94
966.345	1107.71
966.648	1094.38
966.95	1122.85
967.252	1082.63
967.554	1107.49
967.856	1065
968.158	1080.82
968.46	1093.7
968.761	1088.05
969.063	1093.47
969.365	1070.42
969.666	1074.94
969.968	1056.64
970.269	1075.4
970.571	1062.29
970.872	1061.16
971.174	1050.09
971.475	1050.54
971.776	1034.49
972.077	1025.45
972.378	1025
972.679	1042.4
972.98	1028.39
973.281	996.98
973.582	1056.19
973.883	1012.8
974.183	997.66
974.484	1016.64
974.785	1008.05
975.085	1015.51
975.386	1000.82
975.686	1011.22
975.986	1004.21
976.287	996.75
976.587	981.16
976.887	975.06
977.187	991.33
977.487	972.35
977.787	1001.27
978.087	979.13
978.387	983.65
978.687	995.17
978.987	954.95
979.286	970.31
979.586	963.08
979.885	939.35
980.185	951.33
980.484	951.33
980.784	929.64
981.083	933.25
981.382	920.6
981.682	920.6
981.981	933.93
982.28	928.05
982.579	912.69
982.878	919.92
983.177	921.5
983.475	920.6
983.774	928.51
984.073	925.12
984.372	899.58
984.67	906.81
984.969	922.18
985.267	910.2
985.566	869.53
985.864	895.29
986.162	879.69
986.461	885.34
986.759	886.93
987.057	879.24
987.355	893.48
987.653	869.75
987.951	864.78
988.249	876.98
988.547	894.84
988.844	882.18
989.142	847.83
989.44	865.68
989.737	855.97
990.035	867.27
990.332	857.1
990.63	841.73
990.927	860.94
991.224	833.59
991.521	840.6
991.819	847.83
992.116	861.84
992.413	803.09
992.71	828.4
993.006	815.06
993.303	843.31
993.6	814.61
993.897	830.88
994.193	816.87
994.49	833.59
994.787	820.26
995.083	811.22
995.379	808.96
995.676	803.09
995.972	830.2
996.268	792.47
996.565	787.49
996.861	784.33
997.157	767.38
997.453	783.88
997.749	797.89
998.044	819.36
998.34	755.4
998.636	768.74
998.932	779.36
999.227	775.74
999.523	735.74
999.818	752.69
1000.114	752.01
1000.409	752.69
1000.704	759.7
1001	760.38
1001.295	750.66
1001.59	775.06
1001.885	757.89
1002.18	721.05
1002.475	731
1002.77	753.37
1003.065	726.25
1003.359	734.84
1003.654	693.26
1003.949	729.19
1004.243	717.44
1004.538	731.45
1004.832	723.31
1005.127	716.31
1005.421	738.46
1005.715	692.58
1006.009	726.03
1006.304	714.28
1006.598	705.01
1006.892	700.04
1007.186	719.92
1007.48	688.29
1007.773	704.11
1008.067	661.4
1008.361	676.99
1008.655	682.86
1008.948	684.67
1009.242	681.28
1009.535	672.47
1009.829	680.15
1010.122	671.79
1010.415	697.33
1010.708	685.58
1011.001	653.03
1011.295	645.58
1011.588	662.52
1011.881	653.94
1012.173	658.68
1012.466	668.85
1012.759	649.87
1013.052	625.92
1013.344	635.86
1013.637	651.68
1013.93	644.22
1014.222	651.9
1014.514	646.71
1014.807	631.57
1015.099	624.33
1015.391	614.62
1015.683	629.53
1015.976	619.36
1016.268	604.45
1016.56	640.6
1016.851	626.59
1017.143	617.1
1017.435	616.88
1017.727	607.84
1018.018	597.67
1018.31	599.93
1018.602	613.94
1018.893	605.35
1019.185	595.86
1019.476	596.09
1019.767	581.85
1020.058	620.27
1020.35	594.28
1020.641	582.08
1020.932	593.6
1021.223	579.59
1021.514	585.92
1021.804	573.71
1022.095	595.18
1022.386	574.17
1022.677	564.45
1022.967	578.01
1023.258	573.71
1023.548	584.11
1023.839	547.73
1024.129	559.48
1024.419	548.4
1024.709	548.18
1025	551.34
1025.29	553.38
1025.58	571.91
1025.87	543.21
1026.16	564.22
1026.449	558.35
1026.739	543.88
1027.029	552.7
1027.319	528.97
1027.608	531.91
1027.898	528.29
1028.187	533.04
1028.477	535.97
1028.766	534.84
1029.055	554.96
1029.344	536.65
1029.634	527.61
1029.923	519.7
1030.212	539.36
1030.501	509.76
1030.79	533.94
1031.078	500.95
1031.367	528.52
1031.656	514.96
1031.945	516.09
1032.233	493.26
1032.522	500.04
1032.81	493.72
1033.099	516.54
1033.387	507.95
1033.675	511.34
1033.963	507.5
1034.251	483.32
1034.54	499.59
1034.828	493.26
1035.116	490.78
1035.403	497.56
1035.691	490.78
1035.979	469.31
1036.267	460.72
1036.554	502.76
1036.842	488.97
1037.129	465.47
1037.417	475.19
1037.704	490.78
1037.992	483.32
1038.279	475.41
1038.566	481.96
1038.853	481.96
1039.14	481.96
