Data from mousepad_grey_FLMS001491_00013.txt Node
Date: Wed Feb 08 14:29:02 GMT 2017
User: dcchb
Spectrometer: FLMS00149
Trigger mode: 0
Integration Time (sec): 2.000000E-2
Scans to average: 10
Electric dark correction enabled: true
Nonlinearity correction enabled: false
Boxcar width: 0
XAxis mode: Wavelengths
Number of Pixels in Spectrum: 2048
>>>>>Begin Spectral Data<<<<<
341.393	-10.52
341.776	-10.52
342.16	-10.52
342.543	-47.36
342.927	-66.11
343.31	-69.28
343.693	-67.24
344.077	-61.37
344.46	-59.11
344.843	-43.97
345.226	-35.38
345.61	-24.99
345.993	-31.09
346.376	-5.78
346.759	18.4
347.142	32.19
347.525	32.19
347.908	37.61
348.291	92.3
348.674	88.23
349.057	97.27
349.44	122.13
349.823	142.47
350.206	153.77
350.588	187.66
350.971	178.4
351.354	212.52
351.737	233.09
352.119	228.79
352.502	230.83
352.884	275.57
353.267	281
353.65	278.28
354.032	285.06
354.414	294.1
354.797	310.83
355.179	300.66
355.562	321.45
355.944	300.2
356.326	320.77
356.709	300.2
357.091	301.11
357.473	312.41
357.855	331.84
358.238	332.29
358.62	315.57
359.002	327.77
359.384	313.99
359.766	322.8
360.148	339.75
360.53	305.4
360.912	333.42
361.294	311.5
361.676	303.14
362.057	314.21
362.439	304.72
362.821	311.5
363.203	301.56
363.584	299.98
363.966	312.18
364.348	312.63
364.729	284.61
365.111	320.09
365.493	305.63
365.874	301.79
366.256	306.53
366.637	298.4
367.019	303.82
367.4	311.5
367.781	291.39
368.163	282.58
368.544	288.68
368.925	276.7
369.306	311.73
369.688	298.17
370.069	299.75
370.45	286.87
370.831	264.5
371.212	299.07
371.593	294.33
371.974	314.44
372.355	293.2
372.736	302.24
373.117	302.46
373.498	312.18
373.879	318.06
374.26	307.44
374.641	302.92
375.021	297.04
375.402	303.14
375.783	289.81
376.163	303.59
376.544	307.44
376.925	320.32
377.305	313.99
377.686	309.92
378.066	300.2
378.447	293.88
378.827	291.62
379.208	301.79
379.588	316.25
379.968	306.31
380.349	337.04
380.729	325.51
381.109	306.76
381.489	309.47
381.87	316.93
382.25	340.43
382.63	293.88
383.01	330.71
383.39	319.41
383.77	319.86
384.15	331.84
384.53	322.12
384.91	334.33
385.29	328
385.67	330.49
386.049	348.79
386.429	340.2
386.809	339.3
387.189	345.17
387.568	332.97
387.948	324.84
388.328	324.84
388.707	345.4
389.087	344.72
389.466	349.02
389.846	318.73
390.225	365.74
390.605	338.4
390.984	348.79
391.363	350.15
391.743	339.75
392.122	380.43
392.501	351.95
392.881	359.41
393.26	351.73
393.639	362.35
394.018	347.89
394.397	387.89
394.776	364.84
395.155	381.78
395.534	355.34
395.913	358.96
396.292	362.58
396.671	375.68
397.05	370.94
397.429	384.72
397.808	363.25
398.186	359.86
398.565	379.52
398.944	374.55
399.323	398.05
399.701	386.3
400.08	386.53
400.458	396.47
400.837	394.21
401.215	368.22
401.594	402.12
401.972	387.89
402.351	382.24
402.729	382.01
403.107	397.15
403.486	406.87
403.864	409.58
404.242	415
404.62	398.51
404.999	416.36
405.377	417.49
405.755	404.61
406.133	406.64
406.511	420.65
406.889	427.88
407.267	420.88
407.645	427.43
408.023	405.06
408.401	410.26
408.779	429.24
409.156	440.09
409.534	454.55
409.912	449.58
410.29	448.9
410.667	454.78
411.045	446.87
411.422	436.02
411.8	470.82
412.178	457.49
412.555	453.65
412.933	458.17
413.31	465.62
413.687	466.75
414.065	469.92
414.442	493.87
414.819	505.4
415.197	481.22
415.574	476.24
415.951	491.39
416.328	486.64
416.705	484.83
417.082	499.52
417.46	494.78
417.837	500.42
418.214	519.41
418.591	506.53
418.967	508.33
419.344	533.42
419.721	515.11
420.098	530.93
420.475	542.68
420.852	537.03
421.228	540.2
421.605	549.69
421.982	536.13
422.358	538.84
422.735	555.79
423.111	528.22
423.488	565.51
423.864	570.93
424.241	581.78
424.617	572.29
424.994	546.07
425.37	578.16
425.746	590.37
426.123	578.39
426.499	585.85
426.875	591.27
427.251	613.64
427.627	597.15
428.003	605.28
428.379	641.44
428.756	606.41
429.132	618.16
429.507	616.35
429.883	637.14
430.259	645.51
430.635	658.16
431.011	656.13
431.387	647.09
431.763	664.49
432.138	647.99
432.514	666.97
432.89	678.95
433.265	703.36
433.641	707.42
434.016	699.74
434.392	691.83
434.767	716.01
435.143	711.49
435.518	710.59
435.894	674.43
436.269	725.05
436.644	722.11
437.02	761.89
437.395	737.93
437.77	752.85
438.145	764.82
438.52	779.06
438.895	779.51
439.271	762.56
439.646	802.11
440.021	796.01
440.395	790.59
440.77	772.96
441.145	802.34
441.52	792.17
441.895	816.12
442.27	795.56
442.645	820.19
443.019	808.21
443.394	814.09
443.769	829.68
444.143	815.9
444.518	835.78
444.892	846.86
445.267	843.69
445.641	842.34
446.016	840.75
446.39	853.64
446.764	878.27
447.139	851.6
447.513	881.43
447.887	872.84
448.262	878.49
448.636	895.44
449.01	871.71
449.384	885.05
449.758	870.36
450.132	913.75
450.506	920.75
450.88	932.96
451.254	928.66
451.628	935.67
452.002	943.8
452.376	938.83
452.75	944.25
453.123	961.43
453.497	986.51
453.871	965.72
454.244	984.71
454.618	1017.47
454.992	1032.61
455.365	1010.69
455.739	1037.13
456.112	1070.81
456.486	1053.4
456.859	1051.82
457.232	1056.57
457.606	1055.66
457.979	1101.31
458.352	1120.97
458.725	1131.82
459.099	1123.91
459.472	1128.66
459.845	1119.17
460.218	1123.69
460.591	1138.83
460.964	1127.3
461.337	1189.22
461.71	1164.59
462.083	1183.12
462.456	1211.14
462.829	1207.98
463.201	1243.91
463.574	1212.5
463.947	1258.14
464.32	1265.83
464.692	1304.7
465.065	1301.08
465.438	1290.69
465.81	1308.54
466.183	1342.21
466.555	1361.64
466.928	1325.94
467.3	1376.79
467.672	1391.7
468.045	1401.64
468.417	1395.09
468.789	1433.96
469.161	1428.76
469.534	1454.52
469.906	1471.7
470.278	1499.95
470.65	1546.95
471.022	1511.92
471.394	1562.32
471.766	1538.59
472.138	1573.39
472.51	1592.15
472.882	1618.59
473.253	1642.54
473.625	1652.94
473.997	1699.26
474.369	1707.62
474.74	1724.8
475.112	1745.82
475.484	1755.31
475.855	1824.01
476.227	1800.05
476.598	1859.71
476.97	1841.63
477.341	1884.8
477.713	1942.42
478.084	1934.29
478.455	1969.99
478.827	1978.13
479.198	2051.12
479.569	2065.13
479.94	2092.93
480.311	2128.86
480.682	2143.77
481.053	2206.59
481.424	2228.74
481.795	2242.98
482.166	2266.93
482.537	2306.03
482.908	2339.02
483.279	2386.02
483.65	2394.84
484.021	2436.42
484.391	2443.42
484.762	2504.44
485.133	2506.7
485.503	2547.15
485.874	2601.61
486.244	2604.32
486.615	2673.7
486.985	2695.17
487.356	2713.93
487.726	2725.68
488.097	2809.06
488.467	2824.43
488.837	2858.78
489.207	2872.11
489.578	2910.76
489.948	2953.92
490.318	2962.05
490.688	3012.9
491.058	3000.47
491.428	3079.11
491.798	3119.79
492.168	3153.24
492.538	3166.12
492.908	3211.09
493.278	3251.31
493.648	3223.74
494.017	3285.44
494.387	3286.79
494.757	3348.71
495.126	3385.32
495.496	3383.29
495.866	3430.07
496.235	3453.12
496.605	3484.08
496.974	3508.93
497.344	3548.25
497.713	3519.1
498.082	3549.16
498.452	3623.96
498.821	3618.53
499.19	3623.51
499.559	3699.89
499.928	3718.65
500.298	3683.17
500.667	3731.3
501.036	3741.92
501.405	3773.56
501.774	3742.6
502.143	3842.94
502.512	3797.74
502.88	3847.46
503.249	3858.53
503.618	3892.2
503.987	3922.26
504.356	3905.08
504.724	3973.33
505.093	3984.4
505.462	4005.64
505.83	4027.34
506.199	4033.89
506.567	4118.18
506.936	4127.9
507.304	4158.41
507.672	4209.25
508.041	4217.16
508.409	4272.98
508.777	4256.03
509.145	4313.88
509.514	4324.96
509.882	4315.47
510.25	4349.59
510.618	4340.1
510.986	4403.6
511.354	4443.6
511.722	4499.42
512.09	4526.31
512.458	4498.96
512.826	4524.05
513.193	4596.81
513.561	4598.17
513.929	4714.78
514.297	4669.13
514.664	4689.69
515.032	4701.22
515.4	4741.9
515.767	4766.3
516.135	4828.22
516.502	4773.53
516.869	4849.01
517.237	4848.78
517.604	4843.81
517.972	4931.27
518.339	4966.75
518.706	5012.62
519.073	4991.15
519.44	5075.22
519.808	5088.1
520.175	5114.31
520.542	5149.12
520.909	5193.41
521.276	5135.33
521.643	5224.59
522.009	5264.14
522.376	5347.75
522.743	5329
523.11	5377.58
523.477	5403.8
523.843	5447.41
524.21	5538.48
524.577	5553.4
524.943	5540.29
525.31	5587.97
525.676	5674.75
526.043	5683.57
526.409	5714.3
526.776	5794.52
527.142	5747.97
527.508	5828.19
527.874	5858.02
528.241	5929.66
528.607	5910.68
528.973	5972.82
529.339	5932.37
529.705	6011.69
530.071	6069.77
530.437	6109.77
530.803	6121.52
531.169	6187.96
531.535	6150.45
531.901	6214.62
532.267	6245.81
532.632	6299.59
532.998	6331.91
533.364	6319.71
533.73	6412.81
534.095	6426.14
534.461	6410.1
534.826	6467.27
535.192	6532.58
535.557	6496.2
535.923	6500.49
536.288	6578.91
536.653	6584.56
537.019	6602.41
537.384	6690.54
537.749	6688.51
538.114	6707.49
538.479	6745.91
538.845	6804.89
539.21	6754.95
539.575	6772.8
539.94	6879.01
540.305	6868.62
540.67	6893.02
541.034	6989.52
541.399	6971.89
541.764	6956.07
542.129	7017.99
542.494	6995.17
542.858	7062.74
543.223	7079.46
543.587	7187.48
543.952	7177.54
544.316	7205.11
544.681	7165.33
545.045	7213.24
545.41	7242.39
545.774	7306.12
546.138	7267.03
546.503	7309.51
546.867	7311.77
547.231	7436.74
547.595	7405.33
547.959	7427.7
548.324	7485.78
548.688	7509.05
549.052	7504.31
549.416	7508.83
549.779	7549.05
550.143	7602.16
550.507	7652.55
550.871	7707.92
551.235	7689.39
551.599	7768.26
551.962	7818.2
552.326	7766.67
552.689	7830.85
553.053	7837.63
553.417	7892.55
553.78	7973
554.143	7961.02
554.507	7954.47
554.87	7918.76
555.234	8065.65
555.597	8006.67
555.96	8120.79
556.323	8117.63
556.686	8126.66
557.05	8167.34
557.413	8207.79
557.776	8219.77
558.139	8307.9
558.502	8336.15
558.865	8339.54
559.228	8341.12
559.59	8403.04
559.953	8433.78
560.316	8499.31
560.679	8494.56
561.041	8581.57
561.404	8572.3
561.767	8652.3
562.129	8649.36
562.492	8712.64
562.854	8720.77
563.217	8690.27
563.579	8829.02
563.941	8847.32
564.304	8867.21
564.666	8869.7
565.028	8953.54
565.39	8975
565.753	8945.4
566.115	9022.23
566.477	9099.52
566.839	9107.66
567.201	9135.9
567.563	9193.53
567.925	9229.91
568.287	9245.05
568.648	9290.02
569.01	9320.98
569.372	9432.85
569.734	9392.85
570.095	9466.97
570.457	9472.17
570.819	9487.53
571.18	9430.59
571.542	9578.83
571.903	9641.43
572.265	9589.23
572.626	9621.09
572.987	9700.18
573.349	9708.54
573.71	9770.46
574.071	9689.79
574.432	9787.64
574.794	9829.44
575.155	9849.56
575.516	9843.46
575.877	9920.97
576.238	9852.72
576.599	9930.91
576.96	9942.66
577.32	9984.7
577.681	9937.24
578.042	10058.14
578.403	9993.96
578.763	10141.08
579.124	10047.07
579.485	10167.52
579.845	10154.63
580.206	10131.81
580.566	10066.05
580.927	10101.98
581.287	10145.82
581.648	10076.44
582.008	10216.78
582.368	10210.9
582.728	10203.45
583.089	10233.28
583.449	10220.17
583.809	10200.73
584.169	10195.54
584.529	10191.7
584.889	10270.56
585.249	10303.56
585.609	10152.15
585.969	10332.71
586.329	10274.86
586.688	10267.4
587.048	10247.29
587.408	10244.35
587.768	10225.82
588.127	10273.05
588.487	10221.53
588.846	10260.39
589.206	10220.85
589.565	10308.53
589.925	10314.86
590.284	10291.81
590.643	10287.29
591.003	10306.04
591.362	10357.11
591.721	10319.38
592.08	10381.52
592.44	10372.26
592.799	10369.32
593.158	10306.27
593.517	10290.68
593.876	10355.76
594.235	10321.41
594.593	10394.4
594.952	10380.84
595.311	10375.19
595.67	10356.44
596.029	10457.23
596.387	10480.05
596.746	10509.43
597.104	10430.33
597.463	10404.57
597.822	10442.54
598.18	10454.97
598.538	10374.52
598.897	10480.95
599.255	10423.55
599.613	10544.45
599.972	10483.44
600.33	10500.39
600.688	10438.47
601.046	10476.89
601.404	10497.22
601.762	10492.03
602.12	10504.91
602.478	10572.25
602.836	10525.7
603.194	10470.78
603.552	10492.93
603.91	10495.19
604.268	10559.82
604.625	10517.56
604.983	10514.4
605.341	10558.01
605.698	10618.12
606.056	10605.24
606.413	10586.71
606.771	10699.48
607.128	10641.4
607.485	10589.2
607.843	10585.36
608.2	10632.14
608.557	10708.74
608.914	10594.4
609.272	10688.18
609.629	10747.61
609.986	10758.69
610.343	10713.04
610.7	10769.31
611.057	10741.74
611.414	10744.9
611.771	10738.57
612.127	10760.95
612.484	10788.74
612.841	10787.84
613.198	10813.37
613.554	10776.09
613.911	10887.04
614.267	10846.59
614.624	10872.58
614.98	10799.36
615.337	10919.36
615.693	10853.37
616.05	10916.65
616.406	11032.8
616.762	10913.71
617.118	10879.81
617.475	10955.74
617.831	11016.98
618.187	10993.71
618.543	10960.26
618.899	11018.79
619.255	11117.32
619.611	11038.9
619.967	11049.07
620.323	11074.61
620.678	11041.62
621.034	10939.92
621.39	10956.65
621.746	10993.48
622.101	11140.82
622.457	11056.76
622.812	11081.39
623.168	11046.59
623.523	11112.8
623.879	11129.07
624.234	11052.46
624.589	11080.26
624.945	11017.44
625.3	11093.37
625.655	11101.5
626.01	11115.74
626.365	11119.81
626.72	11118.9
627.075	11110.54
627.43	11139.69
627.785	11127.04
628.14	11068.06
628.495	11101.73
628.85	11016.53
629.205	11030.77
629.559	11149.86
629.914	11044.1
630.269	11067.15
630.623	10985.35
630.978	11078.45
631.332	11057.44
631.687	11071.22
632.041	11040.26
632.396	11124.78
632.75	11039.36
633.104	11014.72
633.459	11039.36
633.813	10993.48
634.167	10953.26
634.521	10920.26
634.875	10940.15
635.229	10991.9
635.583	10910.55
635.937	10925.46
636.291	10975.18
636.645	10858.8
636.999	10944.67
637.352	10897.21
637.706	10823.32
638.06	10926.14
638.413	10935.86
638.767	10878.91
639.121	10876.88
639.474	10810.21
639.828	10861.96
640.181	10751.91
640.534	10858.34
640.888	10781.51
641.241	10674.62
641.594	10773.83
641.947	10820.15
642.301	10804.56
642.654	10757.33
643.007	10816.31
643.36	10813.15
643.713	10713.72
644.066	10845.01
644.419	10788.29
644.771	10726.82
645.124	10597.11
645.477	10560.95
645.83	10581.52
646.182	10451.12
646.535	10446.38
646.888	10461.74
647.24	10360.05
647.593	10497.68
647.945	10461.97
648.298	10395.08
648.65	10438.24
649.002	10371.8
649.355	10413.38
649.707	10411.35
650.059	10448.86
650.411	10584
650.763	10605.7
651.115	10717.56
651.467	10685.24
651.819	10709.65
652.171	10646.6
652.523	10639.82
652.875	10675.3
653.227	10611.8
653.578	10651.34
653.93	10649.31
654.282	10600.27
654.633	10572.48
654.985	10631.01
655.337	10682.53
655.688	10673.94
656.039	10676.2
656.391	10551.91
656.742	10687.5
657.094	10591.68
657.445	10616.99
657.796	10632.36
658.147	10616.54
658.498	10614.51
658.849	10592.14
659.2	10595.53
659.551	10639.82
659.902	10667.39
660.253	10611.12
660.604	10671
660.955	10617.22
661.306	10583.1
661.656	10622.87
662.007	10596.2
662.358	10624.68
662.708	10673.04
663.059	10667.39
663.409	10632.81
663.76	10608.63
664.11	10590.55
664.461	10639.82
664.811	10607.28
665.161	10567.05
665.511	10627.16
665.862	10694.51
666.212	10682.08
666.562	10614.96
666.912	10593.49
667.262	10632.14
667.612	10594.85
667.962	10617.9
668.312	10574.28
668.662	10638.92
669.011	10591.01
669.361	10563.66
669.711	10593.94
670.06	10575.19
670.41	10559.82
670.76	10569.54
671.109	10562.08
671.459	10577.22
671.808	10548.07
672.157	10593.94
672.507	10541.74
672.856	10504.68
673.205	10544
673.554	10532.25
673.904	10598.46
674.253	10642.08
674.602	10520.73
674.951	10307.4
675.3	10281.64
675.649	10407.96
675.998	10417
676.346	10433.04
676.695	10486.83
677.044	10444.8
677.393	10427.17
677.741	10465.36
678.09	10478.24
678.438	10403.89
678.787	10437.79
679.135	10408.64
679.484	10320.51
679.832	10409.99
680.181	10282.99
680.529	10398.47
680.877	10297.46
681.225	10288.19
681.573	10345.82
681.922	10334.74
682.27	10236.89
682.618	10233.05
682.966	10233.28
683.314	10275.76
683.661	10211.58
684.009	10198.25
684.357	10200.73
684.705	10188.08
685.053	10183.33
685.4	10057.91
685.748	10060.4
686.095	10068.31
686.443	10050
686.79	10030.12
687.138	10026.73
687.485	9973.4
687.832	9958.71
688.18	9982.89
688.527	9932.49
688.874	9977.01
689.221	9893.4
689.568	9863.12
689.915	9853.63
690.262	9826.06
690.609	9832.38
690.956	9743.57
691.303	9766.85
691.65	9686.4
691.997	9667.64
692.344	9661.31
692.69	9659.05
693.037	9652.27
693.383	9499.74
693.73	9597.36
694.077	9510.58
694.423	9578.6
694.769	9472.39
695.116	9446.86
695.462	9494.99
695.808	9405.95
696.155	9481.66
696.501	9389.46
696.847	9407.31
697.193	9300.42
697.539	9330.93
697.885	9256.35
698.231	9282.57
698.577	9271.49
698.923	9191.72
699.269	9205.28
699.614	9189.91
699.96	9172.51
700.306	9131.84
700.651	9065.17
700.997	9045.51
701.342	9054.1
701.688	9036.92
702.033	8946.98
702.379	8967.77
702.724	8942.69
703.069	8924.16
703.415	8802.58
703.76	8816.59
704.105	8834.44
704.45	8738.4
704.795	8710.38
705.14	8745.86
705.485	8754.67
705.83	8665.86
706.175	8661.79
706.52	8689.14
706.865	8670.15
707.209	8542.47
707.554	8545.18
707.899	8543.83
708.243	8583.38
708.588	8509.25
708.932	8487.56
709.277	8470.61
709.621	8469.93
709.966	8433.78
710.31	8448.01
710.654	8339.54
710.998	8395.13
711.342	8385.42
711.687	8395.13
712.031	8340.67
712.375	8361.01
712.719	8335.25
713.063	8308.13
713.407	8309.71
713.75	8256.6
714.094	8256.6
714.438	8261.8
714.782	8217.28
715.125	8213.44
715.469	8232.42
715.812	8183.61
716.156	8148.81
716.499	8133.9
716.843	8158.75
717.186	8097.06
717.53	8193.78
717.873	8213.67
718.216	8131.18
718.559	8163.73
718.902	8123.5
719.246	8110.62
719.589	8039.89
719.932	8017.06
720.275	8059.77
720.617	8052.77
720.96	8035.37
721.303	7939.33
721.646	8125.53
721.989	8019.78
722.331	8002.6
722.674	8015.93
723.016	7979.55
723.359	8057.51
723.701	8027.01
724.044	7966.9
724.386	7955.6
724.729	7919.66
725.071	7921.47
725.413	7946.33
725.755	7922.38
726.097	7914.24
726.439	7842.38
726.782	7959.89
727.124	7900.46
727.465	7818.42
727.807	7892.09
728.149	7894.35
728.491	7883.51
728.833	7921.92
729.175	7845.77
729.516	7877.18
729.858	7883.73
730.199	7878.99
730.541	7836.28
730.882	7823.4
731.224	7884.41
731.565	7852.1
731.906	7821.59
732.248	7780.91
732.589	7777.75
732.93	7796.73
733.271	7833.11
733.612	7797.86
733.953	7786.56
734.294	7777.97
734.635	7774.58
734.976	7825.88
735.317	7805.09
735.658	7775.49
735.999	7759.44
736.339	7764.41
736.68	7806.67
737.021	7769.39
737.361	7740.23
737.702	7775.94
738.042	7768.71
738.383	7695.49
738.723	7815.49
739.063	7718.31
739.404	7763.51
739.744	7733.68
740.084	7736.62
740.424	7697.98
740.764	7721.25
741.104	7748.37
741.444	7694.13
741.784	7729.16
742.124	7803.96
742.464	7777.97
742.804	7719.67
743.143	7693.91
743.483	7699.78
743.823	7678.09
744.162	7653.23
744.502	7688.48
744.841	7709.05
745.181	7736.84
745.52	7723.96
745.86	7696.62
746.199	7660.24
746.538	7703.63
746.877	7714.92
747.216	7670.41
747.556	7625.89
747.895	7635.6
748.234	7678.32
748.573	7678.54
748.911	7667.47
749.25	7648.03
749.589	7622.05
749.928	7650.75
750.267	7630.18
750.605	7601.93
750.944	7601.71
751.283	7647.81
751.621	7595.38
751.96	7566
752.298	7565.32
752.636	7561.03
752.975	7536.4
753.313	7542.27
753.651	7589.28
753.989	7518.09
754.327	7541.82
754.666	7504.76
755.004	7519.45
755.342	7520.58
755.679	7447.81
756.017	7365.55
756.355	7475.83
756.693	7448.04
757.031	7430.41
757.368	7320.13
757.706	7406.23
758.044	7346.57
758.381	7398.1
758.719	7315.16
759.056	7348.38
759.394	7321.49
759.731	7318.1
760.068	7330.98
760.405	7273.81
760.743	7214.37
761.08	7191.1
761.417	7230.87
761.754	7230.64
762.091	7133.02
762.428	7180.02
762.765	7132.11
763.102	7175.96
763.438	7064.09
763.775	7112.68
764.112	7083.53
764.449	7089.4
764.785	7078.1
765.122	6997.2
765.458	7060.03
765.795	6984.55
766.131	6965.57
766.467	6952.23
766.804	6952.01
767.14	6914.95
767.476	6838.56
767.812	6864.33
768.148	6863.42
768.485	6826.81
768.821	6834.27
769.157	6782.29
769.492	6758.11
769.828	6772.12
770.164	6711.33
770.5	6709.08
770.836	6731
771.171	6702.75
771.507	6683.54
771.842	6584.33
772.178	6594.95
772.513	6571.68
772.849	6594.28
773.184	6602.41
773.519	6561.73
773.855	6455.3
774.19	6466.37
774.525	6504.33
774.86	6514.5
775.195	6428.4
775.53	6388.18
775.865	6366.49
776.2	6330.1
776.535	6298.01
776.87	6277
777.205	6264.57
777.539	6228.64
777.874	6253.27
778.209	6196.09
778.543	6225.92
778.878	6157
779.212	6176.89
779.547	6175.08
779.881	6118.13
780.215	6104.35
780.55	6094.63
780.884	6105.25
781.218	6024.57
781.552	6081.29
781.886	6007.17
782.22	6004.01
782.554	5968.76
782.888	5933.05
783.222	5906.16
783.556	5926.5
783.889	5893.5
784.223	5847.18
784.557	5806.95
784.89	5837.91
785.224	5799.49
785.557	5715.88
785.891	5753.62
786.224	5761.76
786.558	5761.08
786.891	5708.2
787.224	5667.75
787.557	5694.19
787.891	5661.87
788.224	5628.2
788.557	5664.36
788.89	5610.12
789.223	5581.87
789.556	5596.56
789.888	5560.18
790.221	5547.07
790.554	5498.03
790.887	5492.61
791.219	5499.84
791.552	5498.03
791.884	5426.17
792.217	5446.74
792.549	5437.92
792.882	5385.49
793.214	5376.45
793.546	5339.85
793.879	5313.86
794.211	5350.69
794.543	5354.99
794.875	5258.72
795.207	5280.64
795.539	5306.85
795.871	5267.76
796.203	5264.82
796.535	5213.3
796.867	5190.02
797.198	5216.01
797.53	5167.87
797.862	5137.14
798.193	5139.62
798.525	5093.07
798.856	5134.88
799.188	5056.69
799.519	5084.03
799.85	5084.71
800.182	5019.18
800.513	5012.62
800.844	4995.67
801.175	5011.72
801.506	5006.07
801.837	5002.68
802.168	5018.72
802.499	4951.38
802.83	4918.16
803.161	4940.99
803.491	4885.85
803.822	4907.99
804.153	4864.15
804.483	4865.51
804.814	4862.57
805.145	4904.38
805.475	4834.32
805.805	4816.92
806.136	4800.88
806.466	4764.04
806.796	4809.46
807.126	4775.57
807.457	4776.02
807.787	4780.09
808.117	4715.46
808.447	4743.25
808.777	4727.43
809.107	4726.08
809.436	4717.04
809.766	4688.34
810.096	4646.3
810.426	4626.42
810.755	4655.8
811.085	4674.1
811.414	4613.76
811.744	4603.37
812.073	4607.66
812.403	4604.72
812.732	4603.37
813.061	4561.33
813.39	4557.72
813.719	4521.34
814.049	4559.75
814.378	4516.59
814.707	4483.82
815.036	4492.64
815.365	4522.47
815.693	4475.24
816.022	4495.12
816.351	4446.76
816.68	4455.57
817.008	4445.41
817.337	4439.98
817.665	4414.67
817.994	4452.86
818.322	4399.31
818.651	4393.66
818.979	4394.56
819.307	4401.34
819.636	4391.4
819.964	4345.75
820.292	4329.7
820.62	4390.94
820.948	4326.99
821.276	4332.87
821.604	4393.2
821.932	4330.83
822.259	4307.56
822.587	4333.09
822.915	4310.49
823.243	4326.09
823.57	4329.25
823.898	4299.87
824.225	4321.79
824.553	4313.66
824.88	4316.14
825.207	4309.82
825.535	4291.96
825.862	4336.48
826.189	4294.22
826.516	4291.29
826.843	4343.94
827.17	4299.65
827.497	4341.91
827.824	4333.09
828.151	4362.24
828.478	4282.92
828.805	4324.05
829.131	4308.91
829.458	4288.8
829.785	4288.35
830.111	4298.29
830.438	4320.44
830.764	4315.69
831.09	4294.9
831.417	4309.82
831.743	4294.45
832.069	4307.33
832.395	4308.91
832.722	4289.7
833.048	4289.7
833.374	4268.69
833.7	4298.52
834.026	4306.65
834.351	4325.86
834.677	4291.51
835.003	4258.97
835.329	4246.09
835.654	4285.41
835.98	4226.43
836.306	4232.3
836.631	4266.65
836.956	4268.91
837.282	4214.9
837.607	4189.37
837.932	4215.36
838.258	4239.31
838.583	4190.5
838.908	4196.15
839.233	4177.39
839.558	4236.37
839.883	4199.08
840.208	4164.06
840.533	4142.36
840.858	4173.77
841.182	4132.65
841.507	4096.94
841.832	4123.15
842.156	4123.61
842.481	4107.79
842.805	4120.89
843.13	4112.08
843.454	4101.91
843.778	4091.52
844.103	4103.49
844.427	4066.66
844.751	4070.95
845.075	4030.5
845.399	4094.45
845.723	4037.28
846.047	4035.47
846.371	4020.78
846.695	4014.23
847.019	3988.92
847.343	3950.5
847.666	3918.64
847.99	3901.01
848.313	3922.03
848.637	3890.84
848.96	3915.48
849.284	3883.39
849.607	3869.83
849.931	3889.26
850.254	3775.14
850.577	3773.11
850.9	3832.77
851.223	3815.14
851.546	3770.4
851.869	3793.22
852.192	3762.03
852.515	3752.99
852.838	3750.28
853.161	3766.78
853.483	3722.03
853.806	3725.2
854.129	3711.19
854.451	3679.78
854.774	3652.21
855.096	3653.11
855.419	3634.81
855.741	3629.61
856.063	3637.52
856.385	3585.77
856.708	3618.76
857.03	3603.62
857.352	3567.24
857.674	3566.56
857.996	3562.04
858.318	3531.98
858.64	3562.49
858.961	3520.68
859.283	3517.07
859.605	3527.01
859.926	3527.69
860.248	3464.19
860.57	3479.1
860.891	3466
861.212	3463.06
861.534	3448.37
861.855	3481.82
862.176	3451.53
862.498	3459.67
862.819	3495.15
863.14	3439.78
863.461	3435.71
863.782	3387.13
864.103	3413.34
864.424	3425.55
864.745	3438.88
865.065	3413.79
865.386	3396.17
865.707	3405.66
866.027	3409.5
866.348	3381.25
866.668	3378.77
866.989	3342.61
867.309	3336.06
867.63	3365.89
867.95	3357.07
868.27	3317.3
868.59	3300.8
868.91	3351.42
869.23	3296.51
869.55	3331.08
869.87	3318.66
870.19	3319.79
870.51	3346.9
870.83	3318.88
871.15	3299.67
871.469	3296.96
871.789	3283.4
872.109	3315.27
872.428	3309.39
872.748	3283.4
873.067	3300.58
873.386	3310.75
873.706	3283.4
874.025	3242.05
874.344	3267.81
874.663	3273.91
874.982	3266
875.301	3229.62
875.62	3254.25
875.939	3217.87
876.258	3263.74
876.577	3195.04
876.896	3226.45
877.214	3211.09
877.533	3202.27
877.852	3174.48
878.17	3223.74
878.489	3200.69
878.807	3164.54
879.125	3204.31
879.444	3221.94
879.762	3189.62
880.08	3207.02
880.398	3172.9
880.716	3175.61
881.034	3173.57
881.352	3157.98
881.67	3136.74
881.988	3119.11
882.306	3127.02
882.624	3116.63
882.941	3113.46
883.259	3101.26
883.577	3073.01
883.894	3131.32
884.212	3130.19
884.529	3095.16
884.846	3074.37
885.164	3095.16
885.481	3094.48
885.798	3055.84
886.115	3081.15
886.432	3088.38
886.75	3030.3
887.067	3041.37
887.383	3019.91
887.7	3051.77
888.017	3018.78
888.334	3047.25
888.651	3026.46
888.967	3027.14
889.284	3016.74
889.6	3007.7
889.917	2986.91
890.233	2967.25
890.55	2946.24
890.866	2957.99
891.182	2962.73
891.498	2953.69
891.815	2934.26
892.131	2925.9
892.447	2936.29
892.763	2938.33
893.079	2881.38
893.395	2926.8
893.71	2854.49
894.026	2896.29
894.342	2858.55
894.657	2871.21
894.973	2856.52
895.289	2854.94
895.604	2856.97
895.92	2854.94
896.235	2783.98
896.55	2805.67
896.865	2833.92
897.181	2813.36
897.496	2779.23
897.811	2786.47
898.126	2746.24
898.441	2782.62
898.756	2745.56
899.071	2756.41
899.386	2749.18
899.7	2742.17
900.015	2715.28
900.33	2694.72
900.644	2689.52
900.959	2683.87
901.273	2688.84
901.588	2688.84
901.902	2697.43
902.216	2665.79
902.531	2668.28
902.845	2667.83
903.159	2612.91
903.473	2630.76
903.787	2612.69
904.101	2606.13
904.415	2619.92
904.729	2570.88
905.042	2570.2
905.356	2573.82
905.67	2586.47
905.984	2539.02
906.297	2532.46
906.611	2556.19
906.924	2538.34
907.237	2503.31
907.551	2504.67
907.864	2511.45
908.177	2522.97
908.491	2454.05
908.804	2486.36
909.117	2471.45
909.43	2473.03
909.743	2457.66
910.056	2444.33
910.368	2454.27
910.681	2425.35
910.994	2442.97
911.307	2378.79
911.619	2402.52
911.932	2382.64
912.244	2372.01
912.557	2384.44
912.869	2404.1
913.181	2360.04
913.494	2350.77
913.806	2341.51
914.118	2342.41
914.43	2325.46
914.742	2343.31
915.054	2307.16
915.366	2288.4
915.678	2306.7
915.99	2296.54
916.302	2301.06
916.613	2294.05
916.925	2287.95
917.236	2237.1
917.548	2249.76
917.859	2224.67
918.171	2222.87
918.482	2245.69
918.794	2211.34
919.105	2212.47
919.416	2198.91
919.727	2167.95
920.038	2177.89
920.349	2201.4
920.66	2165.69
920.971	2153.71
921.282	2135.64
921.593	2162.75
921.903	2127.05
922.214	2161.4
922.525	2125.69
922.835	2108.74
923.146	2115.3
923.456	2103.09
923.767	2084.11
924.077	2112.36
924.387	2058.8
924.697	2094.06
925.008	2067.16
925.318	2094.96
925.628	2037.33
925.938	2012.7
926.248	2040.5
926.558	2007.73
926.867	2014.28
927.177	2034.17
927.487	1958.92
927.796	2002.98
928.106	1982.19
928.416	1990.33
928.725	1985.58
929.034	1947.62
929.344	1975.64
929.653	1979.03
929.962	1981.52
930.271	1953.04
930.581	1969.09
930.89	1924.79
931.199	1902.42
931.508	1919.6
931.817	1930.44
932.125	1914.17
932.434	1905.36
932.743	1866.94
933.051	1866.04
933.36	1892.25
933.669	1881.41
933.977	1835.08
934.286	1855.42
934.594	1854.06
934.902	1821.07
935.21	1804.57
935.519	1841.18
935.827	1809.99
936.135	1799.6
936.443	1823.55
936.751	1785.81
937.059	1756.89
937.367	1782.2
937.674	1781.07
937.982	1755.98
938.29	1761.18
938.597	1743.1
938.905	1760.96
939.213	1723.22
939.52	1734.97
939.827	1739.49
940.135	1746.49
940.442	1724.8
940.749	1738.58
941.056	1740.84
941.363	1682.54
941.67	1704.46
941.977	1671.24
942.284	1666.72
942.591	1686.61
942.898	1687.74
943.205	1666.04
943.511	1663.56
943.818	1661.75
944.125	1643.67
944.431	1608.87
944.738	1648.42
945.044	1650.9
945.35	1634.86
945.657	1625.37
945.963	1615.42
946.269	1609.55
946.575	1599.38
946.881	1593.5
947.187	1625.14
947.493	1619.04
947.799	1602.09
948.105	1593.96
948.41	1565.48
948.716	1571.13
949.022	1573.84
949.327	1581.75
949.633	1560.96
949.938	1573.62
950.244	1539.04
950.549	1527.52
950.854	1528.87
951.16	1526.39
951.465	1538.82
951.77	1536.78
952.075	1504.92
952.38	1490.68
952.685	1505.82
952.99	1479.38
953.294	1493.62
953.599	1478.7
953.904	1466.05
954.209	1484.58
954.513	1485.26
954.818	1466.73
955.122	1467.4
955.426	1453.39
955.731	1475.09
956.035	1403.9
956.339	1430.8
956.643	1433.06
956.948	1390.57
957.252	1408.42
957.556	1410.68
957.86	1404.36
958.163	1393.96
958.467	1393.28
958.771	1391.02
959.075	1395.99
959.378	1397.35
959.682	1389.21
959.985	1366.16
960.289	1345.6
960.592	1358.93
960.896	1340.18
961.199	1345.37
961.502	1348.09
961.805	1341.53
962.108	1328.65
962.411	1316.45
962.714	1305.15
963.017	1324.36
963.32	1341.53
963.623	1322.32
963.926	1324.13
964.228	1302.44
964.531	1290.69
964.833	1298.14
965.136	1301.53
965.438	1271.7
965.741	1274.42
966.043	1242.55
966.345	1271.48
966.648	1286.39
966.95	1298.82
967.252	1269.22
967.554	1255.43
967.856	1292.04
968.158	1239.39
968.46	1253.85
968.761	1225.83
969.063	1246.17
969.365	1231.48
969.666	1237.81
969.968	1206.62
970.269	1215.89
970.571	1211.59
970.872	1201.65
971.174	1203.68
971.475	1222.44
971.776	1182.44
972.077	1193.74
972.378	1184.93
972.679	1181.31
972.98	1167.3
973.281	1181.76
973.582	1172.27
973.883	1162.1
974.183	1172.27
974.484	1200.07
974.785	1155.77
975.085	1157.81
975.386	1161.42
975.686	1164.36
975.986	1134.31
976.287	1158.26
976.587	1126.62
976.887	1127.53
977.187	1161.2
977.487	1142.67
977.787	1148.54
978.087	1125.94
978.387	1109.45
978.687	1118.71
978.987	1125.49
979.286	1080.52
979.586	1105.83
979.885	1083.91
980.185	1087.53
980.484	1066.06
980.784	1078.04
981.083	1109.9
981.382	1069.9
981.682	1096.12
981.981	1060.64
982.28	1070.35
982.579	1055.44
982.878	1053.63
983.177	1062.44
983.475	1048.66
983.774	1063.35
984.073	1033.07
984.372	1031.71
984.67	1045.04
984.969	1066.06
985.267	1021.54
985.566	1035.55
985.864	1019.73
986.162	1019.06
986.461	1012.05
986.759	1012.73
987.057	995.33
987.355	985.84
987.653	990.13
987.951	1000.98
988.249	1011.15
988.547	993.97
988.844	1000.75
989.142	984.03
989.44	990.13
989.737	951.26
990.035	995.78
990.332	956.23
990.63	965.95
990.927	964.82
991.224	946.74
991.521	960.98
991.819	952.16
992.116	950.58
992.413	948.55
992.71	951.71
993.006	941.54
993.303	923.24
993.6	954.42
993.897	913.52
994.193	923.92
994.49	920.53
994.787	915.78
995.083	926.85
995.379	902.9
995.676	901.32
995.972	913.75
996.268	900.19
996.565	893.18
996.861	893.18
997.157	897.02
997.453	894.76
997.749	893.18
998.044	864.71
998.34	883.24
998.636	878.49
998.932	855.9
999.227	862.45
999.523	850.7
999.818	876.46
1000.114	846.63
1000.409	844.82
1000.704	878.95
1001	863.8
1001.295	843.01
1001.59	839.62
1001.885	836.69
1002.18	833.98
1002.475	818.61
1002.77	850.25
1003.065	829
1003.359	834.2
1003.654	811.38
1003.949	829.68
1004.243	819.06
1004.538	807.99
1004.832	816.57
1005.127	815.22
1005.421	792.62
1005.715	815.9
1006.009	811.15
1006.304	789.91
1006.598	766.18
1006.892	774.77
1007.186	773.19
1007.48	775.22
1007.773	781.55
1008.067	762.11
1008.361	770.7
1008.655	773.86
1008.948	775.45
1009.242	781.1
1009.535	739.06
1009.829	753.3
1010.122	744.03
1010.415	759.17
1010.708	742
1011.001	750.59
1011.295	739.51
1011.588	736.58
1011.881	731.83
1012.173	718.95
1012.466	720.98
1012.759	731.38
1013.052	723.7
1013.344	741.1
1013.637	719.63
1013.93	733.19
1014.222	687.54
1014.514	704.94
1014.807	726.86
1015.099	714.2
1015.391	699.06
1015.683	702.45
1015.976	682.11
1016.268	691.61
1016.56	677.14
1016.851	689.12
1017.143	691.15
1017.435	690.48
1017.727	680.98
1018.018	668.56
1018.31	670.14
1018.602	655.22
1018.893	662
1019.185	673.08
1019.476	651.16
1019.767	655.22
1020.058	665.39
1020.35	654.54
1020.641	635.79
1020.932	624.49
1021.223	641.89
1021.514	641.89
1021.804	647.77
1022.095	639.63
1022.386	657.26
1022.677	620.87
1022.967	622.46
1023.258	627.2
1023.548	631.95
1023.839	618.61
1024.129	610.7
1024.419	620.65
1024.709	607.99
1025	603.92
1025.29	615.9
1025.58	615.9
1025.87	593.98
1026.16	615.68
1026.449	647.31
1026.739	600.08
1027.029	629.23
1027.319	596.47
1027.608	584.49
1027.898	575.68
1028.187	581.1
1028.477	584.04
1028.766	582.23
1029.055	576.13
1029.344	571.84
1029.634	579.74
1029.923	566.19
1030.212	571.16
1030.501	564.83
1030.79	568.67
1031.078	557.15
1031.367	540.2
1031.656	555.34
1031.945	544.94
1032.233	549.69
1032.522	558.05
1032.81	531.84
1033.099	542.23
1033.387	558.28
1033.675	538.16
1033.963	522.35
1034.251	564.83
1034.54	527.54
1034.828	528.9
1035.116	542.68
1035.403	519.41
1035.691	523.93
1035.979	541.78
1036.267	523.47
1036.554	519.18
1036.842	513.53
1037.129	522.8
1037.417	532.97
1037.704	527.32
1037.992	498.39
1038.279	513.08
1038.566	505.4
1038.853	505.4
1039.14	505.4
