Data from mousepad_grey_FLMS001491_00045.txt Node
Date: Wed Feb 08 14:29:29 GMT 2017
User: dcchb
Spectrometer: FLMS00149
Trigger mode: 0
Integration Time (sec): 2.000000E-2
Scans to average: 10
Electric dark correction enabled: true
Nonlinearity correction enabled: false
Boxcar width: 0
XAxis mode: Wavelengths
Number of Pixels in Spectrum: 2048
>>>>>Begin Spectral Data<<<<<
341.393	-17.27
341.776	-17.27
342.16	-17.27
342.543	-61.11
342.927	-60.21
343.31	-65.41
343.693	-76.03
344.077	-53.43
344.46	-57.05
344.843	-50.27
345.226	-35.58
345.61	-33.32
345.993	-37.84
346.376	-6.43
346.759	11.88
347.142	35.61
347.525	44.19
347.908	66.11
348.291	47.58
348.674	98.2
349.057	111.76
349.44	120.35
349.823	151.08
350.206	160.35
350.588	177.07
350.971	191.31
351.354	199.9
351.737	222.95
352.119	230.18
352.502	244.64
352.884	256.62
353.267	269.5
353.65	281.93
354.032	278.31
354.414	281.48
354.797	280.57
355.179	314.24
355.562	278.31
355.944	336.39
356.326	296.16
356.709	302.27
357.091	317.63
357.473	322.83
357.855	317.41
358.238	306.11
358.62	299.55
359.002	324.41
359.384	302.04
359.766	314.92
360.148	321.25
360.53	312.89
360.912	324.19
361.294	308.14
361.676	315.6
362.057	320.8
362.439	327.8
362.821	304.53
363.203	296.62
363.584	295.03
363.966	303.4
364.348	303.17
364.729	319.21
365.111	302.04
365.493	290.06
365.874	310.63
366.256	296.84
366.637	284.64
367.019	290.51
367.4	298.2
367.781	302.04
368.163	287.13
368.544	286.22
368.925	286.22
369.306	315.37
369.688	299.78
370.069	293.9
370.45	292.77
370.831	301.36
371.212	302.27
371.593	285.54
371.974	305.43
372.355	294.58
372.736	287.35
373.117	307.69
373.498	297.52
373.879	273.11
374.26	296.16
374.641	292.32
375.021	293
375.402	309.05
375.783	302.04
376.163	293.68
376.544	306.33
376.925	303.62
377.305	287.58
377.686	279.22
378.066	302.04
378.447	304.75
378.827	305.66
379.208	311.76
379.588	298.65
379.968	315.6
380.349	300.68
380.729	300.23
381.109	326.9
381.489	305.66
381.87	319.89
382.25	316.28
382.63	314.02
383.01	323.96
383.39	342.72
383.77	332.1
384.15	320.8
384.53	324.86
384.91	327.35
385.29	337.97
385.67	337.07
386.049	354.02
386.429	336.62
386.809	327.35
387.189	328.93
387.568	307.69
387.948	328.93
388.328	321.47
388.707	348.37
389.087	336.62
389.466	328.71
389.846	337.75
390.225	343.39
390.605	361.47
390.984	328.03
391.363	342.72
391.743	344.3
392.122	346.78
392.501	354.92
392.881	370.06
393.26	335.71
393.639	363.06
394.018	363.06
394.397	363.96
394.776	355.82
395.155	358.31
395.534	369.16
395.913	358.08
396.292	364.19
396.671	364.64
397.05	359.44
397.429	368.93
397.808	373.9
398.186	364.19
398.565	387.46
398.944	383.62
399.323	387.69
399.701	358.76
400.08	386.11
400.458	370.96
400.837	369.38
401.215	373
401.594	378.65
401.972	373
402.351	369.61
402.729	388.14
403.107	389.72
403.486	408.03
403.864	394.92
404.242	412.32
404.62	400.12
404.999	407.35
405.377	394.69
405.755	406.67
406.133	403.96
406.511	422.04
406.889	433.11
407.267	423.39
407.645	408.7
408.023	421.58
408.401	410.29
408.779	411.42
409.156	424.3
409.534	438.53
409.912	425.88
410.29	445.77
410.667	436.95
411.045	443.96
411.422	455.26
411.8	454.35
412.178	443.05
412.555	471.08
412.933	463.17
413.31	488.02
413.687	456.61
414.065	484.41
414.442	481.24
414.819	455.48
415.197	498.87
415.574	495.03
415.951	478.53
416.328	494.8
416.705	498.19
417.082	495.48
417.46	495.93
417.837	479.44
418.214	487.35
418.591	521.02
418.967	509.72
419.344	509.94
419.721	515.37
420.098	527.8
420.475	520.34
420.852	517.18
421.228	540
421.605	513.33
421.982	533.9
422.358	548.81
422.735	557.4
423.111	554.46
423.488	562.82
423.864	544.52
424.241	565.99
424.617	570.51
424.994	564.63
425.37	546.78
425.746	550.85
426.123	578.87
426.499	557.85
426.875	585.2
427.251	558.76
427.627	582.26
428.003	585.65
428.379	589.04
428.756	592.2
429.132	602.15
429.507	611.18
429.883	647.57
430.259	616.16
430.635	620.9
431.011	627.68
431.387	623.61
431.763	646.89
432.138	653.44
432.514	638.53
432.89	635.59
433.265	675.14
433.641	685.08
434.016	677.85
434.392	678.75
434.767	681.01
435.143	688.02
435.518	693.67
435.894	711.97
436.269	703.84
436.644	733.67
437.02	717.4
437.395	715.81
437.77	725.53
438.145	756.04
438.52	737.73
438.895	740.22
439.271	761.69
439.646	762.82
440.021	747.9
440.395	787
440.77	747.23
441.145	753.1
441.52	801.91
441.895	786.1
442.27	791.29
442.645	799.2
443.019	780.22
443.394	793.55
443.769	808.24
444.143	808.02
444.518	821.35
444.892	808.02
445.267	817.73
445.641	799.88
446.016	810.95
446.39	826.09
446.764	827.9
447.139	825.64
447.513	842.36
447.887	845.53
448.262	835.36
448.636	855.25
449.01	874
449.384	858.18
449.758	862.48
450.132	869.71
450.506	894.79
450.88	888.24
451.254	922.59
451.628	893.66
452.002	919.42
452.376	928.69
452.75	916.94
453.123	924.17
453.497	921.01
453.871	946.77
454.244	968.01
454.618	960.78
454.992	994.45
455.365	968.92
455.739	1003.49
456.112	1008.46
456.486	1012.3
456.859	1009.59
457.232	1044.17
457.606	1023.6
457.979	1045.98
458.352	1042.59
458.725	1035.58
459.099	1074.45
459.472	1078.97
459.845	1101.34
460.218	1088.91
460.591	1125.75
460.964	1123.94
461.337	1131.17
461.71	1138.18
462.083	1176.14
462.456	1197.84
462.829	1163.49
463.201	1176.82
463.574	1198.74
463.947	1198.97
464.32	1205.97
464.692	1219.08
465.065	1243.26
465.438	1240.77
465.81	1273.31
466.183	1290.71
466.555	1277.61
466.928	1321.9
467.3	1319.41
467.672	1322.8
468.045	1365.74
468.417	1359.64
468.789	1371.62
469.161	1385.4
469.534	1387.44
469.906	1436.25
470.278	1426.3
470.65	1478.28
471.022	1454.55
471.394	1485.51
471.766	1504.27
472.138	1512.63
472.51	1530.71
472.882	1574.77
473.253	1566.19
473.625	1578.39
473.997	1625.4
474.369	1630.82
474.74	1653.64
475.112	1664.49
475.484	1693.42
475.855	1740.65
476.227	1714.43
476.598	1788.1
476.97	1791.27
477.341	1809.12
477.713	1851.15
478.084	1845.95
478.455	1880.08
478.827	1882.11
479.198	1956.46
479.569	1959.85
479.94	1954.65
480.311	2020.19
480.682	2039.4
481.053	2085.04
481.424	2092.95
481.795	2119.62
482.166	2179.5
482.537	2172.73
482.908	2264.25
483.279	2246.62
483.65	2292.72
484.021	2330.69
484.391	2382.21
484.762	2357.81
485.133	2352.16
485.503	2428.31
485.874	2484.36
486.244	2468.31
486.615	2520.74
486.985	2542.21
487.356	2614.07
487.726	2583.34
488.097	2641.19
488.467	2643.67
488.837	2707.4
489.207	2709.89
489.578	2751.24
489.948	2792.14
490.318	2828.53
490.688	2822.88
491.058	2883.22
491.428	2891.58
491.798	2902.42
492.168	2999.82
492.538	3022.42
492.908	3021.06
493.278	3043.89
493.648	3148.52
494.017	3106.94
494.387	3115.53
494.757	3171.34
495.126	3181.06
495.496	3210.66
495.866	3205.69
496.235	3241.17
496.605	3296.54
496.974	3311.45
497.344	3309.87
497.713	3330.66
498.082	3365.24
498.452	3416.31
498.821	3438
499.19	3426.7
499.559	3464.67
499.928	3494.27
500.298	3514.16
500.667	3508.06
501.036	3474.61
501.405	3554.61
501.774	3554.84
502.143	3632.12
502.512	3626.92
502.88	3634.16
503.249	3665.57
503.618	3715.96
503.987	3675.51
504.356	3708.5
504.724	3758.67
505.093	3758.67
505.462	3772.68
505.83	3805.45
506.199	3822.4
506.567	3880.03
506.936	3898.1
507.304	3915.05
507.672	3914.6
508.041	3941.49
508.409	3968.61
508.777	4005.9
509.145	4035.05
509.514	4064.88
509.882	4047.25
510.25	4056.29
510.618	4084.54
510.986	4150.75
511.354	4176.74
511.722	4188.49
512.09	4266
512.458	4244.54
512.826	4221.71
513.193	4278.43
513.561	4276.17
513.929	4320.69
514.297	4393.23
514.664	4395.72
515.032	4427.13
515.4	4444.3
515.767	4469.84
516.135	4503.96
516.502	4484.75
516.869	4575.83
517.237	4592.1
517.604	4573.57
517.972	4596.39
518.339	4681.59
518.706	4674.13
519.073	4705.09
519.44	4721.58
519.808	4772.43
520.175	4753.45
520.542	4808.59
520.909	4861.24
521.276	4886.55
521.643	4891.3
522.009	4964.06
522.376	4951.41
522.743	4999.09
523.11	5015.81
523.477	5102.37
523.843	5074.8
524.21	5137.62
524.577	5174.45
524.943	5214.23
525.31	5260.55
525.676	5277.5
526.043	5318.63
526.409	5345.07
526.776	5344.39
527.142	5410.38
527.508	5460.1
527.874	5419.42
528.241	5508.68
528.607	5531.96
528.973	5560.43
529.339	5536.03
529.705	5619.41
530.071	5653.99
530.437	5680.66
530.803	5697.83
531.169	5743.93
531.535	5757.26
531.901	5767.43
532.267	5784.61
532.632	5860.54
532.998	5865.96
533.364	5941.67
533.73	5938.95
534.095	5965.62
534.461	5972.4
534.826	6032.51
535.192	6081.32
535.557	6103.7
535.923	6092.62
536.288	6153.86
536.653	6140.08
537.019	6171.72
537.384	6210.36
537.749	6285.39
538.114	6237.25
538.479	6291.04
538.845	6300.3
539.21	6303.24
539.575	6269.57
539.94	6371.94
540.305	6380.52
540.67	6428.66
541.034	6407.64
541.399	6470.69
541.764	6502.78
542.129	6499.17
542.494	6573.06
542.858	6619.16
543.223	6596.11
543.587	6593.63
543.952	6623.68
544.316	6622.1
544.681	6668.65
545.045	6712.72
545.41	6749.33
545.774	6845.82
546.138	6784.13
546.503	6837.69
546.867	6820.29
547.231	6859.61
547.595	6867.52
547.959	6944.35
548.324	6920.62
548.688	6939.61
549.052	6998.81
549.416	7024.35
549.779	7055.31
550.143	7063.22
550.507	7114.29
550.871	7099.38
551.235	7103.44
551.599	7141.86
551.962	7255.08
552.326	7225.93
552.689	7269.09
553.053	7183.22
553.417	7233.16
553.78	7353.61
554.143	7379.37
554.507	7393.61
554.87	7422.53
555.234	7465.24
555.597	7426.82
555.96	7522.87
556.323	7567.84
556.686	7549.99
557.05	7612.36
557.413	7649.42
557.776	7636.54
558.139	7719.47
558.502	7710.66
558.865	7725.35
559.228	7763.99
559.59	7811
559.953	7829.75
560.316	7906.36
560.679	7935.51
561.041	7935.74
561.404	7956.53
561.767	8038.33
562.129	8034.27
562.492	8139.12
562.854	8111.78
563.217	8052.8
563.579	8156.07
563.941	8231.32
564.304	8234.49
564.666	8316.07
565.028	8286.01
565.39	8337.76
565.753	8359
566.115	8474.03
566.477	8423.18
566.839	8440.81
567.201	8494.14
567.563	8509.28
567.925	8621.82
568.287	8680.58
568.648	8618.88
569.01	8710.63
569.372	8641.71
569.734	8676.28
570.095	8808.94
570.457	8804.87
570.819	8810.52
571.18	8818.88
571.542	8843.96
571.903	8921.7
572.265	8873.57
572.626	8937.29
572.987	8934.58
573.349	9066.78
573.71	9032.21
574.071	9095.93
574.432	9133.45
574.794	9160.11
575.155	9118.76
575.516	9160.34
575.877	9181.13
576.238	9150.85
576.599	9219.09
576.96	9231.3
577.32	9208.92
577.681	9277.17
578.042	9305.42
578.403	9278.08
578.763	9313.33
579.124	9340.9
579.485	9380.45
579.845	9377.51
580.206	9421.8
580.566	9362.82
580.927	9350.16
581.287	9396.72
581.648	9433.1
582.008	9464.29
582.368	9439.65
582.728	9426.77
583.089	9449.6
583.449	9436.49
583.809	9438.3
584.169	9545.19
584.529	9526.66
584.889	9485.53
585.249	9516.49
585.609	9402.59
585.969	9524.85
586.329	9522.14
586.688	9504.51
587.048	9553.55
587.408	9487.56
587.768	9526.66
588.127	9484.62
588.487	9502.7
588.846	9614.56
589.206	9473.1
589.565	9521.01
589.925	9575.69
590.284	9570.04
590.643	9554.23
591.003	9628.57
591.362	9544.73
591.721	9549.03
592.08	9560.33
592.44	9618.63
592.799	9569.82
593.158	9613.66
593.517	9611.85
593.876	9621.57
594.235	9634.45
594.593	9551.29
594.952	9632.19
595.311	9606.88
595.67	9642.81
596.029	9673.77
596.387	9730.72
596.746	9678.74
597.104	9616.37
597.463	9574.79
597.822	9715.58
598.18	9687.78
598.538	9617.28
598.897	9717.84
599.255	9615.69
599.613	9724.39
599.972	9688.46
600.33	9710.38
600.688	9668.57
601.046	9657.73
601.404	9750.83
601.762	9647.56
602.12	9744.05
602.478	9736.82
602.836	9775.92
603.194	9688.01
603.552	9699.08
603.91	9763.49
604.268	9771.62
604.625	9717.16
604.983	9823.15
605.341	9769.36
605.698	9791.28
606.056	9833.99
606.413	9709.7
606.771	9745.41
607.128	9789.93
607.485	9754.9
607.843	9795.58
608.2	9828.8
608.557	9859.98
608.914	9813.65
609.272	9916.02
609.629	9947.21
609.986	9949.7
610.343	9815.46
610.7	9973.2
611.057	9853.43
611.414	9927.32
611.771	9929.58
612.127	9955.57
612.484	9937.04
612.841	9992.18
613.198	9975.46
613.554	9899.53
613.911	10045.51
614.267	10025.63
614.624	10023.59
614.98	9948.11
615.337	10018.85
615.693	10021.56
616.05	9983.59
616.406	10098.62
616.762	10120.99
617.118	9977.72
617.475	10042.8
617.831	10061.33
618.187	10102.23
618.543	10127.09
618.899	10156.24
619.255	10198.95
619.611	10122.57
619.967	10234.43
620.323	10179.07
620.678	10145.62
621.034	10147.66
621.39	10107.43
621.746	10064.95
622.101	10236.69
622.457	10162.35
622.812	10159.63
623.168	10184.27
623.523	10214.77
623.879	10249.12
624.234	10156.02
624.589	10225.39
624.945	10192.4
625.3	10179.07
625.655	10204.6
626.01	10201.67
626.365	10188.11
626.72	10172.52
627.075	10191.05
627.43	10171.16
627.785	10203.7
628.14	10190.14
628.495	10199.18
628.85	10134.55
629.205	10135.68
629.559	10225.62
629.914	10183.81
630.269	10155.11
630.623	10207.99
630.978	10129.58
631.332	10112.86
631.687	10216.36
632.041	10157.83
632.396	10189.01
632.75	10110.82
633.104	10194.66
633.459	10070.37
633.813	10146.53
634.167	10118.28
634.521	10059.07
634.875	10080.54
635.229	10079.18
635.583	10108.34
635.937	10039.19
636.291	10040.99
636.645	10013.88
636.999	10060.65
637.352	10020.43
637.706	10071.73
638.06	10036.93
638.413	10008
638.767	9947.44
639.121	10046.64
639.474	9931.39
639.828	9963.03
640.181	9979.75
640.534	9961.22
640.888	9909.25
641.241	9891.62
641.594	9928
641.947	9968.23
642.301	9898.17
642.654	10008.9
643.007	9955.35
643.36	9977.27
643.713	9892.97
644.066	9939.07
644.419	9787.44
644.771	9824.73
645.124	9753.77
645.477	9719.65
645.83	9671.96
646.182	9621.34
646.535	9625.18
646.888	9688.23
647.24	9615.47
647.593	9702.7
647.945	9699.76
648.298	9623.38
648.65	9602.13
649.002	9521.23
649.355	9617.73
649.707	9540.44
650.059	9596.94
650.411	9712.87
650.763	9795.8
651.115	9863.37
651.467	9859.98
651.819	9808.68
652.171	9784.73
652.523	9805.97
652.875	9801.45
653.227	9758.51
653.578	9785.63
653.93	9789.7
654.282	9763.94
654.633	9798.74
654.985	9702.47
655.337	9756.93
655.688	9786.31
656.039	9780.89
656.391	9691.85
656.742	9760.32
657.094	9789.93
657.445	9831.96
657.796	9764.16
658.147	9724.84
658.498	9824.05
658.849	9764.16
659.2	9803.94
659.551	9695.92
659.902	9859.75
660.253	9748.8
660.604	9733.2
660.955	9800.55
661.306	9761.68
661.656	9772.98
662.007	9712.87
662.358	9715.13
662.708	9834.9
663.059	9762.36
663.409	9645.3
663.76	9722.58
664.11	9782.02
664.461	9726.2
664.811	9754.45
665.161	9714.22
665.511	9752.41
665.862	9739.98
666.212	9772.3
666.562	9783.37
666.912	9728.23
667.262	9699.53
667.612	9744.73
667.962	9741.79
668.312	9756.48
668.662	9792.41
669.011	9792.64
669.361	9689.36
669.711	9771.62
670.06	9648.24
670.41	9755.35
670.76	9643.94
671.109	9695.92
671.459	9716.71
671.808	9729.81
672.157	9672.19
672.507	9667.9
672.856	9692.08
673.205	9659.99
673.554	9692.08
673.904	9742.92
674.253	9661.12
674.602	9634.68
674.951	9504.96
675.3	9458.18
675.649	9627.9
675.998	9594.45
676.346	9627.67
676.695	9588.35
677.044	9600.55
677.393	9589.48
677.741	9573.89
678.09	9528.92
678.438	9542.25
678.787	9506.54
679.135	9518.75
679.484	9486.88
679.832	9467.67
680.181	9486.88
680.529	9511.52
680.877	9451.18
681.225	9474.45
681.573	9466.77
681.922	9378.64
682.27	9370.73
682.618	9378.64
682.966	9376.15
683.314	9437.62
683.661	9345.87
684.009	9354.46
684.357	9279.21
684.705	9300.9
685.053	9262.48
685.4	9232.88
685.748	9210.51
686.095	9252.54
686.443	9190.39
686.79	9186.55
687.138	9191.98
687.485	9132.54
687.832	9138.19
688.18	9108.81
688.527	9132.32
688.874	9068.14
689.221	9048.48
689.568	9104.29
689.915	9015.71
690.262	8954.92
690.609	8927.58
690.956	8968.03
691.303	8914.47
691.65	8836.5
691.997	8884.19
692.344	8844.41
692.69	8819.56
693.037	8787.47
693.383	8744.76
693.73	8821.59
694.077	8736.17
694.423	8718.99
694.769	8728.94
695.116	8646.68
695.462	8675.15
695.808	8596.06
696.155	8655.94
696.501	8556.74
696.847	8540.24
697.193	8493.92
697.539	8558.55
697.885	8403.07
698.231	8453.69
698.577	8413.69
698.923	8354.48
699.269	8406.91
699.614	8323.75
699.96	8292.79
700.306	8368.49
700.651	8293.24
700.997	8272.23
701.342	8279.91
701.688	8237.42
702.033	8170.76
702.379	8139.12
702.724	8089.86
703.069	8209.18
703.415	8019.8
703.76	8048.05
704.105	8046.02
704.45	8060.71
704.795	7945
705.14	7970.54
705.485	7935.96
705.83	7920.37
706.175	7911.11
706.52	7885.34
706.865	7879.47
707.209	7875.63
707.554	7792.69
707.899	7877.89
708.243	7772.8
708.588	7795.4
708.932	7730.55
709.277	7693.71
709.621	7753.82
709.966	7635.86
710.31	7729.87
710.654	7605.35
710.998	7647.38
711.342	7648.51
711.687	7641.96
712.031	7568.52
712.375	7586.37
712.719	7560.15
713.063	7546.6
713.407	7542.75
713.75	7559.48
714.094	7563.77
714.438	7476.31
714.782	7512.47
715.125	7506.37
715.469	7452.36
715.812	7418.01
716.156	7429.99
716.499	7445.81
716.843	7438.12
717.186	7399.71
717.53	7393.15
717.873	7453.49
718.216	7439.71
718.559	7352.48
718.902	7365.81
719.246	7335.98
719.589	7310.9
719.932	7289.2
720.275	7305.25
720.617	7294.17
720.96	7325.81
721.303	7316.77
721.646	7307.05
721.989	7292.59
722.331	7287.17
722.674	7217.11
723.016	7269.99
723.359	7252.82
723.701	7241.07
724.044	7201.52
724.386	7153.16
724.729	7226.6
725.071	7226.38
725.413	7239.71
725.755	7233.16
726.097	7229.77
726.439	7161.52
726.782	7197
727.124	7208.98
727.465	7151.8
727.807	7191.35
728.149	7250.11
728.491	7128.08
728.833	7180.73
729.175	7129.66
729.516	7127.4
729.858	7149.09
730.199	7192.25
730.541	7149.32
730.882	7136.66
731.224	7170.56
731.565	7177.57
731.906	7182.54
732.248	7121.75
732.589	7155.65
732.93	7110.67
733.271	7089.43
733.612	7142.31
733.953	7077
734.294	7097.34
734.635	7080.17
734.976	7151.35
735.317	7109.77
735.658	7095.08
735.999	7133.27
736.339	7023.9
736.68	7129.21
737.021	7124.23
737.361	7102.31
737.702	7107.51
738.042	7073.16
738.383	7077.23
738.723	7094.18
739.063	7123.78
739.404	7068.64
739.744	7095.99
740.084	7030.68
740.424	7055.76
740.764	7043.33
741.104	7079.49
741.444	7088.08
741.784	7006.27
742.124	7038.81
742.464	7070.9
742.804	7045.59
743.143	7048.08
743.483	7048.53
743.823	7002.43
744.162	6984.58
744.502	7026.38
744.841	7037.46
745.181	7015.99
745.52	7008.3
745.86	7041.07
746.199	7047.85
746.538	7072.94
746.877	7050.79
747.216	6981.64
747.556	6978.93
747.895	7013.05
748.234	7015.31
748.573	6998.36
748.911	6980.96
749.25	7050.79
749.589	6955.88
749.928	6963.11
750.267	7001.98
750.605	7014.41
750.944	6992.26
751.283	6986.84
751.621	7001.75
751.96	6923.33
752.298	6982.77
752.636	6926.72
752.975	6863.22
753.313	6945.93
753.651	6895.09
753.989	6856.44
754.327	6891.02
754.666	6848.53
755.004	6908.42
755.342	6907.29
755.679	6823.22
756.017	6797.69
756.355	6863.22
756.693	6891.92
757.031	6834.75
757.368	6848.53
757.706	6813.06
758.044	6796.11
758.381	6807.86
758.719	6763.57
759.056	6749.33
759.394	6745.49
759.731	6741.19
760.068	6703.23
760.405	6625.04
760.743	6646.51
761.08	6675.66
761.417	6610.57
761.754	6580.07
762.091	6633.17
762.428	6570.35
762.765	6584.81
763.102	6611.03
763.438	6515.66
763.775	6479.28
764.112	6526.51
764.449	6516.11
764.785	6480.18
765.122	6484.25
765.458	6417.36
765.795	6423.01
766.131	6436.34
766.467	6385.27
766.804	6357.47
767.14	6373.52
767.476	6334.88
767.812	6331.03
768.148	6297.14
768.485	6326.29
768.821	6238.61
769.157	6218.27
769.492	6246.29
769.828	6238.61
770.164	6168.78
770.5	6143.24
770.836	6161.77
771.171	6129.46
771.507	6118.84
771.842	6005.39
772.178	6075.9
772.513	6022.34
772.849	6082
773.184	6018.27
773.519	6010.82
773.855	5980.08
774.19	6005.39
774.525	5890.14
774.86	5917.49
775.195	5903.93
775.53	5875.68
775.865	5837.26
776.2	5863.7
776.535	5808.56
776.87	5822.35
777.205	5792.07
777.539	5752.97
777.874	5788.9
778.209	5701.22
778.543	5705.74
778.878	5659.19
779.212	5670.94
779.547	5662.13
779.881	5613.76
780.215	5636.82
780.55	5614.22
780.884	5567.21
781.218	5582.13
781.552	5529.7
781.886	5560.21
782.22	5472.3
782.554	5472.75
782.888	5416.48
783.222	5467.33
783.556	5425.07
783.889	5434.33
784.223	5362.25
784.557	5391.4
784.89	5383.94
785.224	5326.09
785.557	5329.25
785.891	5320.44
786.224	5315.69
786.558	5286.32
786.891	5241.8
787.224	5249.03
787.557	5219.65
787.891	5164.29
788.224	5188.24
788.557	5228.01
788.89	5138.98
789.223	5157.73
789.556	5145.3
789.888	5122.7
790.221	5122.25
790.554	5070.28
790.887	5078.19
791.219	5000.9
791.552	5013.55
791.884	5018.98
792.217	5004.06
792.549	5016.04
792.882	4980.56
793.214	4934.91
793.546	4917.51
793.879	4876.38
794.211	4872.77
794.543	4924.52
794.875	4814.69
795.207	4892.43
795.539	4892.88
795.871	4849.49
796.203	4803.62
796.535	4775.82
796.867	4774.69
797.198	4772.88
797.53	4782.15
797.862	4761.13
798.193	4731.53
798.525	4735.6
798.856	4714.35
799.188	4669.83
799.519	4645.88
799.85	4675.94
800.182	4649.04
800.513	4637.29
800.844	4626.9
801.175	4601.36
801.506	4592.32
801.837	4575.15
802.168	4607.24
802.499	4541.7
802.83	4546.45
803.161	4532.44
803.491	4539.44
803.822	4492.21
804.153	4498.77
804.483	4451.08
804.814	4446.56
805.145	4427.58
805.475	4417.41
805.805	4401.37
806.136	4407.02
806.466	4429.16
806.796	4417.41
807.126	4345.32
807.457	4348.49
807.787	4337.19
808.117	4314.82
808.447	4336.06
808.777	4372.22
809.107	4337.87
809.436	4298.32
809.766	4285.21
810.096	4265.55
810.426	4300.8
810.755	4265.78
811.085	4256.74
811.414	4237.08
811.744	4230.3
812.073	4226.91
812.403	4233.91
812.732	4202.73
813.061	4155.5
813.39	4176.06
813.719	4202.05
814.049	4143.97
814.378	4173.35
814.707	4208.15
815.036	4159.79
815.365	4106.91
815.693	4034.6
816.022	4072.11
816.351	4086.35
816.68	4055.84
817.008	4080.25
817.337	4045.22
817.665	4002.06
817.994	4041.15
818.322	4028.27
818.651	4065.56
818.979	4015.16
819.307	4043.86
819.636	4006.35
819.964	3981.94
820.292	4008.16
820.62	3981.49
820.948	3995.28
821.276	3989.4
821.604	3939.46
821.932	3988.04
822.259	4024.43
822.587	3974.26
822.915	3967.03
823.243	4010.87
823.57	3989.85
823.898	3955.28
824.225	3910.98
824.553	3940.36
824.88	3972.45
825.207	3975.84
825.535	3964.54
825.862	3993.47
826.189	3989.4
826.516	3979.91
826.843	4017.65
827.17	3950.08
827.497	3995.05
827.824	3971.55
828.151	3968.61
828.478	3964.09
828.805	3961.6
829.131	3911.89
829.458	3984.43
829.785	3939.91
830.111	3915.73
830.438	3948.5
830.764	3963.19
831.09	4015.84
831.417	3949.4
831.743	3941.49
832.069	3935.39
832.395	3956.41
832.722	3956.41
833.048	3913.92
833.374	3941.27
833.7	3910.53
834.026	3934.71
834.351	3922.74
834.677	3934.71
835.003	3946.24
835.329	3892
835.654	3902.17
835.98	3906.92
836.306	3878.67
836.631	3899.69
836.956	3910.53
837.282	3889.06
837.607	3892.68
837.932	3857.43
838.258	3865.11
838.583	3884.32
838.908	3837.77
839.233	3852.68
839.558	3841.61
839.883	3830.53
840.208	3823.53
840.533	3808.61
840.858	3846.13
841.182	3843.19
841.507	3769.97
841.832	3806.35
842.156	3795.96
842.481	3764.1
842.805	3764.55
843.13	3779.46
843.454	3757.99
843.778	3715.96
844.103	3761.84
844.427	3718.45
844.751	3736.3
845.075	3702.4
845.399	3697.66
845.723	3669.41
846.047	3670.31
846.371	3686.13
846.695	3712.8
847.019	3667.38
847.343	3650.43
847.666	3673.25
847.99	3588.51
848.313	3606.59
848.637	3593.93
848.96	3594.61
849.284	3578.11
849.607	3559.81
849.931	3561.84
850.254	3516.64
850.577	3468.74
850.9	3484.1
851.223	3471.67
851.546	3425.35
851.869	3452.69
852.192	3503.54
852.515	3439.13
852.838	3409.75
853.161	3404.78
853.483	3421.28
853.806	3419.25
854.129	3391.45
854.451	3420.6
854.774	3381.96
855.096	3348.06
855.419	3336.54
855.741	3348.97
856.063	3284.79
856.385	3308.06
856.708	3312.81
857.03	3291.11
857.352	3348.29
857.674	3330.89
857.996	3275.52
858.318	3268.97
858.64	3219.03
858.961	3233.26
859.283	3236.88
859.605	3200.72
859.926	3208.18
860.248	3223.32
860.57	3215.64
860.891	3229.87
861.212	3215.64
861.534	3206.14
861.855	3156.88
862.176	3189.65
862.498	3168.41
862.819	3170.67
863.14	3177.9
863.461	3147.61
863.782	3122.3
864.103	3145.36
864.424	3134.96
864.745	3181.96
865.065	3121.17
865.386	3117.56
865.707	3146.94
866.027	3126.6
866.348	3111.46
866.668	3136.09
866.989	3064.23
867.309	3102.87
867.63	3072.59
867.95	3105.58
868.27	3059.03
868.59	3068.97
868.91	3061.06
869.23	3025.81
869.55	3067.39
869.87	3065.58
870.19	3041.4
870.51	3059.93
870.83	3040.95
871.15	3035.08
871.469	3059.03
871.789	3007.05
872.109	3071.46
872.428	3007.73
872.748	2977.45
873.067	2992.59
873.386	3028.97
873.706	2998.01
874.025	3001.18
874.344	2973.61
874.663	2981.97
874.982	2962.99
875.301	3004.34
875.62	2949.2
875.939	2975.64
876.258	2909.66
876.577	2922.31
876.896	2940.61
877.214	2934.51
877.533	2973.38
877.852	2944.46
878.17	2941.52
878.489	2952.82
878.807	2947.39
879.125	2926.83
879.444	2920.95
879.762	2901.07
880.08	2915.53
880.398	2930.67
880.716	2890.67
881.034	2888.19
881.352	2890.22
881.67	2919.6
881.988	2890.67
882.306	2910.33
882.624	2857.23
882.941	2880.96
883.259	2851.8
883.577	2837.34
883.894	2824.23
884.212	2837.11
884.529	2880.96
884.846	2802.99
885.164	2804.35
885.481	2803.44
885.798	2858.58
886.115	2825.14
886.432	2805.7
886.75	2758.7
887.067	2768.87
887.383	2763.22
887.7	2773.39
888.017	2764.57
888.334	2741.98
888.651	2765.25
888.967	2759.15
889.284	2772.71
889.6	2718.25
889.917	2704.46
890.233	2730.68
890.55	2710.11
890.866	2727.06
891.182	2686.84
891.498	2685.03
891.815	2686.16
892.131	2702.2
892.447	2655.2
892.763	2659.04
893.079	2687.51
893.395	2679.83
893.71	2623.79
894.026	2669.21
894.342	2617.91
894.657	2580.62
894.973	2578.82
895.289	2625.14
895.604	2631.02
895.92	2583.56
896.235	2588.08
896.55	2564.58
896.865	2593.05
897.181	2551.47
897.496	2556.44
897.811	2558.7
898.126	2532.04
898.441	2561.19
898.756	2537.69
899.071	2537.46
899.386	2543.34
899.7	2543.34
900.015	2509.67
900.33	2490.23
900.644	2495.88
900.959	2465.82
901.273	2461.08
901.588	2474.86
901.902	2452.94
902.216	2439.84
902.531	2436
902.845	2421.53
903.159	2415.88
903.473	2389.67
903.787	2394.19
904.101	2367.52
904.415	2396
904.729	2345.83
905.042	2369.78
905.356	2384.92
905.67	2347.41
905.984	2375.21
906.297	2331.59
906.611	2325.26
906.924	2310.8
907.237	2342.89
907.551	2334.08
907.864	2348.09
908.177	2310.8
908.491	2301.31
908.804	2284.59
909.117	2248.66
909.43	2265.83
909.743	2259.73
910.056	2264.02
910.368	2242.55
910.681	2205.04
910.994	2230.58
911.307	2230.12
911.619	2222.89
911.932	2206.62
912.244	2177.92
912.557	2184.25
912.869	2162.78
913.181	2185.38
913.494	2144.7
913.806	2138.15
914.118	2167.3
914.43	2116
914.742	2133.63
915.054	2107.19
915.366	2133.63
915.678	2131.82
915.99	2084.37
916.302	2074.42
916.613	2068.32
916.925	2090.02
917.236	2067.64
917.548	2084.14
917.859	2064.25
918.171	2050.02
918.482	2036.46
918.794	2036.23
919.105	2036.46
919.416	2009.79
919.727	2036.68
920.038	2025.16
920.349	2042.33
920.66	2008.44
920.971	1995.1
921.282	1966.86
921.593	1969.34
921.903	1955.78
922.214	1955.78
922.525	1948.1
922.835	1926.18
923.146	1959.4
923.456	1911.72
923.767	1934.31
924.077	1919.62
924.387	1903.35
924.697	1872.62
925.008	1901.55
925.318	1894.54
925.628	1886.63
925.938	1885.73
926.248	1868.55
926.558	1857.25
926.867	1870.36
927.177	1845.05
927.487	1848.44
927.796	1822.23
928.106	1796.69
928.416	1821.77
928.725	1821.55
929.034	1825.39
929.344	1811.15
929.653	1838.04
929.962	1784.49
930.271	1778.84
930.581	1786.75
930.89	1785.84
931.199	1740.42
931.508	1776.58
931.817	1765.5
932.125	1751.27
932.434	1740.65
932.743	1713.53
933.051	1732.28
933.36	1741.1
933.669	1709.46
933.977	1703.59
934.286	1718.27
934.594	1678.05
934.902	1686.41
935.21	1684.6
935.519	1667.65
935.827	1637.82
936.135	1677.6
936.443	1644.6
936.751	1658.16
937.059	1643.7
937.367	1616.13
937.674	1653.42
937.982	1642.57
938.29	1597.15
938.597	1615.45
938.905	1635.34
939.213	1587.2
939.52	1602.34
939.827	1604.6
940.135	1578.84
940.442	1586.53
940.749	1583.14
941.056	1563.7
941.363	1584.49
941.67	1578.84
941.977	1562.35
942.284	1520.09
942.591	1546.98
942.898	1543.82
943.205	1538.62
943.511	1548.56
943.818	1506.53
944.125	1534.55
944.431	1519.86
944.738	1504.49
945.044	1501.1
945.35	1503.82
945.657	1476.7
945.963	1497.04
946.269	1473.99
946.575	1475.34
946.881	1485.96
947.187	1476.7
947.493	1471.95
947.799	1480.99
948.105	1405.06
948.41	1453.87
948.716	1462.69
949.022	1396.93
949.327	1411.84
949.633	1422.01
949.938	1423.37
950.244	1452.07
950.549	1414.55
950.854	1408
951.16	1361.22
951.465	1395.57
951.77	1385.4
952.075	1371.16
952.38	1358.06
952.685	1386.31
952.99	1401.22
953.294	1361.9
953.599	1355.35
953.904	1339.75
954.209	1372.52
954.513	1357.83
954.818	1365.29
955.122	1352.86
955.426	1344.05
955.731	1326.19
956.035	1323.48
956.339	1321.22
956.643	1321.9
956.948	1293.2
957.252	1320.09
957.556	1281.9
957.86	1271.51
958.163	1300.43
958.467	1288.68
958.771	1266.99
959.075	1294.1
959.378	1266.08
959.682	1266.76
959.985	1278.06
960.289	1287.55
960.592	1259.76
960.896	1263.14
961.199	1259.53
961.502	1248.23
961.805	1251.85
962.108	1255.01
962.411	1246.87
962.714	1221.79
963.017	1233.32
963.32	1214.78
963.623	1209.59
963.926	1196.71
964.228	1214.33
964.531	1177.5
964.833	1191.28
965.136	1216.37
965.438	1174.33
965.741	1159.42
966.043	1175.69
966.345	1154.22
966.648	1197.61
966.95	1162.81
967.252	1157.84
967.554	1163.03
967.856	1153.09
968.158	1137.5
968.46	1163.49
968.761	1139.08
969.063	1149.02
969.365	1167.33
969.666	1135.01
969.968	1125.52
970.269	1131.4
970.571	1135.92
970.872	1127.33
971.174	1120.1
971.475	1102.02
971.776	1109.48
972.077	1120.55
972.378	1081.45
972.679	1094.34
972.98	1099.53
973.281	1095.92
973.582	1095.92
973.883	1080.78
974.183	1104.96
974.484	1073.32
974.785	1061.34
975.085	1060.89
975.386	1100.66
975.686	1034.45
975.986	1052.98
976.287	1054.11
976.587	1072.19
976.887	1015.02
977.187	1029.25
977.487	1054.56
977.787	1027.9
978.087	1041.91
978.387	1043.49
978.687	1005.3
978.987	998.29
979.286	1013.21
979.586	1009.14
979.885	1000.78
980.185	996.03
980.484	984.28
980.784	1017.05
981.083	1017.5
981.382	982.7
981.682	996.94
981.981	989.25
982.28	979.76
982.579	988.35
982.878	982.25
983.177	957.62
983.475	958.29
983.774	960.55
984.073	942.93
984.372	963.04
984.67	951.51
984.969	926.43
985.267	933.44
985.566	950.38
985.864	952.87
986.162	961.23
986.461	933.66
986.759	933.89
987.057	919.88
987.355	928.46
987.653	897.96
987.951	910.61
988.249	926.43
988.547	883.49
988.844	902.48
989.142	922.14
989.44	899.31
989.737	881.46
990.035	930.5
990.332	907.22
990.63	884.85
990.927	870.39
991.224	877.84
991.521	891.63
991.819	884.85
992.116	899.31
992.413	878.97
992.71	864.06
993.006	868.8
993.303	853.89
993.6	873.55
993.897	854.57
994.193	854.12
994.49	866.32
994.787	846.88
995.083	838.07
995.379	862.48
995.676	843.72
995.972	851.63
996.268	837.85
996.565	829.26
996.861	810.73
997.157	844.17
997.453	811.86
997.749	824.06
998.044	822.25
998.34	811.41
998.636	816.6
998.932	827.68
999.227	805.08
999.523	801.24
999.818	808.02
1000.114	805.08
1000.409	795.81
1000.704	803.5
1001	784.74
1001.295	791.52
1001.59	793.55
1001.885	771.86
1002.18	787
1002.475	781.12
1002.77	764.63
1003.065	768.92
1003.359	781.8
1003.654	773.44
1003.949	775.02
1004.243	763.72
1004.538	747
1004.832	756.72
1005.127	741.12
1005.421	740.45
1005.715	716.04
1006.009	753.55
1006.304	740.67
1006.598	746.77
1006.892	725.08
1007.186	715.14
1007.48	700.22
1007.773	713.55
1008.067	721.01
1008.361	707.68
1008.655	707.45
1008.948	688.24
1009.242	703.39
1009.535	680.34
1009.829	698.64
1010.122	710.84
1010.415	710.84
1010.708	676.27
1011.001	690.5
1011.295	675.59
1011.588	699.32
1011.881	687.34
1012.173	675.36
1012.466	691.86
1012.759	679.66
1013.052	669.04
1013.344	683.5
1013.637	674.69
1013.93	664.52
1014.222	661.13
1014.514	665.42
1014.807	646.66
1015.099	665.19
1015.391	657.06
1015.683	685.08
1015.976	648.25
1016.268	654.12
1016.56	658.87
1016.851	652.09
1017.143	653.44
1017.435	644.63
1017.727	628.36
1018.018	617.96
1018.31	629.26
1018.602	605.99
1018.893	636.27
1019.185	624.29
1019.476	631.07
1019.767	630.39
1020.058	633.33
1020.35	605.76
1020.641	608.25
1020.932	620
1021.223	594.24
1021.514	599.43
1021.804	587
1022.095	580.45
1022.386	587.46
1022.677	586.55
1022.967	589.94
1023.258	599.21
1023.548	610.96
1023.839	591.98
1024.129	581.13
1024.419	585.65
1024.709	574.12
1025	594.24
1025.29	568.93
1025.58	564.63
1025.87	568.93
1026.16	585.87
1026.449	558.3
1026.739	584.52
1027.029	571.41
1027.319	577.06
1027.608	551.3
1027.898	564.86
1028.187	555.14
1028.477	552.65
1028.766	533.22
1029.055	531.64
1029.344	556.04
1029.634	561.02
1029.923	556.95
1030.212	531.86
1030.501	532.09
1030.79	518.98
1031.078	505.65
1031.367	520.34
1031.656	512.2
1031.945	531.19
1032.233	526.67
1032.522	512.43
1032.81	506.78
1033.099	485.31
1033.387	517.63
1033.675	525.54
1033.963	503.39
1034.251	509.72
1034.54	492.54
1034.828	508.14
1035.116	506.78
1035.403	487.35
1035.691	519.21
1035.979	507.46
1036.267	487.35
1036.554	480.34
1036.842	478.76
1037.129	500.45
1037.417	484.18
1037.704	506.78
1037.992	505.42
1038.279	475.82
1038.566	492.32
1038.853	492.32
1039.14	492.32
