Data from mousepad_grey_FLMS001491_00004.txt Node
Date: Wed Feb 08 14:28:54 GMT 2017
User: dcchb
Spectrometer: FLMS00149
Trigger mode: 0
Integration Time (sec): 2.000000E-2
Scans to average: 10
Electric dark correction enabled: true
Nonlinearity correction enabled: false
Boxcar width: 0
XAxis mode: Wavelengths
Number of Pixels in Spectrum: 2048
>>>>>Begin Spectral Data<<<<<
341.393	-24.99
341.776	-24.99
342.16	-24.99
342.543	-60.01
342.927	-50.97
343.31	-64.98
343.693	-97.75
344.077	-74.25
344.46	-58.66
344.843	-53.01
345.226	-47.58
345.61	-20.47
345.993	-15.49
346.376	-12.56
346.759	8.46
347.142	29.02
347.525	42.36
347.908	50.94
348.291	84.16
348.674	90.04
349.057	139.76
349.44	134.33
349.823	140.66
350.206	164.39
350.588	164.39
350.971	187.66
351.354	213.65
351.737	236.7
352.119	211.17
352.502	231.51
352.884	261.56
353.267	277.38
353.65	296.81
354.032	263.59
354.414	268.79
354.797	295.68
355.179	308.57
355.562	305.63
355.944	306.08
356.326	293.2
356.709	334.33
357.091	351.73
357.473	307.89
357.855	313.99
358.238	332.97
358.62	318.28
359.002	332.75
359.384	304.5
359.766	322.12
360.148	299.98
360.53	317.6
360.912	315.57
361.294	313.54
361.676	294.78
362.057	307.44
362.439	311.96
362.821	294.55
363.203	308.79
363.584	301.11
363.966	301.56
364.348	296.81
364.729	293.65
365.111	311.5
365.493	310.37
365.874	300.2
366.256	303.14
366.637	311.05
367.019	294.55
367.4	309.24
367.781	309.02
368.163	294.33
368.544	296.59
368.925	305.4
369.306	296.14
369.688	268.34
370.069	292.52
370.45	304.5
370.831	302.92
371.212	294.33
371.593	280.09
371.974	290.03
372.355	294.33
372.736	282.13
373.117	303.37
373.498	309.02
373.879	304.5
374.26	294.78
374.641	311.05
375.021	302.01
375.402	312.41
375.783	311.96
376.163	318.28
376.544	311.05
376.925	289.58
377.305	294.55
377.686	299.98
378.066	302.46
378.447	300.2
378.827	304.27
379.208	313.76
379.588	313.99
379.968	312.18
380.349	324.16
380.729	309.02
381.109	321.45
381.489	316.93
381.87	299.3
382.25	318.28
382.63	309.92
383.01	316.47
383.39	298.85
383.77	319.41
384.15	312.18
384.53	330.26
384.91	315.34
385.29	318.73
385.67	317.83
386.049	321.45
386.429	330.03
386.809	327.77
387.189	311.96
387.568	322.12
387.948	324.61
388.328	325.51
388.707	337.04
389.087	342.46
389.466	339.52
389.846	332.97
390.225	331.84
390.605	324.38
390.984	329.58
391.363	359.64
391.743	347.43
392.122	342.01
392.501	325.06
392.881	340.88
393.26	351.95
393.639	344.95
394.018	347.21
394.397	359.41
394.776	350.6
395.155	340.65
395.534	341.56
395.913	348.56
396.292	358.73
396.671	370.03
397.05	360.99
397.429	362.58
397.808	371.39
398.186	354.67
398.565	367.55
398.944	374.78
399.323	369.35
399.701	369.35
400.08	390.82
400.458	365.29
400.837	375.23
401.215	370.71
401.594	349.69
401.972	384.04
402.351	398.51
402.729	382.46
403.107	377.49
403.486	385.17
403.864	394.66
404.242	400.99
404.62	380.43
404.999	379.07
405.377	385.17
405.755	410.48
406.133	430.6
406.511	396.25
406.889	384.95
407.267	413.2
407.645	409.58
408.023	422.91
408.401	401.44
408.779	408.9
409.156	412.97
409.534	415
409.912	422.69
410.29	435.34
410.667	445.74
411.045	422.23
411.422	419.97
411.8	419.97
412.178	456.81
412.555	438.28
412.933	436.25
413.31	451.61
413.687	463.59
414.065	456.58
414.442	448.67
414.819	449.35
415.197	477.83
415.574	483.25
415.951	490.48
416.328	458.17
416.705	480.31
417.082	454.32
417.46	476.7
417.837	485.28
418.214	480.99
418.591	488.67
418.967	486.64
419.344	482.12
419.721	497.94
420.098	479.86
420.475	508.56
420.852	483.7
421.228	493.87
421.605	494.55
421.982	505.62
422.358	502.46
422.735	511.72
423.111	518.5
423.488	521.44
423.864	502.23
424.241	527.32
424.617	525.28
424.994	529.35
425.37	530.03
425.746	508.33
426.123	551.27
426.499	529.12
426.875	550.14
427.251	554.89
427.627	548.79
428.003	542.01
428.379	584.72
428.756	574.1
429.132	577.26
429.507	568.9
429.883	568.45
430.259	594.43
430.635	587.43
431.011	574.32
431.387	612.06
431.763	623.13
432.138	618.61
432.514	617.03
432.89	627.88
433.265	636.69
433.641	640.31
434.016	623.36
434.392	630.59
434.767	650.7
435.143	644.6
435.518	669.69
435.894	664.49
436.269	649.8
436.644	672.85
437.02	674.66
437.395	674.66
437.77	690.48
438.145	675.34
438.52	693.64
438.895	706.29
439.271	687.31
439.646	708.55
440.021	700.87
440.395	702.68
440.77	719.85
441.145	728.22
441.52	730.7
441.895	726.86
442.27	736.58
442.645	732.73
443.019	746.97
443.394	765.95
443.769	732.28
444.143	753.53
444.518	758.95
444.892	750.59
445.267	759.85
445.641	781.77
446.016	763.69
446.39	774.77
446.764	797.14
447.139	770.02
447.513	786.07
447.887	786.29
448.262	784.03
448.636	804.82
449.01	809.8
449.384	814.54
449.758	828.33
450.132	835.33
450.506	811.38
450.88	823.58
451.254	829.91
451.628	836.46
452.002	841.88
452.376	826.29
452.75	872.39
453.123	866.06
453.497	893.41
453.871	876.01
454.244	883.01
454.618	887.99
454.992	906.97
455.365	908.32
455.739	921.88
456.112	930.02
456.486	922.33
456.859	951.94
457.232	947.64
457.606	919.4
457.979	967.98
458.352	974.99
458.725	975.21
459.099	982.22
459.472	992.39
459.845	1024.7
460.218	999.85
460.591	1041.65
460.964	1031.94
461.337	1086.17
461.71	1073.52
462.083	1070.13
462.456	1083.91
462.829	1054.76
463.201	1088.43
463.574	1119.39
463.947	1120.75
464.32	1145.61
464.692	1145.15
465.065	1142.67
465.438	1144.7
465.81	1177.02
466.183	1182.89
466.555	1188.32
466.928	1162.1
467.3	1227.64
467.672	1204.14
468.045	1249.33
468.417	1242.33
468.789	1229.22
469.161	1272.16
469.534	1282.1
469.906	1314.41
470.278	1328.43
470.65	1331.36
471.022	1332.49
471.394	1388.08
471.766	1370.01
472.138	1393.28
472.51	1425.15
472.882	1434.86
473.253	1431.02
473.625	1461.08
473.997	1486.61
474.369	1483.22
474.74	1510.57
475.112	1522.09
475.484	1569.1
475.855	1599.38
476.227	1600.28
476.598	1601.41
476.97	1630.79
477.341	1635.76
477.713	1671.24
478.084	1687.74
478.455	1722.99
478.827	1760.73
479.198	1783.33
479.569	1790.11
479.94	1812.03
480.311	1845.02
480.682	1858.81
481.053	1912.82
481.424	1935.87
481.795	1947.17
482.166	1963.44
482.537	1960.73
482.908	2032.14
483.279	2028.52
483.65	2079.82
484.021	2098.12
484.391	2126.82
484.762	2120.27
485.133	2192.13
485.503	2188.06
485.874	2233.26
486.244	2218.57
486.615	2294.95
486.985	2309.87
487.356	2344.44
487.726	2343.09
488.097	2395.97
488.467	2433.93
488.837	2476.19
489.207	2516.87
489.578	2528.17
489.948	2523.42
490.318	2578.34
490.688	2586.02
491.058	2609.97
491.428	2656.07
491.798	2654.94
492.168	2718.45
492.538	2730.42
492.908	2729.97
493.278	2783.53
493.648	2760.25
494.017	2812.45
494.387	2829.85
494.757	2875.96
495.126	2909.4
495.496	2907.59
495.866	2951.43
496.235	2932.9
496.605	2978.33
496.974	3001.15
497.344	3027.82
497.713	3048.15
498.082	3053.58
498.452	3099
498.821	3121.6
499.19	3129.51
499.559	3108.49
499.928	3173.8
500.298	3203.86
500.667	3170.19
501.036	3208.38
501.405	3217.87
501.774	3256.74
502.143	3279.56
502.512	3301.71
502.88	3302.38
503.249	3324.31
503.618	3388.26
503.987	3375.6
504.356	3402.72
504.724	3378.54
505.093	3435.26
505.462	3456.96
505.83	3466.22
506.199	3503.96
506.567	3520.01
506.936	3516.84
507.304	3581.7
507.672	3561.36
508.041	3584.19
508.409	3637.97
508.777	3628.93
509.145	3649.27
509.514	3723.16
509.882	3679.55
510.25	3737.85
510.618	3728.81
510.986	3767.46
511.354	3790.06
511.722	3792.54
512.09	3884.97
512.458	3879.32
512.826	3907.34
513.193	3918.41
513.561	3959.99
513.929	3953.67
514.297	3995.25
514.664	4018.07
515.032	4016.49
515.4	4076.6
515.767	4072.76
516.135	4090.61
516.502	4099.43
516.869	4153.66
517.237	4170.16
517.604	4208.8
517.972	4209.93
518.339	4274.11
518.706	4217.84
519.073	4278.86
519.44	4279.31
519.808	4364.5
520.175	4364.5
520.542	4370.15
520.909	4474.33
521.276	4417.84
521.643	4471.85
522.009	4519.3
522.376	4506.87
522.743	4561.79
523.11	4585.97
523.477	4661.45
523.843	4637.49
524.21	4678.62
524.577	4768.34
524.943	4741.44
525.31	4793.87
525.676	4821.89
526.043	4813.08
526.409	4929.01
526.776	4886.07
527.142	4919.29
527.508	4928.78
527.874	5018.72
528.241	5021.89
528.607	5037.03
528.973	5078.16
529.339	5095.78
529.705	5134.65
530.071	5173.75
530.437	5218.27
530.803	5225.95
531.169	5242.9
531.535	5258.04
531.901	5286.29
532.267	5291.94
532.632	5364.93
532.998	5374.19
533.364	5415.78
533.73	5395.66
534.095	5387.08
534.461	5450.58
534.826	5456.9
535.192	5488.54
535.557	5598.6
535.923	5527.19
536.288	5580.29
536.653	5596.34
537.019	5565.15
537.384	5662.32
537.749	5672.49
538.114	5681.76
538.479	5725.37
538.845	5777.35
539.21	5751.13
539.575	5783.68
539.94	5796.1
540.305	5872.49
540.67	5818.25
541.034	5885.59
541.399	5908.87
541.764	5904.35
542.129	5962.88
542.494	5962.65
542.858	5980.96
543.223	6006.27
543.587	6037
543.952	6079.49
544.316	6103.67
544.681	6080.16
545.045	6183.67
545.41	6098.92
545.774	6200.16
546.138	6268.63
546.503	6180.73
546.867	6243.78
547.231	6311.8
547.595	6323.77
547.959	6331.68
548.324	6385.47
548.688	6374.62
549.052	6383.89
549.416	6398.57
549.779	6419.82
550.143	6437.67
550.507	6489.19
550.871	6518.35
551.235	6561.06
551.599	6589.3
551.962	6611.22
552.326	6573.03
552.689	6656.2
553.053	6625.01
553.417	6694.16
553.78	6775.51
554.143	6700.26
554.507	6778.45
554.87	6743.88
555.234	6846.47
555.597	6827.04
555.96	6823.87
556.323	6886.47
556.686	6908.84
557.05	6961.27
557.413	6953.81
557.776	7001.72
558.139	7012.12
558.502	7034.94
558.865	7065.9
559.228	7103.41
559.59	7129.4
559.953	7165.11
560.316	7191.77
560.679	7186.12
561.041	7258.67
561.404	7307.7
561.767	7368.72
562.129	7298.89
562.492	7359.91
562.854	7402.62
563.217	7370.3
563.579	7443.07
563.941	7522.39
564.304	7498.21
564.666	7582.95
565.028	7580.24
565.39	7648.94
565.753	7749.05
566.115	7756.73
566.477	7787.92
566.839	7734.81
567.201	7749.73
567.563	7802.15
567.925	7853.45
568.287	7847.12
568.648	7921.7
569.01	7964.86
569.372	7986.33
569.734	7965.31
570.095	8024.52
570.457	8036.05
570.819	8096.38
571.18	8081.47
571.542	8137.96
571.903	8049.38
572.265	8177.74
572.626	8173.9
572.987	8187.23
573.349	8247.11
573.71	8285.53
574.071	8291.86
574.432	8357.39
574.794	8394.45
575.155	8473.55
575.516	8342.93
575.877	8345.64
576.238	8439.65
576.599	8395.36
576.96	8459.54
577.32	8421.8
577.681	8505.19
578.042	8506.32
578.403	8483.72
578.763	8499.99
579.124	8591.74
579.485	8549.03
579.845	8562.81
580.206	8599.87
580.566	8498.86
580.927	8666.31
581.287	8634.45
581.648	8588.12
582.008	8667.89
582.368	8714.67
582.728	8646.43
583.089	8646.88
583.449	8647.78
583.809	8637.84
584.169	8710.6
584.529	8701.11
584.889	8772.07
585.249	8691.85
585.609	8669.02
585.969	8705.41
586.329	8776.14
586.688	8714.9
587.048	8745.86
587.408	8692.3
587.768	8688.91
588.127	8728.68
588.487	8683.49
588.846	8720.55
589.206	8699.53
589.565	8734.78
589.925	8749.25
590.284	8717.16
590.643	8731.39
591.003	8832.86
591.362	8768
591.721	8785.18
592.08	8754.9
592.44	8788.79
592.799	8854.33
593.158	8775.46
593.517	8812.3
593.876	8796.25
594.235	8796.7
594.593	8800.32
594.952	8793.99
595.311	8850.94
595.67	8861.79
596.029	8833.99
596.387	8891.62
596.746	8862.01
597.104	8880.32
597.463	8812.97
597.822	8874.44
598.18	8905.85
598.538	8843.26
598.897	8931.16
599.255	8823.82
599.613	8963.7
599.972	8935.01
600.33	8982.24
600.688	8891.39
601.046	8918.73
601.404	8876.93
601.762	8914.67
602.12	8958.73
602.478	8958.96
602.836	8989.47
603.194	8933.42
603.552	8970.48
603.91	8927.77
604.268	8996.25
604.625	8882.13
604.983	8977.49
605.341	8938.85
605.698	8997.83
606.056	9076.92
606.413	9031.05
606.771	8973.42
607.128	9024.04
607.485	8964.83
607.843	9009.58
608.2	9042.57
608.557	9106.07
608.914	9032.4
609.272	9064.04
609.629	9150.14
609.986	9166.86
610.343	9087.77
610.7	9114.44
611.057	9159.86
611.414	9160.54
611.771	9193.98
612.127	9166.19
612.484	9138.39
612.841	9235.34
613.198	9157.6
613.554	9164.38
613.911	9175.68
614.267	9205.96
614.624	9247.99
614.98	9252.96
615.337	9269.91
615.693	9275.56
616.05	9254.77
616.406	9282.11
616.762	9268.56
617.118	9258.16
617.475	9270.36
617.831	9300.19
618.187	9289.35
618.543	9324.37
618.899	9319.18
619.255	9304.49
619.611	9331.15
619.967	9342.9
620.323	9390.36
620.678	9312.85
621.034	9322.57
621.39	9341.32
621.746	9256.58
622.101	9432.85
622.457	9350.59
622.812	9302.68
623.168	9378.84
623.523	9347.88
623.879	9479.85
624.234	9415.67
624.589	9440.3
624.945	9474.2
625.3	9390.36
625.655	9388.55
626.01	9432.85
626.365	9475.56
626.72	9390.81
627.075	9449.79
627.43	9412.96
627.785	9377.03
628.14	9443.69
628.495	9429
628.85	9468.1
629.205	9367.54
629.559	9440.75
629.914	9386.74
630.269	9335.45
630.623	9407.54
630.978	9416.35
631.332	9434.65
631.687	9367.31
632.041	9406.86
632.396	9410.02
632.75	9314.66
633.104	9378.16
633.459	9332.73
633.813	9331.83
634.167	9311.49
634.521	9286.41
634.875	9399.17
635.229	9323.24
635.583	9327.31
635.937	9346.29
636.291	9285.73
636.645	9275.34
636.999	9297.93
637.352	9295
637.706	9195.56
638.06	9288.22
638.413	9239.63
638.767	9151.95
639.121	9259.06
639.474	9205.96
639.828	9207.31
640.181	9230.14
640.534	9240.08
640.888	9239.63
641.241	9172.51
641.594	9190.59
641.947	9187.65
642.301	9172.29
642.654	9159.41
643.007	9190.14
643.36	9226.52
643.713	9149.46
644.066	9240.76
644.419	9085.74
644.771	9101.55
645.124	9076.92
645.477	9050.71
645.83	8980.65
646.182	8934.55
646.535	8940.43
646.888	8857.72
647.24	8888
647.593	8962.12
647.945	8890.94
648.298	8845.52
648.65	8868.57
649.002	8848.68
649.355	8915.12
649.707	8874.67
650.059	8912.86
650.411	8990.37
650.763	9046.19
651.115	9100.65
651.467	9143.14
651.819	9119.18
652.171	9103.59
652.523	9051.39
652.875	9052.52
653.227	9020.43
653.578	9074.21
653.93	9049.58
654.282	9071.72
654.633	9047.77
654.985	9024.72
655.337	9079.86
655.688	9059.3
656.039	9059.52
656.391	9009.81
656.742	8938.17
657.094	9012.07
657.445	9100.42
657.796	9085.74
658.147	8996.02
658.498	9055.68
658.849	9143.36
659.2	9046.87
659.551	9046.64
659.902	9092.29
660.253	9044.15
660.604	9119.86
660.955	8999.41
661.306	9084.61
661.656	8990.14
662.007	9077.37
662.358	9034.89
662.708	9058.17
663.059	9025.62
663.409	8956.25
663.76	9078.05
664.11	9104.27
664.461	9024.27
664.811	9042.35
665.161	9071.05
665.511	9065.17
665.862	9091.39
666.212	9114.66
666.562	9106.3
666.912	9036.7
667.262	9052.29
667.612	8993.53
667.962	9058.62
668.312	9022.46
668.662	9062.46
669.011	9072.85
669.361	9003.93
669.711	9035.79
670.06	8991.27
670.41	8978.39
670.76	8926.87
671.109	8988.11
671.459	8984.04
671.808	8973.2
672.157	9083.25
672.507	8966.87
672.856	9016.81
673.205	8970.26
673.554	9004.61
673.904	8988.34
674.253	8989.47
674.602	8955.57
674.951	8859.3
675.3	8788.57
675.649	8899.3
675.998	8926.64
676.346	8943.59
676.695	9001.44
677.044	8834.89
677.393	8887.32
677.741	8910.15
678.09	8876.25
678.438	8888.23
678.787	8867.44
679.135	8812.97
679.484	8752.41
679.832	8925.97
680.181	8765.74
680.529	8858.62
680.877	8787.44
681.225	8795.35
681.573	8904.95
681.922	8825.63
682.27	8725.75
682.618	8779.53
682.966	8676.93
683.314	8688.68
683.661	8678.97
684.009	8631.06
684.357	8659.08
684.705	8627.89
685.053	8692.75
685.4	8682.13
685.748	8570.72
686.095	8524.39
686.443	8516.49
686.79	8501.8
687.138	8550.83
687.485	8552.64
687.832	8473.55
688.18	8542.93
688.527	8417.96
688.874	8469.03
689.221	8444.17
689.568	8535.92
689.915	8436.26
690.262	8401.23
690.609	8392.42
690.956	8340.44
691.303	8337.51
691.65	8357.85
691.997	8246.21
692.344	8275.36
692.69	8217.28
693.037	8285.76
693.383	8198.3
693.73	8194.23
694.077	8055.93
694.423	8141.35
694.769	8160.34
695.116	8065.2
695.462	8071.3
695.808	8042.37
696.155	8091.41
696.501	7991.53
696.847	7988.14
697.193	7901.13
697.539	7955.6
697.885	7916.05
698.231	7855.71
698.577	7851.87
698.923	7798.09
699.269	7834.47
699.614	7755.38
699.96	7814.13
700.306	7684.19
700.651	7724.64
700.997	7695.72
701.342	7624.08
701.688	7690.29
702.033	7655.72
702.379	7574.36
702.724	7617.98
703.069	7576.62
703.415	7528.26
703.76	7535.49
704.105	7497.3
704.45	7565.78
704.795	7450.07
705.14	7439.9
705.485	7411.88
705.83	7393.35
706.175	7372.56
706.52	7378.21
706.865	7324.88
707.209	7316.06
707.554	7332.34
707.899	7309.29
708.243	7309.06
708.588	7262.96
708.932	7183.41
709.277	7184.32
709.621	7220.25
709.966	7141.38
710.31	7173.02
710.654	7153.58
710.998	7155.39
711.342	7182.73
711.687	7132.57
712.031	7130.98
712.375	7081.27
712.719	7120.14
713.063	7070.65
713.407	7098.67
713.75	7081.72
714.094	7015.51
714.438	7023.64
714.782	7011.67
715.125	6931.44
715.469	6981.16
715.812	7041.27
716.156	6970.76
716.499	6934.61
716.843	6958.79
717.186	6947.26
717.53	6969.63
717.873	7011.67
718.216	6961.27
718.559	6861.61
718.902	6834.72
719.246	6822.97
719.589	6842.63
719.932	6809.41
720.275	6841.05
720.617	6825.23
720.96	6831.56
721.303	6825
721.646	6854.38
721.989	6784.78
722.331	6777.55
722.674	6788.39
723.016	6786.14
723.359	6756.53
723.701	6755.85
724.044	6788.39
724.386	6807.6
724.729	6756.76
725.071	6794.5
725.413	6757.66
725.755	6751.79
726.097	6767.15
726.439	6741.62
726.782	6756.31
727.124	6799.24
727.465	6732.8
727.807	6669.53
728.149	6701.39
728.491	6697.1
728.833	6816.64
729.175	6731.22
729.516	6687.38
729.858	6688.06
730.199	6653.71
730.541	6730.09
730.882	6650.77
731.224	6705.69
731.565	6682.64
731.906	6650.55
732.248	6759.02
732.589	6714.95
732.93	6678.79
733.271	6683.09
733.612	6702.75
733.953	6714.95
734.294	6641.51
734.635	6652.35
734.976	6707.27
735.317	6669.98
735.658	6652.58
735.999	6665.01
736.339	6693.71
736.68	6685.35
737.021	6689.19
737.361	6649.42
737.702	6615.97
738.042	6633.14
738.383	6661.62
738.723	6665.91
739.063	6617.1
739.404	6647.61
739.744	6644.67
740.084	6637.66
740.424	6630.43
740.764	6673.14
741.104	6642.86
741.444	6640.15
741.784	6590.89
742.124	6594.28
742.464	6592.69
742.804	6632.47
743.143	6638.57
743.483	6607.38
743.823	6570.77
744.162	6597.44
744.502	6638.57
744.841	6582.3
745.181	6671.56
745.52	6612.58
745.86	6572.36
746.199	6588.85
746.538	6618.68
746.877	6597.67
747.216	6582.75
747.556	6643.09
747.895	6612.58
748.234	6582.75
748.573	6599.25
748.911	6556.76
749.25	6579.59
749.589	6542.3
749.928	6585.91
750.267	6544.79
750.605	6581.85
750.944	6561.73
751.283	6529.64
751.621	6529.42
751.96	6539.81
752.298	6524.67
752.636	6502.75
752.975	6520.15
753.313	6517.22
753.651	6502.75
753.989	6495.75
754.327	6508.18
754.666	6471.34
755.004	6465.69
755.342	6470.66
755.679	6460.27
756.017	6458.46
756.355	6464.11
756.693	6435.86
757.031	6448.06
757.368	6383.21
757.706	6399.25
758.044	6395.41
758.381	6422.53
758.719	6381.85
759.056	6380.27
759.394	6357.9
759.731	6332.36
760.068	6331.01
760.405	6281.52
760.743	6304.11
761.08	6269.09
761.417	6250.56
761.754	6243.78
762.091	6231.8
762.428	6215.53
762.765	6144.8
763.102	6156.77
763.438	6137.11
763.775	6158.58
764.112	6153.38
764.449	6176.89
764.785	6178.69
765.122	6114.97
765.458	6020.73
765.795	6077
766.131	6051.01
766.467	5998.13
766.804	6010.11
767.14	5957.46
767.476	5973.05
767.812	6002.43
768.148	5954.29
768.485	5917.46
768.821	5905.93
769.157	5907.74
769.492	5871.58
769.828	5867.06
770.164	5841.53
770.5	5855.99
770.836	5850.34
771.171	5748.65
771.507	5782.55
771.842	5747.07
772.178	5738.71
772.513	5761.53
772.849	5704.81
773.184	5688.31
773.519	5644.7
773.855	5634.08
774.19	5646.73
774.525	5575.77
774.86	5590.01
775.195	5589.33
775.53	5547.75
775.865	5568.09
776.2	5547.07
776.535	5477.69
776.87	5486.51
777.205	5463.68
777.539	5420.07
777.874	5458.49
778.209	5404.93
778.543	5420.97
778.878	5358.6
779.212	5361.31
779.547	5344.37
779.881	5353.18
780.215	5293.52
780.55	5371.26
780.884	5251.49
781.218	5298.04
781.552	5275.67
781.886	5232.96
782.22	5220.75
782.554	5163.58
782.888	5126.07
783.222	5143.47
783.556	5112.73
783.889	5089
784.223	5043.58
784.557	5050.36
784.89	5094.2
785.224	5038.84
785.557	5008.55
785.891	5056.01
786.224	4992.28
786.558	5005.17
786.891	4934.21
787.224	4956.13
787.557	4962.91
787.891	4918.84
788.224	4957.03
788.557	4918.16
788.89	4927.43
789.223	4890.59
789.556	4882.91
789.888	4849.91
790.221	4817.6
790.554	4786.64
790.887	4783.25
791.219	4736.92
791.552	4777.15
791.884	4778.5
792.217	4729.01
792.549	4718.17
792.882	4677.04
793.214	4696.47
793.546	4711.16
793.879	4643.14
794.211	4622.8
794.543	4623.48
794.875	4615.12
795.207	4615.8
795.539	4628.9
795.871	4607.66
796.203	4570.15
796.535	4550.71
796.867	4515.46
797.198	4516.59
797.53	4508
797.862	4519.53
798.193	4515.69
798.525	4492.64
798.856	4468
799.188	4412.19
799.519	4405.86
799.85	4386.88
800.182	4380.55
800.513	4418.74
800.844	4381.9
801.175	4403.37
801.506	4392.98
801.837	4346.88
802.168	4323.83
802.499	4321.34
802.83	4316.6
803.161	4307.33
803.491	4307.1
803.822	4252.87
804.153	4248.8
804.483	4221.91
804.814	4241.34
805.145	4244.73
805.475	4218.97
805.805	4228.01
806.136	4217.16
806.466	4199.08
806.796	4208.58
807.126	4170.84
807.457	4179.2
807.787	4168.12
808.117	4086.09
808.447	4140.1
808.777	4111.86
809.107	4098.52
809.436	4106.43
809.766	4098.07
810.096	4084.74
810.426	4052.42
810.755	4050.61
811.085	4049.94
811.414	4045.19
811.744	4040.67
812.073	4004.51
812.403	4018.75
812.732	4019.43
813.061	4001.35
813.39	4016.49
813.719	3959.54
814.049	3972.65
814.378	3975.14
814.707	3956.83
815.036	3945.76
815.365	3980.11
815.693	3909.6
816.022	3902.82
816.351	3894.69
816.68	3888.36
817.008	3908.24
817.337	3870.28
817.665	3857.17
817.994	3837.96
818.322	3781.47
818.651	3831.18
818.979	3837.06
819.307	3840.45
819.636	3830.05
819.964	3779.66
820.292	3796.38
820.62	3790.06
820.948	3783.5
821.276	3788.47
821.604	3791.19
821.932	3821.69
822.259	3814.24
822.587	3808.59
822.915	3782.6
823.243	3785.54
823.57	3785.54
823.898	3788.7
824.225	3804.97
824.553	3736.27
824.88	3781.47
825.207	3800.68
825.535	3783.5
825.862	3772.2
826.189	3790.51
826.516	3802.03
826.843	3792.54
827.17	3815.37
827.497	3841.35
827.824	3762.71
828.151	3798.87
828.478	3763.62
828.805	3821.92
829.131	3813.33
829.458	3762.94
829.785	3745.54
830.111	3794.8
830.438	3797.97
830.764	3774.24
831.09	3798.87
831.417	3761.13
831.743	3790.51
832.069	3777.85
832.395	3766.78
832.722	3777.63
833.048	3765.42
833.374	3773.56
833.7	3714.58
834.026	3761.58
834.351	3760.23
834.677	3758.87
835.003	3749.38
835.329	3755.48
835.654	3744.86
835.98	3750.28
836.306	3736.27
836.631	3727.91
836.956	3728.59
837.282	3705.54
837.607	3702.15
837.932	3696.27
838.258	3687.46
838.583	3714.8
838.908	3687.46
839.233	3710.74
839.558	3688.59
839.883	3662.38
840.208	3666.44
840.533	3680.23
840.858	3649.27
841.182	3683.17
841.507	3694.92
841.832	3656.27
842.156	3623.28
842.481	3620.79
842.805	3613.34
843.13	3625.54
843.454	3623.51
843.778	3614.47
844.103	3636.84
844.427	3591.19
844.751	3552.77
845.075	3603.17
845.399	3534.24
845.723	3523.4
846.047	3546.67
846.371	3518.65
846.695	3543.28
847.019	3462.61
847.343	3525.66
847.666	3452.66
847.99	3461.02
848.313	3422.61
848.637	3451.76
848.96	3478.43
849.284	3411.99
849.607	3430.29
849.931	3404.98
850.254	3342.16
850.577	3365.66
850.9	3309.39
851.223	3340.8
851.546	3369.95
851.869	3289.05
852.192	3298.09
852.515	3277.98
852.838	3304.19
853.161	3299.67
853.483	3265.55
853.806	3228.71
854.129	3213.35
854.451	3251.54
854.774	3193.69
855.096	3209.51
855.419	3181.26
855.741	3196.17
856.063	3188.72
856.385	3160.69
856.708	3174.25
857.03	3176.06
857.352	3171.54
857.674	3118.89
857.996	3149.39
858.318	3122.5
858.64	3149.39
858.961	3094.93
859.283	3122.73
859.605	3102.39
859.926	3123.18
860.248	3077.98
860.57	3128.6
860.891	3108.49
861.212	3082.73
861.534	3098.55
861.855	3019.23
862.176	3059.91
862.498	3043.63
862.819	3040.02
863.14	3076.85
863.461	3015.16
863.782	3006.57
864.103	3017.19
864.424	3017.65
864.745	3007.93
865.065	2986.46
865.386	3020.58
865.707	2972.68
866.027	3016.97
866.348	2997.53
866.668	2993.69
866.989	2964.99
867.309	2943.52
867.63	2988.72
867.95	2946.91
868.27	2947.37
868.59	2931.55
868.91	2925.67
869.23	2955.95
869.55	2937.87
869.87	2946.24
870.19	2959.12
870.51	2929.97
870.83	2956.63
871.15	2879.35
871.469	2906.69
871.789	2919.57
872.109	2894.71
872.428	2903.07
872.748	2877.09
873.067	2902.62
873.386	2931.77
873.706	2884.54
874.025	2893.81
874.344	2848.39
874.663	2868.05
874.982	2856.29
875.301	2886.35
875.62	2875.05
875.939	2862.17
876.258	2844.54
876.577	2839.12
876.896	2815.39
877.214	2844.09
877.533	2842.06
877.852	2834.6
878.17	2837.54
878.489	2857.42
878.807	2832.79
879.125	2831.44
879.444	2823.75
879.762	2796.64
880.08	2787.37
880.398	2819.01
880.716	2846.13
881.034	2798.22
881.352	2809.06
881.67	2781.04
881.988	2746.92
882.306	2790.76
882.624	2785.11
882.941	2750.54
883.259	2729.52
883.577	2755.73
883.894	2734.04
884.212	2727.94
884.529	2739.01
884.846	2719.12
885.164	2713.25
885.481	2686.36
885.798	2719.8
886.115	2720.03
886.432	2686.13
886.75	2664.21
887.067	2708.73
887.383	2685.68
887.7	2667.6
888.017	2709.41
888.334	2652.46
888.651	2640.71
888.967	2653.14
889.284	2680.71
889.6	2637.09
889.917	2652.01
890.233	2612.91
890.55	2597.77
890.866	2617.43
891.182	2620.59
891.498	2599.58
891.815	2595.96
892.131	2594.38
892.447	2581.73
892.763	2561.39
893.079	2567.49
893.395	2559.58
893.71	2562.97
894.026	2579.69
894.342	2547.15
894.657	2530.65
894.973	2527.49
895.289	2538.79
895.604	2533.37
895.92	2554.61
896.235	2502.18
896.55	2513.25
896.865	2527.04
897.181	2511.45
897.496	2498.79
897.811	2475.97
898.126	2464.89
898.441	2452.24
898.756	2424.44
899.071	2436.87
899.386	2448.4
899.7	2423.99
900.015	2427.61
900.33	2422.41
900.644	2369.75
900.959	2391.22
901.273	2379.7
901.588	2365.69
901.902	2355.74
902.216	2377.89
902.531	2374.95
902.845	2320.72
903.159	2377.66
903.473	2319.13
903.787	2326.14
904.101	2297.89
904.415	2344.22
904.729	2312.58
905.042	2285.01
905.356	2319.36
905.67	2289.08
905.984	2283.2
906.297	2277.1
906.611	2233.03
906.924	2254.95
907.237	2249.98
907.551	2271.9
907.864	2255.86
908.177	2205.24
908.491	2204.56
908.804	2226.93
909.117	2195.07
909.43	2201.17
909.743	2185.35
910.056	2186.71
910.368	2173.15
910.681	2164.79
910.994	2118.91
911.307	2148.29
911.619	2120.95
911.932	2140.61
912.244	2126.37
912.557	2127.27
912.869	2106.03
913.181	2118.91
913.494	2108.74
913.806	2086.37
914.118	2097.44
914.43	2092.47
914.742	2073.94
915.054	2084.34
915.366	2060.38
915.678	2026.03
915.99	2025.81
916.302	2013.15
916.613	2016.99
916.925	2016.32
917.236	2041.4
917.548	2000.05
917.859	2012.02
918.171	2018.35
918.482	2001.63
918.794	1969.99
919.105	1970.22
919.416	1998.46
919.727	1944.45
920.038	1935.87
920.349	1940.16
920.66	1925.02
920.971	1930.9
921.282	1919.37
921.593	1919.14
921.903	1900.39
922.214	1890.44
922.525	1880.5
922.835	1901.52
923.146	1882.99
923.456	1863.78
923.767	1872.37
924.077	1879.37
924.387	1867.62
924.697	1857.68
925.008	1854.29
925.318	1848.19
925.628	1867.85
925.938	1856.32
926.248	1786.49
926.558	1775.42
926.867	1824.01
927.177	1802.31
927.487	1823.55
927.796	1743.56
928.106	1758.92
928.416	1764.8
928.725	1784.01
929.034	1751.69
929.344	1782.2
929.653	1751.01
929.962	1737.91
930.271	1719.15
930.581	1747.85
930.89	1732.71
931.199	1706.27
931.508	1734.29
931.817	1692.71
932.125	1695.2
932.434	1690
932.743	1661.98
933.051	1672.37
933.36	1689.09
933.669	1690
933.977	1654.07
934.286	1666.04
934.594	1663.56
934.902	1615.65
935.21	1648.19
935.519	1638.93
935.827	1641.41
936.135	1605.48
936.443	1600.28
936.751	1614.52
937.059	1593.28
937.367	1615.65
937.674	1604.12
937.982	1596.44
938.29	1579.94
938.597	1562.54
938.905	1563
939.213	1564.58
939.52	1577.68
939.827	1561.19
940.135	1548.31
940.442	1537.91
940.749	1538.59
941.056	1560.96
941.363	1539.04
941.67	1544.69
941.977	1519.15
942.284	1551.7
942.591	1523.45
942.898	1510.12
943.205	1517.35
943.511	1473.05
943.818	1496.78
944.125	1522.54
944.431	1486.84
944.738	1470.12
945.044	1468.76
945.35	1463.79
945.657	1454.75
945.963	1443
946.269	1475.77
946.575	1443.9
946.881	1440.74
947.187	1429.44
947.493	1438.03
947.799	1405.49
948.105	1406.16
948.41	1416.11
948.716	1397.12
949.022	1409.55
949.327	1393.28
949.633	1416.78
949.938	1375.66
950.244	1393.06
950.549	1353.28
950.854	1394.41
951.16	1374.07
951.465	1398.71
951.77	1343.57
952.075	1366.16
952.38	1357.58
952.685	1339.05
952.99	1327.07
953.294	1330.46
953.599	1349.44
953.904	1311.7
954.209	1314.19
954.513	1303.79
954.818	1309.44
955.122	1278.26
955.426	1294.08
955.731	1308.09
956.035	1267.41
956.339	1272.38
956.643	1281.2
956.948	1293.62
957.252	1280.52
957.556	1290.91
957.86	1251.82
958.163	1266.96
958.467	1250.24
958.771	1276.45
959.075	1225.15
959.378	1244.59
959.682	1270.12
959.985	1247.3
960.289	1224.7
960.592	1241.42
960.896	1221.99
961.199	1202.1
961.502	1187.19
961.805	1206.85
962.108	1210.91
962.411	1196.68
962.714	1199.39
963.017	1167.75
963.32	1205.94
963.623	1183.57
963.926	1179.05
964.228	1213.63
964.531	1191.48
964.833	1160.52
965.136	1176.34
965.438	1180.63
965.741	1133.63
966.043	1163.46
966.345	1166.4
966.648	1143.35
966.95	1159.62
967.252	1139.5
967.554	1149.67
967.856	1125.72
968.158	1146.06
968.46	1130.01
968.761	1152.61
969.063	1125.27
969.365	1099.28
969.666	1111.48
969.968	1105.61
970.269	1091.82
970.571	1116.68
970.872	1093.63
971.174	1103.8
971.475	1113.06
971.776	1077.58
972.077	1085.95
972.378	1076.68
972.679	1063.57
972.98	1070.81
973.281	1059.05
973.582	1061.77
973.883	1073.52
974.183	1056.12
974.484	1061.99
974.785	1043.69
975.085	1059.51
975.386	1045.5
975.686	1016.8
975.986	1043.01
976.287	1053.4
976.587	1043.69
976.887	1028.32
977.187	1020.19
977.487	1032.39
977.787	1038.72
978.087	1026.29
978.387	1020.19
978.687	990.36
978.987	996.68
979.286	996.91
979.586	1001.2
979.885	1001.43
980.185	1001.88
980.484	996.46
980.784	974.08
981.083	968.66
981.382	946.29
981.682	975.89
981.981	961.88
982.28	977.7
982.579	971.82
982.878	956.01
983.177	953.29
983.475	952.84
983.774	964.59
984.073	937.7
984.372	946.74
984.67	939.74
984.969	941.32
985.267	935.89
985.566	940.64
985.864	938.83
986.162	918.72
986.461	926.63
986.759	918.27
987.057	904.03
987.355	918.94
987.653	922.11
987.951	930.47
988.249	927.31
988.547	925.05
988.844	910.81
989.142	912.39
989.44	914.65
989.737	883.01
990.035	894.76
990.332	864.03
990.63	885.95
990.927	887.76
991.224	883.01
991.521	866.29
991.819	866.29
992.116	882.56
992.413	863.8
992.71	872.17
993.006	868.55
993.303	880.98
993.6	829.91
993.897	843.69
994.193	836.24
994.49	849.34
994.787	829.46
995.083	842.56
995.379	836.24
995.676	822
995.972	828.33
996.268	817.7
996.565	812.96
996.861	836.46
997.157	822.68
997.453	825.84
997.749	823.81
998.044	813.18
998.34	800.53
998.636	805.73
998.932	799.17
999.227	796.24
999.523	800.3
999.818	793.07
1000.114	796.91
1000.409	785.84
1000.704	771.38
1001	764.15
1001.295	767.08
1001.59	783.13
1001.885	798.04
1002.18	780.19
1002.475	750.81
1002.77	777.25
1003.065	767.31
1003.359	755.11
1003.654	746.97
1003.949	761.66
1004.243	740.64
1004.538	732.96
1004.832	751.04
1005.127	765.05
1005.421	750.59
1005.715	724.15
1006.009	722.11
1006.304	747.65
1006.598	718.72
1006.892	720.31
1007.186	735.22
1007.48	739.06
1007.773	730.48
1008.067	718.05
1008.361	719.4
1008.655	713.07
1008.948	707.42
1009.242	692.74
1009.535	733.64
1009.829	722.79
1010.122	692.74
1010.415	673.53
1010.708	692.74
1011.001	693.19
1011.295	695.67
1011.588	702.68
1011.881	665.17
1012.173	686.63
1012.466	696.35
1012.759	676.24
1013.052	671.04
1013.344	661.55
1013.637	668.1
1013.93	657.93
1014.222	661.32
1014.514	675.56
1014.807	649.12
1015.099	654.09
1015.391	657.26
1015.683	655.22
1015.976	637.37
1016.268	661.55
1016.56	647.54
1016.851	642.57
1017.143	654.54
1017.435	643.47
1017.727	607.77
1018.018	642.12
1018.31	607.31
1018.602	629.46
1018.893	613.19
1019.185	618.84
1019.476	583.13
1019.767	641.66
1020.058	633.08
1020.35	609.12
1020.641	615.22
1020.932	599.86
1021.223	609.35
1021.514	583.36
1021.804	619.29
1022.095	580.87
1022.386	596.47
1022.677	579.97
1022.967	574.32
1023.258	596.24
1023.548	588.56
1023.839	600.08
1024.129	582.91
1024.419	568.67
1024.709	562.12
1025	586.52
1025.29	577.03
1025.58	565.96
1025.87	565.51
1026.16	557.15
1026.449	575
1026.739	564.15
1027.029	578.16
1027.319	572.74
1027.608	547.43
1027.898	546.53
1028.187	550.82
1028.477	547.66
1028.766	554.43
1029.055	542.68
1029.344	527.99
1029.634	533.42
1029.923	542.68
1030.212	537.71
1030.501	526.19
1030.79	515.11
1031.078	535
1031.367	522.35
1031.656	532.51
1031.945	517.6
1032.233	526.19
1032.522	531.38
1032.81	505.62
1033.099	520.99
1033.387	530.71
1033.675	521.44
1033.963	500.2
1034.251	517.37
1034.54	499.52
1034.828	509.92
1035.116	525.28
1035.403	512.85
1035.691	509.92
1035.979	491.39
1036.267	497.49
1036.554	484.15
1036.842	501.1
1037.129	518.73
1037.417	509.69
1037.704	466.08
1037.992	494.1
1038.279	472.85
1038.566	477.37
1038.853	477.37
1039.14	477.37
