Data from mousepad_grey_FLMS001491_00028.txt Node
Date: Wed Feb 08 14:29:13 GMT 2017
User: dcchb
Spectrometer: FLMS00149
Trigger mode: 0
Integration Time (sec): 2.000000E-2
Scans to average: 10
Electric dark correction enabled: true
Nonlinearity correction enabled: false
Boxcar width: 0
XAxis mode: Wavelengths
Number of Pixels in Spectrum: 2048
>>>>>Begin Spectral Data<<<<<
341.393	-32.98
341.776	-32.98
342.16	-32.98
342.543	-68.68
342.927	-78.4
343.31	-84.05
343.693	-69.81
344.077	-46.31
344.46	-56.93
344.843	-61
345.226	-51.28
345.61	-34.34
345.993	4.99
346.376	8.38
346.759	34.59
347.142	20.13
347.525	10.86
347.908	49.73
348.291	73.91
348.674	101.03
349.057	100.12
349.44	112.33
349.823	139.67
350.206	140.12
350.588	160.46
350.971	177.86
351.354	192.1
351.737	215.6
352.119	226
352.502	243.4
352.884	250.63
353.267	264.87
353.65	291.76
354.032	273.23
354.414	273.68
354.797	302.15
355.179	302.83
355.562	307.8
355.944	329.5
356.326	311.42
356.709	302.15
357.091	302.83
357.473	309.16
357.855	320.23
358.238	320.46
358.62	329.5
359.002	296.96
359.384	307.35
359.766	317.07
360.148	307.58
360.53	307.35
360.912	334.02
361.294	329.5
361.676	300.8
362.057	310.29
362.439	302.15
362.821	329.95
363.203	311.19
363.584	312.77
363.966	334.47
364.348	304.64
364.729	312.1
365.111	284.75
365.493	287.24
365.874	301.7
366.256	295.37
366.637	294.47
367.019	303.06
367.4	300.57
367.781	300.8
368.163	299.22
368.544	298.76
368.925	296.28
369.306	325.43
369.688	303.28
370.069	284.75
370.45	281.14
370.831	312.77
371.212	289.72
371.593	303.96
371.974	315.49
372.355	287.24
372.736	302.83
373.117	296.05
373.498	296.28
373.879	287.01
374.26	291.31
374.641	303.73
375.021	279.55
375.402	304.41
375.783	294.7
376.163	318.88
376.544	293.79
376.925	313.9
377.305	311.64
377.686	310.29
378.066	305.77
378.447	300.57
378.827	311.64
379.208	299.89
379.588	293.11
379.968	310.51
380.349	308.93
380.729	324.53
381.109	333.56
381.489	304.86
381.87	303.96
382.25	320.23
382.63	325.43
383.01	335.82
383.39	323.62
383.77	314.36
384.15	319.78
384.53	333.34
384.91	331.3
385.29	334.02
385.67	307.58
386.049	324.07
386.429	319.33
386.809	306.9
387.189	337.86
387.568	336.05
387.948	340.8
388.328	328.59
388.707	334.24
389.087	339.44
389.466	356.84
389.846	357.29
390.225	353.45
390.605	324.98
390.984	336.28
391.363	324.07
391.743	333.56
392.122	343.06
392.501	360.68
392.881	344.41
393.26	355.26
393.639	338.08
394.018	333.79
394.397	350.06
394.776	333.11
395.155	348.48
395.534	357.52
395.913	365.88
396.292	373.56
396.671	347.12
397.05	375.82
397.429	388.03
397.808	358.42
398.186	381.25
398.565	357.29
398.944	362.04
399.323	367.01
399.701	382.6
400.08	359.1
400.458	383.05
400.837	358.65
401.215	369.04
401.594	376.73
401.972	384.86
402.351	391.42
402.729	381.02
403.107	390.29
403.486	374.69
403.864	394.13
404.242	390.51
404.62	409.04
404.999	381.25
405.377	396.16
405.755	401.13
406.133	388.93
406.511	418.31
406.889	399.78
407.267	407.46
407.645	401.81
408.023	431.42
408.401	401.36
408.779	411.75
409.156	421.47
409.534	430.51
409.912	409.27
410.29	431.42
410.667	439.32
411.045	421.7
411.422	424.18
411.8	439.1
412.178	447.23
412.555	455.14
412.933	458.99
413.31	446.1
413.687	447.01
414.065	453.34
414.442	456.27
414.819	469.83
415.197	481.58
415.574	473
415.951	476.84
416.328	454.01
416.705	476.84
417.082	471.19
417.46	479.32
417.837	484.97
418.214	499.89
418.591	482.94
418.967	500.34
419.344	498.08
419.721	490.17
420.098	493.11
420.475	474.58
420.852	496.72
421.228	503.28
421.605	519.77
421.982	516.38
422.358	535.59
422.735	506.22
423.111	541.02
423.488	520.68
423.864	501.47
424.241	531.07
424.617	520.9
424.994	525.65
425.37	534.24
425.746	522.71
426.123	568.81
426.499	541.92
426.875	555.71
427.251	573.78
427.627	581.02
428.003	556.61
428.379	586.89
428.756	577.85
429.132	590.73
429.507	586.67
429.883	566.1
430.259	602.03
430.635	597.51
431.011	604.07
431.387	583.05
431.763	609.49
432.138	630.05
432.514	607.23
432.89	617.4
433.265	607.46
433.641	632.09
434.016	657.4
434.392	645.87
434.767	628.02
435.143	645.65
435.518	656.49
435.894	649.94
436.269	693.56
436.644	677.28
437.02	673.67
437.395	662.14
437.77	704.18
438.145	660.11
438.52	701.69
438.895	709.83
439.271	693.1
439.646	732.88
440.021	719.09
440.395	733.55
440.77	720
441.145	707.79
441.52	739.66
441.895	735.14
442.27	754.8
442.645	748.24
443.019	749.15
443.394	744.18
443.769	731.75
444.143	756.15
444.518	751.86
444.892	764.51
445.267	786.43
445.641	782.37
446.016	781.01
446.39	788.47
446.764	771.07
447.139	786.89
447.513	802.03
447.887	772.2
448.262	795.47
448.636	823.5
449.01	818.52
449.384	816.49
449.758	825.3
450.132	841.57
450.506	823.72
450.88	838.64
451.254	840.9
451.628	824.85
452.002	856.04
452.376	889.93
452.75	859.88
453.123	873.66
453.497	882.48
453.871	888.58
454.244	890.84
454.618	895.36
454.992	924.51
455.365	914.57
455.739	909.14
456.112	927.45
456.486	947.56
456.859	936.94
457.232	957.28
457.606	952.76
457.979	998.63
458.352	1009.03
458.725	986.43
459.099	996.15
459.472	1013.77
459.845	1041.34
460.218	1045.41
460.591	1053.55
460.964	1054.45
461.337	1058.29
461.71	1094.67
462.083	1087.9
462.456	1082.25
462.829	1086.09
463.201	1117.72
463.574	1127.67
463.947	1108.69
464.32	1143.94
464.692	1151.4
465.065	1138.97
465.438	1164.96
465.81	1195.91
466.183	1191.85
466.555	1203.6
466.928	1198.17
467.3	1204.05
467.672	1246.99
468.045	1233.43
468.417	1263.48
468.789	1244.95
469.161	1288.79
469.534	1304.84
469.906	1304.61
470.278	1290.15
470.65	1341.67
471.022	1358.4
471.394	1361.11
471.766	1395.23
472.138	1422.58
472.51	1421.22
472.882	1439.98
473.253	1448.34
473.625	1456.7
473.997	1491.05
474.369	1506.19
474.74	1504.16
475.112	1516.13
475.484	1520.2
475.855	1567.66
476.227	1608.79
476.598	1623.47
476.97	1665.96
477.341	1665.06
477.713	1670.93
478.084	1712.29
478.455	1735.79
478.827	1722
479.198	1798.16
479.569	1798.61
479.94	1860.3
480.311	1847.42
480.682	1913.41
481.053	1911.15
481.424	1940.53
481.795	1957.02
482.166	1964.93
482.537	1998.38
482.908	2052.62
483.279	2065.95
483.65	2083.35
484.021	2125.16
484.391	2138.49
484.762	2147.75
485.133	2152.27
485.503	2225.49
485.874	2232.05
486.244	2246.73
486.615	2303.68
486.985	2320.18
487.356	2382.1
487.726	2397.47
488.097	2421.87
488.467	2422.78
488.837	2439.05
489.207	2516.56
489.578	2519.95
489.948	2554.07
490.318	2604.01
490.688	2602.66
491.058	2659.83
491.428	2653.5
491.798	2730.56
492.168	2746.16
492.538	2733.05
492.908	2762.88
493.278	2754.52
493.648	2797.23
494.017	2830.67
494.387	2858.47
494.757	2888.3
495.126	2880.16
495.496	2934.63
495.866	2947.73
496.235	2949.77
496.605	2989.99
496.974	3009.43
497.344	3048.52
497.713	3052.36
498.082	3043.1
498.452	3122.19
498.821	3100.72
499.19	3139.14
499.559	3164.22
499.928	3149.99
500.298	3201.96
500.667	3275.63
501.036	3227.05
501.405	3254.62
501.774	3256.65
502.143	3304.56
502.512	3305.01
502.88	3313.83
503.249	3312.47
503.618	3356.76
503.987	3373.03
504.356	3386.37
504.724	3358.12
505.093	3420.04
505.462	3453.03
505.83	3450.54
506.199	3506.81
506.567	3520.6
506.936	3538.68
507.304	3544.78
507.672	3596.98
508.041	3604.67
508.409	3604.67
508.777	3643.31
509.145	3679.47
509.514	3694.38
509.882	3695.06
510.25	3708.84
510.618	3733.25
510.986	3771.21
511.354	3775.28
511.722	3814.15
512.09	3807.15
512.458	3806.47
512.826	3871.32
513.193	3888.05
513.561	3914.04
513.929	3951.1
514.297	3959.91
514.664	4025.22
515.032	4034.48
515.4	4057.99
515.767	4058.44
516.135	4118.55
516.502	4096.63
516.869	4108.83
517.237	4140.47
517.604	4161.26
517.972	4173.92
518.339	4234.25
518.706	4215.72
519.073	4262.95
519.44	4274.93
519.808	4327.36
520.175	4310.41
520.542	4354.93
520.909	4402.16
521.276	4371.65
521.643	4444.87
522.009	4455.49
522.376	4528.48
522.743	4494.59
523.11	4593.79
523.477	4616.16
523.843	4613.23
524.21	4649.16
524.577	4667.01
524.943	4708.59
525.31	4731.19
525.676	4781.13
526.043	4841.24
526.409	4815.25
526.776	4860.9
527.142	4890.96
527.508	4944.29
527.874	4952.43
528.241	4958.3
528.607	4949.71
528.973	5022.71
529.339	5015.93
529.705	5098.41
530.071	5134.12
530.437	5169.37
530.803	5205.98
531.169	5187.9
531.535	5212.76
531.901	5238.75
532.267	5217.5
532.632	5338.63
532.998	5306.32
533.364	5375.24
533.73	5365.75
534.095	5362.58
534.461	5393.09
534.826	5490.94
535.192	5466.31
535.557	5511.73
535.923	5508.57
536.288	5498.4
536.653	5520.55
537.019	5568.23
537.384	5625.63
537.749	5683.71
538.114	5664.5
538.479	5671.28
538.845	5736.13
539.21	5724.84
539.575	5728.9
539.94	5770.71
540.305	5772.52
540.67	5821.33
541.034	5860.2
541.399	5875.34
541.764	5917.37
542.129	5940.2
542.494	5917.6
542.858	5983.81
543.223	5973.64
543.587	6034.21
543.952	6015
544.316	6028.1
544.681	6016.58
545.045	6051.15
545.41	6106.52
545.774	6173.19
546.138	6140.19
546.503	6146.07
546.867	6161.89
547.231	6209.57
547.595	6252.96
547.959	6229.91
548.324	6307.19
548.688	6280.07
549.052	6323.24
549.416	6305.39
549.779	6351.03
550.143	6381.54
550.507	6479.39
550.871	6479.62
551.235	6421.31
551.599	6504.48
551.962	6483.69
552.326	6561.2
552.689	6590.8
553.053	6583.12
553.417	6556.23
553.78	6638.03
554.143	6633.29
554.507	6680.52
554.87	6719.61
555.234	6756.45
555.597	6731.14
555.96	6755.99
556.323	6827.18
556.686	6818.59
557.05	6844.58
557.413	6884.58
557.776	6863.34
558.139	6945.59
558.502	6988.98
558.865	6943.11
559.228	7027.85
559.59	7047.06
559.953	7077.12
560.316	7167.28
560.679	7145.36
561.041	7238.02
561.404	7225.36
561.767	7230.11
562.129	7239.37
562.492	7283.66
562.854	7318.69
563.217	7276.66
563.579	7366.37
563.941	7363.89
564.304	7401.4
564.666	7447.95
565.028	7476.2
565.39	7571.57
565.753	7603.66
566.115	7540.15
566.477	7593.71
566.839	7580.83
567.201	7653.37
567.563	7698.79
567.925	7743.09
568.287	7741.73
568.648	7791.9
569.01	7794.84
569.372	7932.46
569.734	7846.59
570.095	7903.31
570.457	7952.12
570.819	7981.5
571.18	7964.1
571.542	8013.14
571.903	7994.15
572.265	8047.94
572.626	8020.59
572.987	8102.85
573.349	8129.07
573.71	8182.4
574.071	8167.03
574.432	8264.43
574.794	8244.77
575.155	8264.66
575.516	8219.46
575.877	8287.48
576.238	8292.23
576.599	8323.19
576.96	8317.54
577.32	8343.52
577.681	8322.28
578.042	8346.69
578.403	8385.78
578.763	8444.09
579.124	8420.13
579.485	8440.7
579.845	8408.15
580.206	8419.23
580.566	8435.95
580.927	8459.9
581.287	8572.9
581.648	8537.42
582.008	8541.94
582.368	8515.95
582.728	8541.94
583.089	8521.15
583.449	8513.69
583.809	8546.23
584.169	8539.68
584.529	8547.59
584.889	8593.69
585.249	8534.03
585.609	8571.31
585.969	8586
586.329	8594.59
586.688	8615.38
587.048	8632.1
587.408	8642.5
587.768	8638.88
588.127	8611.99
588.487	8562.95
588.846	8624.42
589.206	8544.65
589.565	8547.13
589.925	8619.9
590.284	8624.19
590.643	8632.33
591.003	8602.05
591.362	8638.66
591.721	8644.76
592.08	8640.92
592.44	8680.24
592.799	8666.23
593.158	8678.66
593.517	8662.39
593.876	8641.82
594.235	8661.71
594.593	8690.41
594.952	8673.91
595.311	8648.6
595.67	8624.19
596.029	8759.11
596.387	8715.04
596.746	8733.57
597.104	8638.66
597.463	8669.84
597.822	8757.07
598.18	8678.88
598.538	8728.37
598.897	8709.84
599.255	8676.17
599.613	8783.06
599.972	8725.43
600.33	8781.93
600.688	8714.36
601.046	8674.59
601.404	8792.55
601.762	8763.85
602.12	8781.7
602.478	8737.19
602.836	8823.96
603.194	8773.79
603.552	8741.48
603.91	8806.56
604.268	8785.55
604.625	8736.28
604.983	8769.5
605.341	8735.83
605.698	8812.21
606.056	8880.91
606.413	8774.47
606.771	8833.68
607.128	8858.76
607.485	8793.23
607.843	8783.96
608.2	8886.79
608.557	8980.79
608.914	8822.83
609.272	8905.99
609.629	8908.71
609.986	8956.84
610.343	8909.61
610.7	8946.9
611.057	8954.35
611.414	8920.91
611.771	8920.91
612.127	8976.73
612.484	8994.13
612.841	9028.7
613.198	8996.16
613.554	8973.11
613.911	9058.31
614.267	9043.84
614.624	8979.67
614.98	9045.88
615.337	9076.39
615.693	9054.01
616.05	9015.14
616.406	9040.45
616.762	9062.15
617.118	9009.95
617.475	9083.17
617.831	9089.94
618.187	9058.98
618.543	9117.51
618.899	9163.16
619.255	9171.98
619.611	9157.74
619.967	9195.25
620.323	9208.59
620.678	9073.22
621.034	9110.06
621.39	9155.93
621.746	9148.25
622.101	9253.1
622.457	9172.65
622.812	9210.62
623.168	9191.41
623.523	9162.26
623.879	9207.23
624.234	9216.49
624.589	9171.07
624.945	9189.38
625.3	9257.17
625.655	9248.13
626.01	9235.48
626.365	9215.82
626.72	9238.42
627.075	9224.4
627.43	9208.59
627.785	9158.42
628.14	9219.43
628.495	9193.67
628.85	9207.46
629.205	9156.84
629.559	9173.78
629.914	9204.74
630.269	9142.6
630.623	9089.72
630.978	9157.29
631.332	9125.42
631.687	9158.64
632.041	9216.04
632.396	9213.33
632.75	9124.29
633.104	9120.45
633.459	9074.13
633.813	9143.95
634.167	9112.99
634.521	9093.56
634.875	9093.11
635.229	9089.27
635.583	9071.64
635.937	9077.52
636.291	9051.75
636.645	9053.79
636.999	9016.27
637.352	9073.45
637.706	8993
638.06	9092.2
638.413	8991.19
638.767	9081.13
639.121	9038.65
639.474	8982.38
639.828	8986.67
640.181	9032.09
640.534	8930.17
640.888	8958.42
641.241	8869.61
641.594	8972.43
641.947	8955.26
642.301	8976.28
642.654	8931.76
643.007	9015.37
643.36	8980.57
643.713	8953.9
644.066	8966.78
644.419	8912.77
644.771	8910.97
645.124	8729.5
645.477	8811.99
645.83	8711.42
646.182	8711.88
646.535	8724.08
646.888	8744.64
647.24	8716.17
647.593	8683.85
647.945	8699.45
648.298	8670.07
648.65	8590.52
649.002	8633.46
649.355	8721.59
649.707	8660.35
650.059	8672.1
650.411	8819.44
650.763	8795.94
651.115	8942.6
651.467	8852.44
651.819	8836.39
652.171	8890.4
652.523	8857.86
652.875	8850.63
653.227	8822.16
653.578	8813.34
653.93	8875.49
654.282	8769.5
654.633	8816.05
654.985	8781.7
655.337	8793.68
655.688	8804.98
656.039	8880.46
656.391	8796.17
656.742	8809.95
657.094	8851.98
657.445	8840.01
657.796	8862.61
658.147	8791.2
658.498	8848.37
658.849	8882.04
659.2	8823.06
659.551	8852.66
659.902	8854.92
660.253	8795.94
660.604	8776.73
660.955	8808.6
661.306	8854.47
661.656	8847.47
662.007	8892.89
662.358	8782.83
662.708	8762.72
663.059	8787.58
663.409	8762.27
663.76	8879.33
664.11	8840.46
664.461	8834.81
664.811	8806.79
665.161	8830.29
665.511	8839.1
665.862	8849.95
666.212	8867.13
666.562	8909.84
666.912	8815.6
667.262	8788.94
667.612	8866
667.962	8818.99
668.312	8855.15
668.662	8822.38
669.011	8840.01
669.361	8853.11
669.711	8802.95
670.06	8813.34
670.41	8807.01
670.76	8778.77
671.109	8776.73
671.459	8775.15
671.808	8784.64
672.157	8722.04
672.507	8722.95
672.856	8727.02
673.205	8741.03
673.554	8689.05
673.904	8678.2
674.253	8807.92
674.602	8751.65
674.951	8663.97
675.3	8599.79
675.649	8683.63
675.998	8694.47
676.346	8722.95
676.695	8759.11
677.044	8684.53
677.393	8697.41
677.741	8716.4
678.09	8659.9
678.438	8653.8
678.787	8707.36
679.135	8712.55
679.484	8595.72
679.832	8628.71
680.181	8611.31
680.529	8573.8
680.877	8563.18
681.225	8559.56
681.573	8571.77
681.922	8524.76
682.27	8574.7
682.618	8530.41
682.966	8566.12
683.314	8558.43
683.661	8507.36
684.009	8475.27
684.357	8443.86
684.705	8370.19
685.053	8463.07
685.4	8393.92
685.748	8329.29
686.095	8384.43
686.443	8306.46
686.79	8280.02
687.138	8387.14
687.485	8333.58
687.832	8253.58
688.18	8300.81
688.527	8254.94
688.874	8186.47
689.221	8222.17
689.568	8183.08
689.915	8186.01
690.262	8164.32
690.609	8119.57
690.956	8091.78
691.303	8104.43
691.65	8087.26
691.997	8070.31
692.344	8052.23
692.69	8070.54
693.037	8005.23
693.383	7914.83
693.73	8000.48
694.077	7921.61
694.423	7940.82
694.769	7933.59
695.116	7851.79
695.462	7825.8
695.808	7803.88
696.155	7823.31
696.501	7757.1
696.847	7724.78
697.193	7752.8
697.539	7731.11
697.885	7728.4
698.231	7614.73
698.577	7630.1
698.923	7589.87
699.269	7569.53
699.614	7540.61
699.96	7560.04
700.306	7513.26
700.651	7500.61
700.997	7446.37
701.342	7445.47
701.688	7440.95
702.033	7404.11
702.379	7403.89
702.724	7365.7
703.069	7399.59
703.415	7269.65
703.76	7304.91
704.105	7295.87
704.45	7233.5
704.795	7241.18
705.14	7214.29
705.485	7176.1
705.83	7165.48
706.175	7166.38
706.52	7141.07
706.865	7136.78
707.209	7086.16
707.554	7049.09
707.899	7063.33
708.243	7074.18
708.588	6994.63
708.932	7000.28
709.277	6960.96
709.621	6993.28
709.966	6933.84
710.31	6973.84
710.654	6932.94
710.998	6942.88
711.342	6911.02
711.687	6864.01
712.031	6887.29
712.375	6822.66
712.719	6844.13
713.063	6857.01
713.407	6811.59
713.75	6848.42
714.094	6813.39
714.438	6803.9
714.782	6812.49
715.125	6756.45
715.469	6752.38
715.812	6744.24
716.156	6694.53
716.499	6771.36
716.843	6669.22
717.186	6716.45
717.53	6730.91
717.873	6744.7
718.216	6729.33
718.559	6673.06
718.902	6666.73
719.246	6678.71
719.589	6648.2
719.932	6572.04
720.275	6650.46
720.617	6680.29
720.96	6676.45
721.303	6615.89
721.646	6648.88
721.989	6593.97
722.331	6596
722.674	6646.39
723.016	6602.55
723.359	6638.71
723.701	6607.98
724.044	6537.02
724.386	6522.1
724.729	6574.3
725.071	6566.17
725.413	6535.66
725.755	6617.24
726.097	6529.79
726.439	6533.63
726.782	6483.23
727.124	6537.92
727.465	6506.51
727.807	6571.59
728.149	6503.12
728.491	6508.09
728.833	6536.34
729.175	6525.94
729.516	6534.98
729.858	6535.66
730.199	6511.48
730.541	6509.9
730.882	6534.08
731.224	6548.32
731.565	6540.18
731.906	6482.33
732.248	6503.8
732.589	6476.23
732.93	6432.61
733.271	6463.35
733.612	6515.55
733.953	6500.18
734.294	6475.32
734.635	6436.23
734.976	6493.18
735.317	6445.95
735.658	6457.47
735.999	6484.36
736.339	6459.28
736.68	6483.01
737.021	6455.44
737.361	6511.48
737.702	6481.43
738.042	6485.27
738.383	6474.42
738.723	6522.78
739.063	6429
739.404	6443.69
739.744	6509.67
740.084	6442.78
740.424	6484.59
740.764	6450.47
741.104	6485.49
741.444	6451.37
741.784	6451.82
742.124	6465.83
742.464	6469
742.804	6457.47
743.143	6432.61
743.483	6478.49
743.823	6417.92
744.162	6457.25
744.502	6442.56
744.841	6403.91
745.181	6449.11
745.52	6397.81
745.86	6402.33
746.199	6440.07
746.538	6473.97
746.877	6420.41
747.216	6439.84
747.556	6419.28
747.895	6457.25
748.234	6387.42
748.573	6388.55
748.911	6394.87
749.25	6401.43
749.589	6371.82
749.928	6426.29
750.267	6399.85
750.605	6399.39
750.944	6409.56
751.283	6391.26
751.621	6441.88
751.96	6409.34
752.298	6355.33
752.636	6374.76
752.975	6336.34
753.313	6318.04
753.651	6357.14
753.989	6353.29
754.327	6349.45
754.666	6332.95
755.004	6319.62
755.342	6379.51
755.679	6303.35
756.017	6250.02
756.355	6265.84
756.693	6271.26
757.031	6292.05
757.368	6226.74
757.706	6243.92
758.044	6163.24
758.381	6265.84
758.719	6220.19
759.056	6247.31
759.394	6177.48
759.731	6179.74
760.068	6131.38
760.405	6196.01
760.743	6101.1
761.08	6110.36
761.417	6109.68
761.754	6054.09
762.091	6043.7
762.428	6073.98
762.765	6049.12
763.102	6043.7
763.438	6079.63
763.775	5990.37
764.112	5990.59
764.449	6008.67
764.785	5951.5
765.122	5957.37
765.458	5916.47
765.795	5918.5
766.131	5924.38
766.467	5865.4
766.804	5843.93
767.14	5793.76
767.476	5815.91
767.812	5835.57
768.148	5787.21
768.485	5761.22
768.821	5734.78
769.157	5769.13
769.492	5772.52
769.828	5723.03
770.164	5690.03
770.5	5664.72
770.836	5665.4
771.171	5666.98
771.507	5631.05
771.842	5602.35
772.178	5583.37
772.513	5604.84
772.849	5567.1
773.184	5554.9
773.519	5468.12
773.855	5532.75
774.19	5518.74
774.525	5464.96
774.86	5461.57
775.195	5448.01
775.53	5387.9
775.865	5408.01
776.2	5366.88
776.535	5322.59
776.87	5346.09
777.205	5313.55
777.539	5292.3
777.874	5325.98
778.209	5247.33
778.543	5259.76
778.878	5192.65
779.212	5234.68
779.547	5186.09
779.881	5212.76
780.215	5164.4
780.55	5203.72
780.884	5192.19
781.218	5143.16
781.552	5113.33
781.886	5089.82
782.22	5016.38
782.554	5100.44
782.888	5026.32
783.222	4979.77
783.556	4996.49
783.889	4970.73
784.223	4942.94
784.557	4935.25
784.89	4951.07
785.224	4950.39
785.557	4914.69
785.891	4900
786.224	4865.65
786.558	4872.43
786.891	4818.19
787.224	4826.1
787.557	4808.02
787.891	4816.84
788.224	4818.42
788.557	4801.47
788.89	4776.16
789.223	4741.13
789.556	4714.01
789.888	4756.5
790.221	4726.22
790.554	4654.13
790.887	4688.48
791.219	4633.34
791.552	4667.91
791.884	4669.72
792.217	4620.91
792.549	4615.94
792.882	4586.11
793.214	4554.24
793.546	4591.53
793.879	4529.61
794.211	4547.92
794.543	4516.96
794.875	4499.78
795.207	4591.31
795.539	4504.53
795.871	4452.78
796.203	4398.77
796.535	4467.02
796.867	4394.02
797.198	4398.99
797.53	4371.2
797.862	4398.54
798.193	4397.64
798.525	4380.92
798.856	4351.99
799.188	4295.95
799.519	4272.44
799.85	4264.99
800.182	4322.84
800.513	4283.74
800.844	4256.4
801.175	4279.45
801.506	4247.81
801.837	4237.42
802.168	4250.07
802.499	4225.67
802.83	4212.33
803.161	4161.94
803.491	4157.42
803.822	4169.17
804.153	4139.34
804.483	4159
804.814	4120.81
805.145	4112.22
805.475	4116.74
805.805	4102.05
806.136	4086.91
806.466	4098.21
806.796	4076.97
807.126	4011.66
807.457	4043.3
807.787	4036.74
808.117	4059.34
808.447	4016.86
808.777	4010.3
809.107	4018.21
809.436	3975.28
809.766	3999.68
810.096	3963.3
810.426	3979.8
810.755	3988.84
811.085	3933.47
811.414	3933.7
811.744	3908.16
812.073	3885.79
812.403	3885.79
812.732	3895.05
813.061	3895.5
813.39	3865
813.719	3880.82
814.049	3903.19
814.378	3844.43
814.707	3850.31
815.036	3833.36
815.365	3814.15
815.693	3815.96
816.022	3779.35
816.351	3781.84
816.68	3771.44
817.008	3745.45
817.337	3738.67
817.665	3761.95
817.994	3747.03
818.322	3758.79
818.651	3761.05
818.979	3692.12
819.307	3733.7
819.636	3757.43
819.964	3645.79
820.292	3736.41
820.62	3721.27
820.948	3692.12
821.276	3687.83
821.604	3647.83
821.932	3664.1
822.259	3697.54
822.587	3682.4
822.915	3687.83
823.243	3703.87
823.57	3687.6
823.898	3679.01
824.225	3667.04
824.553	3675.85
824.88	3642.63
825.207	3684.44
825.535	3682.63
825.862	3691.44
826.189	3677.66
826.516	3714.72
826.843	3664.32
827.17	3668.62
827.497	3691.89
827.824	3663.87
828.151	3719.69
828.478	3666.81
828.805	3712.91
829.131	3668.84
829.458	3692.12
829.785	3656.87
830.111	3663.65
830.438	3704.1
830.764	3662.29
831.09	3693.48
831.417	3694.83
831.743	3662.52
832.069	3693.02
832.395	3655.51
832.722	3661.61
833.048	3650.77
833.374	3667.49
833.7	3626.36
834.026	3667.04
834.351	3666.13
834.677	3617.09
835.003	3598.79
835.329	3624.1
835.654	3617.55
835.98	3600.82
836.306	3575.97
836.631	3621.84
836.956	3609.18
837.282	3581.84
837.607	3582.74
837.932	3581.61
838.258	3602.86
838.583	3573.71
838.908	3533.93
839.233	3573.93
839.558	3580.71
839.883	3549.07
840.208	3499.58
840.533	3515.85
840.858	3551.33
841.182	3571.22
841.507	3519.24
841.832	3533.48
842.156	3507.04
842.481	3527.83
842.805	3502.07
843.13	3513.59
843.454	3466.14
843.778	3474.27
844.103	3468.85
844.427	3451.9
844.751	3437.21
845.075	3469.08
845.399	3424.1
845.723	3383.65
846.047	3407.38
846.371	3412.58
846.695	3388.4
847.019	3400.15
847.343	3339.59
847.666	3368.06
847.99	3313.6
848.313	3361.28
848.637	3254.17
848.96	3303.43
849.284	3322.19
849.607	3281.06
849.931	3249.65
850.254	3255.07
850.577	3237.44
850.9	3232.02
851.223	3230.89
851.546	3249.65
851.869	3201.96
852.192	3229.31
852.515	3159.25
852.838	3208.07
853.161	3179.14
853.483	3186.82
853.806	3137.56
854.129	3154.06
854.451	3114.51
854.774	3105.24
855.096	3096.43
855.419	3086.71
855.741	3131.01
856.063	3119.03
856.385	3070.67
856.708	3073.83
857.03	3065.47
857.352	3038.13
857.674	3016.88
857.996	3022.08
858.318	3008.75
858.64	3042.87
858.961	3005.13
859.283	3001.52
859.605	3007.62
859.926	2988.41
860.248	2980.05
860.57	2968.75
860.891	2974.17
861.212	2956.77
861.534	2923.1
861.855	2951.8
862.176	2964.46
862.498	2935.98
862.819	2939.37
863.14	2915.42
863.461	2945.47
863.782	2903.89
864.103	2880.84
864.424	2872.48
864.745	2907.73
865.065	2919.03
865.386	2895.98
865.707	2891.69
866.027	2912.48
866.348	2921.29
866.668	2895.08
866.989	2850.33
867.309	2844.69
867.63	2887.4
867.95	2867.28
868.27	2818.47
868.59	2854.85
868.91	2850.56
869.23	2851.69
869.55	2829.77
869.87	2823.89
870.19	2847.4
870.51	2851.69
870.83	2818.47
871.15	2831.58
871.469	2837.91
871.789	2812.14
872.109	2789.55
872.428	2799.26
872.748	2785.03
873.067	2804.01
873.386	2780.73
873.706	2767.85
874.025	2764.69
874.344	2747.06
874.663	2777.12
874.982	2768.75
875.301	2772.14
875.62	2788.87
875.939	2734.63
876.258	2757.91
876.577	2737.12
876.896	2729.66
877.214	2709.1
877.533	2741.64
877.852	2712.49
878.17	2742.31
878.489	2708.64
878.807	2671.36
879.125	2697.12
879.444	2706.38
879.762	2680.85
880.08	2711.13
880.398	2674.52
880.716	2678.14
881.034	2686.72
881.352	2677.91
881.67	2687.4
881.988	2665.03
882.306	2644.92
882.624	2661.87
882.941	2658.02
883.259	2637.23
883.577	2617.35
883.894	2662.32
884.212	2627.52
884.529	2640.62
884.846	2644.24
885.164	2641.3
885.481	2627.97
885.798	2588.19
886.115	2627.06
886.432	2589.55
886.75	2602.66
887.067	2617.57
887.383	2606.95
887.7	2575.99
888.017	2573.28
888.334	2554.52
888.651	2576.67
888.967	2559.27
889.284	2518.14
889.6	2537.8
889.917	2482.66
890.233	2538.93
890.55	2528.76
890.866	2543.22
891.182	2502.1
891.498	2485.37
891.815	2460.29
892.131	2457.35
892.447	2478.37
892.763	2478.82
893.079	2483.56
893.395	2462.55
893.71	2454.41
894.026	2462.55
894.342	2444.24
894.657	2436.79
894.973	2449.44
895.289	2389.33
895.604	2409.44
895.92	2417.8
896.235	2400.85
896.55	2410.12
896.865	2403.11
897.181	2397.01
897.496	2411.48
897.811	2386.62
898.126	2396.79
898.441	2359.5
898.756	2361.08
899.071	2335.09
899.386	2324.47
899.7	2344.13
900.015	2315.21
900.33	2304.81
900.644	2323.79
900.959	2322.21
901.273	2323.12
901.588	2279.5
901.902	2279.05
902.216	2291.48
902.531	2269.78
902.845	2273.63
903.159	2218.26
903.473	2220.97
903.787	2243.12
904.101	2195.66
904.415	2225.72
904.729	2208.32
905.042	2198.83
905.356	2234.76
905.67	2171.26
905.984	2218.26
906.297	2197.47
906.611	2162.67
906.924	2165.15
907.237	2170.8
907.551	2138.94
907.864	2147.75
908.177	2130.58
908.491	2118.15
908.804	2130.58
909.117	2108.21
909.43	2123.35
909.743	2083.35
910.056	2091.03
910.368	2082.45
910.681	2094.87
910.994	2054.88
911.307	2048.32
911.619	2085.61
911.932	2076.57
912.244	2051.26
912.557	2016.46
912.869	2021.88
913.181	2032.5
913.494	2017.36
913.806	2033.41
914.118	2002.9
914.43	2023.01
914.742	1993.18
915.054	1963.58
915.366	1967.19
915.678	1924.26
915.99	1968.32
916.302	1958.38
916.613	1989.11
916.925	1928.78
917.236	1955.67
917.548	1901.43
917.859	1938.27
918.171	1928.55
918.482	1897.37
918.794	1897.59
919.105	1879.29
919.416	1885.84
919.727	1877.25
920.038	1901.89
920.349	1870.47
920.66	1862.11
920.971	1843.13
921.282	1872.96
921.593	1859.17
921.903	1830.25
922.214	1844.94
922.525	1834.54
922.835	1821.89
923.146	1802.9
923.456	1778.95
923.767	1797.03
924.077	1806.29
924.387	1763.81
924.697	1754.77
925.008	1760.65
925.318	1743.47
925.628	1774.66
925.938	1753.41
926.248	1722
926.558	1737.6
926.867	1712.29
927.177	1733.08
927.487	1717.48
927.796	1718.61
928.106	1709.8
928.416	1689.46
928.725	1699.86
929.034	1663.47
929.344	1679.07
929.653	1723.81
929.962	1661.21
930.271	1671.61
930.581	1653.08
930.89	1659.18
931.199	1637.03
931.508	1659.18
931.817	1654.43
932.125	1641.33
932.434	1634.1
932.743	1607.88
933.051	1615.79
933.36	1625.51
933.669	1615.56
933.977	1571.5
934.286	1607.66
934.594	1568.56
934.902	1591.38
935.21	1589.35
935.519	1577.37
935.827	1555.68
936.135	1561.33
936.443	1541.89
936.751	1556.36
937.059	1543.93
937.367	1534.44
937.674	1510.93
937.982	1515.91
938.29	1521.33
938.597	1521.78
938.905	1517.71
939.213	1499.64
939.52	1488.56
939.827	1493.31
940.135	1490.37
940.442	1515.68
940.749	1479.07
941.056	1490.14
941.363	1459.18
941.67	1438.39
941.977	1453.99
942.284	1446.3
942.591	1427.1
942.898	1458.28
943.205	1453.08
943.511	1428.23
943.818	1442.24
944.125	1423.71
944.431	1428.68
944.738	1470.03
945.044	1385.97
945.35	1396.81
945.657	1394.55
945.963	1386.87
946.269	1401.11
946.575	1412.18
946.881	1396.14
947.187	1387.32
947.493	1388.9
947.799	1370.83
948.105	1361.11
948.41	1369.7
948.716	1364.72
949.022	1356.36
949.327	1345.29
949.633	1335.12
949.938	1333.09
950.244	1307.55
950.549	1320.66
950.854	1333.54
951.16	1308.68
951.465	1294.9
951.77	1276.36
952.075	1312.52
952.38	1290.6
952.685	1296.03
952.99	1307.1
953.294	1263.94
953.599	1279.53
953.904	1259.19
954.209	1259.64
954.513	1272.52
954.818	1272.52
955.122	1257.83
955.426	1274.1
955.731	1251.51
956.035	1250.38
956.339	1250.15
956.643	1223.03
956.948	1248.79
957.252	1226.87
957.556	1220.1
957.86	1228.91
958.163	1231.39
958.467	1211.73
958.771	1207.21
959.075	1222.58
959.378	1190.04
959.682	1188.01
959.985	1163.6
960.289	1182.81
960.592	1195.24
960.896	1188.23
961.199	1170.15
961.502	1190.04
961.805	1168.12
962.108	1160.21
962.411	1124.96
962.714	1146.2
963.017	1155.46
963.32	1157.72
963.623	1137.61
963.926	1165.63
964.228	1169.25
964.531	1155.01
964.833	1126.09
965.136	1108.23
965.438	1154.11
965.741	1086.54
966.043	1112.98
966.345	1105.07
966.648	1119.98
966.95	1107.1
967.252	1088.12
967.554	1080.21
967.856	1092.64
968.158	1068.91
968.46	1063.04
968.761	1102.58
969.063	1106.2
969.365	1091.06
969.666	1089.7
969.968	1073.43
970.269	1054.68
970.571	1057.16
970.872	1026.88
971.174	1077.95
971.475	1068.91
971.776	1037.05
972.077	1058.29
972.378	1022.81
972.679	1019.65
972.98	1020.55
973.281	1029.37
973.582	1014
973.883	1035.47
974.183	1013.09
974.484	1014.45
974.785	1002.47
975.085	999.99
975.386	1017.16
975.686	1020.1
975.986	961.12
976.287	977.62
976.587	1003.83
976.887	1017.39
977.187	986.43
977.487	977.39
977.787	984.85
978.087	966.09
978.387	975.81
978.687	974.45
978.987	986.43
979.286	970.38
979.586	963.15
979.885	936.03
980.185	944.62
980.484	942.59
980.784	954.79
981.083	951.63
981.382	943.94
981.682	954.79
981.981	941.68
982.28	936.71
982.579	942.59
982.878	913.89
983.177	915.02
983.475	925.19
983.774	913.44
984.073	911.63
984.372	904.62
984.67	920.44
984.969	900.78
985.267	901.91
985.566	894.68
985.864	899.2
986.162	914.11
986.461	907.56
986.759	883.83
987.057	871.86
987.355	897.62
987.653	885.87
987.951	874.79
988.249	879.77
988.547	878.41
988.844	866.21
989.142	875.7
989.44	870.05
989.737	864.85
990.035	860.1
990.332	849.03
990.63	852.42
990.927	841.57
991.224	845.64
991.521	834.57
991.819	819.65
992.116	833.21
992.413	843.38
992.71	845.87
993.006	828.47
993.303	811.97
993.6	814
993.897	844.06
994.193	798.64
994.49	800.45
994.787	820.78
995.083	802.25
995.379	783.95
995.676	784.85
995.972	807.68
996.268	807
996.565	789.15
996.861	790.5
997.157	788.24
997.453	772.2
997.749	765.19
998.044	800.45
998.34	769.26
998.636	755.7
998.932	781.46
999.227	767.68
999.523	781.91
999.818	754.34
1000.114	775.59
1000.409	762.93
1000.704	743.05
1001	745.08
1001.295	743.5
1001.59	721.58
1001.885	751.18
1002.18	743.5
1002.475	750.95
1002.77	753.21
1003.065	746.21
1003.359	737.4
1003.654	711.86
1003.949	721.8
1004.243	717.06
1004.538	698.07
1004.832	740.33
1005.127	744.63
1005.421	725.19
1005.715	732.65
1006.009	694.01
1006.304	703.95
1006.598	724.97
1006.892	711.63
1007.186	724.74
1007.48	703.72
1007.773	680.45
1008.067	710.05
1008.361	682.03
1008.655	659.66
1008.948	683.16
1009.242	671.18
1009.535	686.78
1009.829	684.06
1010.122	675.7
1010.415	681.8
1010.708	685.42
1011.001	658.98
1011.295	670.96
1011.588	633.9
1011.881	665.99
1012.173	677.74
1012.466	653.33
1012.759	646.1
1013.052	656.04
1013.344	630.73
1013.637	642.48
1013.93	644.29
1014.222	629.83
1014.514	640.45
1014.807	642.94
1015.099	616.72
1015.391	615.59
1015.683	623.5
1015.976	634.8
1016.268	624.86
1016.56	620.34
1016.851	623.95
1017.143	651.97
1017.435	632.99
1017.727	627.57
1018.018	620.79
1018.31	611.98
1018.602	609.94
1018.893	610.39
1019.185	594.57
1019.476	597.29
1019.767	598.19
1020.058	575.59
1020.35	570.17
1020.641	601.35
1020.932	595.7
1021.223	580.11
1021.514	575.14
1021.804	549.83
1022.095	572.88
1022.386	584.18
1022.677	572.65
1022.967	572.43
1023.258	576.5
1023.548	556.61
1023.839	572.88
1024.129	575.59
1024.419	562.49
1024.709	550.06
1025	549.83
1025.29	571.52
1025.58	558.19
1025.87	567.46
1026.16	569.26
1026.449	543.05
1026.739	522.26
1027.029	542.6
1027.319	564.97
1027.608	556.61
1027.898	524.52
1028.187	525.65
1028.477	511.87
1028.766	516.84
1029.055	522.49
1029.344	553.45
1029.634	534.92
1029.923	546.89
1030.212	524.07
1030.501	532.66
1030.79	498.76
1031.078	506.22
1031.367	510.96
1031.656	512.32
1031.945	496.95
1032.233	515.48
1032.522	490.62
1032.81	505.31
1033.099	496.05
1033.387	497.85
1033.675	480.91
1033.963	504.18
1034.251	516.38
1034.54	488.81
1034.828	505.99
1035.116	473.9
1035.403	502.37
1035.691	474.8
1035.979	487.91
1036.267	482.94
1036.554	476.61
1036.842	489.72
1037.129	485.88
1037.417	473.22
1037.704	495.59
1037.992	481.13
1038.279	487.68
1038.566	480.23
1038.853	480.23
1039.14	480.23
