Data from mousepad_grey_FLMS001491_00002.txt Node
Date: Wed Feb 08 14:28:53 GMT 2017
User: dcchb
Spectrometer: FLMS00149
Trigger mode: 0
Integration Time (sec): 2.000000E-2
Scans to average: 10
Electric dark correction enabled: true
Nonlinearity correction enabled: false
Boxcar width: 0
XAxis mode: Wavelengths
Number of Pixels in Spectrum: 2048
>>>>>Begin Spectral Data<<<<<
341.393	-39.94
341.776	-39.94
342.16	-39.94
342.543	-54.86
342.927	-71.35
343.31	-79.94
343.693	-59.6
344.077	-75.2
344.46	-80.62
344.843	-55.54
345.226	-29.77
345.61	5.03
345.993	-13.5
346.376	-20.28
346.759	20.17
347.142	19.27
347.525	36.21
347.908	58.81
348.291	82.31
348.674	91.35
349.057	101.3
349.44	132.03
349.823	148.75
350.206	157.34
350.588	165.93
350.971	190.11
351.354	209.32
351.737	220.62
352.119	223.78
352.502	262.2
352.884	279.37
353.267	270.56
353.65	257.68
354.032	278.02
354.414	271.46
354.797	284.12
355.179	292.93
355.562	297.45
355.944	315.75
356.326	311.01
356.709	321.4
357.091	322.53
357.473	300.84
357.855	322.99
358.238	337.9
358.62	339.71
359.002	331.12
359.384	317.79
359.766	338.8
360.148	296.77
360.53	329.54
360.912	324.34
361.294	324.34
361.676	315.08
362.057	324.79
362.439	297.22
362.821	289.09
363.203	301.52
363.584	297.68
363.966	302.87
364.348	309.43
364.729	291.8
365.111	300.39
365.493	293.61
365.874	301.97
366.256	302.42
366.637	300.39
367.019	278.69
367.4	303.1
367.781	299.71
368.163	303.55
368.544	303.55
368.925	298.58
369.306	323.44
369.688	306.26
370.069	296.32
370.45	293.16
370.831	306.26
371.212	281.18
371.593	299.26
371.974	293.61
372.355	288.86
372.736	292.03
373.117	283.66
373.498	306.94
373.879	299.03
374.26	292.48
374.641	277.11
375.021	297.68
375.402	300.61
375.783	302.42
376.163	302.42
376.544	322.53
376.925	301.29
377.305	312.36
377.686	284.12
378.066	315.75
378.447	305.81
378.827	305.36
379.208	301.74
379.588	302.42
379.968	320.5
380.349	299.48
380.729	295.42
381.109	319.82
381.489	308.97
381.87	313.95
382.25	299.71
382.63	329.54
383.01	313.49
383.39	308.07
383.77	305.81
384.15	318.01
384.53	302.87
384.91	318.24
385.29	329.09
385.67	339.26
386.049	300.39
386.429	329.77
386.809	327.28
387.189	321.63
387.568	330.22
387.948	330.9
388.328	343.55
388.707	342.87
389.087	329.99
389.466	353.04
389.846	332.03
390.225	327.96
390.605	330.44
390.984	347.62
391.363	325.25
391.743	339.48
392.122	348.97
392.501	345.13
392.881	370.22
393.26	350.33
393.639	337.67
394.018	367.5
394.397	353.95
394.776	348.07
395.155	360.27
395.534	353.72
395.913	339.71
396.292	367.73
396.671	346.26
397.05	370.89
397.429	360.95
397.808	368.18
398.186	357.34
398.565	381.06
398.944	357.79
399.323	360.27
399.701	362.31
400.08	375.41
400.458	379.03
400.837	385.36
401.215	371.8
401.594	372.7
401.972	367.05
402.351	369.99
402.729	378.58
403.107	382.19
403.486	390.78
403.864	397.79
404.242	392.81
404.62	396.88
404.999	392.81
405.377	415.19
405.755	391.23
406.133	384.68
406.511	413.83
406.889	392.36
407.267	419.25
407.645	419.03
408.023	416.32
408.401	412.02
408.779	421.29
409.156	431.01
409.534	418.8
409.912	427.39
410.29	427.16
410.667	427.39
411.045	428.29
411.422	426.26
411.8	431.46
412.178	447.95
412.555	465.58
412.933	435.75
413.31	450.44
413.687	447.05
414.065	452.02
414.442	458.58
414.819	456.32
415.197	473.72
415.574	461.51
415.951	447.95
416.328	465.81
416.705	469.42
417.082	482.53
417.46	472.36
417.837	492.92
418.214	450.67
418.591	497.67
418.967	480.72
419.344	504.68
419.721	489.76
420.098	508.74
420.475	494.51
420.852	502.42
421.228	498.12
421.605	497.22
421.982	505.13
422.358	509.2
422.735	503.77
423.111	511.68
423.488	528.63
423.864	539.7
424.241	506.26
424.617	529.76
424.994	511.68
425.37	539.25
425.746	552.36
426.123	543.09
426.499	556.43
426.875	539.48
427.251	539.48
427.627	578.57
428.003	547.84
428.379	556.2
428.756	541.96
429.132	572.02
429.507	585.35
429.883	588.74
430.259	582.41
430.635	596.65
431.011	590.78
431.387	618.35
431.763	611.34
432.138	614.73
432.514	617.67
432.89	621.51
433.265	607.72
433.641	626.25
434.016	645.24
434.392	644.11
434.767	659.25
435.143	653.15
435.518	644.33
435.894	650.21
436.269	635.52
436.644	663.77
437.02	654.28
437.395	669.87
437.77	708.29
438.145	691.56
438.52	691.79
438.895	694.95
439.271	686.59
439.646	716.87
440.021	728.17
440.395	716.65
440.77	709.19
441.145	693.82
441.52	740.38
441.895	720.26
442.27	739.92
442.645	723.2
443.019	698.12
443.394	749.87
443.769	749.87
444.143	744.67
444.518	753.26
444.892	749.64
445.267	774.05
445.641	767.72
446.016	774.73
446.39	770.21
446.764	759.81
447.139	758.91
447.513	774.5
447.887	795.52
448.262	799.58
448.636	770.21
449.01	785.35
449.384	793.93
449.758	818.11
450.132	789.64
450.506	829.19
450.88	796.65
451.254	829.64
451.628	845.46
452.002	835.97
452.376	852.69
452.75	852.01
453.123	865.12
453.497	864.44
453.871	882.52
454.244	896.3
454.618	874.61
454.992	893.59
455.365	919.13
455.739	911.67
456.112	906.93
456.486	944.44
456.859	952.8
457.232	943.31
457.606	936.08
457.979	935.4
458.352	971.33
458.725	1013.14
459.099	1003.87
459.472	995.74
459.845	993.7
460.218	1028.5
460.591	1012.23
460.964	1013.36
461.337	1024.66
461.71	1067.83
462.083	1069.41
462.456	1070.08
462.829	1111.44
463.201	1094.72
463.574	1096.98
463.947	1105.79
464.32	1129.97
464.692	1137.43
465.065	1115.28
465.438	1147.14
465.81	1185.56
466.183	1204.54
466.555	1203.87
466.928	1203.19
467.3	1193.25
467.672	1224.66
468.045	1255.39
468.417	1245.67
468.789	1222.62
469.161	1253.36
469.534	1273.7
469.906	1329.51
470.278	1326.8
470.65	1328.84
471.022	1326.12
471.394	1369.74
471.766	1385.33
472.138	1397.99
472.51	1413.58
472.882	1435.05
473.253	1479.57
473.625	1445.22
473.997	1472.11
474.369	1492.45
474.74	1509.17
475.112	1552.33
475.484	1554.59
475.855	1583.52
476.227	1599.56
476.598	1620.58
476.97	1620.8
477.341	1669.62
477.713	1680.24
478.084	1698.54
478.455	1760.01
478.827	1715.94
479.198	1764.08
479.569	1790.52
479.94	1826.68
480.311	1855.6
480.682	1879.56
481.053	1898.54
481.424	1964.3
481.795	1944.64
482.166	1971.3
482.537	1989.61
482.908	2017.63
483.279	2074.13
483.65	2103.5
484.021	2133.79
484.391	2136.95
484.762	2161.58
485.133	2187.12
485.503	2209.94
485.874	2254.23
486.244	2230.28
486.615	2286.78
486.985	2321.58
487.356	2371.29
487.726	2354.8
488.097	2430.5
488.467	2379.2
488.837	2446.77
489.207	2482.93
489.578	2525.64
489.948	2505.08
490.318	2590.95
490.688	2580.1
491.058	2613.32
491.428	2672.08
491.798	2659.2
492.168	2741
492.538	2676.37
492.908	2726.76
493.278	2768.12
493.648	2789.14
494.017	2796.14
494.387	2868.23
494.757	2849.02
495.126	2938.96
495.496	2907.32
495.866	2926.08
496.235	2979.64
496.605	2987.1
496.974	2991.62
497.344	3006.76
497.713	3024.38
498.082	3032.97
498.452	3083.59
498.821	3115
499.19	3129.92
499.559	3138.96
499.928	3155.45
500.298	3158.84
500.667	3206.3
501.036	3203.14
501.405	3230.48
501.774	3240.2
502.143	3279.97
502.512	3293.98
502.88	3318.39
503.249	3316.35
503.618	3297.14
503.987	3348.22
504.356	3348.44
504.724	3448.1
505.093	3448.33
505.462	3465.5
505.83	3445.39
506.199	3457.14
506.567	3553.64
506.936	3525.84
507.304	3547.53
507.672	3599.96
508.041	3620.75
508.409	3626.85
508.777	3654.88
509.145	3645.61
509.514	3701.2
509.882	3715.89
510.25	3762.44
510.618	3749.56
510.986	3749.34
511.354	3758.15
511.722	3819.84
512.09	3839.28
512.458	3853.29
512.826	3875.43
513.193	3920.41
513.561	3909.78
513.929	3931.48
514.297	3978.26
514.664	3998.37
515.032	4008.31
515.4	4044.02
515.767	4042.89
516.135	4105.03
516.502	4097.58
516.869	4124.24
517.237	4155.2
517.604	4163.11
517.972	4240.62
518.339	4225.03
518.706	4210.34
519.073	4265.93
519.44	4272.94
519.808	4345.25
520.175	4314.29
520.542	4382.31
520.909	4410.56
521.276	4438.81
521.643	4445.36
522.009	4508.64
522.376	4541.63
522.743	4564.23
523.11	4587.73
523.477	4663.44
523.843	4692.36
524.21	4677.22
524.577	4690.1
524.943	4745.02
525.31	4796.09
525.676	4805.13
526.043	4859.59
526.409	4816.65
526.776	4943.2
527.142	4955.63
527.508	4911.79
527.874	4990.21
528.241	4970.55
528.607	5014.84
528.973	5084.22
529.339	5019.59
529.705	5105.91
530.071	5157.21
530.437	5207.6
530.803	5219.58
531.169	5277.88
531.535	5257.77
531.901	5250.09
532.267	5249.86
532.632	5329.41
532.998	5329.63
533.364	5377.32
533.73	5394.72
534.095	5455.28
534.461	5482.4
534.826	5503.19
535.192	5534.83
535.557	5565.56
535.923	5559.46
536.288	5630.42
536.653	5614.6
537.019	5617.76
537.384	5632
537.749	5651.43
538.114	5672.22
538.479	5667.03
538.845	5721.04
539.21	5718.1
539.575	5804.88
539.94	5831.32
540.305	5829.28
540.67	5825.89
541.034	5864.54
541.399	5894.36
541.764	5966
542.129	5959.9
542.494	5988.15
542.858	6026.79
543.223	5998.77
543.587	6007.81
543.952	6056.85
544.316	6088.48
544.681	6093
545.045	6146.56
545.41	6190.63
545.774	6202.38
546.138	6186.56
546.503	6201.93
546.867	6283.96
547.231	6321.7
547.595	6276.73
547.959	6376.16
548.324	6338.65
548.688	6356.5
549.052	6447.34
549.416	6371.64
549.779	6385.2
550.143	6452.99
550.507	6484.86
550.871	6534.12
551.235	6526.21
551.599	6576.15
551.962	6579.32
552.326	6644.85
552.689	6648.02
553.053	6642.14
553.417	6645.53
553.78	6779.31
554.143	6761.91
554.507	6735.92
554.87	6742.93
555.234	6873.77
555.597	6810.72
555.96	6851.63
556.323	6901.57
556.686	6905.64
557.05	6982.47
557.413	7002.58
557.776	6958.07
558.139	6995.58
558.502	7015.01
558.865	7109.02
559.228	7156.25
559.59	7143.15
559.953	7159.87
560.316	7245.52
560.679	7249.81
561.041	7261.56
561.404	7318.28
561.767	7370.26
562.129	7345.63
562.492	7422.01
562.854	7493.64
563.217	7419.07
563.579	7463.36
563.941	7560.08
564.304	7489.13
564.666	7564.38
565.028	7590.82
565.39	7655
565.753	7633.08
566.115	7767.76
566.477	7654.09
566.839	7759.17
567.201	7766.18
567.563	7804.15
567.925	7857.93
568.287	7836.69
568.648	7882.11
569.01	7904.26
569.372	7960.75
569.734	7967.76
570.095	8092.73
570.457	8034.2
570.819	8109
571.18	8119.62
571.542	8152.16
571.903	8100.86
572.265	8189.9
572.626	8221.76
572.987	8206.17
573.349	8295.66
573.71	8290.23
574.071	8358.25
574.432	8294.3
574.794	8303.34
575.155	8356.45
575.516	8305.15
575.877	8456.33
576.238	8406.84
576.599	8399.84
576.96	8412.04
577.32	8443.68
577.681	8493.39
578.042	8541.07
578.403	8548.98
578.763	8577.01
579.124	8544.01
579.485	8570.9
579.845	8620.62
580.206	8540.85
580.566	8579.49
580.927	8628.76
581.287	8685.25
581.648	8624.91
582.008	8661.07
582.368	8672.14
582.728	8637.8
583.089	8689.32
583.449	8697.91
583.809	8650.68
584.169	8751.46
584.529	8707.62
584.889	8737.23
585.249	8715.76
585.609	8660.85
585.969	8757.79
586.329	8748.98
586.688	8751.69
587.048	8658.81
587.408	8753.72
587.768	8737
588.127	8734.52
588.487	8780.16
588.846	8807.73
589.206	8670.56
589.565	8698.58
589.925	8762.31
590.284	8720.51
590.643	8793.5
591.003	8762.76
591.362	8783.33
591.721	8794.4
592.08	8775.42
592.44	8853.61
592.799	8775.87
593.158	8771.58
593.517	8762.76
593.876	8764.57
594.235	8759.6
594.593	8819.49
594.952	8810.9
595.311	8842.31
595.67	8865.36
596.029	8840.5
596.387	8864.91
596.746	8891.12
597.104	8833.27
597.463	8923.21
597.822	8879.82
598.18	8845.02
598.538	8847.96
598.897	8921.18
599.255	8856.55
599.613	8949.65
599.972	8899.03
600.33	8896.09
600.688	8887.73
601.046	8934.06
601.404	8994.85
601.762	8971.8
602.12	8943.55
602.478	8962.08
602.836	8974.28
603.194	8974.06
603.552	8946.71
603.91	8920.5
604.268	8984
604.625	8925.7
604.983	9003.89
605.341	8962.76
605.698	8955.53
606.056	9054.96
606.413	9010.44
606.771	9080.5
607.128	9047.05
607.485	8926.15
607.843	9005.24
608.2	9063.32
608.557	9063.1
608.914	9053.38
609.272	9118.46
609.629	9044.11
609.986	9101.06
610.343	9085.92
610.7	9132.47
611.057	9071
611.414	9180.15
611.771	9092.47
612.127	9166.14
612.484	9168.63
612.841	9165.47
613.198	9161.62
613.554	9172.02
613.911	9225.8
614.267	9156.88
614.624	9240.49
614.98	9229.19
615.337	9242.3
615.693	9203.43
616.05	9234.39
616.406	9335.18
616.762	9266.25
617.118	9247.5
617.475	9285.01
617.831	9337.21
618.187	9286.37
618.543	9362.07
618.899	9324.56
619.255	9356.65
619.611	9344.9
619.967	9389.19
620.323	9379.24
620.678	9339.92
621.034	9323.43
621.39	9337.66
621.746	9350.32
622.101	9409.98
622.457	9393.26
622.812	9375.18
623.168	9424.22
623.523	9426.48
623.879	9428.96
624.234	9404.55
624.589	9431.45
624.945	9441.84
625.3	9480.71
625.655	9386.25
626.01	9511.9
626.365	9446.14
626.72	9373.14
627.075	9385.57
627.43	9409.3
627.785	9379.92
628.14	9418.79
628.495	9421.96
628.85	9461.5
629.205	9368.17
629.559	9478.9
629.914	9381.5
630.269	9395.74
630.623	9325.24
630.978	9362.07
631.332	9434.84
631.687	9388.51
632.041	9370.66
632.396	9379.92
632.75	9330.43
633.104	9328.17
633.459	9301.73
633.813	9285.46
634.167	9331.79
634.521	9332.01
634.875	9312.81
635.229	9281.62
635.583	9355.52
635.937	9180.83
636.291	9228.51
636.645	9265.35
636.999	9247.04
637.352	9268.74
637.706	9298.12
638.06	9254.73
638.413	9195.52
638.767	9242.98
639.121	9279.36
639.474	9253.82
639.828	9199.59
640.181	9264.45
640.534	9251.79
640.888	9160.27
641.241	9148.52
641.594	9146.93
641.947	9167.05
642.301	9185.13
642.654	9124.34
643.007	9184.22
643.36	9164.34
643.713	9170.21
644.066	9195.75
644.419	9143.32
644.771	9047.5
645.124	9025.58
645.477	8975.64
645.83	8964.11
646.182	8905.81
646.535	8849.32
646.888	8921.86
647.24	8904.91
647.593	8975.41
647.945	8888.64
648.298	8887.05
648.65	8898.13
649.002	8781.29
649.355	8877.79
649.707	8869.2
650.059	8939.26
650.411	9036.43
650.763	8974.96
651.115	9123.21
651.467	9094.05
651.819	9108.07
652.171	9080.95
652.523	9047.05
652.875	9062.87
653.227	9058.12
653.578	9100.83
653.93	9104.68
654.282	9055.64
654.633	9010.89
654.985	9051.34
655.337	9024.68
655.688	9042.53
656.039	9050.21
656.391	9065.35
656.742	9000.05
657.094	9063.77
657.445	9048.63
657.796	9020.84
658.147	9054.06
658.498	9011.12
658.849	9078.91
659.2	9109.87
659.551	9020.38
659.902	9061.97
660.253	9044.56
660.604	9074.39
660.955	9007.73
661.306	9012.02
661.656	9015.86
662.007	9027.62
662.358	9065.81
662.708	9031.91
663.059	9005.92
663.409	8947.84
663.76	9030.78
664.11	9121.85
664.461	9026.94
664.811	9094.28
665.161	9072.59
665.511	9013.38
665.862	9049.76
666.212	9051.34
666.562	9054.73
666.912	9045.24
667.262	9036.2
667.612	9077.78
667.962	9000.95
668.312	9018.58
668.662	9082.08
669.011	9028.75
669.361	9041.17
669.711	9029.2
670.06	8974.96
670.41	9014.06
670.76	9009.31
671.109	9067.16
671.459	8985.58
671.808	8965.24
672.157	8939.26
672.507	8940.84
672.856	8957.79
673.205	8952.82
673.554	8958.01
673.904	8966.83
674.253	8960.27
674.602	8959.14
674.951	8883.44
675.3	8769.77
675.649	8978.13
675.998	8973.15
676.346	8922.76
676.695	8956.66
677.044	8874.63
677.393	8875.08
677.741	8935.19
678.09	8894.51
678.438	8833.04
678.787	8870.11
679.135	8893.61
679.484	8850.45
679.832	8860.61
680.181	8819.49
680.529	8878.92
680.877	8758.02
681.225	8741.75
681.573	8884.12
681.922	8742.43
682.27	8713.95
682.618	8700.84
682.966	8720.28
683.314	8679.83
683.661	8730.67
684.009	8694.97
684.357	8635.76
684.705	8674.4
685.053	8601.41
685.4	8666.5
685.748	8595.31
686.095	8609.77
686.443	8531.13
686.79	8542.43
687.138	8507.86
687.485	8584.01
687.832	8482.32
688.18	8527.97
688.527	8426.28
688.874	8428.99
689.221	8426.05
689.568	8383.56
689.915	8355.99
690.262	8444.58
690.609	8433.51
690.956	8369.55
691.303	8321.87
691.65	8301.08
691.997	8317.58
692.344	8191.93
692.69	8309.22
693.037	8236
693.383	8159.62
693.73	8170.69
694.077	8134.08
694.423	8172.27
694.769	8127.75
695.116	8111.71
695.462	8080.97
695.808	8052.73
696.155	8083.23
696.501	8015.44
696.847	8015.66
697.193	7938.83
697.539	7965.95
697.885	7874.43
698.231	7906.74
698.577	7871.26
698.923	7840.3
699.269	7815.67
699.614	7758.27
699.96	7723.24
700.306	7737.48
700.651	7687.09
700.997	7671.72
701.342	7714.2
701.688	7678.05
702.033	7669.23
702.379	7624.94
702.724	7572.74
703.069	7648.44
703.415	7479.41
703.76	7536.81
704.105	7504.27
704.45	7468.56
704.795	7481.44
705.14	7420.88
705.485	7378.39
705.83	7373.65
706.175	7366.64
706.52	7437.6
706.865	7296.59
707.209	7277.83
707.554	7272.86
707.899	7312.63
708.243	7276.7
708.588	7307.21
708.932	7195.8
709.277	7201
709.621	7203.48
709.966	7164.61
710.31	7168
710.654	7120.1
710.998	7124.61
711.342	7137.5
711.687	7111.06
712.031	7139.53
712.375	7099.98
712.719	7102.69
713.063	7065.18
713.407	7096.37
713.75	7091.17
714.094	7027.89
714.438	6993.32
714.782	7001.45
715.125	6961.23
715.469	6981.57
715.812	6936.82
716.156	6932.98
716.499	6968.01
716.843	6976.6
717.186	6881.23
717.53	6961.46
717.873	6898.63
718.216	6906.99
718.559	6864.51
718.902	6913.32
719.246	6890.04
719.589	6885.53
719.932	6849.37
720.275	6869.93
720.617	6833.78
720.96	6822.25
721.303	6891.17
721.646	6891.17
721.989	6834.91
722.331	6817.5
722.674	6845.98
723.016	6863.83
723.359	6813.21
723.701	6838.29
724.044	6740.9
724.386	6733.66
724.729	6777.28
725.071	6765.98
725.413	6764.17
725.755	6729.6
726.097	6805.3
726.439	6718.52
726.782	6757.84
727.124	6803.04
727.465	6758.75
727.807	6745.64
728.149	6742.93
728.491	6681.24
728.833	6745.42
729.175	6702.48
729.516	6725.98
729.858	6695.25
730.199	6739.99
730.541	6687.11
730.882	6709.03
731.224	6704.74
731.565	6724.63
731.906	6654.57
732.248	6700.22
732.589	6677.85
732.93	6695.93
733.271	6624.97
733.612	6725.08
733.953	6697.06
734.294	6665.19
734.635	6706.55
734.976	6660.45
735.317	6661.35
735.658	6654.12
735.999	6663.38
736.339	6677.4
736.68	6647.11
737.021	6634.68
737.361	6605.31
737.702	6639.2
738.042	6614.8
738.383	6608.24
738.723	6657.28
739.063	6635.59
739.404	6626.32
739.744	6655.02
740.084	6620.45
740.424	6668.36
740.764	6649.37
741.104	6639.43
741.444	6590.62
741.784	6621.13
742.124	6652.76
742.464	6599.88
742.804	6612.31
743.143	6596.27
743.483	6638.07
743.823	6578.41
744.162	6608.24
744.502	6605.53
744.841	6624.97
745.181	6635.81
745.52	6613.89
745.86	6628.58
746.199	6613.44
746.538	6612.54
746.877	6635.59
747.216	6561.01
747.556	6601.46
747.895	6564.18
748.234	6613.67
748.573	6584.97
748.911	6607.57
749.25	6577.06
749.589	6523.73
749.928	6596.49
750.267	6577.96
750.605	6583.16
750.944	6571.64
751.283	6532.99
751.621	6539.09
751.96	6532.99
752.298	6555.59
752.636	6526.66
752.975	6502.94
753.313	6469.72
753.651	6534.12
753.989	6551.97
754.327	6473.11
754.666	6466.55
755.004	6448.7
755.342	6463.39
755.679	6420.68
756.017	6401.7
756.355	6435.37
756.693	6428.59
757.031	6440.11
757.368	6406.22
757.706	6378.42
758.044	6352.88
758.381	6364.86
758.719	6383.62
759.056	6355.6
759.394	6384.97
759.731	6331.87
760.068	6343.84
760.405	6228.14
760.743	6298.87
761.08	6260.68
761.417	6228.14
761.754	6225.88
762.091	6250.74
762.428	6173.91
762.765	6182.04
763.102	6195.6
763.438	6205.77
763.775	6122.16
764.112	6176.62
764.449	6097.3
764.785	6181.14
765.122	6103.62
765.458	6101.82
765.795	6031.54
766.131	6066.34
766.467	6010.07
766.804	6022.05
767.14	6002.16
767.476	5979.79
767.812	5916.06
768.148	5999.22
768.485	5956.28
768.821	5929.17
769.157	5927.58
769.492	5881.26
769.828	5864.08
770.164	5869.96
770.5	5790.86
770.836	5775.72
771.171	5811.43
771.507	5765.1
771.842	5762.39
772.178	5711.09
772.513	5728.27
772.849	5676.97
773.184	5673.81
773.519	5651.43
773.855	5649.85
774.19	5640.36
774.525	5614.6
774.86	5662.51
775.195	5579.57
775.53	5562.85
775.865	5530.98
776.2	5531.44
776.535	5484.21
776.87	5468.16
777.205	5484.43
777.539	5419.58
777.874	5417.99
778.209	5349.07
778.543	5359.46
778.878	5333.02
779.212	5350.42
779.547	5308.17
779.881	5325.11
780.215	5272.91
780.55	5292.12
780.884	5280.14
781.218	5301.39
781.552	5250.77
781.886	5175.51
782.22	5199.69
782.554	5206.25
782.888	5121.28
783.222	5139.13
783.556	5143.88
783.889	5072.24
784.223	5051.9
784.557	5051.45
784.89	5083.54
785.224	5058.23
785.557	5057.55
785.891	5036.08
786.224	5047.83
786.558	4987.27
786.891	5016.87
787.224	4982.07
787.557	4958.12
787.891	4933.26
788.224	4908.4
788.557	4951.11
788.89	4913.83
789.223	4909.76
789.556	4850.32
789.888	4861.4
790.221	4768.52
790.554	4782.53
790.887	4794.28
791.219	4783.21
791.552	4731.91
791.884	4718.58
792.217	4724.68
792.549	4681.29
792.882	4699.59
793.214	4674.96
793.546	4690.33
793.879	4641.74
794.211	4596.55
794.543	4636.77
794.875	4626.83
795.207	4639.26
795.539	4624.79
795.871	4656.66
796.203	4599.94
796.535	4566.49
796.867	4553.84
797.198	4534.4
797.53	4558.13
797.862	4496.44
798.193	4515.64
798.525	4517
798.856	4481.07
799.188	4405.82
799.519	4360.62
799.85	4364.46
800.182	4414.63
800.513	4440.39
800.844	4323.78
801.175	4382.99
801.506	4343.9
801.837	4365.14
802.168	4359.04
802.499	4340.28
802.83	4330.79
803.161	4259.15
803.491	4302.09
803.822	4332.82
804.153	4305.03
804.483	4238.82
804.814	4213.28
805.145	4218.93
805.475	4249.44
805.805	4190
806.136	4193.17
806.466	4178.25
806.796	4191.36
807.126	4147.07
807.457	4178.48
807.787	4140.51
808.117	4125.37
808.447	4144.35
808.777	4160.4
809.107	4135.54
809.436	4114.07
809.766	4099.16
810.096	4056.67
810.426	4061.64
810.755	4106.62
811.085	4071.36
811.414	4049.67
811.744	4003.34
812.073	4047.86
812.403	3974.64
812.732	4004.02
813.061	3992.27
813.39	3968.09
813.719	3970.12
814.049	3992.95
814.378	3969.9
814.707	3944.81
815.036	3935.77
815.365	3891.71
815.693	3902.78
816.022	3882.67
816.351	3905.49
816.68	3879.5
817.008	3887.41
817.337	3863.01
817.665	3853.29
817.994	3844.02
818.322	3859.39
818.651	3864.81
818.979	3825.49
819.307	3828.43
819.636	3815.78
819.964	3798.83
820.292	3787.75
820.62	3784.36
820.948	3793.18
821.276	3796.57
821.604	3804.02
821.932	3839.28
822.259	3844.02
822.587	3782.78
822.915	3789.11
823.243	3801.54
823.57	3767.19
823.898	3809.67
824.225	3788.88
824.553	3799.5
824.88	3817.58
825.207	3794.08
825.535	3780.52
825.862	3788.43
826.189	3767.42
826.516	3787.53
826.843	3786.17
827.17	3800.41
827.497	3790.01
827.824	3824.14
828.151	3779.84
828.478	3810.58
828.805	3768.54
829.131	3790.47
829.458	3767.42
829.785	3790.01
830.111	3764.7
830.438	3832.5
830.764	3810.58
831.09	3797.47
831.417	3777.81
831.743	3773.52
832.069	3764.93
832.395	3778.04
832.722	3806.74
833.048	3782.1
833.374	3780.52
833.7	3803.35
834.026	3772.84
834.351	3742.56
834.677	3770.8
835.003	3752.5
835.329	3734.2
835.654	3738.72
835.98	3785.49
836.306	3769.9
836.631	3740.98
836.956	3712.5
837.282	3729.45
837.607	3712.73
837.932	3658.72
838.258	3753.63
838.583	3688.77
838.908	3696
839.233	3712.73
839.558	3677.7
839.883	3681.77
840.208	3630.92
840.533	3668.21
840.858	3655.1
841.182	3658.72
841.507	3657.14
841.832	3653.07
842.156	3630.02
842.481	3662.79
842.805	3621.88
843.13	3622.79
843.454	3612.39
843.778	3577.14
844.103	3567.87
844.427	3602.22
844.751	3609.45
845.075	3544.14
845.399	3550.7
845.723	3565.39
846.047	3527.2
846.371	3516.35
846.695	3519.96
847.019	3490.59
847.343	3438.84
847.666	3453.75
847.99	3439.74
848.313	3473.86
848.637	3494.2
848.96	3482
849.284	3444.94
849.607	3410.14
849.931	3413.07
850.254	3356.13
850.577	3355.45
850.9	3367.88
851.223	3325.62
851.546	3357.71
851.869	3317.48
852.192	3324.26
852.515	3273.42
852.838	3280.87
853.161	3315.68
853.483	3281.55
853.806	3234.32
854.129	3247.2
854.451	3224.83
854.774	3221.21
855.096	3205.85
855.419	3224.38
855.741	3246.07
856.063	3195.45
856.385	3188.45
856.708	3176.24
857.03	3170.14
857.352	3169.24
857.674	3152.74
857.996	3136.92
858.318	3127.21
858.64	3120.2
858.961	3060.32
859.283	3040.65
859.605	3122.69
859.926	3070.03
860.248	3067.77
860.57	3070.94
860.891	3068.22
861.212	3049.92
861.534	3082.01
861.855	3065.51
862.176	3070.26
862.498	3034.33
862.819	3053.31
863.14	3038.39
863.461	3053.99
863.782	3016.02
864.103	3040.2
864.424	3003.82
864.745	3018.06
865.065	3021.9
865.386	3018.06
865.707	3009.47
866.027	3034.1
866.348	2962.24
866.668	3007.89
866.989	2963.14
867.309	2960.66
867.63	2979.87
867.95	2959.75
868.27	2953.65
868.59	2933.31
868.91	2966.53
869.23	2936.25
869.55	2881.34
869.87	2951.62
870.19	2920.21
870.51	2907.55
870.83	2958.17
871.15	2891.96
871.469	2904.16
871.789	2907.1
872.109	2906.65
872.428	2898.96
872.748	2901.9
873.067	2892.86
873.386	2899.87
873.706	2896.7
874.025	2868
874.344	2863.71
874.663	2875.24
874.982	2856.03
875.301	2903.48
875.62	2853.99
875.939	2859.87
876.258	2893.54
876.577	2863.94
876.896	2851.28
877.214	2832.07
877.533	2835.46
877.852	2828
878.17	2857.38
878.489	2843.82
878.807	2799.3
879.125	2803.6
879.444	2827.1
879.762	2812.64
880.08	2827.1
880.398	2814.22
880.716	2827.55
881.034	2755.46
881.352	2763.6
881.67	2771.06
881.988	2738.52
882.306	2776.25
882.624	2750.94
882.941	2781.9
883.259	2750.49
883.577	2743.26
883.894	2751.4
884.212	2751.4
884.529	2731.06
884.846	2719.98
885.164	2731.06
885.481	2715.47
885.798	2703.26
886.115	2693.09
886.432	2671.85
886.75	2716.37
887.067	2723.83
887.383	2708.23
887.7	2687.67
888.017	2668.01
888.334	2754.56
888.651	2648.8
888.967	2677.5
889.284	2672.3
889.6	2652.19
889.917	2652.42
890.233	2646.54
890.55	2643.38
890.866	2620.1
891.182	2609.03
891.498	2592.3
891.815	2572.64
892.131	2570.61
892.447	2595.24
892.763	2601.34
893.079	2592.3
893.395	2541.46
893.71	2568.35
894.026	2545.3
894.342	2528.35
894.657	2542.81
894.973	2544.62
895.289	2550.95
895.604	2532.65
895.92	2519.99
896.235	2488.35
896.55	2485.41
896.865	2507.11
897.181	2514.57
897.496	2484.06
897.811	2467.79
898.126	2441.8
898.441	2468.92
898.756	2469.37
899.071	2439.54
899.386	2437.51
899.7	2417.17
900.015	2401.12
900.33	2401.58
900.644	2411.07
900.959	2417.85
901.273	2367.68
901.588	2375.59
901.902	2350.28
902.216	2352.31
902.531	2389.6
902.845	2361.58
903.159	2323.61
903.473	2374.68
903.787	2302.82
904.101	2303.95
904.415	2307.11
904.729	2261.92
905.042	2324.29
905.356	2283.39
905.67	2284.29
905.984	2302.59
906.297	2262.14
906.611	2268.47
906.924	2262.82
907.237	2235.03
907.551	2256.27
907.864	2258.75
908.177	2199.09
908.491	2235.03
908.804	2188.02
909.117	2198.19
909.43	2188.7
909.743	2194.58
910.056	2201.58
910.368	2177.4
910.681	2166.55
910.994	2136.05
911.307	2152.32
911.619	2128.36
911.932	2142.15
912.244	2131.98
912.557	2113.9
912.869	2106.89
913.181	2100.57
913.494	2080.68
913.806	2097.4
914.118	2096.05
914.43	2052.21
914.742	2092.88
915.054	2038.42
915.366	2025.99
915.678	2056.95
915.99	2035.48
916.302	2016.27
916.613	2031.19
916.925	2016.73
917.236	1960.91
917.548	1977.18
917.859	1998.42
918.171	2007.69
918.482	1991.87
918.794	1947.12
919.105	1962.26
919.416	1945.09
919.727	1959.1
920.038	1932.21
920.349	1952.55
920.66	1940.57
920.971	1946.9
921.282	1918.42
921.593	1900.8
921.903	1924.53
922.214	1915.26
922.525	1878.43
922.835	1889.27
923.146	1882.49
923.456	1884.98
923.767	1858.09
924.077	1888.37
924.387	1872.1
924.697	1872.55
925.008	1870.29
925.318	1841.36
925.628	1847.69
925.938	1817.86
926.248	1821.93
926.558	1801.14
926.867	1808.37
927.177	1818.77
927.487	1792.78
927.796	1758.2
928.106	1760.91
928.416	1776.51
928.725	1755.49
929.034	1740.8
929.344	1752.33
929.653	1739.45
929.962	1749.16
930.271	1739.22
930.581	1728.6
930.89	1730.41
931.199	1714.36
931.508	1703.29
931.817	1691.54
932.125	1727.24
932.434	1704.19
932.743	1661.71
933.051	1694.25
933.36	1669.84
933.669	1668.04
933.977	1643.18
934.286	1663.29
934.594	1674.81
934.902	1627.36
935.21	1640.01
935.519	1659.45
935.827	1655.15
936.135	1600.47
936.443	1587.36
936.751	1607.25
937.059	1574.93
937.367	1583.07
937.674	1590.98
937.982	1558.66
938.29	1593.46
938.597	1603.4
938.905	1556.17
939.213	1571.77
939.52	1583.07
939.827	1565.89
940.135	1538.32
940.442	1555.5
940.749	1554.59
941.056	1531.32
941.363	1534.25
941.67	1514.37
941.977	1509.62
942.284	1529.73
942.591	1524.99
942.898	1518.21
943.205	1521.37
943.511	1472.79
943.818	1496.06
944.125	1468.94
944.431	1463.75
944.738	1491.32
945.044	1440.7
945.35	1463.97
945.657	1456.29
945.963	1452.45
946.269	1461.94
946.575	1451.77
946.881	1440.24
947.187	1427.59
947.493	1442.05
947.799	1421.49
948.105	1420.36
948.41	1395.05
948.716	1416.74
949.022	1412.67
949.327	1391.21
949.633	1383.3
949.938	1370.42
950.244	1397.53
950.549	1379.68
950.854	1360.25
951.16	1375.61
951.465	1381.72
951.77	1358.66
952.075	1352.79
952.38	1349.17
952.685	1342.62
952.99	1355.5
953.294	1376.52
953.599	1339.46
953.904	1324.99
954.209	1332
954.513	1336.52
954.818	1320.47
955.122	1306.91
955.426	1293.13
955.731	1313.24
956.035	1293.58
956.339	1302.4
956.643	1309.4
956.948	1281.15
957.252	1273.92
957.556	1284.09
957.86	1268.72
958.163	1266.92
958.467	1246.58
958.771	1258.33
959.075	1259.01
959.378	1242.96
959.682	1253.13
959.985	1234.37
960.289	1254.03
960.592	1231.66
960.896	1229.85
961.199	1199.12
961.502	1228.72
961.805	1246.13
962.108	1195.73
962.411	1192.57
962.714	1219.01
963.017	1197.31
963.32	1179.69
963.623	1190.99
963.926	1197.99
964.228	1190.76
964.531	1169.74
964.833	1155.28
965.136	1167.26
965.438	1189.4
965.741	1167.48
966.043	1141.95
966.345	1147.6
966.648	1155.28
966.95	1175.62
967.252	1152.12
967.554	1149.18
967.856	1142.17
968.158	1124.55
968.46	1143.3
968.761	1132.68
969.063	1142.4
969.365	1103.53
969.666	1120.03
969.968	1107.82
970.269	1094.94
970.571	1114.15
970.872	1090.2
971.174	1110.76
971.475	1108.28
971.776	1102.17
972.077	1076.19
972.378	1083.64
972.679	1050.2
972.98	1092.91
973.281	1080.48
973.582	1050.42
973.883	1051.55
974.183	1057.66
974.484	1073.25
974.785	1039.35
975.085	1033.48
975.386	1023.53
975.686	1061.27
975.986	1052.91
976.287	1073.7
976.587	1047.71
976.887	1056.07
977.187	1042.97
977.487	1044.32
977.787	1036.19
978.087	1002.29
978.387	1012.01
978.687	1016.53
978.987	978.56
979.286	998.67
979.586	1021.27
979.885	987.38
980.185	1023.31
980.484	995.74
980.784	975.4
981.083	986.25
981.382	979.69
981.682	978.56
981.981	987.38
982.28	959.13
982.579	953.48
982.878	948.96
983.177	966.13
983.475	941.27
983.774	950.77
984.073	947.83
984.372	985.12
984.67	923.65
984.969	948.73
985.267	927.94
985.566	937.43
985.864	915.29
986.162	923.87
986.461	929.75
986.759	929.75
987.057	913.48
987.355	894.5
987.653	920.03
987.951	921.61
988.249	914.16
988.547	899.47
988.844	915.29
989.142	889.52
989.44	892.01
989.737	873.71
990.035	901.05
990.332	905.12
990.63	869.19
990.927	885.68
991.224	861.28
991.521	877.55
991.819	881.84
992.116	865.57
992.413	877.1
992.71	849.53
993.006	872.58
993.303	851.33
993.6	850.43
993.897	838.68
994.193	849.75
994.49	836.87
994.787	838.9
995.083	863.31
995.379	834.16
995.676	824.44
995.972	854.72
996.268	834.61
996.565	842.52
996.861	817.89
997.157	820.15
997.453	807.49
997.749	821.5
998.044	793.71
998.34	788.28
998.636	785.12
998.932	804.33
999.227	766.59
999.523	828.51
999.818	779.02
1000.114	787.61
1000.409	779.47
1000.704	790.09
1001	783.09
1001.295	775.63
1001.59	793.03
1001.885	793.48
1002.18	763.65
1002.475	770.88
1002.77	789.41
1003.065	778.12
1003.359	755.29
1003.654	738.34
1003.949	767.95
1004.243	748.29
1004.538	765.69
1004.832	753.03
1005.127	762.52
1005.421	734.95
1005.715	738.34
1006.009	759.13
1006.304	717.55
1006.598	734.5
1006.892	732.24
1007.186	724.56
1007.48	726.59
1007.773	724.56
1008.067	710.55
1008.361	698.57
1008.655	728.62
1008.948	710.32
1009.242	710.32
1009.535	711.22
1009.829	693.82
1010.122	691.79
1010.415	686.14
1010.708	673.49
1011.001	688.85
1011.295	687.72
1011.588	683.88
1011.881	694.95
1012.173	687.04
1012.466	678.46
1012.759	681.62
1013.052	670.77
1013.344	680.26
1013.637	672.13
1013.93	651.79
1014.222	642.53
1014.514	647.05
1014.807	656.99
1015.099	656.99
1015.391	671.23
1015.683	665.12
1015.976	648.18
1016.268	669.42
1016.56	666.03
1016.851	630.55
1017.143	663.77
1017.435	632.81
1017.727	638.23
1018.018	635.75
1018.31	631
1018.602	635.07
1018.893	623.54
1019.185	619.7
1019.476	640.72
1019.767	618.57
1020.058	612.24
1020.35	599.14
1020.641	612.47
1020.932	609.76
1021.223	602.98
1021.514	609.98
1021.804	618.35
1022.095	616.76
1022.386	582.64
1022.677	594.62
1022.967	572.02
1023.258	593.26
1023.548	571.34
1023.839	591.23
1024.129	591
1024.419	577.89
1024.709	582.41
1025	568.4
1025.29	558.91
1025.58	568.4
1025.87	594.39
1026.16	558.01
1026.449	550.55
1026.739	564.34
1027.029	551
1027.319	561.85
1027.608	566.37
1027.898	536.09
1028.187	562.53
1028.477	550.55
1028.766	545.58
1029.055	553.71
1029.344	532.7
1029.634	566.37
1029.923	546.03
1030.212	538.35
1030.501	548.52
1030.79	530.21
1031.078	519.36
1031.367	522.75
1031.656	528.63
1031.945	515.52
1032.233	526.14
1032.522	517.78
1032.81	496.77
1033.099	520.72
1033.387	521.17
1033.675	511.46
1033.963	517.11
1034.251	511
1034.54	519.82
1034.828	495.18
1035.116	488.86
1035.403	502.19
1035.691	489.99
1035.979	501.96
1036.267	503.32
1036.554	489.99
1036.842	497.67
1037.129	501.51
1037.417	488.86
1037.704	484.79
1037.992	501.74
1038.279	495.41
1038.566	482.76
1038.853	482.76
1039.14	482.76
