Data from mousepad_grey_FLMS001491_00014.txt Node
Date: Wed Feb 08 14:29:03 GMT 2017
User: dcchb
Spectrometer: FLMS00149
Trigger mode: 0
Integration Time (sec): 2.000000E-2
Scans to average: 10
Electric dark correction enabled: true
Nonlinearity correction enabled: false
Boxcar width: 0
XAxis mode: Wavelengths
Number of Pixels in Spectrum: 2048
>>>>>Begin Spectral Data<<<<<
341.393	-29.26
341.776	-29.26
342.16	-29.26
342.543	-70.39
342.927	-66.1
343.31	-66.1
343.693	-89.15
344.077	-74.01
344.46	-62.71
344.843	-48.25
345.226	-33.33
345.61	-29.94
345.993	-21.13
346.376	-12.99
346.759	17.97
347.142	35.82
347.525	62.26
347.908	68.36
348.291	66.55
348.674	71.75
349.057	114.91
349.44	125.08
349.823	145.87
350.206	167.11
350.588	184.51
350.971	196.04
351.354	212.31
351.737	231.52
352.119	234.23
352.502	249.15
352.884	240.11
353.267	260.9
353.65	273.78
354.032	297.05
354.414	287.79
354.797	294.12
355.179	318.07
355.562	285.98
355.944	289.82
356.326	322.36
356.709	329.37
357.091	305.42
357.473	321.69
357.855	301.57
358.238	346.54
358.62	321.01
359.002	345.41
359.384	334.79
359.766	327.56
360.148	320.78
360.53	319.2
360.912	313.33
361.294	326.66
361.676	307.68
362.057	314.23
362.439	317.62
362.821	311.52
363.203	314
363.584	297.96
363.966	302.7
364.348	288.47
364.729	301.12
365.111	309.48
365.493	310.61
365.874	295.25
366.256	287.56
366.637	302.25
367.019	311.52
367.4	307.22
367.781	311.74
368.163	331.86
368.544	294.79
368.925	286.21
369.306	288.47
369.688	284.17
370.069	302.03
370.45	305.87
370.831	297.28
371.212	306.55
371.593	293.44
371.974	297.96
372.355	305.19
372.736	302.93
373.117	292.76
373.498	303.16
373.879	318.52
374.26	314
374.641	311.07
375.021	308.35
375.402	329.37
375.783	301.57
376.163	294.57
376.544	312.2
376.925	289.37
377.305	292.53
377.686	314.91
378.066	320.1
378.447	309.03
378.827	316.04
379.208	309.94
379.588	316.26
379.968	322.36
380.349	308.35
380.729	311.74
381.109	320.33
381.489	331.4
381.87	316.94
382.25	348.13
382.63	346.09
383.01	339.54
383.39	331.4
383.77	311.29
384.15	323.95
384.53	339.54
384.91	309.48
385.29	326.21
385.67	334.12
386.049	320.33
386.429	348.35
386.809	317.84
387.189	339.54
387.568	327.79
387.948	342.02
388.328	328.47
388.707	354
389.087	320.78
389.466	335.47
389.846	342.02
390.225	362.59
390.605	347.22
390.984	360.33
391.363	350.16
391.743	341.57
392.122	378.18
392.501	353.55
392.881	360.1
393.26	366.88
393.639	348.8
394.018	351.06
394.397	359.65
394.776	346.54
395.155	379.99
395.534	361.23
395.913	358.97
396.292	386.54
396.671	383.38
397.05	369.59
397.429	383.15
397.808	377.96
398.186	372.98
398.565	378.41
398.944	375.92
399.323	362.59
399.701	398.29
400.08	382.02
400.458	394.68
400.837	380.22
401.215	398.52
401.594	393.1
401.972	401.46
402.351	396.71
402.729	391.29
403.107	368.69
403.486	405.3
403.864	399.2
404.242	415.02
404.62	405.98
404.999	417.96
405.377	406.43
405.755	394.68
406.133	406.2
406.511	425.41
406.889	406.88
407.267	449.37
407.645	430.61
408.023	434.23
408.401	423.15
408.779	453.66
409.156	431.51
409.534	428.12
409.912	448.01
410.29	436.03
410.667	468.58
411.045	478.07
411.422	452.98
411.8	469.03
412.178	446.65
412.555	460.67
412.933	477.84
413.31	487.33
413.687	468.12
414.065	498.86
414.442	468.58
414.819	499.76
415.197	491.63
415.574	479.65
415.951	512.64
416.328	513.55
416.705	492.08
417.082	489.37
417.46	506.54
417.837	509.25
418.214	537.95
418.591	520.55
418.967	518.07
419.344	509.03
419.721	550.16
420.098	541.79
420.475	516.26
420.852	539.53
421.228	542.92
421.605	543.15
421.982	548.35
422.358	546.99
422.735	552.87
423.111	569.82
423.488	563.04
423.864	566.43
424.241	569.59
424.617	589.93
424.994	568.69
425.37	557.84
425.746	558.29
426.123	583.37
426.499	583.6
426.875	568.01
427.251	612.98
427.627	594.22
428.003	603.94
428.379	613.88
428.756	623.6
429.132	616.14
429.507	607.1
429.883	646.88
430.259	630.6
430.635	633.54
431.011	633.32
431.387	641.45
431.763	668.12
432.138	662.47
432.514	678.97
432.89	667.67
433.265	690.49
433.641	666.54
434.016	699.08
434.392	727.33
434.767	721.68
435.143	702.92
435.518	718.29
435.894	692.52
436.269	719.19
436.644	732.52
437.02	742.01
437.395	743.82
437.77	748.79
438.145	778.85
438.52	790.37
438.895	746.76
439.271	754.67
439.646	789.47
440.021	782.92
440.395	782.47
440.77	786.31
441.145	785.86
441.52	795.8
441.895	829.92
442.27	807.78
442.645	833.54
443.019	839.64
443.394	818.62
443.769	838.28
444.143	808.23
444.518	830.15
444.892	852.07
445.267	865.63
445.641	859.3
446.016	848.23
446.39	842.58
446.764	865.85
447.139	882.8
447.513	888.23
447.887	874.89
448.262	895.23
448.636	875.57
449.01	893.42
449.384	893.2
449.758	924.38
450.132	919.86
450.506	903.14
450.88	899.98
451.254	918.96
451.628	915.57
452.002	966.87
452.376	948.34
452.75	940.2
453.123	956.92
453.497	986.08
453.871	978.62
454.244	988.11
454.618	1000.99
454.992	1002.12
455.365	1007.09
455.739	1017.26
456.112	1038.96
456.486	1046.41
456.859	1061.1
457.232	1072.4
457.606	1075.79
457.979	1077.37
458.352	1087.99
458.725	1107.2
459.099	1098.62
459.472	1130.7
459.845	1148.11
460.218	1161.89
460.591	1173.19
460.964	1179.74
461.337	1199.86
461.71	1205.96
462.083	1200.76
462.456	1231.49
462.829	1216.58
463.201	1248.22
463.574	1235.11
463.947	1256.8
464.32	1280.53
464.692	1311.94
465.065	1294.32
465.438	1303.36
465.81	1320.08
466.183	1312.39
466.555	1339.29
466.928	1383.58
467.3	1382.45
467.672	1412.96
468.045	1417.02
468.417	1414.54
468.789	1433.52
469.161	1427.65
469.534	1479.17
469.906	1471.71
470.278	1508.32
470.65	1499.96
471.022	1489.79
471.394	1551.03
471.766	1570.02
472.138	1571.37
472.51	1584.7
472.882	1625.16
473.253	1614.76
473.625	1662.89
473.997	1714.64
474.369	1695.66
474.74	1727.98
475.112	1736.56
475.484	1774.3
475.855	1805.04
476.227	1827.64
476.598	1864.7
476.97	1873.96
477.341	1886.62
477.713	1963.68
478.084	1938.14
478.455	1989.21
478.827	2031.47
479.198	2069.44
479.569	2040.74
479.94	2112.83
480.311	2104.92
480.682	2174.52
481.053	2218.59
481.424	2223.56
481.795	2242.54
482.166	2267.85
482.537	2289.54
482.908	2343.78
483.279	2355.76
483.65	2428.3
484.021	2444.34
484.391	2497.67
484.762	2470.78
485.133	2506.71
485.503	2534.74
485.874	2578.35
486.244	2572.93
486.615	2663.77
486.985	2690.44
487.356	2738.12
487.726	2765.46
488.097	2811.56
488.467	2781.96
488.837	2863.99
489.207	2871.68
489.578	2926.59
489.948	2951.45
490.318	2983.76
490.688	2992.8
491.058	3061.5
491.428	3065.8
491.798	3159.13
492.168	3118.22
492.538	3181.27
492.908	3184.89
493.278	3234.6
493.648	3230.99
494.017	3282.51
494.387	3274.15
494.757	3350.99
495.126	3394.6
495.496	3418.33
495.866	3441.6
496.235	3451.1
496.605	3476.86
496.974	3505.78
497.344	3551.88
497.713	3544.2
498.082	3579.68
498.452	3550.08
498.821	3578.32
499.19	3623.97
499.559	3629.85
499.928	3669.4
500.298	3713.46
500.667	3739.22
501.036	3754.36
501.405	3763.18
501.774	3761.6
502.143	3783.29
502.512	3839.56
502.88	3877.98
503.249	3916.62
503.618	3894.47
503.987	3924.08
504.356	3960.91
504.724	3950.29
505.093	3960.01
505.462	3974.92
505.83	4058.54
506.199	4060.12
506.567	4124.98
506.936	4140.12
507.304	4185.99
507.672	4145.54
508.041	4231.41
508.409	4265.54
508.777	4248.81
509.145	4269.61
509.514	4316.61
509.882	4313.22
510.25	4357.29
510.618	4385.76
510.986	4407.68
511.354	4450.39
511.722	4462.82
512.09	4529.49
512.458	4548.02
512.826	4590.27
513.193	4543.72
513.561	4573.78
513.929	4626.88
514.297	4690.61
514.664	4704.4
515.032	4708.69
515.4	4750.27
515.767	4794.56
516.135	4794.34
516.502	4780.33
516.869	4858.74
517.237	4890.38
517.604	4863.04
517.972	4953.2
518.339	4950.27
518.706	4988.68
519.073	5013.99
519.44	5079.98
519.808	5067.55
520.175	5091.5
520.542	5164.05
520.909	5211.95
521.276	5184.61
521.643	5216.02
522.009	5282.46
522.376	5302.35
522.743	5338.5
523.11	5353.87
523.477	5443.36
523.843	5473.42
524.21	5518.61
524.577	5540.76
524.943	5584.82
525.31	5635.67
525.676	5659.4
526.043	5646.29
526.409	5684.48
526.776	5806.74
527.142	5750.47
527.508	5804.93
527.874	5889.22
528.241	5925.83
528.607	5913.86
528.973	5948.88
529.339	5976.68
529.705	5933.29
530.071	6023.23
530.437	6182.55
530.803	6119.5
531.169	6160.63
531.535	6203.11
531.901	6223.23
532.267	6263.45
532.632	6285.6
532.998	6314.98
533.364	6390.68
533.73	6387.74
534.095	6392.04
534.461	6415.99
534.826	6482.88
535.192	6512.48
535.557	6574.86
535.923	6560.39
536.288	6626.61
536.653	6652.82
537.019	6623.89
537.384	6663.89
537.749	6684.01
538.114	6691.91
538.479	6759.71
538.845	6776.21
539.21	6749.99
539.575	6858.24
539.94	6860.95
540.305	6879.93
540.67	6916.99
541.034	6939.37
541.399	6973.04
541.764	7085.8
542.129	7053.94
542.494	7032.02
542.858	7046.71
543.223	7119.93
543.587	7149.76
543.952	7125.8
544.316	7218
544.681	7154.28
545.045	7233.82
545.41	7269.53
545.774	7330.32
546.138	7307.49
546.503	7317.21
546.867	7349.3
547.231	7435.85
547.595	7434.72
547.959	7474.27
548.324	7502.74
548.688	7472.23
549.052	7529.86
549.416	7493.02
549.779	7640.59
550.143	7631.1
550.507	7659.12
550.871	7673.13
551.235	7726.24
551.599	7761.72
551.962	7773.69
552.326	7799
552.689	7865.89
553.053	7813.92
553.417	7864.99
553.78	7959.68
554.143	7914.71
554.507	7976.85
554.87	7956.29
555.234	8067.02
555.597	8020.02
555.96	8103.4
556.323	8154.7
556.686	8097.75
557.05	8199.9
557.413	8212.78
557.776	8241.25
558.139	8286.67
558.502	8362.83
558.865	8309.27
559.228	8349.72
559.59	8469.72
559.953	8425.2
560.316	8544.75
560.679	8488.03
561.041	8593.56
561.404	8664.52
561.767	8675.59
562.129	8651.41
562.492	8738.87
562.854	8719.43
563.217	8747.68
563.579	8823.38
563.941	8820.22
564.304	8805.98
564.666	8890.95
565.028	8960.78
565.39	8987
565.753	9022.7
566.115	9103.38
566.477	9077.61
566.839	9196.26
567.201	9234.67
567.563	9207.1
567.925	9259.53
568.287	9255.46
568.648	9318.29
569.01	9275.35
569.372	9377.72
569.734	9388.11
570.095	9435.57
570.457	9500.43
570.819	9472.63
571.18	9523.25
571.542	9567.55
571.903	9586.08
572.265	9626.3
572.626	9603.02
572.987	9659.75
573.349	9708.33
573.71	9719.18
574.071	9729.57
574.432	9834.43
574.794	9884.82
575.155	9851.15
575.516	9871.49
575.877	9860.87
576.238	9962.11
576.599	9887.54
576.96	9991.94
577.32	9916.24
577.681	10004.37
578.042	9981.77
578.403	9995.78
578.763	10033.07
579.124	10051.15
579.485	10120.98
579.845	10109.9
580.206	10128.89
580.566	10054.54
580.927	10144.25
581.287	10141.77
581.648	10114.42
582.008	10198.26
582.368	10179.51
582.728	10219.05
583.089	10193.52
583.449	10177.25
583.809	10231.48
584.169	10238.49
584.529	10281.42
584.889	10330.01
585.249	10300.86
585.609	10199.62
585.969	10337.02
586.329	10283.46
586.688	10291.37
587.048	10202.33
587.408	10248.66
587.768	10330.01
588.127	10283.91
588.487	10221.09
588.846	10391.93
589.206	10253.4
589.565	10320.75
589.925	10318.94
590.284	10322.55
590.643	10380.41
591.003	10343.34
591.362	10459.27
591.721	10341.08
592.08	10330.69
592.44	10408.43
592.799	10394.19
593.158	10355.32
593.517	10314.64
593.876	10409.33
594.235	10352.84
594.593	10379.73
594.952	10403.23
595.311	10405.94
595.67	10403.91
596.029	10392.16
596.387	10454.75
596.746	10399.61
597.104	10431.93
597.463	10406.62
597.822	10462.21
598.18	10424.47
598.538	10443
598.897	10491.36
599.255	10481.19
599.613	10579.04
599.972	10493.17
600.33	10446.84
600.688	10445.49
601.046	10474.41
601.404	10488.88
601.762	10541.76
602.12	10502.89
602.478	10591.25
602.836	10548.54
603.194	10505.15
603.552	10495.66
603.91	10560.29
604.268	10549.21
604.625	10516.9
604.983	10571.36
605.341	10440.52
605.698	10580.63
606.056	10602.32
606.413	10537.69
606.771	10563
607.128	10635.31
607.485	10589.44
607.843	10606.61
608.2	10676.22
608.557	10694.97
608.914	10615.88
609.272	10739.49
609.629	10751.24
609.986	10742.2
610.343	10782.2
610.7	10758.93
611.057	10753.5
611.414	10797.57
611.771	10807.29
612.127	10858.13
612.484	10831.24
612.841	10836.44
613.198	10835.08
613.554	10849.32
613.911	10876.21
614.267	10905.81
614.624	10915.76
614.98	10876.44
615.337	10959.37
615.693	10879.37
616.05	10913.72
616.406	10927.28
616.762	10853.61
617.118	10892.71
617.475	10934.97
617.831	10925.02
618.187	10986.49
618.543	11029.2
618.899	11082.99
619.255	11046.38
619.611	10976.77
619.967	11066.04
620.323	11049.77
620.678	11014.06
621.034	11025.13
621.39	11048.18
621.746	11026.49
622.101	11082.76
622.457	11020.16
622.812	11022.65
623.168	11118.46
623.523	11127.5
623.879	11043.44
624.234	11054.06
624.589	11080.27
624.945	11110.78
625.3	11066.26
625.655	11059.48
626.01	11099.03
626.365	11109.43
626.72	11024.46
627.075	11135.19
627.43	11125.92
627.785	11030.78
628.14	11023.55
628.495	11097.22
628.85	11115.3
629.205	11034.4
629.559	11059.26
629.914	11066.04
630.269	11041.86
630.623	11060.61
630.978	11028.3
631.332	11054.29
631.687	11074.85
632.041	10955.31
632.396	11057.45
632.75	10984
633.104	11027.39
633.459	11016.09
633.813	10968.64
634.167	11013.61
634.521	10957.11
634.875	10972.25
635.229	10945.36
635.583	10913.05
635.937	10959.6
636.291	10941.29
636.645	10890.45
636.999	10878.7
637.352	11008.86
637.706	10889.54
638.06	10920.5
638.413	10858.36
638.767	10879.83
639.121	10868.53
639.474	10915.98
639.828	10870.34
640.181	10868.75
640.534	10871.47
640.888	10848.19
641.241	10740.17
641.594	10832.6
641.947	10806.61
642.301	10732.03
642.654	10786.04
643.007	10772.49
643.36	10779.04
643.713	10697.91
644.066	10843.9
644.419	10732.71
644.771	10685.26
645.124	10669.66
645.477	10549.21
645.83	10492.49
646.182	10552.38
646.535	10450.91
646.888	10474.19
647.24	10435.54
647.593	10510.35
647.945	10487.52
648.298	10409.78
648.65	10348.99
649.002	10411.14
649.355	10405.49
649.707	10419.5
650.059	10466.5
650.411	10567.74
650.763	10609.1
651.115	10724.12
651.467	10681.64
651.819	10688.87
652.171	10690.91
652.523	10617.91
652.875	10641.19
653.227	10600.74
653.578	10755.08
653.93	10715.31
654.282	10613.17
654.633	10664.69
654.985	10560.74
655.337	10644.8
655.688	10627.18
656.039	10677.12
656.391	10587.63
656.742	10633.73
657.094	10621.3
657.445	10701.53
657.796	10564.81
658.147	10591.25
658.498	10568.87
658.849	10651.36
659.2	10584.92
659.551	10665.14
659.902	10691.36
660.253	10632.83
660.604	10625.82
660.955	10576.56
661.306	10643
661.656	10599.38
662.007	10645.26
662.358	10642.32
662.708	10656.33
663.059	10593.05
663.409	10538.82
663.76	10650.23
664.11	10566.61
664.461	10615.88
664.811	10672.37
665.161	10636.44
665.511	10610.46
665.862	10652.49
666.212	10669.66
666.562	10653.84
666.912	10615.2
667.262	10632.83
667.612	10625.82
667.962	10679.38
668.312	10602.09
668.662	10671.7
669.011	10581.98
669.361	10559.84
669.711	10549.21
670.06	10559.84
670.41	10626.05
670.76	10564.35
671.109	10634.18
671.459	10566.61
671.808	10495.66
672.157	10559.84
672.507	10485.94
672.856	10482.1
673.205	10487.75
673.554	10560.97
673.904	10493.4
674.253	10536.11
674.602	10482.55
674.951	10345.6
675.3	10355.32
675.649	10496.79
675.998	10449.33
676.346	10503.34
676.695	10516.45
677.044	10438.71
677.393	10391.48
677.741	10476
678.09	10501.98
678.438	10433.74
678.787	10468.99
679.135	10391.7
679.484	10329.11
679.832	10389.44
680.181	10317.58
680.529	10348.09
680.877	10370.46
681.225	10314.64
681.573	10372.95
681.922	10226.51
682.27	10248.88
682.618	10228.32
682.966	10305.6
683.314	10248.88
683.661	10219.96
684.009	10127.76
684.357	10173.4
684.705	10210.47
685.053	10186.06
685.4	10114.65
685.748	10094.08
686.095	10057.7
686.443	10087.08
686.79	10005.05
687.138	10032.84
687.485	10063.8
687.832	9961.21
688.18	10006.86
688.527	9921.43
688.874	9891.83
689.221	9908.78
689.568	9824.49
689.915	9855.22
690.262	9872.62
690.609	9837.37
690.956	9775
691.303	9768.9
691.65	9784.71
691.997	9714.43
692.344	9663.36
692.69	9640.31
693.037	9676.02
693.383	9594.44
693.73	9657.03
694.077	9556.7
694.423	9546.75
694.769	9498.39
695.116	9459.3
695.462	9420.2
695.808	9503.14
696.155	9409.81
696.501	9364.84
696.847	9352.41
697.193	9281.68
697.539	9349.7
697.885	9227.22
698.231	9292.52
698.577	9206.65
698.923	9221.11
699.269	9097.73
699.614	9056.82
699.96	9105.86
700.306	9152.41
700.651	9072.64
700.997	9052.98
701.342	8991.29
701.688	8969.14
702.033	8937.73
702.379	8887.34
702.724	8918.75
703.069	8931.18
703.415	8816.6
703.76	8849.15
704.105	8790.39
704.45	8823.84
704.795	8786.77
705.14	8707.23
705.485	8724.63
705.83	8692.09
706.175	8645.76
706.52	8632.2
706.865	8621.58
707.209	8657.06
707.554	8582.26
707.899	8643.28
708.243	8597.18
708.588	8503.17
708.932	8480.34
709.277	8453.9
709.621	8464.3
709.966	8410.97
710.31	8429.72
710.654	8403.51
710.998	8392.66
711.342	8440.34
711.687	8427.46
712.031	8367.58
712.375	8311.08
712.719	8327.8
713.063	8294.13
713.407	8351.53
713.75	8278.09
714.094	8256.17
714.438	8259.56
714.782	8261.36
715.125	8198.32
715.469	8221.14
715.812	8132.33
716.156	8147.47
716.499	8152.22
716.843	8157.41
717.186	8118.54
717.53	8222.27
717.873	8166.68
718.216	8135.94
718.559	8095.27
718.902	8091.65
719.246	8064.76
719.589	8031.54
719.932	8021.82
720.275	8048.26
720.617	8050.97
720.96	8076.28
721.303	8002.39
721.646	8048.04
721.989	7985.89
722.331	8010.52
722.674	7928.72
723.016	7998.77
723.359	7958.32
723.701	7980.92
724.044	7961.94
724.386	7969.17
724.729	7949.96
725.071	7923.29
725.413	7989.51
725.755	7895.05
726.097	7898.44
726.439	7841.94
726.782	7881.04
727.124	7937.31
727.465	7917.19
727.807	7859.79
728.149	7813.92
728.491	7880.58
728.833	7881.49
729.175	7884.65
729.516	7847.82
729.858	7836.97
730.199	7832.9
730.541	7813.69
730.882	7794.26
731.224	7884.65
731.565	7836.74
731.906	7843.75
732.248	7838.55
732.589	7761.72
732.93	7780.93
733.271	7778.89
733.612	7829.74
733.953	7792.45
734.294	7752.9
734.635	7789.51
734.976	7832.22
735.317	7787.25
735.658	7815.27
735.999	7830.19
736.339	7760.59
736.68	7717.88
737.021	7817.31
737.361	7693.02
737.702	7761.26
738.042	7821.83
738.383	7768.04
738.723	7777.54
739.063	7766.46
739.404	7749.06
739.744	7748.84
740.084	7719.46
740.424	7707.25
740.764	7789.96
741.104	7717.88
741.444	7676.75
741.784	7747.25
742.124	7747.48
742.464	7729.4
742.804	7686.01
743.143	7769.63
743.483	7677.2
743.823	7663.87
744.162	7689.85
744.502	7688.95
744.841	7714.26
745.181	7735.73
745.52	7612.79
745.86	7701.83
746.199	7657.54
746.538	7719.23
746.877	7690.98
747.216	7734.15
747.556	7701.38
747.895	7638.78
748.234	7616.86
748.573	7639.23
748.911	7613.92
749.25	7582.29
749.589	7623.42
749.928	7685.79
750.267	7686.69
750.605	7649.86
750.944	7592.23
751.283	7625
751.621	7604.88
751.96	7584.77
752.298	7583.19
752.636	7584.09
752.975	7563.76
753.313	7584.55
753.651	7578.44
753.989	7542.06
754.327	7501.16
754.666	7470.2
755.004	7462.52
755.342	7514.94
755.679	7442.63
756.017	7415.06
756.355	7473.14
756.693	7465.68
757.031	7469.07
757.368	7350.2
757.706	7491.67
758.044	7386.13
758.381	7364.21
758.719	7386.13
759.056	7385.68
759.394	7330.99
759.731	7350.43
760.068	7263.88
760.405	7234.73
760.743	7274.72
761.08	7283.09
761.417	7203.77
761.754	7210.32
762.091	7230.66
762.428	7146.37
762.765	7151.11
763.102	7166.25
763.438	7079.02
763.775	7103.2
764.112	7019.82
764.449	7093.71
764.785	7068.63
765.122	7026.37
765.458	7008.74
765.795	7010.78
766.131	6994.73
766.467	6939.37
766.804	6910.21
767.14	6911.8
767.476	6906.6
767.812	6881.06
768.148	6880.84
768.485	6831.57
768.821	6808.07
769.157	6817.56
769.492	6765.81
769.828	6754.96
770.164	6682.2
770.5	6694.17
770.836	6724.23
771.171	6667.73
771.507	6635.19
771.842	6565.82
772.178	6593.84
772.513	6621.86
772.849	6553.39
773.184	6583.67
773.519	6592.71
773.855	6500.73
774.19	6485.82
774.525	6447.85
774.86	6445.14
775.195	6452.82
775.53	6413.5
775.865	6411.47
776.2	6346.16
776.535	6349.1
776.87	6305.94
777.205	6311.36
777.539	6279.27
777.874	6239.04
778.209	6203.11
778.543	6159.27
778.878	6234.53
779.212	6130.12
779.547	6096.22
779.881	6154.08
780.215	6138.71
780.55	6109.78
780.884	6052.38
781.218	6100.74
781.552	6040.63
781.886	6054.19
782.22	6024.14
782.554	5933.29
782.888	5971.71
783.222	5872.05
783.556	5879.51
783.889	5925.38
784.223	5818.27
784.557	5828.89
784.89	5854.87
785.224	5844.71
785.557	5750.92
785.891	5828.21
786.224	5718.15
786.558	5738.72
786.891	5725.16
787.224	5682
787.557	5672.51
787.891	5666.63
788.224	5625.5
788.557	5598.84
788.89	5630.47
789.223	5605.16
789.556	5568.78
789.888	5557.93
790.221	5532.62
790.554	5496.01
790.887	5503.47
791.219	5496.01
791.552	5476.35
791.884	5409.46
792.217	5451.5
792.549	5404.72
792.882	5438.61
793.214	5384.6
793.546	5388.22
793.879	5351.61
794.211	5348.9
794.543	5344.38
794.875	5310.71
795.207	5267.77
795.539	5317.26
795.871	5260.31
796.203	5247.21
796.535	5188
796.867	5238.39
797.198	5204.5
797.53	5200.43
797.862	5136.48
798.193	5169.24
798.525	5111.62
798.856	5144.84
799.188	5095.8
799.519	5090.15
799.85	5045.4
800.182	5029.13
800.513	5071.39
800.844	5025.07
801.175	5013.31
801.506	5018.51
801.837	4939.42
802.168	5030.94
802.499	4954.11
802.83	4942.13
803.161	4919.76
803.491	4912.98
803.822	4938.97
804.153	4894.45
804.483	4861.91
804.814	4887.22
805.145	4803.6
805.475	4835.92
805.805	4841.57
806.136	4864.17
806.466	4781.46
806.796	4818.07
807.126	4782.13
807.457	4762.47
807.787	4740.78
808.117	4739.65
808.447	4731.51
808.777	4705.75
809.107	4728.12
809.436	4726.99
809.766	4657.62
810.096	4666.43
810.426	4660.1
810.755	4682.7
811.085	4641.57
811.414	4604.06
811.744	4600.44
812.073	4610.16
812.403	4593.66
812.732	4574.46
813.061	4534.01
813.39	4519.09
813.719	4558.64
814.049	4544.4
814.378	4554.57
814.707	4520.9
815.036	4490.16
815.365	4468.92
815.693	4453.33
816.022	4411.75
816.351	4448.81
816.68	4401.13
817.008	4400.45
817.337	4419.88
817.665	4400.22
817.994	4422.14
818.322	4411.97
818.651	4407
818.979	4354.12
819.307	4379.21
819.636	4373.11
819.964	4306.44
820.292	4379.66
820.62	4345.99
820.948	4344.63
821.276	4374.46
821.604	4308.7
821.932	4311.86
822.259	4300.34
822.587	4290.62
822.915	4310.96
823.243	4332.65
823.57	4318.19
823.898	4362.03
824.225	4288.59
824.553	4314.8
824.88	4339.21
825.207	4317.51
825.535	4340.34
825.862	4345.54
826.189	4282.49
826.516	4332.2
826.843	4308.02
827.17	4297.85
827.497	4296.27
827.824	4328.36
828.151	4309.6
828.478	4351.19
828.805	4321.81
829.131	4318.64
829.458	4291.75
829.785	4282.71
830.111	4289.94
830.438	4338.98
830.764	4317.06
831.09	4300.79
831.417	4258.08
831.743	4305.08
832.069	4313.67
832.395	4270.06
832.722	4301.47
833.048	4294.92
833.374	4334.01
833.7	4274.12
834.026	4281.36
834.351	4297.18
834.677	4305.54
835.003	4292.2
835.329	4270.51
835.654	4260.79
835.98	4237.74
836.306	4226.22
836.631	4220.12
836.956	4287.01
837.282	4279.32
837.607	4217.4
837.932	4213.11
838.258	4218.99
838.583	4183.73
838.908	4207.91
839.233	4200.68
839.558	4219.21
839.883	4129.5
840.208	4196.61
840.533	4150.96
840.858	4176.73
841.182	4164.3
841.507	4160.46
841.832	4117.52
842.156	4127.69
842.481	4107.35
842.805	4113.68
843.13	4105.32
843.454	4145.31
843.778	4110.51
844.103	4039.55
844.427	4056.5
844.751	4073.9
845.075	4050.63
845.399	4049.72
845.723	4000.01
846.047	4033
846.371	4018.09
846.695	3988.71
847.019	3967.47
847.343	4002.95
847.666	3930.18
847.99	3949.39
848.313	3934.02
848.637	3915.26
848.96	3869.62
849.284	3890.41
849.607	3851.31
849.931	3876.17
850.254	3833.68
850.577	3810.41
850.9	3843.4
851.223	3793.91
851.546	3761.37
851.869	3746.68
852.192	3751.43
852.515	3759.34
852.838	3719.79
853.161	3721.37
853.483	3739.45
853.806	3710.07
854.129	3692.9
854.451	3648.83
854.774	3646.12
855.096	3644.54
855.419	3649.28
855.741	3641.83
856.063	3622.16
856.385	3607.7
856.708	3614.48
857.03	3592.79
857.352	3602.73
857.674	3581.94
857.996	3539.91
858.318	3555.05
858.64	3536.74
858.961	3523.86
859.283	3564.99
859.605	3520.47
859.926	3542.17
860.248	3491.55
860.57	3493.58
860.891	3495.61
861.212	3485.9
861.534	3462.62
861.855	3440.02
862.176	3458.33
862.498	3507.14
862.819	3422.85
863.14	3427.82
863.461	3430.76
863.782	3445.45
864.103	3424.88
864.424	3393.24
864.745	3436.18
865.065	3393.7
865.386	3409.29
865.707	3378.78
866.027	3410.64
866.348	3375.62
866.668	3411.32
866.989	3352.34
867.309	3318.9
867.63	3337.43
867.95	3352.12
868.27	3322.51
868.59	3352.79
868.91	3345.34
869.23	3332.68
869.55	3351.89
869.87	3304.21
870.19	3312.57
870.51	3329.07
870.83	3306.47
871.15	3314.38
871.469	3308.27
871.789	3300.82
872.109	3305.56
872.428	3331.1
872.748	3292.46
873.067	3270.08
873.386	3260.59
873.706	3265.34
874.025	3245.45
874.344	3272.34
874.663	3256.52
874.982	3218.56
875.301	3245.9
875.62	3273.93
875.939	3228.28
876.258	3262.85
876.577	3201.61
876.896	3214.27
877.214	3207.71
877.533	3183.31
877.852	3206.13
878.17	3224.66
878.489	3190.31
878.807	3203.64
879.125	3178.79
879.444	3182.85
879.762	3161.16
880.08	3187.37
880.398	3176.3
880.716	3163.65
881.034	3157.09
881.352	3144.21
881.67	3167.04
881.988	3195.06
882.306	3154.38
882.624	3134.95
882.941	3124.55
883.259	3119.13
883.577	3125.68
883.894	3121.16
884.212	3124.78
884.529	3146.24
884.846	3108.96
885.164	3101.5
885.481	3048.62
885.798	3081.61
886.115	3057.21
886.432	3038.68
886.75	3053.82
887.067	3034.84
887.383	3015.63
887.7	3041.39
888.017	3034.84
888.334	3052.91
888.651	3042.29
888.967	3050.65
889.284	3039.58
889.6	2999.58
889.917	2928.17
890.233	2989.19
890.55	2978.57
890.866	2946.48
891.182	2939.7
891.498	2960.94
891.815	2953.93
892.131	2916.19
892.447	2936.31
892.763	2886.82
893.079	2900.15
893.395	2923.2
893.71	2892.69
894.026	2880.49
894.342	2878.46
894.657	2898.12
894.973	2868.06
895.289	2823.99
895.604	2866.25
895.92	2814.73
896.235	2825.8
896.55	2822.19
896.865	2853.15
897.181	2800.94
897.496	2800.49
897.811	2798.68
898.126	2769.31
898.441	2738.35
898.756	2767.95
899.071	2688.63
899.386	2748.52
899.7	2721.85
900.015	2683.43
900.33	2673.72
900.644	2712.58
900.959	2716.43
901.273	2716.2
901.588	2688.18
901.902	2699.7
902.216	2673.04
902.531	2660.38
902.845	2667.39
903.159	2625.81
903.473	2627.39
903.787	2637.11
904.101	2652.47
904.415	2594.62
904.729	2585.36
905.042	2579.25
905.356	2567.28
905.67	2577.45
905.984	2585.81
906.297	2566.83
906.611	2555.75
906.924	2562.76
907.237	2538.35
907.551	2557.33
907.864	2530.89
908.177	2503.32
908.491	2478.01
908.804	2505.58
909.117	2463.33
909.43	2441.18
909.743	2450.67
910.056	2436.21
910.368	2457.22
910.681	2414.74
910.994	2440.5
911.307	2405.47
911.619	2423.1
911.932	2410.22
912.244	2395.98
912.557	2357.57
912.869	2399.15
913.181	2375.87
913.494	2364.57
913.806	2380.39
914.118	2377.23
914.43	2345.81
914.742	2320.5
915.054	2303.78
915.366	2310.56
915.678	2303.56
915.99	2286.61
916.302	2312.82
916.613	2257.68
916.925	2265.14
917.236	2254.07
917.548	2274.86
917.859	2247.29
918.171	2230.11
918.482	2228.75
918.794	2226.27
919.105	2249.77
919.416	2175.65
919.727	2176.78
920.038	2188.53
920.349	2186.72
920.66	2231.92
920.971	2179.72
921.282	2167.29
921.593	2147.85
921.903	2164.58
922.214	2139.94
922.525	2132.03
922.835	2124.12
923.146	2114.18
923.456	2106.27
923.767	2097.23
924.077	2087.52
924.387	2086.61
924.697	2085.48
925.008	2066.27
925.318	2048.65
925.628	2047.97
925.938	2071.92
926.248	2027.18
926.558	2025.82
926.867	2024.01
927.177	2016.33
927.487	2017.91
927.796	2001.42
928.106	1988.99
928.416	1996.22
928.725	1991.02
929.034	1984.24
929.344	1967.29
929.653	1928.65
929.962	1943.79
930.271	1944.69
930.581	1969.33
930.89	1937.46
931.199	1899.72
931.508	1917.12
931.817	1904.47
932.125	1890.46
932.434	1906.73
932.743	1882.55
933.051	1849.1
933.36	1873.74
933.669	1859.27
933.977	1827.18
934.286	1859.95
934.594	1830.35
934.902	1844.13
935.21	1832.16
935.519	1838.93
935.827	1833.29
936.135	1805.49
936.443	1815.88
936.751	1797.13
937.059	1802.33
937.367	1793.74
937.674	1775.66
937.982	1790.8
938.29	1774.08
938.597	1754.87
938.905	1770.46
939.213	1748.54
939.52	1760.07
939.827	1723.46
940.135	1711.48
940.442	1702.67
940.749	1748.32
941.056	1732.04
941.363	1710.58
941.67	1693.18
941.977	1701.76
942.284	1684.36
942.591	1689.33
942.898	1672.61
943.205	1671.71
943.511	1660.41
943.818	1651.82
944.125	1645.49
944.431	1650.24
944.738	1665.61
945.044	1648.88
945.35	1664.93
945.657	1637.81
945.963	1638.49
946.269	1615.89
946.575	1615.21
946.881	1583.12
947.187	1598.94
947.493	1554.65
947.799	1587.42
948.105	1588.32
948.41	1571.82
948.716	1589
949.022	1529.79
949.327	1551.71
949.633	1541.77
949.938	1534.31
950.244	1548.77
950.549	1519.85
950.854	1533.86
951.16	1526.85
951.465	1524.59
951.77	1526.4
952.075	1515.55
952.38	1486.18
952.685	1514.88
952.99	1512.84
953.294	1480.07
953.599	1487.98
953.904	1483.92
954.209	1463.8
954.513	1491.15
954.818	1466.74
955.122	1437.59
955.426	1445.95
955.731	1444.14
956.035	1431.49
956.339	1432.39
956.643	1411.38
956.948	1424.26
957.252	1439.17
957.556	1420.87
957.86	1406.63
958.163	1417.93
958.467	1382.68
958.771	1394.65
959.075	1405.5
959.378	1386.29
959.682	1389.23
959.985	1362.79
960.289	1387.65
960.592	1350.36
960.896	1348.55
961.199	1361.21
961.502	1365.27
961.805	1343.13
962.108	1338.16
962.411	1340.87
962.714	1323.92
963.017	1334.54
963.32	1318.5
963.623	1306.97
963.926	1306.07
964.228	1295.67
964.531	1294.77
964.833	1311.49
965.136	1302.68
965.438	1295.9
965.741	1279.18
966.043	1282.57
966.345	1267.2
966.648	1286.86
966.95	1246.86
967.252	1244.15
967.554	1286.41
967.856	1266.97
968.158	1255.45
968.46	1251.83
968.761	1249.12
969.063	1259.51
969.365	1221.78
969.666	1236.46
969.968	1235.33
970.269	1197.37
970.571	1225.62
970.872	1214.54
971.174	1242.34
971.475	1226.97
971.776	1206.86
972.077	1211.38
972.378	1193.75
972.679	1177.94
972.98	1208.67
973.281	1191.27
973.582	1183.58
973.883	1139.29
974.183	1164.15
974.484	1163.92
974.785	1161.44
975.085	1168.9
975.386	1167.09
975.686	1167.31
975.986	1124.6
976.287	1142.46
976.587	1132.29
976.887	1136.58
977.187	1126.19
977.487	1135.22
977.787	1110.14
978.087	1106.3
978.387	1093.64
978.687	1114.21
978.987	1110.14
979.286	1106.75
979.586	1124.38
979.885	1081.67
980.185	1082.12
980.484	1084.83
980.784	1087.32
981.083	1085.73
981.382	1073.76
981.682	1077.6
981.981	1058.84
982.28	1075.56
982.579	1060.2
982.878	1063.14
983.177	1050.03
983.475	1041.89
983.774	1040.31
984.073	1051.84
984.372	1035.11
984.67	1048.45
984.969	1044.38
985.267	1045.74
985.566	1036.02
985.864	1032.18
986.162	1022.46
986.461	1012.29
986.759	1013.87
987.057	1021.1
987.355	994.89
987.653	989.24
987.951	1010.26
988.249	1011.16
988.547	975
988.844	979.75
989.142	1004.83
989.44	964.16
989.737	998.96
990.035	978.62
990.332	968.68
990.63	976.13
990.927	958.51
991.224	955.79
991.521	961.9
991.819	932.52
992.116	913.99
992.413	951.73
992.71	949.24
993.006	927.55
993.303	943.37
993.6	922.35
993.897	926.19
994.193	916.7
994.49	926.42
994.787	920.54
995.083	910.82
995.379	931.61
995.676	904.72
995.972	921.9
996.268	901.33
996.565	885.29
996.861	903.37
997.157	901.78
997.453	877.38
997.749	906.76
998.044	885.51
998.34	878.73
998.636	882.35
998.932	887.77
999.227	870.37
999.523	870.37
999.818	865.63
1000.114	860.66
1000.409	850.94
1000.704	860.43
1001	840.09
1001.295	871.5
1001.59	861.79
1001.885	865.63
1002.18	833.31
1002.475	838.96
1002.77	807.1
1003.065	808
1003.359	810.26
1003.654	827.44
1003.949	824.05
1004.243	823.59
1004.538	826.98
1004.832	808.45
1005.127	825.18
1005.421	770.49
1005.715	809.13
1006.009	787.89
1006.304	809.36
1006.598	789.7
1006.892	778.17
1007.186	770.71
1007.48	796.02
1007.773	774.33
1008.067	777.72
1008.361	779.75
1008.655	782.92
1008.948	763.48
1009.242	749.02
1009.535	758.74
1009.829	760.77
1010.122	758.29
1010.415	743.14
1010.708	753.54
1011.001	742.01
1011.295	743.14
1011.588	749.47
1011.881	743.37
1012.173	705.18
1012.466	742.69
1012.759	742.92
1013.052	737.49
1013.344	728.23
1013.637	709.25
1013.93	731.17
1014.222	721.9
1014.514	721.45
1014.807	703.6
1015.099	713.99
1015.391	692.98
1015.683	712.64
1015.976	705.63
1016.268	694.56
1016.56	688.91
1016.851	711.96
1017.143	689.59
1017.435	684.61
1017.727	657.5
1018.018	681.45
1018.31	684.16
1018.602	695.91
1018.893	680.55
1019.185	675.12
1019.476	671.73
1019.767	659.3
1020.058	655.01
1020.35	672.86
1020.641	663.37
1020.932	670.6
1021.223	640.32
1021.514	618.85
1021.804	638.51
1022.095	620.89
1022.386	607.1
1022.677	621.57
1022.967	617.05
1023.258	635.35
1023.548	637.61
1023.839	640.1
1024.129	629.7
1024.419	631.73
1024.709	601.91
1025	614.56
1025.29	610.94
1025.58	636.71
1025.87	609.36
1026.16	590.15
1026.449	599.42
1026.739	608.91
1027.029	614.56
1027.319	588.57
1027.608	597.84
1027.898	591.74
1028.187	578.4
1028.477	587.89
1028.766	584.73
1029.055	593.54
1029.344	574.11
1029.634	579.53
1029.923	591.74
1030.212	567.56
1030.501	570.49
1030.79	567.56
1031.078	556.48
1031.367	568.23
1031.656	553.09
1031.945	574.34
1032.233	560.1
1032.522	578.85
1032.81	570.95
1033.099	549.03
1033.387	539.08
1033.675	545.86
1033.963	540.66
1034.251	542.02
1034.54	555.58
1034.828	541.79
1035.116	539.31
1035.403	528.01
1035.691	550.61
1035.979	523.94
1036.267	524.62
1036.554	528.01
1036.842	516.03
1037.129	518.97
1037.417	530.27
1037.704	512.87
1037.992	496.15
1038.279	518.52
1038.566	507.9
1038.853	507.9
1039.14	507.9
