Data from mousepad_grey_FLMS001491_00048.txt Node
Date: Wed Feb 08 14:29:30 GMT 2017
User: dcchb
Spectrometer: FLMS00149
Trigger mode: 0
Integration Time (sec): 2.000000E-2
Scans to average: 10
Electric dark correction enabled: true
Nonlinearity correction enabled: false
Boxcar width: 0
XAxis mode: Wavelengths
Number of Pixels in Spectrum: 2048
>>>>>Begin Spectral Data<<<<<
341.393	-3.19
341.776	-3.19
342.16	-3.19
342.543	-40.48
342.927	-76.18
343.31	-70.31
343.693	-70.31
344.077	-50.65
344.46	-70.31
344.843	-47.03
345.226	-58.33
345.61	-28.28
345.993	10.37
346.376	-4.77
346.759	-8.62
347.142	35.9
347.525	27.54
347.908	54.66
348.291	72.96
348.674	101.89
349.057	105.28
349.44	126.97
349.823	128.1
350.206	166.97
350.588	168.1
350.971	203.58
351.354	206.97
351.737	224.37
352.119	252.62
352.502	259.63
352.884	246.74
353.267	239.29
353.65	258.5
354.032	279.29
354.414	279.74
354.797	294.43
355.179	300.3
355.562	312.51
355.944	312.96
356.326	323.58
356.709	303.69
357.091	316.57
357.473	299.17
357.855	315.22
358.238	314.09
358.62	302.11
359.002	295.11
359.384	309.57
359.766	344.14
360.148	336.91
360.53	339.17
360.912	312.51
361.294	317.93
361.676	309.34
362.057	317.03
362.439	323.13
362.821	327.87
363.203	312.05
363.584	314.31
363.966	309.34
364.348	312.28
364.729	313.86
365.111	295.78
365.493	305.05
365.874	288.78
366.256	295.78
366.637	290.81
367.019	288.55
367.4	297.59
367.781	304.6
368.163	282.45
368.544	307.53
368.925	295.78
369.306	285.61
369.688	270.7
370.069	290.13
370.45	314.99
370.831	303.01
371.212	286.97
371.593	290.13
371.974	290.36
372.355	291.04
372.736	305.27
373.117	299.17
373.498	314.54
373.879	278.83
374.26	283.58
374.641	293.3
375.021	288.1
375.402	303.47
375.783	291.94
376.163	307.99
376.544	298.49
376.925	303.69
377.305	307.99
377.686	304.14
378.066	297.14
378.447	298.04
378.827	305.95
379.208	293.98
379.588	303.24
379.968	304.6
380.349	300.98
380.729	303.69
381.109	307.99
381.489	305.73
381.87	305.05
382.25	311.6
382.63	326.52
383.01	317.7
383.39	329.23
383.77	318.16
384.15	321.77
384.53	315.9
384.91	326.74
385.29	329.91
385.67	332.62
386.049	329.68
386.429	318.83
386.809	332.17
387.189	309.12
387.568	337.59
387.948	345.5
388.328	328.55
388.707	337.36
389.087	332.62
389.466	346.86
389.846	321.09
390.225	350.25
390.605	338.95
390.984	334.43
391.363	335.33
391.743	349.34
392.122	353.63
392.501	348.44
392.881	361.32
393.26	359.74
393.639	354.31
394.018	363.35
394.397	355.44
394.776	359.06
395.155	364.71
395.534	373.52
395.913	366.29
396.292	354.99
396.671	354.31
397.05	367.65
397.429	362.22
397.808	353.63
398.186	365.16
398.565	375.1
398.944	382.11
399.323	363.13
399.701	377.36
400.08	399.06
400.458	384.37
400.837	378.72
401.215	393.41
401.594	376.69
401.972	386.85
402.351	359.51
402.729	376.23
403.107	397.48
403.486	394.54
403.864	403.58
404.242	390.47
404.62	406.97
404.999	407.42
405.377	417.59
405.755	411.71
406.133	407.42
406.511	405.16
406.889	409.68
407.267	412.16
407.645	411.94
408.023	438.83
408.401	406.97
408.779	420.3
409.156	431.6
409.534	426.4
409.912	451.49
410.29	466.4
410.667	433.86
411.045	461.88
411.422	442.67
411.8	457.13
412.178	464.82
412.555	448.55
412.933	480.19
413.31	452.16
413.687	466.4
414.065	463.01
414.442	442.45
414.819	472.5
415.197	459.39
415.574	472.95
415.951	476.8
416.328	496.46
416.705	500.98
417.082	503.24
417.46	479.96
417.837	490.35
418.214	502.11
418.591	503.91
418.967	520.41
419.344	507.98
419.721	515.89
420.098	523.12
420.475	505.95
420.852	534.19
421.228	545.04
421.605	503.01
421.982	503.69
422.358	517.02
422.735	549.34
423.111	541.65
423.488	540.52
423.864	533.07
424.241	547.08
424.617	547.3
424.994	561.76
425.37	541.2
425.746	549.79
426.123	582.33
426.499	558.83
426.875	564.93
427.251	586.85
427.627	586.17
428.003	587.75
428.379	603.8
428.756	595.89
429.132	613.06
429.507	609.45
429.883	609.9
430.259	626.17
430.635	619.16
431.011	623.01
431.387	626.4
431.763	633.18
432.138	669.78
432.514	663.01
432.89	643.12
433.265	672.27
433.641	683.34
434.016	670.91
434.392	662.33
434.767	670.24
435.143	687.64
435.518	678.37
435.894	685.83
436.269	720.63
436.644	734.64
437.02	718.82
437.395	695.55
437.77	708.88
438.145	732.61
438.52	710.01
438.895	724.25
439.271	749.33
439.646	775.77
440.021	762.44
440.395	773.06
440.77	777.8
441.145	764.25
441.52	790.23
441.895	802.66
442.27	785.26
442.645	772.83
443.019	798.59
443.394	794.08
443.769	811.48
444.143	818.71
444.518	799.5
444.892	793.85
445.267	822.55
445.641	825.03
446.016	828.42
446.39	829.55
446.764	825.26
447.139	833.4
447.513	838.82
447.887	838.59
448.262	844.02
448.636	844.02
449.01	857.12
449.384	835.2
449.758	864.58
450.132	865.94
450.506	893.28
450.88	872.94
451.254	881.76
451.628	897.8
452.002	924.92
452.376	902.77
452.75	901.64
453.123	954.97
453.497	948.42
453.871	947.07
454.244	960.62
454.618	969.66
454.992	953.84
455.365	977.57
455.739	982.77
456.112	1021.19
456.486	981.87
456.859	1055.54
457.232	1001.98
457.606	1016.22
457.979	1030.68
458.352	1041.98
458.725	1054.18
459.099	1065.93
459.472	1092.82
459.845	1107.74
460.218	1096.44
460.591	1121.07
460.964	1121.52
461.337	1112.94
461.71	1146.16
462.083	1155.42
462.456	1185.7
462.829	1159.26
463.201	1198.58
463.574	1178.47
463.947	1194.52
464.32	1217.11
464.692	1227.28
465.065	1257.79
465.438	1261.63
465.81	1258.24
466.183	1277.23
466.555	1284.68
466.928	1308.41
467.3	1309.32
467.672	1322.2
468.045	1360.61
468.417	1368.3
468.789	1399.48
469.161	1400.39
469.534	1393.61
469.906	1414.4
470.278	1436.77
470.65	1436.77
471.022	1473.38
471.394	1492.59
471.766	1468.41
472.138	1535.75
472.51	1529.42
472.882	1556.09
473.253	1570.1
473.625	1579.37
473.997	1625.47
474.369	1629.76
474.74	1655.97
475.112	1674.96
475.484	1684.45
475.855	1729.64
476.227	1700.94
476.598	1754.28
476.97	1785.69
477.341	1820.04
477.713	1824.1
478.084	1835.4
478.455	1882.18
478.827	1894.84
479.198	1950.43
479.569	1957.66
479.94	2009.41
480.311	2031.56
480.682	2079.24
481.053	2078.56
481.424	2116.98
481.795	2133.47
482.166	2133.02
482.537	2163.53
482.908	2232.46
483.279	2266.35
483.65	2274.71
484.021	2314.49
484.391	2340.93
484.762	2332.79
485.133	2356.97
485.503	2430.87
485.874	2455.73
486.244	2450.98
486.615	2531.66
486.985	2542.5
487.356	2566.46
487.726	2618.21
488.097	2655.04
488.467	2663.63
488.837	2691.43
489.207	2737.07
489.578	2740.69
489.948	2803.97
490.318	2802.84
490.688	2814.81
491.058	2888.94
491.428	2903.85
491.798	2947.24
492.168	2977.29
492.538	3013.23
492.908	3033.34
493.278	3076.95
493.648	3111.3
494.017	3126.22
494.387	3160.57
494.757	3172.32
495.126	3177.29
495.496	3229.94
495.866	3238.53
496.235	3267.68
496.605	3261.81
496.974	3296.61
497.344	3325.76
497.713	3358.3
498.082	3351.3
498.452	3398.07
498.821	3420.45
499.19	3402.82
499.559	3440.11
499.928	3443.95
500.298	3486.21
500.667	3568.69
501.036	3542.7
501.405	3565.3
501.774	3557.39
502.143	3562.14
502.512	3585.41
502.88	3646.88
503.249	3668.58
503.618	3697.73
503.987	3716.26
504.356	3714.22
504.724	3714.9
505.093	3766.88
505.462	3777.73
505.83	3809.36
506.199	3826.76
506.567	3890.49
506.936	3864.05
507.304	3881.45
507.672	3934.78
508.041	3937.04
508.409	3994.22
508.777	3991.96
509.145	4032.63
509.514	4022.46
509.882	4077.6
510.25	4092.52
510.618	4141.11
510.986	4148.56
511.354	4161.9
511.722	4160.54
512.09	4199.41
512.458	4217.71
512.826	4265.62
513.193	4277.83
513.561	4271.27
513.929	4342.46
514.297	4370.25
514.664	4373.87
515.032	4430.59
515.4	4434.66
515.767	4462.23
516.135	4499.97
516.502	4466.52
516.869	4548.33
517.237	4552.85
517.604	4567.31
517.972	4638.72
518.339	4663.13
518.706	4659.51
519.073	4663.35
519.44	4709.23
519.808	4732.95
520.175	4772.05
520.542	4764.37
520.909	4885.94
521.276	4893.63
521.643	4900.86
522.009	4923.23
522.376	4965.49
522.743	5033.51
523.11	5011.82
523.477	5100.63
523.843	5117.35
524.21	5139.95
524.577	5188.31
524.943	5209.55
525.31	5222.89
525.676	5256.78
526.043	5295.2
526.409	5311.02
526.776	5355.76
527.142	5383.56
527.508	5430.79
527.874	5443.67
528.241	5484.8
528.607	5542.42
528.973	5576.55
529.339	5575.87
529.705	5687.05
530.071	5689.09
530.437	5645.47
530.803	5712.59
531.169	5750.78
531.535	5784.68
531.901	5758.69
532.267	5823.32
532.632	5865.13
532.998	5894.51
533.364	5948.52
533.73	5902.87
534.095	5980.15
534.461	6018.34
534.826	6002.98
535.192	6054.28
535.557	6120.94
535.923	6129.3
536.288	6114.61
536.653	6205.46
537.019	6197.32
537.384	6199.36
537.749	6233.93
538.114	6242.97
538.479	6308.96
538.845	6317.77
539.21	6291.11
539.575	6333.36
539.94	6342.86
540.305	6400.03
540.67	6413.36
541.034	6433.02
541.399	6483.42
541.764	6450.2
542.129	6523.87
542.494	6534.26
542.858	6602.96
543.223	6615.84
543.587	6628.95
543.952	6649.06
544.316	6690.64
544.681	6667.82
545.045	6748.95
545.41	6765.67
545.774	6742.39
546.138	6783.07
546.503	6804.99
546.867	6805.89
547.231	6900.36
547.595	6901.49
547.959	6925.21
548.324	6947.13
548.688	6943.07
549.052	6972.22
549.416	7020.58
549.779	7015.15
550.143	7080.92
550.507	7155.72
550.871	7199.78
551.235	7089.73
551.599	7204.98
551.962	7207.47
552.326	7263.28
552.689	7237.3
553.053	7227.8
553.417	7311.87
553.78	7348.48
554.143	7359.55
554.507	7356.16
554.87	7469.38
555.234	7480.23
555.597	7458.08
555.96	7474.13
556.323	7524.52
556.686	7540.56
557.05	7555.03
557.413	7588.25
557.776	7667.34
558.139	7712.99
558.502	7752.54
558.865	7766.32
559.228	7792.54
559.59	7812.2
559.953	7827.11
560.316	7886.77
560.679	7921.8
561.041	7932.42
561.404	7989.14
561.767	8049.48
562.129	8059.19
562.492	8083.38
562.854	8145.07
563.217	8110.49
563.579	8172.64
563.941	8201.56
564.304	8243.37
564.666	8310.49
565.028	8277.72
565.39	8395.23
565.753	8371.5
566.115	8458.73
566.477	8427.09
566.839	8363.14
567.201	8501.9
567.563	8509.13
567.925	8622.8
568.287	8567.66
568.648	8639.97
569.01	8587.77
569.372	8645.39
569.734	8670.25
570.095	8738.05
570.457	8764.71
570.819	8851.04
571.18	8823.92
571.542	8858.27
571.903	8850.36
572.265	8902.79
572.626	8955.22
572.987	8919.74
573.349	8979.17
573.71	9051.94
574.071	9063.91
574.432	9107.3
574.794	9238.82
575.155	9177.81
575.516	9075.21
575.877	9202.22
576.238	9169.22
576.599	9226.17
576.96	9266.39
577.32	9242.67
577.681	9286.06
578.042	9293.06
578.403	9339.84
578.763	9287.86
579.124	9325.38
579.485	9376.45
579.845	9354.53
580.206	9379.84
580.566	9370.8
580.927	9350.91
581.287	9433.85
581.648	9362.89
582.008	9465.03
582.368	9457.12
582.728	9463.45
583.089	9444.7
583.449	9483.11
583.809	9451.93
584.169	9512.04
584.529	9439.72
584.889	9585.71
585.249	9490.57
585.609	9507.74
585.969	9524.69
586.329	9516.11
586.688	9439.27
587.048	9515.43
587.408	9547.74
587.768	9465.26
588.127	9461.64
588.487	9518.14
588.846	9539.16
589.206	9526.73
589.565	9516.33
589.925	9505.94
590.284	9540.29
590.643	9524.02
591.003	9509.33
591.362	9608.98
591.721	9526.73
592.08	9610.57
592.44	9570.34
592.799	9645.82
593.158	9574.18
593.517	9671.81
593.876	9622.32
594.235	9637.01
594.593	9645.59
594.952	9525.37
595.311	9554.52
595.67	9583.67
596.029	9652.6
596.387	9719.26
596.746	9596.33
597.104	9662.54
597.463	9624.13
597.822	9695.76
598.18	9605.59
598.538	9630.9
598.897	9667.29
599.255	9608.31
599.613	9731.24
599.972	9671.13
600.33	9599.49
600.688	9694.41
601.046	9699.38
601.404	9721.07
601.762	9676.1
602.12	9773.27
602.478	9738.92
602.836	9763.1
603.194	9721.07
603.552	9701.41
603.91	9707.97
604.268	9676.33
604.625	9690.56
604.983	9699.15
605.341	9726.95
605.698	9726.72
606.056	9847.85
606.413	9709.09
606.771	9798.58
607.128	9865.02
607.485	9761.52
607.843	9782.54
608.2	9844.01
608.557	9847.17
608.914	9853.5
609.272	9888.98
609.629	9838.13
609.986	9903.67
610.343	9837.23
610.7	9902.76
611.057	9883.33
611.414	9898.02
611.771	9886.72
612.127	9875.87
612.484	9954.51
612.841	9985.02
613.198	9882.2
613.554	9931.01
613.911	9998.8
614.267	9999.48
614.624	9936.43
614.98	9982.08
615.337	10075.64
615.693	10026.6
616.05	10057.33
616.406	10067.73
616.762	10042.19
617.118	10063.66
617.475	10078.8
617.831	10140.27
618.187	10126.94
618.543	10086.03
618.899	10109.54
619.255	10143.21
619.611	10093.94
619.967	10204.22
620.323	10197.67
620.678	10182.98
621.034	10109.08
621.39	10120.84
621.746	10081.29
622.101	10262.53
622.457	10109.99
622.812	10155.64
623.168	10257.56
623.523	10184.34
623.879	10216.43
624.234	10166.26
624.589	10226.37
624.945	10142.98
625.3	10214.17
625.655	10194.51
626.01	10244.22
626.365	10263.66
626.72	10259.14
627.075	10288.97
627.43	10194.28
627.785	10188.4
628.14	10268.85
628.495	10207.16
628.85	10174.39
629.205	10167.84
629.559	10314.73
629.914	10116.54
630.269	10127.16
630.623	10062.31
630.978	10130.78
631.332	10122.42
631.687	10191.57
632.041	10133.04
632.396	10204.45
632.75	10115.19
633.104	10157.9
633.459	10078.58
633.813	10146.6
634.167	10184.79
634.521	10082.87
634.875	10067.05
635.229	10084.9
635.583	10069.54
635.937	10097.56
636.291	10053.72
636.645	10081.51
636.999	9984.12
637.352	10028.18
637.706	9978.47
638.06	10031.35
638.413	10006.71
638.767	9980.05
639.121	10004
639.474	9973.49
639.828	9934.17
640.181	10003.55
640.534	9978.01
640.888	9916.55
641.241	9859.83
641.594	9897.34
641.947	9990.44
642.301	9951.57
642.654	9955.87
643.007	9934.63
643.36	9868.41
643.713	9914.06
644.066	9945.47
644.419	9888.75
644.771	9867.28
645.124	9749.09
645.477	9719.04
645.83	9743.67
646.182	9587.29
646.535	9631.58
646.888	9657.34
647.24	9592.71
647.593	9633.39
647.945	9628.19
648.298	9518.37
648.65	9631.36
649.002	9556.33
649.355	9580.51
649.707	9599.04
650.059	9650.34
650.411	9719.72
650.763	9784.35
651.115	9799.04
651.467	9796.55
651.819	9792.26
652.171	9762.88
652.523	9732.82
652.875	9759.04
653.227	9731.47
653.578	9818.24
653.93	9851.46
654.282	9789.77
654.633	9737.12
654.985	9742.09
655.337	9773.73
655.688	9750.45
656.039	9857.11
656.391	9731.02
656.742	9691.02
657.094	9784.35
657.445	9820.05
657.796	9797.68
658.147	9796.32
658.498	9719.94
658.849	9745.7
659.2	9757.46
659.551	9677.68
659.902	9816.21
660.253	9745.25
660.604	9757.23
660.955	9771.24
661.306	9748.87
661.656	9771.69
662.007	9759.26
662.358	9802.88
662.708	9679.27
663.059	9815.08
663.409	9711.58
663.76	9770.34
664.11	9716.1
664.461	9811.47
664.811	9750.68
665.161	9746.61
665.511	9707.74
665.862	9757.23
666.212	9753.16
666.562	9775.99
666.912	9741.18
667.262	9716.1
667.612	9764.69
667.962	9738.92
668.312	9721.75
668.662	9756.33
669.011	9721.75
669.361	9720.85
669.711	9719.26
670.06	9668.19
670.41	9664.58
670.76	9748.64
671.109	9752.48
671.459	9734.18
671.808	9625.93
672.157	9667.51
672.507	9652.83
672.856	9688.08
673.205	9700.28
673.554	9693.95
673.904	9674.07
674.253	9710.9
674.602	9674.97
674.951	9542.77
675.3	9372.38
675.649	9589.32
675.998	9616.67
676.346	9640.17
676.695	9668.42
677.044	9512.94
677.393	9615.99
677.741	9542.55
678.09	9536.67
678.438	9536.9
678.787	9595.43
679.135	9564.92
679.484	9492.38
679.832	9468.2
680.181	9473.17
680.529	9500.96
680.877	9430.91
681.225	9367.41
681.573	9500.74
681.922	9449.44
682.27	9387.75
682.618	9403.34
682.966	9391.36
683.314	9388.88
683.661	9342.32
684.009	9333.29
684.357	9277.47
684.705	9227.07
685.053	9300.74
685.4	9273.63
685.748	9263.23
686.095	9258.03
686.443	9190.69
686.79	9179.62
687.138	9160.63
687.485	9166.06
687.832	9133.29
688.18	9135.1
688.527	9088.77
688.874	9071.37
689.221	9007.42
689.568	9008.55
689.915	9010.81
690.262	8967.19
690.609	8933.75
690.956	8910.25
691.303	8897.36
691.65	8857.37
691.997	8874.09
692.344	8839.97
692.69	8831.38
693.037	8809.91
693.383	8806.97
693.73	8791.83
694.077	8770.59
694.423	8673.19
694.769	8722.68
695.116	8678.84
695.462	8677.03
695.808	8609.24
696.155	8658.28
696.501	8578.28
696.847	8540.09
697.193	8555.45
697.539	8535.79
697.885	8388.9
698.231	8385.51
698.577	8433.42
698.923	8428
699.269	8374.89
699.614	8275.91
699.96	8266.42
700.306	8288.34
700.651	8295.35
700.997	8251.05
701.342	8272.97
701.688	8196.82
702.033	8114.56
702.379	8174.67
702.724	8138.06
703.069	8083.15
703.415	8081.12
703.76	8114.33
704.105	8062.81
704.45	8027.33
704.795	7975.58
705.14	7961.8
705.485	7923.61
705.83	7905.3
706.175	7975.13
706.52	7936.71
706.865	7825.08
707.209	7850.84
707.554	7795.25
707.899	7860.78
708.243	7804.96
708.588	7802.25
708.932	7774.23
709.277	7714.12
709.621	7727.68
709.966	7662.37
710.31	7675.7
710.654	7637.96
710.998	7598.42
711.342	7630.28
711.687	7610.62
712.031	7553.22
712.375	7584.41
712.719	7546.67
713.063	7509.6
713.407	7582.37
713.75	7534.01
714.094	7491.3
714.438	7482.49
714.782	7509.83
715.125	7449.27
715.469	7482.26
715.812	7417.4
716.156	7391.64
716.499	7434.58
716.843	7404.97
717.186	7361.59
717.53	7378.08
717.873	7392.32
718.216	7357.74
718.559	7331.53
718.902	7347.8
719.246	7441.36
719.589	7317.75
719.932	7305.77
720.275	7285.88
720.617	7307.58
720.96	7346.9
721.303	7323.17
721.646	7266.45
721.989	7241.82
722.331	7252.89
722.674	7282.04
723.016	7278.2
723.359	7222.61
723.701	7285.88
724.044	7232.55
724.386	7196.39
724.729	7178.31
725.071	7150.52
725.413	7219.67
725.755	7186.9
726.097	7162.27
726.439	7164.76
726.782	7169.95
727.124	7199.56
727.465	7138.77
727.807	7207.47
728.149	7140.8
728.491	7108.03
728.833	7176.51
729.175	7146
729.516	7171.99
729.858	7096.06
730.199	7131.76
730.541	7173.79
730.882	7136.96
731.224	7214.02
731.565	7075.49
731.906	7094.93
732.248	7139.22
732.589	7093.8
732.93	7113.23
733.271	7113.46
733.612	7067.81
733.953	7086.11
734.294	7094.7
734.635	7059.45
734.976	7083.85
735.317	7049.73
735.658	7089.95
735.999	7138.32
736.339	7138.09
736.68	7144.42
737.021	7068.03
737.361	7099.9
737.702	7129.95
738.042	7114.81
738.383	7075.72
738.723	7103.06
739.063	7092.89
739.404	7041.14
739.744	7063.06
740.084	7091.54
740.424	7083.4
740.764	7077.3
741.104	7088.37
741.444	7080.01
741.784	7020.58
742.124	7038.66
742.464	7042.95
742.804	7025.55
743.143	7030.52
743.483	7027.81
743.823	7039.56
744.162	7064.42
744.502	7031.88
744.841	6937.42
745.181	7033.91
745.52	6983.52
745.86	7049.05
746.199	6965.44
746.538	7014.7
746.877	7017.87
747.216	6997.98
747.556	7023.97
747.895	7028.26
748.234	6990.3
748.573	7002.27
748.911	6961.82
749.25	7030.52
749.589	7034.82
749.928	6976.96
750.267	6971.09
750.605	6957.08
750.944	6961.82
751.283	6966.12
751.621	6999.56
751.96	6884.31
752.298	6897.42
752.636	6920.24
752.975	6936.74
753.313	6899.23
753.651	6929.28
753.989	6886.57
754.327	6883.41
754.666	6910.98
755.004	6865.55
755.342	6925.44
755.679	6832.79
756.017	6795.73
756.355	6886.57
756.693	6821.04
757.031	6844.99
757.368	6840.24
757.706	6772
758.044	6811.09
758.381	6829.4
758.719	6757.76
759.056	6769.51
759.394	6752.56
759.731	6694.94
760.068	6730.87
760.405	6649.29
760.743	6648.38
761.08	6620.36
761.417	6566.58
761.754	6655.62
762.091	6598.89
762.428	6532.91
762.765	6524.55
763.102	6569.29
763.438	6484.1
763.775	6538.1
764.112	6530.87
764.449	6525.45
764.785	6515.28
765.122	6465.11
765.458	6422.4
765.795	6443.19
766.131	6414.04
766.467	6439.58
766.804	6355.06
767.14	6364.1
767.476	6311.44
767.812	6257.66
768.148	6313.93
768.485	6261.73
768.821	6261.95
769.157	6262.41
769.492	6232.8
769.828	6181.73
770.164	6148.06
770.5	6166.36
770.836	6186.48
771.171	6135.86
771.507	6117.33
771.842	6071
772.178	6059.25
772.513	6054.28
772.849	6032.36
773.184	6003.2
773.519	6013.37
773.855	5950.1
774.19	5936.99
774.525	5911.91
774.86	5904.22
775.195	5913.26
775.53	5881.4
775.865	5882.3
776.2	5821.51
776.535	5800.95
776.87	5775.19
777.205	5722.53
777.539	5729.09
777.874	5780.61
778.209	5689.54
778.543	5741.74
778.878	5634.4
779.212	5638.47
779.547	5633.04
779.881	5660.16
780.215	5626.26
780.55	5595.3
780.884	5533.61
781.218	5540.62
781.552	5532.71
781.886	5519.6
782.22	5516.89
782.554	5459.04
782.888	5448.19
783.222	5405.25
783.556	5440.73
783.889	5396.44
784.223	5373.39
784.557	5392.37
784.89	5351.7
785.224	5333.62
785.557	5269.89
785.891	5268.08
786.224	5261.53
786.558	5303.34
786.891	5228.08
787.224	5236.44
787.557	5202.09
787.891	5210.91
788.224	5199.38
788.557	5200.96
788.89	5166.62
789.223	5117.13
789.556	5141.31
789.888	5118.03
790.221	5065.6
790.554	5085.49
790.887	5057.24
791.219	5024.25
791.552	5050.91
791.884	4997.35
792.217	4996.9
792.549	4932.72
792.882	4938.15
793.214	4923.68
793.546	4960.07
793.879	4913.74
794.211	4837.58
794.543	4904.02
794.875	4850.47
795.207	4844.59
795.539	4809.34
795.871	4847.53
796.203	4819.73
796.535	4829.22
796.867	4751.49
797.198	4757.59
797.53	4815.21
797.862	4714.2
798.193	4723.24
798.525	4702.9
798.856	4734.99
799.188	4642.79
799.519	4639.17
799.85	4615.67
800.182	4633.07
800.513	4652.5
800.844	4594.43
801.175	4655.67
801.506	4506.29
801.837	4579.29
802.168	4544.03
802.499	4553.75
802.83	4502.23
803.161	4550.13
803.491	4490.25
803.822	4502
804.153	4521.66
804.483	4486.41
804.814	4435.11
805.145	4449.35
805.475	4478.5
805.805	4426.75
806.136	4404.83
806.466	4387.2
806.796	4411.16
807.126	4379.52
807.457	4410.48
807.787	4393.3
808.117	4383.59
808.447	4344.72
808.777	4354.89
809.107	4386.98
809.436	4304.94
809.766	4305.85
810.096	4285.28
810.426	4285.73
810.755	4284.83
811.085	4307.88
811.414	4231.72
811.744	4199.86
812.073	4225.4
812.403	4199.64
812.732	4180.88
813.061	4175.91
813.39	4151.05
813.719	4164.38
814.049	4167.77
814.378	4139.07
814.707	4120.77
815.036	4126.19
815.365	4147.66
815.693	4117.15
816.022	4078.96
816.351	4095.01
816.68	4094.78
817.008	4070.6
817.337	4033.76
817.665	4073.31
817.994	4050.71
818.322	4061.79
818.651	4048.45
818.979	3996.7
819.307	3968.91
819.636	4001.22
819.964	4006.19
820.292	3999.64
820.62	4017.27
820.948	4022.24
821.276	4014.78
821.604	3959.42
821.932	3990.6
822.259	3958.74
822.587	4008
822.915	3951.96
823.243	4019.08
823.57	3969.36
823.898	3926.87
824.225	3990.15
824.553	3912.86
824.88	3981.56
825.207	3996.25
825.535	3976.82
825.862	3964.61
826.189	3937.27
826.516	3972.52
826.843	3959.42
827.17	3948.79
827.497	3932.07
827.824	3945.86
828.151	3995.12
828.478	4005.06
828.805	3948.79
829.131	3946.08
829.458	3978.17
829.785	3949.92
830.111	3896.59
830.438	3973.43
830.764	3954.9
831.09	3950.38
831.417	3955.12
831.743	3899.08
832.069	3924.84
832.395	3958.51
832.722	3894.78
833.048	3940.43
833.374	3958.96
833.7	3928.23
834.026	3913.77
834.351	3942.69
834.677	3921
835.003	3921.22
835.329	3936.37
835.654	3957.61
835.98	3915.12
836.306	3908.8
836.631	3900.21
836.956	3879.42
837.282	3904.73
837.607	3843.26
837.932	3874.22
838.258	3889.59
838.583	3877.61
838.908	3797.16
839.233	3847.78
839.558	3835.58
839.883	3852.75
840.208	3807.56
840.533	3814.56
840.858	3790.15
841.182	3858.85
841.507	3816.37
841.832	3833.54
842.156	3807.56
842.481	3781.57
842.805	3750.38
843.13	3782.7
843.454	3772.98
843.778	3754.9
844.103	3750.83
844.427	3744.05
844.751	3768.91
845.075	3762.36
845.399	3708.12
845.723	3702.02
846.047	3718.52
846.371	3685.52
846.695	3668.58
847.019	3637.39
847.343	3624.28
847.666	3612.31
847.99	3629.48
848.313	3595.13
848.637	3589.48
848.96	3551.06
849.284	3528.69
849.607	3546.55
849.931	3542.93
850.254	3533.44
850.577	3492.31
850.9	3452.08
851.223	3468.58
851.546	3435.36
851.869	3436.27
852.192	3438.3
852.515	3423.38
852.838	3410.05
853.161	3391.97
853.483	3399.66
853.806	3376.15
854.129	3409.37
854.451	3362.82
854.774	3370.96
855.096	3341.58
855.419	3357.85
855.741	3306.33
856.063	3293.67
856.385	3330.05
856.708	3298.42
857.03	3284.41
857.352	3280.56
857.674	3301.58
857.996	3231.07
858.318	3220
858.64	3222.03
858.961	3276.72
859.283	3232.43
859.605	3211.41
859.926	3230.17
860.248	3233.11
860.57	3176.61
860.891	3177.74
861.212	3171.64
861.534	3180.23
861.855	3178.87
862.176	3180.45
862.498	3184.97
862.819	3174.13
863.14	3161.92
863.461	3133.67
863.782	3121.02
864.103	3187.46
864.424	3125.99
864.745	3130.74
865.065	3118.99
865.386	3119.44
865.707	3113.11
866.027	3141.13
866.348	3126.9
866.668	3114.24
866.989	3124.86
867.309	3093.9
867.63	3070.63
867.95	3097.74
868.27	3085.99
868.59	3087.35
868.91	3039.21
869.23	3045.09
869.55	3041.93
869.87	3056.84
870.19	3043.06
870.51	3053.68
870.83	3058.65
871.15	3011.19
871.469	3021.36
871.789	3027.01
872.109	2987.24
872.428	2960.12
872.748	2993.79
873.067	3020.46
873.386	2997.18
873.706	3008.93
874.025	2990.63
874.344	3040.34
874.663	2990.4
874.982	3004.19
875.301	2989.95
875.62	2976.62
875.939	2944.3
876.258	2955.6
876.577	2966
876.896	2903.85
877.214	2941.59
877.533	2918.77
877.852	2920.57
878.17	2934.81
878.489	2915.83
878.807	2928.71
879.125	2947.69
879.444	2932.1
879.762	2878.31
880.08	2928.48
880.398	2902.04
880.716	2878.31
881.034	2894.81
881.352	2900.01
881.67	2881.7
881.988	2869.05
882.306	2863.85
882.624	2831.76
882.941	2855.72
883.259	2864.53
883.577	2830.41
883.894	2865.66
884.212	2855.49
884.529	2838.99
884.846	2869.5
885.164	2815.72
885.481	2832.21
885.798	2854.13
886.115	2845.32
886.432	2803.51
886.75	2768.03
887.067	2779.79
887.383	2767.13
887.7	2759.22
888.017	2757.19
888.334	2767.13
888.651	2766.23
888.967	2740.24
889.284	2750.18
889.6	2733.69
889.917	2752.67
890.233	2682.16
890.55	2698.66
890.866	2699.56
891.182	2697.75
891.498	2718.54
891.815	2726.45
892.131	2695.49
892.447	2658.43
892.763	2670.18
893.079	2660.47
893.395	2655.04
893.71	2672.67
894.026	2658.43
894.342	2642.84
894.657	2637.42
894.973	2618.21
895.289	2613.69
895.604	2601.71
895.92	2587.7
896.235	2573.69
896.55	2595.61
896.865	2566.01
897.181	2547.48
897.496	2548.83
897.811	2538.44
898.126	2544.76
898.441	2551.77
898.756	2512.22
899.071	2497.99
899.386	2483.07
899.7	2509.51
900.015	2505.44
900.33	2476.97
900.644	2441.26
900.959	2472
901.273	2424.77
901.588	2446.01
901.902	2483.97
902.216	2412.79
902.531	2435.16
902.845	2443.98
903.159	2411.89
903.473	2402.85
903.787	2387.71
904.101	2397.2
904.415	2388.38
904.729	2361.94
905.042	2349.74
905.356	2394.26
905.67	2364.2
905.984	2382.51
906.297	2358.33
906.611	2331.21
906.924	2323.3
907.237	2291.66
907.551	2285.11
907.864	2327.14
908.177	2319.68
908.491	2284.88
908.804	2280.82
909.117	2263.64
909.43	2253.47
909.743	2242.85
910.056	2256.18
910.368	2217.99
910.681	2201.72
910.994	2221.61
911.307	2208.73
911.619	2224.55
911.932	2194.26
912.244	2183.87
912.557	2160.82
912.869	2173.25
913.181	2166.92
913.494	2165.34
913.806	2156.75
914.118	2131.67
914.43	2114.72
914.742	2118.11
915.054	2127.37
915.366	2085.57
915.678	2118.56
915.99	2116.53
916.302	2075.17
916.613	2095.28
916.925	2085.57
917.236	2052.57
917.548	2083.98
917.859	2067.94
918.171	2076.08
918.482	2043.08
918.794	2024.1
919.105	2043.76
919.416	2013.48
919.727	2030.43
920.038	2013.25
920.349	2003.53
920.66	1991.11
920.971	1980.48
921.282	1969.64
921.593	2001.5
921.903	1972.58
922.214	1959.02
922.525	1923.99
922.835	1959.69
923.146	1931.22
923.456	1945.01
923.767	1909.75
924.077	1897.77
924.387	1883.76
924.697	1890.09
925.008	1889.19
925.318	1886.7
925.628	1862.07
925.938	1879.47
926.248	1851.45
926.558	1851.22
926.867	1860.49
927.177	1835.86
927.487	1826.36
927.796	1827.95
928.106	1805.12
928.416	1824.1
928.725	1795.86
929.034	1810.77
929.344	1795.86
929.653	1772.81
929.962	1816.65
930.271	1762.86
930.581	1779.13
930.89	1768.96
931.199	1754.73
931.508	1741.62
931.817	1766.7
932.125	1753.82
932.434	1784.33
932.743	1728.51
933.051	1710.21
933.36	1715.63
933.669	1702.53
933.977	1686.48
934.286	1689.42
934.594	1659.14
934.902	1669.98
935.21	1698.01
935.519	1701.62
935.827	1655.3
936.135	1647.16
936.443	1667.72
936.751	1621.17
937.059	1651
937.367	1651
937.674	1621.85
937.982	1639.7
938.29	1631.57
938.597	1603.55
938.905	1590.44
939.213	1616.43
939.52	1613.71
939.827	1595.18
940.135	1597.22
940.442	1574.85
940.749	1567.16
941.056	1558.8
941.363	1566.03
941.67	1569.87
941.977	1530.33
942.284	1528.07
942.591	1552.7
942.898	1526.49
943.205	1542.53
943.511	1547.28
943.818	1542.3
944.125	1498.24
944.431	1506.15
944.738	1512.25
945.044	1508.18
945.35	1492.14
945.657	1524.9
945.963	1505.24
946.269	1484.9
946.575	1494.85
946.881	1481.29
947.187	1469.31
947.493	1467.5
947.799	1448.52
948.105	1466.37
948.41	1441.29
948.716	1435.87
949.022	1427.73
949.327	1433.15
949.633	1427.05
949.938	1437.67
950.244	1402.42
950.549	1409.2
950.854	1381.63
951.16	1373.95
951.465	1395.42
951.77	1385.7
952.075	1368.52
952.38	1395.19
952.685	1389.54
952.99	1379.82
953.294	1350.22
953.599	1352.25
953.904	1354.74
954.209	1330.33
954.513	1331.69
954.818	1352.48
955.122	1351.8
955.426	1361.74
955.731	1314.97
956.035	1336.43
956.339	1323.55
956.643	1316.55
956.948	1292.59
957.252	1300.95
957.556	1300.28
957.86	1293.95
958.163	1294.18
958.467	1285.36
958.771	1301.63
959.075	1260.73
959.378	1270.67
959.682	1280.84
959.985	1262.99
960.289	1254.4
960.592	1256.66
960.896	1270.9
961.199	1231.8
961.502	1267.28
961.805	1217.34
962.108	1224.12
962.411	1227.51
962.714	1212.14
963.017	1232.26
963.32	1206.95
963.623	1202.65
963.926	1241.07
964.228	1201.3
964.531	1215.76
964.833	1207.17
965.136	1161.07
965.438	1193.16
965.741	1172.82
966.043	1186.61
966.345	1179.15
966.648	1158.81
966.95	1177.34
967.252	1157.23
967.554	1158.59
967.856	1149.32
968.158	1150
968.46	1137.79
968.761	1138.47
969.063	1159.72
969.365	1145.03
969.666	1129.89
969.968	1130.11
970.269	1121.75
970.571	1125.14
970.872	1128.3
971.174	1106.84
971.475	1106.38
971.776	1094.18
972.077	1098.7
972.378	1081.53
972.679	1091.69
972.98	1090.56
973.281	1093.28
973.582	1059.6
973.883	1087.63
974.183	1056.44
974.484	1080.62
974.785	1066.61
975.085	1074.29
975.386	1055.76
975.686	1041.98
975.986	1047.18
976.287	1046.72
976.587	1045.59
976.887	1029.32
977.187	1033.84
977.487	1046.72
977.787	1033.62
978.087	1035.65
978.387	1033.84
978.687	1014.63
978.987	1012.83
979.286	1030.68
979.586	999.72
979.885	996.56
980.185	993.84
980.484	1000.4
980.784	981.87
981.083	995.88
981.382	985.93
981.682	988.65
981.981	987.97
982.28	979.16
982.579	975.31
982.878	950.46
983.177	964.47
983.475	948.87
983.774	938.48
984.073	985.93
984.372	952.94
984.67	958.14
984.969	977.8
985.267	952.72
985.566	949.78
985.864	951.81
986.162	928.31
986.461	930.57
986.759	937.57
987.057	941.64
987.355	924.92
987.653	946.16
987.951	887.63
988.249	913.85
988.547	919.95
988.844	921.98
989.142	912.26
989.44	893.96
989.737	921.3
990.035	895.54
990.332	896.45
990.63	903.68
990.927	892.15
991.224	899.61
991.521	889.89
991.819	854.86
992.116	865.26
992.413	881.98
992.71	841.53
993.006	882.43
993.303	861.19
993.6	849.44
993.897	905.48
994.193	850.57
994.49	863.45
994.787	860.29
995.083	841.53
995.379	840.63
995.676	844.92
995.972	847.63
996.268	846.73
996.565	831.14
996.861	820.52
997.157	825.71
997.453	841.31
997.749	845.6
998.044	803.79
998.34	807.41
998.636	818.03
998.932	830.01
999.227	784.36
999.523	804.92
999.818	805.37
1000.114	792.49
1000.409	786.84
1000.704	806.5
1001	804.92
1001.295	775.54
1001.59	783.23
1001.885	804.24
1002.18	770.12
1002.475	788.88
1002.77	765.38
1003.065	772.15
1003.359	772.83
1003.654	754.53
1003.949	756.79
1004.243	763.12
1004.538	745.94
1004.832	733.96
1005.127	772.38
1005.421	744.36
1005.715	743.91
1006.009	733.96
1006.304	752.27
1006.598	723.57
1006.892	714.53
1007.186	735.55
1007.48	729.67
1007.773	718.6
1008.067	693.96
1008.361	726.05
1008.655	699.16
1008.948	726.51
1009.242	709.56
1009.535	686.73
1009.829	709.33
1010.122	713.17
1010.415	681.08
1010.708	703.46
1011.001	688.32
1011.295	673.63
1011.588	710.24
1011.881	678.6
1012.173	682.44
1012.466	671.14
1012.759	688.99
1013.052	650.8
1013.344	680.18
1013.637	661.65
1013.93	676.79
1014.222	648.09
1014.514	661.65
1014.807	668.88
1015.099	674.76
1015.391	635.89
1015.683	675.89
1015.976	652.38
1016.268	658.49
1016.56	653.06
1016.851	633.4
1017.143	635.89
1017.435	645.83
1017.727	631.59
1018.018	630.46
1018.31	618.94
1018.602	646.06
1018.893	615.77
1019.185	635.89
1019.476	623.68
1019.767	639.05
1020.058	609
1020.35	606.28
1020.641	598.83
1020.932	605.61
1021.223	588.66
1021.514	602.89
1021.804	603.8
1022.095	592.27
1022.386	585.04
1022.677	592.5
1022.967	617.13
1023.258	590.69
1023.548	563.12
1023.839	581.2
1024.129	583.01
1024.419	592.95
1024.709	572.39
1025	564.02
1025.29	587.3
1025.58	552.5
1025.87	569.22
1026.16	560.18
1026.449	556.12
1026.739	521.31
1027.029	553.18
1027.319	543.01
1027.608	586.17
1027.898	568.09
1028.187	563.57
1028.477	555.44
1028.766	561.09
1029.055	526.96
1029.344	552.27
1029.634	552.5
1029.923	534.19
1030.212	528.09
1030.501	540.97
1030.79	545.95
1031.078	536.68
1031.367	531.48
1031.656	524.03
1031.945	544.59
1032.233	515.89
1032.522	547.75
1032.81	531.03
1033.099	492.16
1033.387	519.51
1033.675	527.42
1033.963	506.4
1034.251	504.37
1034.54	493.74
1034.828	507.98
1035.116	491.94
1035.403	509.34
1035.691	493.97
1035.979	486.74
1036.267	497.13
1036.554	490.13
1036.842	484.7
1037.129	509.79
1037.417	478.6
1037.704	490.35
1037.992	476.12
1038.279	487.42
1038.566	485.61
1038.853	485.61
1039.14	485.61
