Data from mousepad_grey_FLMS001491_00099.txt Node
Date: Wed Feb 08 14:30:14 GMT 2017
User: dcchb
Spectrometer: FLMS00149
Trigger mode: 0
Integration Time (sec): 2.000000E-2
Scans to average: 10
Electric dark correction enabled: true
Nonlinearity correction enabled: false
Boxcar width: 0
XAxis mode: Wavelengths
Number of Pixels in Spectrum: 2048
>>>>>Begin Spectral Data<<<<<
341.393	-16.27
341.776	-16.27
342.16	-16.27
342.543	-57.17
342.927	-50.39
343.31	-85.87
343.693	-68.7
344.077	-43.84
344.46	-39.55
344.843	-47.46
345.226	-66.66
345.61	-46.78
345.993	-9.04
346.376	-8.14
346.759	3.39
347.142	27.12
347.525	52.88
347.908	65.99
348.291	72.99
348.674	76.38
349.057	117.29
349.44	124.97
349.823	149.15
350.206	157.51
350.588	172.88
350.971	192.54
351.354	208.36
351.737	218.3
352.119	253.1
352.502	241.8
352.884	256.26
353.267	275.92
353.65	268.02
354.032	280.9
354.414	296.72
354.797	292.42
355.179	302.14
355.562	316.6
355.944	310.27
356.326	301.46
356.709	324.51
357.091	327.45
357.473	324.96
357.855	327.45
358.238	330.16
358.62	312.08
359.002	327.9
359.384	342.82
359.766	338.52
360.148	335.36
360.53	308.47
360.912	314.79
361.294	323.83
361.676	311.86
362.057	329.26
362.439	319.99
362.821	324.29
363.203	328.8
363.584	292.65
363.966	312.99
364.348	302.36
364.729	297.85
365.111	296.49
365.493	294.91
365.874	306.21
366.256	298.75
366.637	296.26
367.019	291.97
367.4	312.53
367.781	292.2
368.163	290.16
368.544	300.56
368.925	283.16
369.306	305.98
369.688	300.11
370.069	304.17
370.45	304.85
370.831	303.72
371.212	294.68
371.593	305.75
371.974	300.56
372.355	289.48
372.736	324.51
373.117	288.81
373.498	298.75
373.879	283.83
374.26	304.17
374.641	309.82
375.021	310.73
375.402	294.23
375.783	315.47
376.163	309.82
376.544	291.29
376.925	296.49
377.305	298.52
377.686	304.4
378.066	309.37
378.447	319.09
378.827	314.57
379.208	316.6
379.588	310.73
379.968	299.88
380.349	303.95
380.729	308.24
381.109	318.18
381.489	311.18
381.87	319.09
382.25	317.51
382.63	322.03
383.01	318.18
383.39	324.06
383.77	326.09
384.15	320.9
384.53	327.45
384.91	326.32
385.29	339.2
385.67	334.68
386.049	330.61
386.429	322.7
386.809	333.1
387.189	316.83
387.568	330.61
387.948	332.19
388.328	334
388.707	342.36
389.087	345.75
389.466	339.43
389.846	344.17
390.225	349.14
390.605	351.18
390.984	344.17
391.363	349.6
391.743	345.3
392.122	360.44
392.501	339.2
392.881	352.08
393.26	354.34
393.639	350.73
394.018	345.98
394.397	358.41
394.776	367.9
395.155	369.26
395.534	372.42
395.913	339.43
396.292	360.89
396.671	348.69
397.05	374
397.429	383.49
397.808	378.97
398.186	378.52
398.565	390.95
398.944	359.54
399.323	379.88
399.701	390.27
400.08	369.48
400.458	388.46
400.837	392.98
401.215	371.74
401.594	403.61
401.972	375.58
402.351	396.37
402.729	388.92
403.107	399.76
403.486	423.04
403.864	400.67
404.242	416.03
404.62	409.48
404.999	401.8
405.377	418.97
405.755	408.35
406.133	413.77
406.511	404.28
406.889	436.15
407.267	433.21
407.645	431.85
408.023	424.4
408.401	428.69
408.779	442.7
409.156	442.25
409.534	447.22
409.912	462.36
410.29	431.18
410.667	465.98
411.045	459.2
411.422	455.58
411.8	463.04
412.178	453.1
412.555	467.11
412.933	446.32
413.31	461
413.687	472.3
414.065	457.39
414.442	480.44
414.819	485.86
415.197	487.67
415.574	490.61
415.951	503.26
416.328	507.33
416.705	522.7
417.082	493.77
417.46	502.59
417.837	492.87
418.214	524.73
418.591	513.88
418.967	526.54
419.344	510.5
419.721	534.9
420.098	526.09
420.475	555.01
420.852	544.17
421.228	546.2
421.605	518.4
421.982	532.87
422.358	538.74
422.735	533.55
423.111	549.36
423.488	542.13
423.864	541.91
424.241	570.38
424.617	581.68
424.994	582.81
425.37	576.48
425.746	579.87
426.123	571.96
426.499	590.72
426.875	580.55
427.251	601.11
427.627	615.13
428.003	581.68
428.379	593.2
428.756	594.79
429.132	590.27
429.507	588.01
429.883	623.03
430.259	602.24
430.635	638.63
431.011	631.4
431.387	667.55
431.763	642.69
432.138	669.81
432.514	665.29
432.89	670.26
433.265	687.89
433.641	674.78
434.016	671.85
434.392	716.59
434.767	711.85
435.143	712.75
435.518	710.94
435.894	708.46
436.269	729.47
436.644	726.31
437.02	724.73
437.395	724.27
437.77	742.13
438.145	767.44
438.52	766.99
438.895	754.1
439.271	769.7
439.646	776.02
440.021	778.06
440.395	799.3
440.77	764.95
441.145	773.99
441.52	785.29
441.895	789.81
442.27	798.62
442.645	798.17
443.019	822.35
443.394	799.08
443.769	801.33
444.143	832.07
444.518	820.09
444.892	832.75
445.267	842.24
445.641	824.84
446.016	841.79
446.39	854.21
446.764	860.09
447.139	859.19
447.513	879.3
447.887	874.78
448.262	872.07
448.636	880.43
449.01	878.17
449.384	873.42
449.758	876.59
450.132	932.63
450.506	891.73
450.88	921.11
451.254	936.25
451.628	940.77
452.002	917.72
452.376	964.49
452.75	947.77
453.123	955
453.497	965.4
453.871	969.47
454.244	991.84
454.618	991.61
454.992	1010.82
455.365	988.45
455.739	1007.43
456.112	1035.9
456.486	1057.6
456.859	1053.08
457.232	1044.04
457.606	1075
457.979	1092.85
458.352	1104.15
458.725	1108.22
459.099	1109.12
459.472	1120.2
459.845	1132.17
460.218	1162
460.591	1130.82
460.964	1141.66
461.337	1176.01
461.71	1197.48
462.083	1216.01
462.456	1202.68
462.829	1210.14
463.201	1237.48
463.574	1235.67
463.947	1265.28
464.32	1276.8
464.692	1278.84
465.065	1286.07
465.438	1287.42
465.81	1311.6
466.183	1329.91
466.555	1358.83
466.928	1374.43
467.3	1352.96
467.672	1371.72
468.045	1398.61
468.417	1426.63
468.789	1427.76
469.161	1458.72
469.534	1461.43
469.906	1493.75
470.278	1493.75
470.65	1494.88
471.022	1530.58
471.394	1570.58
471.766	1559.96
472.138	1581.65
472.51	1623.23
472.882	1631.14
473.253	1696.45
473.625	1680.86
473.997	1704.36
474.369	1711.37
474.74	1721.76
475.112	1750.24
475.484	1783.68
475.855	1794.3
476.227	1825.04
476.598	1899.84
476.97	1836.11
477.341	1931.47
477.713	1936.9
478.084	1968.08
478.455	1970.12
478.827	1979.83
479.198	2069.1
479.569	2071.13
479.94	2124.01
480.311	2091.02
480.682	2144.58
481.053	2222.31
481.424	2234.29
481.795	2251.69
482.166	2312.48
482.537	2327.85
482.908	2340.73
483.279	2394.97
483.65	2432.25
484.021	2469.54
484.391	2460.5
484.762	2511.35
485.133	2533.72
485.503	2543.66
485.874	2588.18
486.244	2644.22
486.615	2658.01
486.985	2667.27
487.356	2744.33
487.726	2768.29
488.097	2816.42
488.467	2826.14
488.837	2887.61
489.207	2899.81
489.578	2924.44
489.948	2997.66
490.318	2992.46
490.688	3026.59
491.058	3060.48
491.428	3138.9
491.798	3159.01
492.168	3128.28
492.538	3196.98
492.908	3209.18
493.278	3264.77
493.648	3263.42
494.017	3300.48
494.387	3316.52
494.757	3401.72
495.126	3399.46
495.496	3469.74
495.866	3415.28
496.235	3484.88
496.605	3476.74
496.974	3542.73
497.344	3546.57
497.713	3616.18
498.082	3617.98
498.452	3652.56
498.821	3667.47
499.19	3700.02
499.559	3716.74
499.928	3778.66
500.298	3725.33
500.667	3787.47
501.036	3800.8
501.405	3837.41
501.774	3850.97
502.143	3861.82
502.512	3928.48
502.88	3926.9
503.249	3975.71
503.618	3961.7
503.987	4001.48
504.356	4046.67
504.724	4013.45
505.093	4032.21
505.462	4083.51
505.83	4120.12
506.199	4111.53
506.567	4163.51
506.936	4229.49
507.304	4221.81
507.672	4263.16
508.041	4302.03
508.409	4263.62
508.777	4336.16
509.145	4368.02
509.514	4411.41
509.882	4394.01
510.25	4410.05
510.618	4427.45
510.986	4455.25
511.354	4526.21
511.722	4528.69
512.09	4621.57
512.458	4568.24
512.826	4630.39
513.193	4631.52
513.561	4658.41
513.929	4719.65
514.297	4768.24
514.664	4765.3
515.032	4753.55
515.4	4837.16
515.767	4850.95
516.135	4893.43
516.502	4862.25
516.869	4960.32
517.237	4971.85
517.604	4951.96
517.972	5064.05
518.339	5038.74
518.706	5090.04
519.073	5077.38
519.44	5135.91
519.808	5146.76
520.175	5203.7
520.542	5304.95
520.909	5266.08
521.276	5298.62
521.643	5338.16
522.009	5357.6
522.376	5364.83
522.743	5469.69
523.11	5533.19
523.477	5560.08
523.843	5545.62
524.21	5661.77
524.577	5700.19
524.943	5718.49
525.31	5729.11
525.676	5799.17
526.043	5832.61
526.409	5814.76
526.776	5893.18
527.142	5950.58
527.508	5949.45
527.874	5946.06
528.241	5948.32
528.607	6005.94
528.973	6087.3
529.339	6146.51
529.705	6189.22
530.071	6175.2
530.437	6198.71
530.803	6264.92
531.169	6300.4
531.535	6335.43
531.901	6383.33
532.267	6430.57
532.632	6427.63
532.998	6438.25
533.364	6497.23
533.73	6462.88
534.095	6586.49
534.461	6539.49
534.826	6609.32
535.192	6657.23
535.557	6740.39
535.923	6704.23
536.288	6745.36
536.653	6780.16
537.019	6772.25
537.384	6801.63
537.749	6888.41
538.114	6893.38
538.479	6921.4
538.845	6934.05
539.21	6950.55
539.575	6975.18
539.94	6979.48
540.305	7050.44
540.67	7057.67
541.034	7076.88
541.399	7107.61
541.764	7126.82
542.129	7139.02
542.494	7262.63
542.858	7223.99
543.223	7232.8
543.587	7283.88
543.952	7289.98
544.316	7364.55
544.681	7343.31
545.045	7430.77
545.41	7428.51
545.774	7408.62
546.138	7472.57
546.503	7484.32
546.867	7495.62
547.231	7596.64
547.595	7666.01
547.959	7632.34
548.324	7668.27
548.688	7682.06
549.052	7725.9
549.416	7724.54
549.779	7796.63
550.143	7817.65
550.507	7893.35
550.871	7937.64
551.235	7902.17
551.599	7937.19
551.962	7964.76
552.326	7995.72
552.689	7912.56
553.053	7992.11
553.417	8034.59
553.78	8193.68
554.143	8117.75
554.507	8181.93
554.87	8197.3
555.234	8262.38
555.597	8268.03
555.96	8295.38
556.323	8346.45
556.686	8409.72
557.05	8428.48
557.413	8417.41
557.776	8460.79
558.139	8461.02
558.502	8526.33
558.865	8570.85
559.228	8546.44
559.59	8638.19
559.953	8577.18
560.316	8742.14
560.679	8811.97
561.041	8795.7
561.404	8867.79
561.767	8875.47
562.129	8888.13
562.492	8957.28
562.854	8908.92
563.217	8945.98
563.579	9076.37
563.941	9085.64
564.304	9154.79
564.666	9218.74
565.028	9165.86
565.39	9218.51
565.753	9268.23
566.115	9292.19
566.477	9293.09
566.839	9381.9
567.201	9402.92
567.563	9408.57
567.925	9483.82
568.287	9565.62
568.648	9552.29
569.01	9647.2
569.372	9675.45
569.734	9650.37
570.095	9639.07
570.457	9685.4
570.819	9735.56
571.18	9721.55
571.542	9784.6
571.903	9782.12
572.265	9860.76
572.626	9938.5
572.987	9933.75
573.349	9903.24
573.71	9972.17
574.071	9998.83
574.432	10093.52
574.794	10135.33
575.155	10127.42
575.516	10130.36
575.877	10148.89
576.238	10192.95
576.599	10227.75
576.96	10232.95
577.32	10218.26
577.681	10293.29
578.042	10285.61
578.403	10372.38
578.763	10305.72
579.124	10286.74
579.485	10388.43
579.845	10444.25
580.206	10432.95
580.566	10387.07
580.927	10429.1
581.287	10476.79
581.648	10340.97
582.008	10439.73
582.368	10477.24
582.728	10493.06
583.089	10506.84
583.449	10465.26
583.809	10495.77
584.169	10588.42
584.529	10537.12
584.889	10619.61
585.249	10550.91
585.609	10573.96
585.969	10582.77
586.329	10517.01
586.688	10591.36
587.048	10526.28
587.408	10603.56
587.768	10576.45
588.127	10623.45
588.487	10570.34
588.846	10621.64
589.206	10604.69
589.565	10563.11
589.925	10650.57
590.284	10640.85
590.643	10641.98
591.003	10716.1
591.362	10667.74
591.721	10692.83
592.08	10661.87
592.44	10632.71
592.799	10723.56
593.158	10635.43
593.517	10666.84
593.876	10691.7
594.235	10649.89
594.593	10740.06
594.952	10681.08
595.311	10755.42
595.67	10713.62
596.029	10783.67
596.387	10799.26
596.746	10788.64
597.104	10813.28
597.463	10700.06
597.822	10738.93
598.18	10804.46
598.538	10757.23
598.897	10808.98
599.255	10752.71
599.613	10890.56
599.972	10791.81
600.33	10807.85
600.688	10818.47
601.046	10849.88
601.404	10893.27
601.762	10865.25
602.12	10866.83
602.478	10891.69
602.836	10890.11
603.194	10872.93
603.552	10859.38
603.91	10887.17
604.268	10927.4
604.625	10915.65
604.983	10890.11
605.341	10902.31
605.698	10867.28
606.056	11039.71
606.413	10941.63
606.771	11034.06
607.128	10957.45
607.485	10962.2
607.843	10911.13
608.2	11039.94
608.557	11053.27
608.914	10947.51
609.272	11100.05
609.629	11052.36
609.986	11074.96
610.343	11056.43
610.7	11139.37
611.057	11062.31
611.414	11071.8
611.771	11098.92
612.127	11157.67
612.484	11150.44
612.841	11164.45
613.198	11141.4
613.554	11157.45
613.911	11201.74
614.267	11215.3
614.624	11248.74
614.98	11243.77
615.337	11252.13
615.693	11290.32
616.05	11303.66
616.406	11315.41
616.762	11236.77
617.118	11208.52
617.475	11311.57
617.831	11409.64
618.187	11399.02
618.543	11377.33
618.899	11458.46
619.255	11423.2
619.611	11428.4
619.967	11412.36
620.323	11479.7
620.678	11340.94
621.034	11401.96
621.39	11319.93
621.746	11396.76
622.101	11460.94
622.457	11408.29
622.812	11502.3
623.168	11500.71
623.523	11483.31
623.879	11529.19
624.234	11363.09
624.589	11584.78
624.945	11478.57
625.3	11561.73
625.655	11485.35
626.01	11467.27
626.365	11512.47
626.72	11452.58
627.075	11447.83
627.43	11421.85
627.785	11416.87
628.14	11500.94
628.495	11489.87
628.85	11539.81
629.205	11428.85
629.559	11491.68
629.914	11451.45
630.269	11427.04
630.623	11425.24
630.978	11481.05
631.332	11422.75
631.687	11468.63
632.041	11390.89
632.396	11416.2
632.75	11362.64
633.104	11446.48
633.459	11375.75
633.813	11419.59
634.167	11408.74
634.521	11331.68
634.875	11333.71
635.229	11305.01
635.583	11325.13
635.937	11365.58
636.291	11371.45
636.645	11268.18
636.999	11289.65
637.352	11334.62
637.706	11277.44
638.06	11344.56
638.413	11296.2
638.767	11252.59
639.121	11328.06
639.474	11213.49
639.828	11225.47
640.181	11234.05
640.534	11237.67
640.888	11214.39
641.241	11171.68
641.594	11212.59
641.947	11182.08
642.301	11226.82
642.654	11245.58
643.007	11220.5
643.36	11231.34
643.713	11184.34
644.066	11211.68
644.419	11171.46
644.771	11077
645.124	10992.71
645.477	11008.07
645.83	10914.97
646.182	10866.38
646.535	10799.94
646.888	10886.95
647.24	10803.11
647.593	10808.53
647.945	10804.46
648.298	10774.86
648.65	10830.9
649.002	10743.9
649.355	10813.73
649.707	10807.85
650.059	10892.14
650.411	10993.84
650.763	10992.48
651.115	11080.61
651.467	11069.99
651.819	11074.96
652.171	11049.2
652.523	11083.1
652.875	11005.81
653.227	10916.78
653.578	11126.94
653.93	11024.79
654.282	10924.91
654.633	10970.78
654.985	11012.82
655.337	11010.11
655.688	11021.18
656.039	10978.24
656.391	11040.61
656.742	11045.81
657.094	10954.97
657.445	11032.25
657.796	11060.73
658.147	11041.97
658.498	10988.19
658.849	10994.74
659.2	11000.84
659.551	10958.36
659.902	11025.7
660.253	10986.6
660.604	11054.85
660.955	10935.53
661.306	11022.76
661.656	10924.68
662.007	10967.17
662.358	11033.83
662.708	11000.39
663.059	11081.74
663.409	10860.28
663.76	11035.19
664.11	10990.45
664.461	11009.88
664.811	11047.85
665.161	10975.08
665.511	10931.01
665.862	11030.22
666.212	10979.6
666.562	11006.94
666.912	11040.84
667.262	10996.55
667.612	10910.9
667.962	10975.98
668.312	10984.57
668.662	11039.71
669.011	11029.99
669.361	10935.53
669.711	10961.75
670.06	10938.47
670.41	10891.92
670.76	10886.04
671.109	10966.72
671.459	10975.76
671.808	10819.38
672.157	10948.64
672.507	10873.16
672.856	10849.21
673.205	10891.92
673.554	10937.79
673.904	10895.31
674.253	10925.59
674.602	10817.34
674.951	10754.97
675.3	10706.16
675.649	10775.31
675.998	10864.8
676.346	10824.35
676.695	10885.14
677.044	10815.08
677.393	10811.02
677.741	10802.43
678.09	10787.51
678.438	10782.09
678.787	10795.2
679.135	10760.4
679.484	10631.58
679.832	10769.66
680.181	10717.23
680.529	10763.78
680.877	10682.2
681.225	10698.25
681.573	10741.64
681.922	10642.43
682.27	10604.92
682.618	10665.03
682.966	10668.19
683.314	10643.11
683.661	10617.35
684.009	10524.92
684.357	10539.16
684.705	10543.68
685.053	10456.67
685.4	10518.37
685.748	10427.07
686.095	10399.5
686.443	10399.95
686.79	10383.23
687.138	10385.94
687.485	10358.6
687.832	10372.16
688.18	10366.73
688.527	10307.53
688.874	10252.61
689.221	10206.06
689.568	10252.61
689.915	10250.58
690.262	10233.86
690.609	10207.87
690.956	10071.15
691.303	10151.15
691.65	10043.8
691.997	10085.84
692.344	10051.49
692.69	10056.46
693.037	10028.44
693.383	9877.48
693.73	9931.94
694.077	9929
694.423	9925.84
694.769	9872.96
695.116	9817.59
695.462	9817.14
695.808	9818.05
696.155	9791.15
696.501	9724.49
696.847	9787.77
697.193	9702.34
697.539	9698.28
697.885	9634.55
698.231	9602.23
698.577	9656.02
698.923	9557.04
699.269	9516.36
699.614	9478.17
699.96	9421.22
700.306	9454.89
700.651	9462.58
700.997	9363.6
701.342	9297.38
701.688	9301.68
702.033	9319.3
702.379	9317.27
702.724	9264.39
703.069	9258.97
703.415	9168.12
703.76	9197.05
704.105	9167.44
704.45	9218.51
704.795	9075.47
705.14	9136.71
705.485	9057.61
705.83	9015.36
706.175	9081.8
706.52	9011.74
706.865	9026.43
707.209	9029.37
707.554	8944.4
707.899	8898.98
708.243	8874.79
708.588	8929.03
708.932	8840.9
709.277	8867.34
709.621	8828.92
709.966	8768.81
710.31	8736.95
710.654	8708.02
710.998	8708.7
711.342	8795.93
711.687	8727.45
712.031	8596.38
712.375	8668.02
712.719	8705.99
713.063	8651.3
713.407	8649.49
713.75	8606.78
714.094	8636.61
714.438	8628.02
714.782	8592.09
715.125	8576.27
715.469	8552.32
715.812	8517.97
716.156	8521.58
716.499	8497.86
716.843	8499.66
717.186	8438.2
717.53	8550.74
717.873	8523.17
718.216	8482.04
718.559	8453.79
718.902	8433.68
719.246	8456.5
719.589	8452.66
719.932	8341.7
720.275	8372.21
720.617	8280.01
720.96	8401.81
721.303	8338.76
721.646	8389.38
721.989	8302.15
722.331	8364.53
722.674	8378.54
723.016	8289.95
723.359	8273
723.701	8315.04
724.044	8352.32
724.386	8282.72
724.729	8250.18
725.071	8259.44
725.413	8267.58
725.755	8275.71
726.097	8189.62
726.439	8187.58
726.782	8255.6
727.124	8221.7
727.465	8208.15
727.807	8222.16
728.149	8171.76
728.491	8207.92
728.833	8270.29
729.175	8206.56
729.516	8225.77
729.858	8174.02
730.199	8150.52
730.541	8193
730.882	8149.39
731.224	8191.88
731.565	8129.28
731.906	8159.33
732.248	8142.16
732.589	8148.49
732.93	8114.14
733.271	8109.62
733.612	8142.16
733.953	8141.48
734.294	8095.61
734.635	8081.82
734.976	8060.35
735.317	8086.34
735.658	8064.42
735.999	8078.88
736.339	8085.66
736.68	8089.5
737.021	8027.36
737.361	8034.82
737.702	8084.99
738.042	8058.09
738.383	8099.22
738.723	8082.05
739.063	8028.94
739.404	8012.67
739.744	8047.47
740.084	7993.91
740.424	8029.39
740.764	8023.97
741.104	8082.73
741.444	8008.83
741.784	8037.98
742.124	7992.11
742.464	8031.43
742.804	8027.81
743.143	8010.18
743.483	7984.65
743.823	7946.46
744.162	7963.63
744.502	8008.6
744.841	7977.19
745.181	8013.12
745.52	7967.47
745.86	8016.96
746.199	8002.95
746.538	7974.48
746.877	7961.37
747.216	7974.48
747.556	7935.16
747.895	7940.36
748.234	7920.92
748.573	7892.22
748.911	7898.55
749.25	7924.54
749.589	7912.56
749.928	7944.88
750.267	7912.56
750.605	7881.15
750.944	7801.38
751.283	7874.37
751.621	7849.51
751.96	7823.75
752.298	7844.99
752.636	7851.54
752.975	7836.86
753.313	7820.59
753.651	7822.62
753.989	7793.24
754.327	7834.6
754.666	7770.87
755.004	7773.58
755.342	7743.53
755.679	7771.55
756.017	7714.37
756.355	7707.37
756.693	7722.96
757.031	7741.94
757.368	7679.35
757.706	7695.62
758.044	7665.79
758.381	7663.98
758.719	7617.43
759.056	7619.91
759.394	7588.95
759.731	7497.43
760.068	7568.16
760.405	7496.07
760.743	7459.92
761.08	7488.84
761.417	7387.83
761.754	7449.97
762.091	7395.06
762.428	7405
762.765	7399.13
763.102	7423.08
763.438	7445.91
763.775	7354.16
764.112	7358.45
764.449	7322.52
764.785	7362.29
765.122	7288.4
765.458	7250.88
765.795	7275.97
766.131	7278.68
766.467	7168.17
766.804	7162.52
767.14	7077.78
767.476	7140.6
767.812	7091.34
768.148	7120.94
768.485	7093.15
768.821	7059.25
769.157	7066.25
769.492	6990.1
769.828	7023.77
770.164	6961.62
770.5	6940.16
770.836	6966.14
771.171	6939.03
771.507	6913.04
771.842	6795.98
772.178	6817.22
772.513	6804.11
772.849	6835.98
773.184	6816.32
773.519	6771.35
773.855	6721.86
774.19	6703.78
774.525	6650.22
774.86	6734.96
775.195	6630.33
775.53	6642.54
775.865	6657.68
776.2	6610.67
776.535	6469.21
776.87	6546.95
777.205	6493.39
777.539	6451.81
777.874	6452.26
778.209	6421.98
778.543	6425.82
778.878	6395.54
779.212	6354.18
779.547	6334.75
779.881	6303.79
780.215	6282.32
780.55	6314.18
780.884	6296.78
781.218	6276.45
781.552	6218.82
781.886	6184.02
782.22	6194.87
782.554	6172.95
782.888	6085.49
783.222	6106.73
783.556	6140.86
783.889	6097.47
784.223	6074.64
784.557	6023.8
784.89	6011.14
785.224	5998.94
785.557	5941.31
785.891	5979.05
786.224	5966.4
786.558	5940.41
786.891	5928.43
787.224	5875.33
787.557	5845.95
787.891	5832.16
788.224	5829.9
788.557	5870.81
788.89	5886.62
789.223	5815.44
789.556	5716.01
789.888	5747.19
790.221	5690.02
790.554	5693.64
790.887	5712.62
791.219	5683.47
791.552	5632.17
791.884	5589.23
792.217	5610.02
792.549	5607.08
792.882	5552.85
793.214	5572.51
793.546	5617.25
793.879	5535.9
794.211	5531.38
794.543	5494.09
794.875	5513.3
795.207	5497.48
795.539	5427.2
795.871	5475.79
796.203	5393.3
796.535	5438.73
796.867	5409.12
797.198	5372.97
797.53	5363.93
797.862	5341.33
798.193	5321.89
798.525	5330.93
798.856	5307.21
799.188	5244.83
799.519	5265.85
799.85	5204.83
800.182	5222.46
800.513	5172.52
800.844	5209.81
801.175	5216.13
801.506	5199.64
801.837	5192.63
802.168	5205.06
802.499	5167.1
802.83	5106.53
803.161	5098.4
803.491	5083.26
803.822	5067.44
804.153	5080.54
804.483	5014.33
804.814	5063.82
805.145	5012.98
805.475	5027.89
805.805	4994.44
806.136	4937.27
806.466	4927.33
806.796	4999.87
807.126	4927.33
807.457	4883.49
807.787	4934.56
808.117	4863.83
808.447	4863.83
808.777	4900.89
809.107	4875.58
809.436	4855.92
809.766	4812.3
810.096	4855.47
810.426	4813.21
810.755	4827.9
811.085	4813.88
811.414	4797.61
811.744	4742.93
812.073	4754.45
812.403	4799.42
812.732	4739.54
813.061	4718.52
813.39	4715.81
813.719	4746.99
814.049	4728.24
814.378	4681.23
814.707	4680.78
815.036	4679.65
815.365	4667.9
815.693	4615.02
816.022	4623.16
816.351	4631.06
816.68	4578.86
817.008	4615.25
817.337	4589.71
817.665	4591.52
817.994	4544.97
818.322	4573.21
818.651	4529.15
818.979	4517.62
819.307	4546.32
819.636	4550.16
819.964	4490.73
820.292	4474.91
820.62	4541.12
820.948	4495.25
821.276	4491.18
821.604	4477.62
821.932	4517.4
822.259	4515.14
822.587	4478.98
822.915	4434.69
823.243	4471.97
823.57	4490.28
823.898	4489.15
824.225	4479.88
824.553	4420.67
824.88	4435.82
825.207	4484.85
825.535	4451.86
825.862	4504.06
826.189	4518.75
826.516	4558.07
826.843	4503.84
827.17	4489.37
827.497	4513.55
827.824	4487.34
828.151	4487.34
828.478	4475.14
828.805	4484.85
829.131	4456.61
829.458	4509.03
829.785	4443.95
830.111	4490.5
830.438	4477.62
830.764	4460.22
831.09	4453.22
831.417	4430.62
831.743	4468.36
832.069	4483.27
832.395	4468.36
832.722	4467
833.048	4438.53
833.374	4488.7
833.7	4414.12
834.026	4450.05
834.351	4449.83
834.677	4457.28
835.003	4480.79
835.329	4435.14
835.654	4453.89
835.98	4435.59
836.306	4417.74
836.631	4405.99
836.956	4445.53
837.282	4408.7
837.607	4394.46
837.932	4415.93
838.258	4372.77
838.583	4337.74
838.908	4340
839.233	4343.84
839.558	4350.17
839.883	4302.03
840.208	4316.95
840.533	4317.4
840.858	4306.1
841.182	4295.93
841.507	4288.47
841.832	4270.17
842.156	4299.77
842.481	4264.29
842.805	4243.5
843.13	4250.51
843.454	4273.33
843.778	4262.26
844.103	4228.36
844.427	4196.73
844.751	4195.14
845.075	4252.54
845.399	4175.71
845.723	4168.93
846.047	4200.79
846.371	4184.07
846.695	4125.99
847.019	4182.26
847.343	4110.63
847.666	4119.21
847.99	4103.62
848.313	4125.99
848.637	4076.05
848.96	4035.6
849.284	4016.62
849.607	4063.17
849.931	4022.72
850.254	4003.28
850.577	3984.3
850.9	3917.19
851.223	3930.07
851.546	3950.63
851.869	3887.36
852.192	3914.93
852.515	3851.65
852.838	3829.73
853.161	3930.74
853.483	3858.43
853.806	3825.66
854.129	3834.25
854.451	3790.63
854.774	3776.4
855.096	3745.21
855.419	3796.28
855.741	3769.84
856.063	3779.34
856.385	3741.6
856.708	3763.06
857.03	3733.24
857.352	3732.33
857.674	3719.68
857.996	3698.43
858.318	3701.82
858.64	3679.9
858.961	3679.68
859.283	3691.65
859.605	3637.19
859.926	3638.77
860.248	3636.29
860.57	3586.12
860.891	3649.85
861.212	3602.17
861.534	3576.18
861.855	3629.96
862.176	3572.56
862.498	3616.63
862.819	3585.44
863.14	3620.24
863.461	3597.87
863.782	3585.22
864.103	3576.18
864.424	3549.29
864.745	3521.94
865.065	3539.12
865.386	3503.18
865.707	3546.35
866.027	3506.8
866.348	3521.72
866.668	3522.62
866.989	3483.75
867.309	3466.12
867.63	3470.42
867.95	3470.19
868.27	3462.06
868.59	3433.36
868.91	3501.6
869.23	3488.72
869.55	3408.27
869.87	3448.04
870.19	3453.92
870.51	3465.67
870.83	3469.74
871.15	3423.19
871.469	3448.5
871.789	3404.43
872.109	3438.33
872.428	3411.66
872.748	3425.67
873.067	3380.7
873.386	3416.18
873.706	3393.81
874.025	3384.09
874.344	3390.87
874.663	3396.07
874.982	3372.79
875.301	3366.47
875.62	3375.05
875.939	3372.11
876.258	3358.33
876.577	3342.28
876.896	3318.78
877.214	3321.72
877.533	3370.08
877.852	3350.19
878.17	3326.24
878.489	3334.83
878.807	3306.58
879.125	3333.7
879.444	3355.84
879.762	3304.55
880.08	3288.5
880.398	3326.69
880.716	3273.13
881.034	3251.44
881.352	3276.07
881.67	3304.55
881.988	3264.32
882.306	3284.21
882.624	3229.29
882.941	3241.04
883.259	3242.17
883.577	3254.15
883.894	3258.9
884.212	3206.47
884.529	3222.51
884.846	3170.54
885.164	3180.71
885.481	3196.98
885.798	3225.68
886.115	3206.7
886.432	3137.54
886.75	3168.28
887.067	3195.17
887.383	3191.78
887.7	3160.14
888.017	3106.58
888.334	3121.5
888.651	3138.45
888.967	3114.49
889.284	3119.24
889.6	3071.11
889.917	3123.08
890.233	3099.35
890.55	3129.18
890.866	3121.27
891.182	3102.07
891.498	3058.22
891.815	3074.72
892.131	3017.55
892.447	3042.18
892.763	3046.02
893.079	3052.58
893.395	3011.45
893.71	3000.83
894.026	3001.95
894.342	2981.39
894.657	3013.03
894.973	3035.63
895.289	2956.76
895.604	2938.45
895.92	2951.79
896.235	2934.84
896.55	2937.1
896.865	2932.13
897.181	2952.01
897.496	2940.94
897.811	2886.03
898.126	2894.61
898.441	2857.1
898.756	2888.74
899.071	2850.32
899.386	2861.39
899.7	2851.45
900.015	2811.23
900.33	2842.19
900.644	2801.06
900.959	2808.29
901.273	2840.6
901.588	2793.82
901.902	2780.04
902.216	2784.56
902.531	2764.45
902.845	2740.72
903.159	2706.37
903.473	2752.24
903.787	2708.63
904.101	2729.65
904.415	2695.07
904.729	2707.95
905.042	2689.87
905.356	2717.22
905.67	2652.36
905.984	2679.93
906.297	2652.13
906.611	2655.75
906.924	2661.62
907.237	2648.07
907.551	2661.62
907.864	2605.13
908.177	2624.11
908.491	2604
908.804	2599.25
909.117	2586.82
909.43	2554.28
909.743	2582.3
910.056	2568.29
910.368	2549.31
910.681	2551.57
910.994	2528.3
911.307	2523.32
911.619	2532.36
911.932	2519.93
912.244	2476.09
912.557	2497.34
912.869	2484.68
913.181	2463.89
913.494	2472.7
913.806	2457.79
914.118	2439.94
914.43	2442.2
914.742	2405.13
915.054	2401.52
915.366	2423.44
915.678	2416.89
915.99	2390.9
916.302	2375.3
916.613	2370.56
916.925	2361.75
917.236	2355.87
917.548	2369.88
917.859	2325.81
918.171	2339.37
918.482	2340.73
918.794	2326.27
919.105	2295.98
919.416	2279.26
919.727	2285.36
920.038	2285.82
920.349	2253.5
920.66	2255.31
920.971	2252.82
921.282	2265.25
921.593	2229.09
921.903	2202.2
922.214	2192.48
922.525	2223.9
922.835	2192.48
923.146	2171.69
923.456	2197.91
923.767	2178.47
924.077	2154.75
924.387	2176.67
924.697	2177.12
925.008	2175.76
925.318	2136.89
925.628	2163.33
925.938	2117.23
926.248	2102.32
926.558	2128.31
926.867	2121.07
927.177	2075.2
927.487	2104.35
927.796	2060.74
928.106	2082.43
928.416	2069.78
928.725	2083.34
929.034	2073.39
929.344	2046.05
929.653	2048.31
929.962	2038.59
930.271	2037.91
930.581	2016.9
930.89	2003.11
931.199	2005.6
931.508	1998.82
931.817	2001.76
932.125	1964.92
932.434	1980.51
932.743	1961.98
933.051	1966.5
933.36	1914.53
933.669	1947.97
933.977	1935.09
934.286	1940.06
934.594	1937.12
934.902	1932.83
935.21	1910.91
935.519	1880.4
935.827	1892.61
936.135	1902.77
936.443	1858.48
936.751	1874.08
937.059	1891.7
937.367	1865.71
937.674	1869.33
937.982	1881.08
938.29	1863.23
938.597	1848.76
938.905	1847.86
939.213	1820.97
939.52	1780.07
939.827	1821.87
940.135	1810.8
940.442	1794.08
940.749	1785.26
941.056	1797.47
941.363	1779.16
941.67	1770.12
941.977	1761.31
942.284	1741.88
942.591	1759.28
942.898	1733.51
943.205	1760.86
943.511	1743.91
943.818	1712.05
944.125	1700.52
944.431	1730.12
944.738	1691.25
945.044	1676.34
945.35	1687.64
945.657	1724.25
945.963	1673.63
946.269	1666.17
946.575	1661.43
946.881	1639.28
947.187	1688.77
947.493	1687.41
947.799	1674.98
948.105	1632.27
948.41	1611.26
948.716	1633.63
949.022	1602.22
949.327	1625.95
949.633	1623.46
949.938	1572.61
950.244	1615.1
950.549	1626.17
950.854	1598.15
951.16	1583.24
951.465	1606.51
951.77	1582.78
952.075	1549.11
952.38	1576.68
952.685	1578.94
952.99	1578.72
953.294	1524.25
953.599	1537.36
953.904	1535.1
954.209	1528.1
954.513	1508.89
954.818	1499.85
955.122	1513.18
955.426	1504.59
955.731	1501.88
956.035	1495.55
956.339	1490.13
956.643	1473.41
956.948	1473.18
957.252	1479.96
957.556	1481.99
957.86	1465.72
958.163	1475.67
958.467	1453.75
958.771	1463.46
959.075	1436.12
959.378	1442.67
959.682	1445.84
959.985	1424.37
960.289	1429.34
960.592	1434.54
960.896	1401.09
961.199	1421.21
961.502	1393.64
961.805	1399.51
962.108	1378.49
962.411	1372.62
962.714	1367.87
963.017	1369.68
963.32	1372.85
963.623	1394.31
963.926	1389.79
964.228	1327.2
964.531	1335.11
964.833	1342.79
965.136	1342.34
965.438	1315.45
965.741	1383.92
966.043	1326.07
966.345	1319.06
966.648	1324.03
966.95	1349.12
967.252	1307.76
967.554	1313.41
967.856	1282.45
968.158	1317.48
968.46	1298.04
968.761	1275.9
969.063	1286.75
969.365	1290.14
969.666	1272.73
969.968	1266.41
970.269	1269.57
970.571	1276.8
970.872	1263.47
971.174	1238.61
971.475	1267.54
971.776	1251.94
972.077	1251.04
972.378	1246.75
972.679	1243.13
972.98	1233.19
973.281	1235.22
973.582	1243.58
973.883	1206.97
974.183	1220.76
974.484	1218.5
974.785	1223.47
975.085	1206.97
975.386	1220.31
975.686	1193.87
975.986	1225.73
976.287	1178.95
976.587	1183.92
976.887	1178.27
977.187	1179.86
977.487	1152.06
977.787	1156.58
978.087	1140.31
978.387	1145.28
978.687	1159.74
978.987	1145.96
979.286	1142.57
979.586	1122.68
979.885	1130.82
980.185	1107.99
980.484	1112.06
980.784	1085.85
981.083	1160.65
981.382	1100.99
981.682	1089.69
981.981	1098.5
982.28	1107.32
982.579	1108.67
982.878	1109.12
983.177	1100.76
983.475	1098.05
983.774	1066.86
984.073	1038.62
984.372	1056.47
984.67	1061.22
984.969	1089.46
985.267	1074.55
985.566	1062.12
985.864	1065.96
986.162	1060.09
986.461	1043.59
986.759	1036.81
987.057	1046.75
987.355	1035.45
987.653	1048.11
987.951	1034.1
988.249	1019.18
988.547	1000.65
988.844	1004.95
989.142	1042.46
989.44	1010.14
989.737	991.16
990.035	1008.34
990.332	1000.65
990.63	998.84
990.927	991.39
991.224	984.83
991.521	1025.96
991.819	974.21
992.116	992.74
992.413	964.72
992.71	973.76
993.006	990.03
993.303	968.56
993.6	959.07
993.897	990.03
994.193	973.31
994.49	979.64
994.787	954.33
995.083	925.4
995.379	949.58
995.676	938.28
995.972	941.22
996.268	924.27
996.565	946.42
996.861	921.78
997.157	924.5
997.453	927.89
997.749	885.17
998.044	897.38
998.34	917.72
998.636	926.53
998.932	917.04
999.227	870.26
999.523	908.22
999.818	912.97
1000.114	897.6
1000.409	911.84
1000.704	896.25
1001	904.38
1001.295	888.79
1001.59	881.11
1001.885	865.51
1002.18	882.69
1002.475	872.97
1002.77	861.22
1003.065	859.41
1003.359	850.83
1003.654	864.16
1003.949	845.85
1004.243	858.96
1004.538	842.69
1004.832	816.25
1005.127	823.93
1005.421	833.42
1005.715	822.35
1006.009	824.84
1006.304	819.19
1006.598	840.2
1006.892	820.09
1007.186	810.15
1007.48	822.8
1007.773	808.79
1008.067	790.49
1008.361	799.3
1008.655	778.28
1008.948	799.75
1009.242	792.3
1009.535	808.57
1009.829	777.15
1010.122	768.79
1010.415	760.88
1010.708	758.62
1011.001	793.2
1011.295	752.52
1011.588	775.12
1011.881	728.57
1012.173	777.83
1012.466	752.75
1012.759	752.07
1013.052	745.74
1013.344	744.84
1013.637	727.44
1013.93	730.83
1014.222	736.03
1014.514	734.9
1014.807	725.18
1015.099	725.86
1015.391	745.74
1015.683	716.37
1015.976	725.18
1016.268	679.98
1016.56	703.03
1016.851	709.13
1017.143	717.95
1017.435	684.5
1017.727	704.16
1018.018	686.99
1018.31	686.31
1018.602	692.64
1018.893	676.59
1019.185	672.3
1019.476	687.67
1019.767	678.85
1020.058	686.08
1020.35	689.02
1020.641	691.51
1020.932	666.2
1021.223	672.07
1021.514	646.31
1021.804	660.1
1022.095	663.03
1022.386	671.62
1022.677	648.57
1022.967	639.08
1023.258	646.76
1023.548	629.81
1023.839	646.99
1024.129	627.1
1024.419	641.34
1024.709	644.28
1025	624.62
1025.29	633.43
1025.58	609.48
1025.87	611.28
1026.16	642.02
1026.449	608.8
1026.739	618.06
1027.029	603.6
1027.319	598.18
1027.608	601.57
1027.898	593.66
1028.187	608.35
1028.477	582.81
1028.766	595.01
1029.055	586.2
1029.344	583.26
1029.634	598.63
1029.923	587.1
1030.212	584.39
1030.501	575.8
1030.79	559.08
1031.078	575.58
1031.367	561.79
1031.656	575.8
1031.945	569.7
1032.233	574.9
1032.522	561.12
1032.81	583.94
1033.099	565.18
1033.387	552.98
1033.675	544.62
1033.963	555.92
1034.251	553.88
1034.54	531.06
1034.828	558.18
1035.116	538.97
1035.403	528.12
1035.691	538.06
1035.979	549.82
1036.267	538.06
1036.554	537.39
1036.842	543.71
1037.129	523.6
1037.417	530.61
1037.704	537.16
1037.992	534.9
1038.279	503.72
1038.566	517.27
1038.853	517.27
1039.14	517.27
