Data from mousepad_grey_FLMS001491_00095.txt Node
Date: Wed Feb 08 14:30:13 GMT 2017
User: dcchb
Spectrometer: FLMS00149
Trigger mode: 0
Integration Time (sec): 2.000000E-2
Scans to average: 10
Electric dark correction enabled: true
Nonlinearity correction enabled: false
Boxcar width: 0
XAxis mode: Wavelengths
Number of Pixels in Spectrum: 2048
>>>>>Begin Spectral Data<<<<<
341.393	-8.74
341.776	-8.74
342.16	-8.74
342.543	-61.85
342.927	-62.53
343.31	-80.38
343.693	-68.4
344.077	-63.66
344.46	-76.31
344.843	-53.26
345.226	-31.34
345.61	-8.97
345.993	-14.39
346.376	2.1
346.759	10.01
347.142	23.35
347.525	40.3
347.908	60.63
348.291	53.4
348.674	106.06
349.057	100.86
349.44	111.93
349.823	135.43
350.206	137.92
350.588	166.17
350.971	178.6
351.354	207.3
351.737	218.6
352.119	228.77
352.502	257.24
352.884	265.15
353.267	265.37
353.65	282.1
354.032	277.8
354.414	290.46
354.797	291.81
355.179	316.67
355.562	280.29
355.944	303.34
356.326	305.37
356.709	337.24
357.091	324.13
357.473	325.26
357.855	314.64
358.238	339.72
358.62	323.45
359.002	328.88
359.384	307.41
359.766	324.58
360.148	318.48
360.53	314.86
360.912	337.24
361.294	332.49
361.676	294.98
362.057	302.21
362.439	310.34
362.821	302.44
363.203	300.18
363.584	304.02
363.966	289.33
364.348	302.89
364.729	304.47
365.111	308.99
365.493	308.99
365.874	276.45
366.256	305.83
366.637	293.85
367.019	299.05
367.4	305.6
367.781	314.64
368.163	299.72
368.544	308.54
368.925	299.27
369.306	300.4
369.688	287.75
370.069	267.86
370.45	309.67
370.831	340.17
371.212	305.6
371.593	287.52
371.974	274.64
372.355	291.81
372.736	305.37
373.117	294.98
373.498	295.66
373.879	290.23
374.26	301.76
374.641	285.94
375.021	292.04
375.402	306.28
375.783	308.76
376.163	292.27
376.544	311.93
376.925	306.5
377.305	316.22
377.686	284.36
378.066	299.95
378.447	321.87
378.827	317.35
379.208	312.15
379.588	300.18
379.968	317.58
380.349	323
380.729	318.71
381.109	319.61
381.489	324.81
381.87	324.13
382.25	304.24
382.63	313.51
383.01	324.13
383.39	313.51
383.77	305.37
384.15	327.29
384.53	322.32
384.91	304.24
385.29	320.74
385.67	329.33
386.049	326.16
386.429	326.84
386.809	344.47
387.189	340.63
387.568	335.2
387.948	310.34
388.328	319.16
388.707	335.66
389.087	346.95
389.466	347.63
389.846	325.26
390.225	328.88
390.605	318.93
390.984	369.55
391.363	343.34
391.743	340.4
392.122	349.21
392.501	351.93
392.881	335.43
393.26	364.35
393.639	338.14
394.018	365.26
394.397	353.51
394.776	355.32
395.155	346.73
395.534	356.9
395.913	384.24
396.292	361.19
396.671	371.13
397.05	365.03
397.429	397.12
397.808	359.16
398.186	370
398.565	381.76
398.944	379.72
399.323	376.78
399.701	370.46
400.08	372.94
400.458	378.59
400.837	392.15
401.215	395.31
401.594	390.12
401.972	397.8
402.351	399.38
402.729	403.45
403.107	414.75
403.486	374.07
403.864	402.32
404.242	400.74
404.62	392.6
404.999	405.03
405.377	405.03
405.755	400.51
406.133	384.24
406.511	420.17
406.889	407.52
407.267	402.77
407.645	409.78
408.023	422.43
408.401	440.96
408.779	441.41
409.156	429.21
409.534	439.83
409.912	418.14
410.29	446.61
410.667	446.39
411.045	434.41
411.422	428.53
411.8	455.88
412.178	437.12
412.555	462.66
412.933	454.97
413.31	464.47
413.687	477.8
414.065	472.83
414.442	461.75
414.819	476.44
415.197	492.26
415.574	485.71
415.951	471.7
416.328	491.58
416.705	491.81
417.082	467.18
417.46	496.55
417.837	515.76
418.214	494.07
418.591	512.15
418.967	522.99
419.344	534.97
419.721	515.54
420.098	513.28
420.475	534.97
420.852	559.6
421.228	539.94
421.605	528.87
421.982	518.48
422.358	523.9
422.735	565.71
423.111	548.53
423.488	541.75
423.864	562.09
424.241	556.44
424.617	562.32
424.994	566.38
425.37	574.74
425.746	562.54
426.123	572.94
426.499	586.72
426.875	573.16
427.251	573.39
427.627	600.73
428.003	592.15
428.379	597.57
428.756	589.21
429.132	621.98
429.507	640.73
429.883	626.04
430.259	624.46
430.635	625.14
431.011	640.51
431.387	638.7
431.763	660.39
432.138	647.06
432.514	629.66
432.89	649.09
433.265	657.68
433.641	678.02
434.016	688.41
434.392	678.92
434.767	707.85
435.143	691.58
435.518	707.17
435.894	690.45
436.269	711.69
436.644	701.52
437.02	723.67
437.395	742.88
437.77	729.09
438.145	763.89
438.52	763.44
438.895	773.84
439.271	755.08
439.646	773.38
440.021	779.94
440.395	782.42
440.77	777.68
441.145	784
441.52	777.9
441.895	785.81
442.27	796.66
442.645	805.25
443.019	800.73
443.394	811.57
443.769	798.24
444.143	811.8
444.518	830.33
444.892	803.67
445.267	833.5
445.641	844.57
446.016	862.65
446.39	858.58
446.764	845.25
447.139	854.51
447.513	875.53
447.887	887.05
448.262	867.39
448.636	886.37
449.01	900.84
449.384	881.63
449.758	924.57
450.132	875.75
450.506	909.2
450.88	908.52
451.254	921.4
451.628	917.79
452.002	951.01
452.376	965.47
452.75	944.23
453.123	969.76
453.497	964.79
453.871	982.64
454.244	987.62
454.618	1006.15
454.992	998.46
455.365	992.36
455.739	1035.07
456.112	1021.51
456.486	1022.87
456.859	1041.63
457.232	1038.24
457.606	1037.33
457.979	1092.02
458.352	1079.82
458.725	1090.89
459.099	1079.82
459.472	1118.46
459.845	1134.73
460.218	1147.39
460.591	1153.94
460.964	1162.07
461.337	1177.44
461.71	1199.14
462.083	1206.59
462.456	1196.88
462.829	1220.38
463.201	1223.32
463.574	1242.07
463.947	1256.76
464.32	1298.79
464.692	1266.48
465.065	1298.57
465.438	1301.51
465.81	1315.06
466.183	1320.26
466.555	1358.9
466.928	1365.01
467.3	1340.37
467.672	1352.8
468.045	1395.97
468.417	1425.57
468.789	1415.63
469.161	1446.36
469.534	1461.28
469.906	1520.71
470.278	1482.07
470.65	1505.34
471.022	1550.99
471.394	1565.45
471.766	1546.47
472.138	1594.6
472.51	1625.11
472.882	1640.03
473.253	1663.3
473.625	1664.89
473.997	1693.59
474.369	1702.85
474.74	1703.3
475.112	1748.73
475.484	1774.04
475.855	1804.77
476.227	1804.32
476.598	1849.51
476.97	1871.89
477.341	1915.95
477.713	1958.66
478.084	1972.45
478.455	1991.66
478.827	2009.06
479.198	2064.42
479.569	2039.34
479.94	2096.06
480.311	2099.45
480.682	2177.41
481.053	2206.34
481.424	2235.72
481.795	2271.88
482.166	2310.97
482.537	2312.78
482.908	2358.65
483.279	2365.43
483.65	2411.31
484.021	2460.12
484.391	2504.64
484.762	2494.69
485.133	2480.46
485.503	2590.96
485.874	2597.06
486.244	2630.96
486.615	2682.49
486.985	2667.12
487.356	2759.32
487.726	2748.47
488.097	2812.65
488.467	2828.92
488.837	2875.48
489.207	2937.62
489.578	2923.84
489.948	2984.17
490.318	2976.26
490.688	3003.83
491.058	3047
491.428	3135.81
491.798	3139.65
492.168	3193.66
492.538	3203.83
492.908	3214.9
493.278	3238.18
493.648	3249.02
494.017	3312.53
494.387	3342.58
494.757	3375.35
495.126	3395.01
495.496	3436.14
495.866	3464.61
496.235	3520.66
496.605	3500.77
496.974	3549.58
497.344	3546.19
497.713	3559.98
498.082	3566.08
498.452	3619.41
498.821	3668
499.19	3637.26
499.559	3723.59
499.928	3709.8
500.298	3771.27
500.667	3751.38
501.036	3823.7
501.405	3886.07
501.774	3832.51
502.143	3858.73
502.512	3893.98
502.88	3902.34
503.249	3960.64
503.618	3976.24
503.987	4002.68
504.356	4022.79
504.724	4064.37
505.093	4077.93
505.462	4066.4
505.83	4075.22
506.199	4097.14
506.567	4163.8
506.936	4143.92
507.304	4245.38
507.672	4241.32
508.041	4266.63
508.409	4274.76
508.777	4297.81
509.145	4367.64
509.514	4371.26
509.882	4402.67
510.25	4406.28
510.618	4457.81
510.986	4467.75
511.354	4505.71
511.722	4606.28
512.09	4571.93
512.458	4587.97
512.826	4646.05
513.193	4680.17
513.561	4705.48
513.929	4688.08
514.297	4727.18
514.664	4757.91
515.032	4765.37
515.4	4809.21
515.767	4841.07
516.135	4883.11
516.502	4883.33
516.869	4979.6
517.237	4949.09
517.604	4997.45
517.972	5046.94
518.339	5084.68
518.706	5116.32
519.073	5132.82
519.44	5160.84
519.808	5171.46
520.175	5230.67
520.542	5248.97
520.909	5292.36
521.276	5289.88
521.643	5367.39
522.009	5330.78
522.376	5377.78
522.743	5484.45
523.11	5436.54
523.477	5561.51
523.843	5575.74
524.21	5597.21
524.577	5667.04
524.943	5671.33
525.31	5694.61
525.676	5782.07
526.043	5757.43
526.409	5812.12
526.776	5898.9
527.142	5894.83
527.508	5906.81
527.874	5982.06
528.241	6002.17
528.607	6024.54
528.973	6062.28
529.339	6088.27
529.705	6165.11
530.071	6228.38
530.437	6295.5
530.803	6308.83
531.169	6321.03
531.535	6303.63
531.901	6391.09
532.267	6398.09
532.632	6402.61
532.998	6427.92
533.364	6473.57
533.73	6494.36
534.095	6549.5
534.461	6594.47
534.826	6570.75
535.192	6630.18
535.557	6648.03
535.923	6709.27
536.288	6737.52
536.653	6773.23
537.019	6733.9
537.384	6808.48
537.749	6844.41
538.114	6798.54
538.479	6912.88
538.845	6909.49
539.21	6927.12
539.575	6968.25
539.94	6976.38
540.305	7046.66
540.67	7045.99
541.034	7034.01
541.399	7128.24
541.764	7133.67
542.129	7151.3
542.494	7218.86
542.858	7217.28
543.223	7253.21
543.587	7288.92
543.952	7287.56
544.316	7363.49
544.681	7369.59
545.045	7331.86
545.41	7414.34
545.774	7458.86
546.138	7467.67
546.503	7464.96
546.867	7491.63
547.231	7598.51
547.595	7576.37
547.959	7601
548.324	7627.44
548.688	7668.8
549.052	7692.07
549.416	7745.4
549.779	7814.33
550.143	7777.04
550.507	7871.95
550.871	7837.38
551.235	7898.17
551.599	7931.39
551.962	8005.74
552.326	7979.3
552.689	8003.02
553.053	7981.1
553.417	8007.09
553.78	8139.07
554.143	8059.52
554.507	8166.86
554.87	8197.37
555.234	8266.07
555.597	8241.21
555.96	8282.56
556.323	8285.28
556.686	8410.24
557.05	8417.93
557.413	8463.35
557.776	8446.18
558.139	8520.3
558.502	8508.1
558.865	8574.08
559.228	8621.99
559.59	8619.96
559.953	8653.85
560.316	8783.12
560.679	8705.38
561.041	8820.18
561.404	8841.87
561.767	8870.57
562.129	8852.72
562.492	9016.33
562.854	8937.01
563.217	8952.83
563.579	9096.78
563.941	9077.35
564.304	9119.83
564.666	9177.91
565.028	9207.06
565.39	9205.93
565.753	9257.68
566.115	9315.08
566.477	9259.26
566.839	9397.56
567.201	9417.9
567.563	9406.83
567.925	9520.27
568.287	9522.53
568.648	9513.27
569.01	9629.87
569.372	9688.18
569.734	9594.85
570.095	9718.46
570.457	9727.95
570.819	9706.26
571.18	9752.13
571.542	9852.24
571.903	9828.96
572.265	9897.66
572.626	9910.32
572.987	9933.59
573.349	9975.85
573.71	9968.62
574.071	9958
574.432	10045.68
574.794	10120.03
575.155	10102.86
575.516	10103.76
575.877	10181.95
576.238	10169.75
576.599	10224.89
576.96	10243.87
577.32	10260.14
577.681	10340.14
578.042	10257.2
578.403	10305.11
578.763	10304.43
579.124	10340.59
579.485	10405.45
579.845	10440.02
580.206	10428.5
580.566	10397.09
580.927	10337.43
581.287	10482.28
581.648	10438.89
582.008	10531.55
582.368	10446.35
582.728	10493.58
583.089	10497.87
583.449	10517.76
583.809	10501.26
584.169	10571.77
584.529	10500.36
584.889	10588.94
585.249	10535.16
585.609	10535.16
585.969	10606.35
586.329	10603.18
586.688	10579.91
587.048	10580.13
587.408	10476.86
587.768	10548.72
588.127	10552.11
588.487	10578.32
588.846	10659.9
589.206	10579.91
589.565	10589.62
589.925	10642.95
590.284	10571.54
590.643	10638.66
591.003	10630.3
591.362	10739.9
591.721	10664.42
592.08	10613.12
592.44	10644.31
592.799	10704.2
593.158	10678.43
593.517	10660.36
593.876	10660.58
594.235	10679.11
594.593	10659.9
594.952	10717.3
595.311	10674.59
595.67	10690.19
596.029	10769.73
596.387	10816.96
596.746	10756.17
597.104	10698.09
597.463	10686.12
597.822	10785.32
598.18	10730.18
598.538	10750.52
598.897	10833.01
599.255	10692.22
599.613	10888.15
599.972	10838.43
600.33	10820.13
600.688	10802.72
601.046	10832.33
601.404	10840.46
601.762	10864.42
602.12	10902.83
602.478	10874.59
602.836	10887.92
603.194	10813.57
603.552	10931.99
603.91	10819.45
604.268	10917.52
604.625	10842.05
604.983	10939.44
605.341	10840.46
605.698	10896.06
606.056	10922.5
606.413	10968.82
606.771	11012.21
607.128	10989.84
607.485	10979.22
607.843	10967.24
608.2	10992.55
608.557	11032.77
608.914	11027.13
609.272	11070.74
609.629	11058.76
609.986	11096.05
610.343	11093.11
610.7	11128.59
611.057	11110.74
611.414	11098.76
611.771	11129.27
612.127	11169.27
612.484	11153
612.841	11189.83
613.198	11150.96
613.554	11159.55
613.911	11241.81
614.267	11307.57
614.624	11183.28
614.98	11223.96
615.337	11305.76
615.693	11255.37
616.05	11208.59
616.406	11341.69
616.762	11269.83
617.118	11328.81
617.475	11261.7
617.831	11343.05
618.187	11340.34
618.543	11439.77
618.899	11343.05
619.255	11390.51
619.611	11395.93
619.967	11495.36
620.323	11454.46
620.678	11324.29
621.034	11447.91
621.39	11367.46
621.746	11408.81
622.101	11520.22
622.457	11455.59
622.812	11390.51
623.168	11463.95
623.523	11423.95
623.879	11442.71
624.234	11393.22
624.589	11415.59
624.945	11465.76
625.3	11503.27
625.655	11505.98
626.01	11499.43
626.365	11475.7
626.72	11433.22
627.075	11461.69
627.43	11477.96
627.785	11476.61
628.14	11484.06
628.495	11502.14
628.85	11517.73
629.205	11388.25
629.559	11485.19
629.914	11427.34
630.269	11479.32
630.623	11449.26
630.978	11383.73
631.332	11486.1
631.687	11523.84
632.041	11461.92
632.396	11442.93
632.75	11373.1
633.104	11382.37
633.459	11391.64
633.813	11324.97
634.167	11386.21
634.521	11414.23
634.875	11383.27
635.229	11359.55
635.583	11299.43
635.937	11330.39
636.291	11334.91
636.645	11315.25
636.999	11298.53
637.352	11303.28
637.706	11210.4
638.06	11306.44
638.413	11306.44
638.767	11263.96
639.121	11264.18
639.474	11268.7
639.828	11241.13
640.181	11306.44
640.534	11237.74
640.888	11185.09
641.241	11244.52
641.594	11138.76
641.947	11254.92
642.301	11202.26
642.654	11204.52
643.007	11213.56
643.36	11225.31
643.713	11212.21
644.066	11212.43
644.419	11012.89
644.771	11042.04
645.124	11021.93
645.477	10927.92
645.83	10933.12
646.182	10864.19
646.535	10737.87
646.888	10846.79
647.24	10793.91
647.593	10880.24
647.945	10800.24
648.298	10811.54
648.65	10716.85
649.002	10806.34
649.355	10876.39
649.707	10815.61
650.059	10855.38
650.411	10986
650.763	11009.05
651.115	11135.82
651.467	11020.57
651.819	11100.34
652.171	11063.51
652.523	11031.19
652.875	11014.92
653.227	11026
653.578	11035.94
653.93	11082.04
654.282	10954.36
654.633	10983.06
654.985	10957.07
655.337	11016.5
655.688	11055.83
656.039	11048.14
656.391	10948.48
656.742	10955.71
657.094	10962.95
657.445	10958.88
657.796	10960.23
658.147	11026.22
658.498	11034.58
658.849	10992.78
659.2	10981.02
659.551	10960.46
659.902	10968.6
660.253	10950.74
660.604	11036.39
660.955	10920.24
661.306	10988.71
661.656	10964.3
662.007	11014.02
662.358	10974.47
662.708	10916.39
663.059	10971.99
663.409	10905.77
663.76	10988.26
664.11	10986.45
664.461	11039.33
664.811	10964.3
665.161	10988.93
665.511	11032.77
665.862	10919.33
666.212	10996.39
666.562	11037.75
666.912	10956.84
667.262	11034.58
667.612	10962.49
667.962	11010.18
668.312	10941.03
668.662	11002.95
669.011	10996.17
669.361	10992.78
669.711	10948.48
670.06	10974.7
670.41	10874.13
670.76	10947.81
671.109	10916.17
671.459	10945.55
671.808	10885.43
672.157	10866.23
672.507	10877.3
672.856	10820.58
673.205	10868.03
673.554	10953.91
673.904	10864.87
674.253	10962.27
674.602	10867.81
674.951	10760.92
675.3	10724.31
675.649	10833.01
675.998	10868.71
676.346	10844.53
676.695	10885.89
677.044	10783.97
677.393	10797.07
677.741	10838.2
678.09	10801.14
678.438	10755.95
678.787	10756.85
679.135	10795.04
679.484	10684.31
679.832	10753.69
680.181	10710.07
680.529	10661.94
680.877	10709.17
681.225	10678.66
681.573	10753.46
681.922	10674.14
682.27	10627.59
682.618	10676.63
682.966	10598.21
683.314	10625.1
683.661	10563.41
684.009	10560.92
684.357	10579.91
684.705	10516.86
685.053	10506.24
685.4	10509.62
685.748	10398.22
686.095	10472.79
686.443	10344.43
686.79	10417.42
687.138	10421.94
687.485	10392.34
687.832	10328.16
688.18	10397.54
688.527	10296.75
688.874	10263.3
689.221	10243.42
689.568	10208.62
689.915	10245
690.262	10262.63
690.609	10212.01
690.956	10197.77
691.303	10129.52
691.65	10036.42
691.997	10045.23
692.344	9971.11
692.69	9976.08
693.037	9967.72
693.383	9894.95
693.73	10002.75
694.077	9947.38
694.423	9915.74
694.769	9873.71
695.116	9808.85
695.462	9802.75
695.808	9779.93
696.155	9786.03
696.501	9753.94
696.847	9728.4
697.193	9688.63
697.539	9740.38
697.885	9569.54
698.231	9508.07
698.577	9569.54
698.923	9586.71
699.269	9517.11
699.614	9477.79
699.96	9467.39
700.306	9446.6
700.651	9396.43
700.997	9400.95
701.342	9337
701.688	9347.85
702.033	9318.47
702.379	9313.72
702.724	9242.31
703.069	9300.84
703.415	9215.65
703.76	9213.84
704.105	9176.1
704.45	9135.42
704.795	9066.95
705.14	9107.85
705.485	9138.36
705.83	9033.05
706.175	9034.64
706.52	8978.14
706.865	8988.08
707.209	8961.42
707.554	8904.92
707.899	8984.47
708.243	8904.02
708.588	8867.86
708.932	8799.84
709.277	8840.97
709.621	8847.75
709.966	8815.21
710.31	8880.74
710.654	8675.77
710.998	8721.88
711.342	8751.25
711.687	8682.1
712.031	8681.88
712.375	8606.17
712.719	8669
713.063	8645.27
713.407	8664.93
713.75	8624.7
714.094	8633.06
714.438	8625.83
714.782	8624.25
715.125	8565.5
715.469	8556.91
715.812	8511.71
716.156	8437.59
716.499	8514.2
716.843	8546.74
717.186	8464.03
717.53	8533.41
717.873	8545.61
718.216	8546.74
718.559	8464.93
718.902	8405.73
719.246	8413.63
719.589	8425.61
719.932	8333.64
720.275	8381.09
720.617	8387.87
720.96	8362.56
721.303	8353.98
721.646	8372.51
721.989	8286.86
722.331	8352.62
722.674	8309.91
723.016	8395.33
723.359	8300.64
723.701	8323.69
724.044	8257.03
724.386	8177.03
724.729	8344.71
725.071	8269.23
725.413	8296.35
725.755	8306.07
726.097	8206.86
726.439	8225.39
726.782	8232.17
727.124	8225.62
727.465	8196.01
727.807	8248.67
728.149	8196.92
728.491	8164.6
728.833	8232.4
729.175	8216.58
729.516	8157.6
729.858	8234.66
730.199	8154.43
730.541	8169.57
730.882	8162.79
731.224	8142.23
731.565	8160.08
731.906	8107.88
732.248	8163.47
732.589	8116.69
732.93	8163.25
733.271	8040.54
733.612	8157.37
733.953	8142
734.294	8106.52
734.635	8095.68
734.976	8135.22
735.317	8051.38
735.658	8028.33
735.999	8090.25
736.339	8037.6
736.68	8141.78
737.021	8030.59
737.361	8084.15
737.702	8011.16
738.042	8054.1
738.383	8110.37
738.723	8058.39
739.063	8107.2
739.404	8046.41
739.744	8055.68
740.084	8005.06
740.424	8048.22
740.764	8022.68
741.104	8015.45
741.444	7998.73
741.784	8023.59
742.124	8041.44
742.464	7949.01
742.804	7959.86
743.143	8013.65
743.483	7980.43
743.823	7936.59
744.162	8001.44
744.502	7997.37
744.841	7924.61
745.181	8052.06
745.52	7968.45
745.86	7957.6
746.199	7967.32
746.538	7964.61
746.877	7955.57
747.216	7963.48
747.556	7925.06
747.895	7971.61
748.234	7948.11
748.573	7918.73
748.911	7939.75
749.25	7921.9
749.589	7888.22
749.928	7899.3
750.267	7959.41
750.605	7858.4
750.944	7887.32
751.283	7859.75
751.621	7895.68
751.96	7849.81
752.298	7880.09
752.636	7846.42
752.975	7786.31
753.313	7772.75
753.651	7821.33
753.989	7799.19
754.327	7763.48
754.666	7738.62
755.004	7767.1
755.342	7722.81
755.679	7761.9
756.017	7703.6
756.355	7733.2
756.693	7678.29
757.031	7674.45
757.368	7662.69
757.706	7639.42
758.044	7615.01
758.381	7583.6
758.719	7574.56
759.056	7580.44
759.394	7571.17
759.731	7630.83
760.068	7537.73
760.405	7541.12
760.743	7509.48
761.08	7492.75
761.417	7443.94
761.754	7420.44
762.091	7464.06
762.428	7458.63
762.765	7426.54
763.102	7328.24
763.438	7369.82
763.775	7359.65
764.112	7312.65
764.449	7377.05
764.785	7274.68
765.122	7225.42
765.458	7229.71
765.795	7230.84
766.131	7219.32
766.467	7183.61
766.804	7149.26
767.14	7166.89
767.476	7122.6
767.812	7139.77
768.148	7125.31
768.485	7077.4
768.821	7009.83
769.157	7006.21
769.492	6982.94
769.828	6984.29
770.164	6952.66
770.5	6905.2
770.836	6972.09
771.171	6881.02
771.507	6859.1
771.842	6748.59
772.178	6791.98
772.513	6784.75
772.849	6776.16
773.184	6759.44
773.519	6777.75
773.855	6659.1
774.19	6724.87
774.525	6669.95
774.86	6693.91
775.195	6617.52
775.53	6627.92
775.865	6694.81
776.2	6587.92
776.535	6562.61
776.87	6565.55
777.205	6551.76
777.539	6488.49
777.874	6452.56
778.209	6422.27
778.543	6403.07
778.878	6351.77
779.212	6341.6
779.547	6396.51
779.881	6409.85
780.215	6324.2
780.55	6304.31
780.884	6293.69
781.218	6256.86
781.552	6245.33
781.886	6195.61
782.22	6169.63
782.554	6164.88
782.888	6129.85
783.222	6067.93
783.556	6072.68
783.889	6062.74
784.223	5992
784.557	5979.8
784.89	6028.16
785.224	6025
785.557	5946.58
785.891	5973.02
786.224	5954.04
786.558	5962.4
786.891	5876.07
787.224	5840.37
787.557	5847.6
787.891	5838.34
788.224	5802.18
788.557	5835.62
788.89	5824.1
789.223	5864.55
789.556	5742.97
789.888	5718.56
790.221	5732.8
790.554	5691.9
790.887	5738
791.219	5719.24
791.552	5690.54
791.884	5681.28
792.217	5629.3
792.549	5614.61
792.882	5550.21
793.214	5544.11
793.546	5583.88
793.879	5512.92
794.211	5435.41
794.543	5531.22
794.875	5502.07
795.207	5502.75
795.539	5448.51
795.871	5473.37
796.203	5409.65
796.535	5408.06
796.867	5338.46
797.198	5382.08
797.53	5379.82
797.862	5321.74
798.193	5391.34
798.525	5330.33
798.856	5339.37
799.188	5276.32
799.519	5288.75
799.85	5247.62
800.182	5246.26
800.513	5266.82
800.844	5172.59
801.175	5214.85
801.506	5194.06
801.837	5159.71
802.168	5170.78
802.499	5103.89
802.83	5110.22
803.161	5102.31
803.491	5081.74
803.822	5098.69
804.153	5004.68
804.483	5007.17
804.814	5048.53
805.145	4998.13
805.475	4973.5
805.805	4969.88
806.136	5008.98
806.466	4979.83
806.796	4918.59
807.126	4945.25
807.457	4891.69
807.787	4946.38
808.117	4907.29
808.447	4888.53
808.777	4933.95
809.107	4903.44
809.436	4886.27
809.766	4903.44
810.096	4844.69
810.426	4791.36
810.755	4863.45
811.085	4804.46
811.414	4827.74
811.744	4787.52
812.073	4745.93
812.403	4780.06
812.732	4789.55
813.061	4710.23
813.39	4729.66
813.719	4729.66
814.049	4718.14
814.378	4700.74
814.707	4685.82
815.036	4671.13
815.365	4668.65
815.693	4655.09
816.022	4642.66
816.351	4623.23
816.68	4588.2
817.008	4635.43
817.337	4567.41
817.665	4605.83
817.994	4588.88
818.322	4568.31
818.651	4566.28
818.979	4503.23
819.307	4542.32
819.636	4527.86
819.964	4462.78
820.292	4500.07
820.62	4517.92
820.948	4531.02
821.276	4535.54
821.604	4495.55
821.932	4495.09
822.259	4503.68
822.587	4494.19
822.915	4466.62
823.243	4500.52
823.57	4472.27
823.898	4484.25
824.225	4475.66
824.553	4454.64
824.88	4480.18
825.207	4517.69
825.535	4482.89
825.862	4502.1
826.189	4457.81
826.516	4486.28
826.843	4460.74
827.17	4494.42
827.497	4519.27
827.824	4438.15
828.151	4500.52
828.478	4515.66
828.805	4486.73
829.131	4473.17
829.458	4436.56
829.785	4431.82
830.111	4464.36
830.438	4470.24
830.764	4450.12
831.09	4496
831.417	4430.91
831.743	4451.7
832.069	4441.31
832.395	4452.61
832.722	4442.44
833.048	4445.6
833.374	4496.68
833.7	4406.28
834.026	4415.32
834.351	4421.42
834.677	4448.09
835.003	4458.48
835.329	4390.92
835.654	4453.06
835.98	4412.61
836.306	4432.5
836.631	4409.22
836.956	4416.68
837.282	4410.8
837.607	4387.3
837.932	4389.11
838.258	4406.96
838.583	4382.1
838.908	4357.02
839.233	4341.43
839.558	4347.3
839.883	4300.07
840.208	4294.19
840.533	4291.03
840.858	4310.69
841.182	4318.83
841.507	4305.95
841.832	4271.6
842.156	4243.12
842.481	4292.84
842.805	4281.77
843.13	4224.59
843.454	4235.67
843.778	4236.57
844.103	4253.74
844.427	4187.76
844.751	4173.07
845.075	4196.8
845.399	4194.31
845.723	4182.11
846.047	4209.9
846.371	4189.56
846.695	4146.18
847.019	4127.19
847.343	4127.42
847.666	4061.43
847.99	4069.57
848.313	4069.12
848.637	4023.69
848.96	4015.33
849.284	4038.38
849.607	3990.7
849.931	3995.9
850.254	3990.25
850.577	3947.99
850.9	3945.96
851.223	3947.54
851.546	3930.59
851.869	3860.76
852.192	3919.29
852.515	3883.81
852.838	3864.15
853.161	3878.16
853.483	3874.77
853.806	3836.81
854.129	3846.98
854.451	3778.5
854.774	3847.2
855.096	3793.87
855.419	3784.15
855.741	3810.14
856.063	3714.1
856.385	3732.18
856.708	3776.47
857.03	3725.4
857.352	3755.9
857.674	3722.91
857.996	3696.24
858.318	3675
858.64	3681.78
858.961	3686.3
859.283	3646.53
859.605	3629.81
859.926	3651.95
860.248	3621.44
860.57	3624.61
860.891	3636.59
861.212	3626.42
861.534	3602.46
861.855	3611.95
862.176	3618.96
862.498	3581.45
862.819	3623.7
863.14	3611.73
863.461	3574.89
863.782	3550.71
864.103	3571.73
864.424	3535.8
864.745	3558.85
865.065	3556.59
865.386	3523.37
865.707	3523.37
866.027	3526.08
866.348	3540.54
866.668	3492.63
866.989	3492.63
867.309	3501.45
867.63	3490.6
867.95	3496.7
868.27	3467.32
868.59	3489.47
868.91	3486.98
869.23	3461.22
869.55	3436.82
869.87	3507.55
870.19	3450.15
870.51	3458.06
870.83	3421.45
871.15	3403.37
871.469	3429.13
871.789	3391.85
872.109	3424.61
872.428	3439.98
872.748	3404.73
873.067	3419.64
873.386	3419.87
873.706	3371.51
874.025	3371.96
874.344	3406.53
874.663	3369.47
874.982	3399.08
875.301	3363.15
875.62	3370.83
875.939	3365.86
876.258	3381.68
876.577	3345.97
876.896	3369.47
877.214	3356.82
877.533	3302.81
877.852	3322.47
878.17	3306.2
878.489	3319.08
878.807	3334.67
879.125	3375.12
879.444	3314.11
879.762	3302.13
880.08	3298.74
880.398	3293.54
880.716	3316.59
881.034	3298.97
881.352	3275.92
881.67	3284.96
881.988	3251.28
882.306	3280.66
882.624	3270.72
882.941	3204.51
883.259	3231.85
883.577	3233.21
883.894	3239.53
884.212	3244.96
884.529	3232.53
884.846	3201.57
885.164	3197.95
885.481	3159.08
885.798	3150.5
886.115	3178.29
886.432	3180.78
886.75	3131.06
887.067	3193.43
887.383	3136.71
887.7	3127.45
888.017	3148.46
888.334	3108.92
888.651	3150.5
888.967	3158.86
889.284	3115.47
889.6	3113.21
889.917	3087.9
890.233	3056.94
890.55	3083.61
890.866	3107.33
891.182	3046.09
891.498	3055.36
891.815	3007.22
892.131	3038.86
892.447	3046.32
892.763	3053.32
893.079	3054.45
893.395	3013.55
893.71	2985.53
894.026	3014.23
894.342	3000.22
894.657	2970.16
894.973	2948.24
895.289	2981.24
895.604	2961.57
895.92	2976.94
896.235	2920.67
896.55	2939.65
896.865	2922.25
897.181	2912.99
897.496	2944.63
897.811	2891.97
898.126	2911.41
898.441	2911.63
898.756	2859.2
899.071	2839.54
899.386	2856.72
899.7	2830.96
900.015	2836.61
900.33	2864.18
900.644	2826.44
900.959	2870.73
901.273	2814.91
901.588	2813.78
901.902	2782.14
902.216	2803.39
902.531	2711.64
902.845	2745.31
903.159	2741.92
903.473	2765.65
903.787	2733.78
904.101	2694.92
904.415	2714.35
904.729	2694.92
905.042	2700.56
905.356	2680.45
905.67	2654.92
905.984	2681.81
906.297	2637.29
906.611	2677.51
906.924	2657.63
907.237	2650.85
907.551	2652.88
907.864	2627.35
908.177	2634.8
908.491	2609.95
908.804	2604.97
909.117	2545.09
909.43	2590.96
909.743	2539.21
910.056	2571.53
910.368	2567.69
910.681	2553.22
910.994	2525.43
911.307	2500.8
911.619	2508.71
911.932	2526.11
912.244	2504.19
912.557	2467.8
912.869	2453.79
913.181	2465.99
913.494	2445.88
913.806	2429.39
914.118	2419.22
914.43	2434.81
914.742	2490.63
915.054	2393.23
915.366	2406.56
915.678	2413.57
915.99	2387.35
916.302	2377.18
916.613	2357.07
916.925	2359.78
917.236	2357.97
917.548	2334.7
917.859	2338.31
918.171	2330.18
918.482	2323.63
918.794	2304.64
919.105	2320.01
919.416	2320.01
919.727	2300.8
920.038	2258.54
920.349	2268.49
920.66	2267.81
920.971	2251.31
921.282	2229.62
921.593	2256.28
921.903	2225.55
922.214	2194.82
922.525	2193.91
922.835	2185.1
923.146	2176.06
923.456	2182.39
923.767	2163.4
924.077	2141.94
924.387	2164.08
924.697	2152.78
925.008	2144.65
925.318	2149.62
925.628	2134.25
925.938	2147.81
926.248	2111.88
926.558	2109.85
926.867	2144.42
927.177	2087.93
927.487	2106.46
927.796	2062.62
928.106	2095.16
928.416	2103.52
928.725	2057.19
929.034	2049.96
929.344	2069.39
929.653	2040.69
929.962	2033.46
930.271	2033.01
930.581	1993.46
930.89	2004.09
931.199	1987.81
931.508	1989.17
931.817	1989.4
932.125	1982.17
932.434	2007.48
932.743	1939.68
933.051	1981.94
933.36	1954.14
933.669	1924.99
933.977	1949.62
934.286	1965.22
934.594	1932.9
934.902	1914.82
935.21	1911.88
935.519	1884.09
935.827	1881.38
936.135	1889.29
936.443	1867.59
936.751	1908.27
937.059	1876.63
937.367	1863.52
937.674	1868.27
937.982	1847.93
938.29	1853.13
938.597	1865.33
938.905	1825.56
939.213	1840.47
939.52	1831.21
939.827	1845.45
940.135	1799.12
940.442	1826.46
940.749	1761.83
941.056	1794.37
941.363	1790.76
941.67	1775.62
941.977	1726.8
942.284	1740.82
942.591	1744.88
942.898	1727.71
943.205	1741.04
943.511	1736.07
943.818	1726.35
944.125	1679.35
944.431	1719.35
944.738	1699.01
945.044	1718.22
945.35	1688.16
945.657	1717.09
945.963	1675.28
946.269	1700.36
946.575	1635.06
946.881	1670.99
947.187	1681.38
947.493	1647.71
947.799	1658.78
948.105	1660.82
948.41	1630.76
948.716	1632.12
949.022	1612.23
949.327	1626.47
949.633	1612.46
949.938	1613.14
950.244	1584.21
950.549	1584.89
950.854	1590.09
951.16	1579.46
951.465	1581.95
951.77	1573.59
952.075	1527.04
952.38	1561.84
952.685	1574.94
952.99	1547.83
953.294	1536.75
953.599	1548.5
953.904	1545.11
954.209	1508.51
954.513	1537.88
954.818	1522.29
955.122	1496.08
955.426	1521.61
955.731	1516.87
956.035	1506.47
956.339	1503.31
956.643	1500.37
956.948	1473.03
957.252	1494.95
957.556	1499.92
957.86	1491.56
958.163	1465.34
958.467	1443.2
958.771	1459.69
959.075	1445.91
959.378	1436.64
959.682	1419.92
959.985	1445
960.289	1420.6
960.592	1424.44
960.896	1444.1
961.199	1391.67
961.502	1378.11
961.805	1367.27
962.108	1358.9
962.411	1378.34
962.714	1376.08
963.017	1384.89
963.32	1373.59
963.623	1368.4
963.926	1371.33
964.228	1363.88
964.531	1363.42
964.833	1321.62
965.136	1334.27
965.438	1359.13
965.741	1333.59
966.043	1328.4
966.345	1307.83
966.648	1296.53
966.95	1299.92
967.252	1306.48
967.554	1296.99
967.856	1295.18
968.158	1303.99
968.46	1316.42
968.761	1298.57
969.063	1289.53
969.365	1290.88
969.666	1286.36
969.968	1277.78
970.269	1265.8
970.571	1269.87
970.872	1262.41
971.174	1221.96
971.475	1239.59
971.776	1240.72
972.077	1234.39
972.378	1250.66
972.679	1263.09
972.98	1229.87
973.281	1228.29
973.582	1256.31
973.883	1206.14
974.183	1208.4
974.484	1203.65
974.785	1198.68
975.085	1212.47
975.386	1187.84
975.686	1193.94
975.986	1167.5
976.287	1162.75
976.587	1168.18
976.887	1171.57
977.187	1174.73
977.487	1171.34
977.787	1192.58
978.087	1154.16
978.387	1174.5
978.687	1167.95
978.987	1130.89
979.286	1146.26
979.586	1137.44
979.885	1141.28
980.185	1154.16
980.484	1142.19
980.784	1131.11
981.083	1127.27
981.382	1129.53
981.682	1113.04
981.981	1098.12
982.28	1090.66
982.579	1094.28
982.878	1087.95
983.177	1085.01
983.475	1079.14
983.774	1066.26
984.073	1079.14
984.372	1070.78
984.67	1092.92
984.969	1056.54
985.267	1053.15
985.566	1033.26
985.864	1055.41
986.162	1045.47
986.461	1047.5
986.759	1032.81
987.057	1016.54
987.355	1040.04
987.653	1044.11
987.951	1028.07
988.249	1031.23
988.547	1030.1
988.844	1034.85
989.142	1029.65
989.44	1025.13
989.737	1018.8
990.035	1016.99
990.332	1021.29
990.63	978.35
990.927	1006.15
991.224	991.01
991.521	1012.7
991.819	984.68
992.116	976.99
992.413	984.9
992.71	967.5
993.006	956.43
993.303	964.34
993.6	947.62
993.897	961.4
994.193	941.29
994.49	933.83
994.787	944.68
995.083	949.42
995.379	978.35
995.676	956.88
995.972	936.32
996.268	951.01
996.565	944.45
996.861	919.37
997.157	916.2
997.453	916.88
997.749	897.9
998.044	901.06
998.34	922.53
998.636	910.56
998.932	880.05
999.227	900.16
999.523	911.23
999.818	890.89
1000.114	890.67
1000.409	889.76
1000.704	880.27
1001	887.73
1001.295	865.81
1001.59	863.1
1001.885	875.53
1002.18	862.65
1002.475	840.5
1002.77	849.31
1003.065	812.7
1003.359	839.82
1003.654	825.13
1003.949	840.95
1004.243	842.08
1004.538	852.03
1004.832	852.93
1005.127	835.08
1005.421	825.81
1005.715	837.11
1006.009	819.94
1006.304	825.13
1006.598	816.55
1006.892	809.09
1007.186	812.7
1007.48	813.61
1007.773	790.78
1008.067	764.12
1008.361	782.65
1008.655	800.73
1008.948	770.9
1009.242	791.69
1009.535	789.2
1009.829	786.49
1010.122	777.45
1010.415	765.7
1010.708	753.72
1011.001	760.28
1011.295	748.98
1011.588	757.11
1011.881	757.79
1012.173	749.2
1012.466	751.24
1012.759	764.34
1013.052	733.16
1013.344	730.22
1013.637	725.48
1013.93	747.62
1014.222	758.02
1014.514	748.53
1014.807	739.49
1015.099	738.81
1015.391	704.46
1015.683	715.31
1015.976	714.63
1016.268	711.46
1016.56	705.59
1016.851	709.88
1017.143	693.39
1017.435	700.84
1017.727	715.76
1018.018	701.97
1018.31	697
1018.602	716.89
1018.893	690.45
1019.185	703.78
1019.476	703.33
1019.767	655.42
1020.058	661.07
1020.35	664.69
1020.641	682.99
1020.932	649.77
1021.223	645.7
1021.514	645.48
1021.804	668.98
1022.095	639.15
1022.386	662.2
1022.677	649.09
1022.967	638.7
1023.258	653.61
1023.548	634.86
1023.839	631.47
1024.129	647.51
1024.419	643.9
1024.709	640.96
1025	615.2
1025.29	620.62
1025.58	625.82
1025.87	632.6
1026.16	607.51
1026.449	631.47
1026.739	621.07
1027.029	599.6
1027.319	601.41
1027.608	610.9
1027.898	618.13
1028.187	602.54
1028.477	588.08
1028.766	599.6
1029.055	551.69
1029.344	595.08
1029.634	587.85
1029.923	579.04
1030.212	600.05
1030.501	577.23
1030.79	596.89
1031.078	578.81
1031.367	548.76
1031.656	573.61
1031.945	575.87
1032.233	572.26
1032.522	559.38
1032.81	543.79
1033.099	569.1
1033.387	536.1
1033.675	577.68
1033.963	560.51
1034.251	552.15
1034.54	541.53
1034.828	543.33
1035.116	550.34
1035.403	541.07
1035.691	543.33
1035.979	558.47
1036.267	515.76
1036.554	531.36
1036.842	540.62
1037.129	534.29
1037.417	512.37
1037.704	518.7
1037.992	538.81
1038.279	516.22
1038.566	517.35
1038.853	517.35
1039.14	517.35
