Data from mousepad_grey_FLMS001491_00060.txt Node
Date: Wed Feb 08 14:29:39 GMT 2017
User: dcchb
Spectrometer: FLMS00149
Trigger mode: 0
Integration Time (sec): 2.000000E-2
Scans to average: 10
Electric dark correction enabled: true
Nonlinearity correction enabled: false
Boxcar width: 0
XAxis mode: Wavelengths
Number of Pixels in Spectrum: 2048
>>>>>Begin Spectral Data<<<<<
341.393	4.46
341.776	4.46
342.16	4.46
342.543	-40.51
342.927	-75.53
343.31	-62.2
343.693	-67.17
344.077	-62.88
344.46	-59.26
344.843	-44.8
345.226	-45.03
345.61	-20.62
345.993	-16.55
346.376	-7.06
346.759	21.41
347.142	7.17
347.525	47.17
347.908	44.01
348.291	81.3
348.674	81.07
349.057	103.44
349.44	134.63
349.823	149.09
350.206	151.8
350.588	180.5
350.971	202.2
351.354	204.91
351.737	219.82
352.119	231.8
352.502	250.33
352.884	254.63
353.267	270.44
353.65	265.93
354.032	276.77
354.414	305.7
354.797	283.33
355.179	308.18
355.562	309.77
355.944	328.97
356.326	331.69
356.709	305.92
357.091	319.03
357.473	336.88
357.855	313.16
358.238	327.39
358.62	342.99
359.002	324.23
359.384	326.94
359.766	300.73
360.148	338.47
360.53	324.68
360.912	328.75
361.294	310.9
361.676	332.36
362.057	325.13
362.439	309.99
362.821	306.38
363.203	301.63
363.584	319.71
363.966	328.97
364.348	290.56
364.729	319.94
365.111	308.41
365.493	309.54
365.874	318.35
366.256	309.99
366.637	317
367.019	300.27
367.4	300.27
367.781	287.85
368.163	290.33
368.544	289.88
368.925	288.3
369.306	304.12
369.688	309.99
370.069	298.24
370.45	292.82
370.831	295.08
371.212	268.64
371.593	284.23
371.974	302.99
372.355	284.68
372.736	304.79
373.117	290.78
373.498	298.47
373.879	297.34
374.26	309.77
374.641	291.24
375.021	305.7
375.402	284.68
375.783	279.03
376.163	307.96
376.544	309.09
376.925	295.98
377.305	314.06
377.686	295.3
378.066	302.99
378.447	284.23
378.827	304.57
379.208	310.9
379.588	307.05
379.968	295.98
380.349	319.71
380.729	304.79
381.109	319.26
381.489	323.55
381.87	334.62
382.25	318.81
382.63	291.46
383.01	320.39
383.39	302.08
383.77	331.46
384.15	330.33
384.53	312.25
384.91	314.06
385.29	321.07
385.67	323.32
386.049	327.84
386.429	325.13
386.809	326.26
387.189	326.94
387.568	340.95
387.948	332.82
388.328	326.71
388.707	331.46
389.087	337.11
389.466	333.72
389.846	345.92
390.225	326.71
390.605	333.49
390.984	335.3
391.363	333.72
391.743	349.31
392.122	330.1
392.501	346.6
392.881	351.8
393.26	329.65
393.639	361.74
394.018	337.34
394.397	363.1
394.776	331.69
395.155	360.84
395.534	339.37
395.913	364.23
396.292	344.57
396.671	346.83
397.05	351.57
397.429	344.57
397.808	346.83
398.186	371.01
398.565	386.83
398.944	343.21
399.323	362.65
399.701	366.26
400.08	371.46
400.458	370.33
400.837	368.97
401.215	378.46
401.594	350.67
401.972	378.01
402.351	370.56
402.729	389.09
403.107	394.74
403.486	378.69
403.864	401.97
404.242	361.97
404.62	383.66
404.999	377.11
405.377	394.06
405.755	381.85
406.133	372.36
406.511	394.96
406.889	402.42
407.267	404.9
407.645	424.57
408.023	408.75
408.401	399.26
408.779	419.37
409.156	410.78
409.534	404.68
409.912	436.32
410.29	414.85
410.667	422.76
411.045	418.46
411.422	406.71
411.8	413.49
412.178	438.58
412.555	442.19
412.933	441.51
413.31	439.25
413.687	438.8
414.065	422.53
414.442	444.9
414.819	445.58
415.197	441.74
415.574	464.56
415.951	460.27
416.328	470.44
416.705	473.83
417.082	465.69
417.46	486.48
417.837	465.02
418.214	455.75
418.591	475.86
418.967	472.25
419.344	472.47
419.721	475.86
420.098	462.08
420.475	496.43
420.852	493.72
421.228	463.66
421.605	486.48
421.982	494.62
422.358	491.68
422.735	478.8
423.111	500.27
423.488	492.81
423.864	528.97
424.241	528.52
424.617	515.41
424.994	517.22
425.37	507.05
425.746	520.38
426.123	515.86
426.499	534.17
426.875	533.49
427.251	540.95
427.627	532.36
428.003	516.54
428.379	520.83
428.756	557.22
429.132	538.46
429.507	566.93
429.883	547.27
430.259	584.33
430.635	563.09
431.011	554.96
431.387	573.71
431.763	587.72
432.138	555.41
432.514	581.85
432.89	615.07
433.265	605.58
433.641	606.26
434.016	586.59
434.392	626.82
434.767	621.85
435.143	629.53
435.518	646.93
435.894	611
436.269	631.11
436.644	640.15
437.02	655.75
437.395	640.15
437.77	647.61
438.145	669.76
438.52	660.94
438.895	674.5
439.271	667.04
439.646	667.27
440.021	686.25
440.395	692.81
440.77	667.04
441.145	673.6
441.52	714.5
441.895	691.9
442.27	738.91
442.645	699.59
443.019	706.59
443.394	728.51
443.769	694.84
444.143	734.39
444.518	722.41
444.892	717.66
445.267	732.58
445.641	749.75
446.016	725.12
446.39	747.04
446.764	747.95
447.139	733.71
447.513	749.75
447.887	738
448.262	758.34
448.636	749.3
449.01	772.13
449.384	768.28
449.758	762.86
450.132	778.23
450.506	783.88
450.88	775.97
451.254	789.75
451.628	788.62
452.002	810.09
452.376	828.62
452.75	826.81
453.123	850.77
453.497	823.42
453.871	824.1
454.244	836.76
454.618	854.16
454.992	860.03
455.365	836.98
455.739	865.46
456.112	879.92
456.486	867.04
456.859	901.61
457.232	880.6
457.606	884.89
457.979	900.26
458.352	928.96
458.725	928.51
459.099	940.03
459.472	928.51
459.845	946.13
460.218	956.98
460.591	962.18
460.964	962.4
461.337	1002.85
461.71	1009.86
462.083	979.8
462.456	1003.31
462.829	1015.51
463.201	1020.26
463.574	1051.44
463.947	1031.78
464.32	1087.37
464.692	1093.93
465.065	1082.85
465.438	1044.66
465.81	1088.95
466.183	1119.91
466.555	1128.5
466.928	1123.3
467.3	1134.38
467.672	1134.38
468.045	1163.75
468.417	1149.97
468.789	1180.7
469.161	1179.57
469.534	1222.28
469.906	1251.21
470.278	1218.22
470.65	1215.28
471.022	1266.58
471.394	1281.04
471.766	1289.18
472.138	1297.99
472.51	1315.39
472.882	1328.72
473.253	1332.34
473.625	1371.43
473.997	1377.99
474.369	1414.6
474.74	1408.49
475.112	1426.8
475.484	1434.93
475.855	1475.16
476.227	1499.34
476.598	1520.13
476.97	1513.35
477.341	1548.38
477.713	1561.03
478.084	1582.73
478.455	1577.98
478.827	1643.97
479.198	1651.88
479.569	1642.84
479.94	1673.8
480.311	1697.75
480.682	1747.24
481.053	1786.34
481.424	1787.47
481.795	1813.23
482.166	1846.22
482.537	1860.23
482.908	1915.37
483.279	1907.69
483.65	1929.84
484.021	1954.92
484.391	1987.46
484.762	1982.04
485.133	1987.01
485.503	2011.87
485.874	2095.03
486.244	2071.53
486.615	2127.57
486.985	2128.48
487.356	2192.88
487.726	2212.54
488.097	2218.19
488.467	2251.86
488.837	2276.49
489.207	2291.41
489.578	2299.77
489.948	2370.05
490.318	2344.51
490.688	2389.03
491.058	2393.55
491.428	2449.6
491.798	2479.43
492.168	2479.2
492.538	2513.1
492.908	2524.4
493.278	2592.42
493.648	2578.41
494.017	2593.77
494.387	2633.55
494.757	2647.56
495.126	2681.91
495.496	2674.9
495.866	2677.39
496.235	2757.61
496.605	2725.97
496.974	2775.69
497.344	2810.27
497.713	2803.49
498.082	2811.62
498.452	2854.78
498.821	2875.12
499.19	2864.95
499.559	2899.98
499.928	2936.36
500.298	2918.06
500.667	2942.47
501.036	2942.01
501.405	2982.69
501.774	3008.45
502.143	3011.62
502.512	3005.97
502.88	3048.45
503.249	3071.5
503.618	3087.09
503.987	3084.16
504.356	3103.82
504.724	3109.01
505.093	3148.11
505.462	3150.37
505.83	3188.33
506.199	3208.22
506.567	3238.05
506.936	3250.25
507.304	3287.09
507.672	3294.77
508.041	3290.93
508.409	3305.85
508.777	3361.21
509.145	3389.91
509.514	3395.56
509.882	3366.18
510.25	3371.61
510.618	3457.25
510.986	3473.07
511.354	3482.56
511.722	3478.04
512.09	3515.78
512.458	3543.13
512.826	3547.65
513.193	3572.5
513.561	3584.03
513.929	3634.42
514.297	3657.7
514.664	3687.08
515.032	3674.88
515.4	3690.47
515.767	3720.3
516.135	3736.34
516.502	3755.55
516.869	3833.52
517.237	3825.38
517.604	3820.63
517.972	3828.09
518.339	3882.55
518.706	3855.89
519.073	3935.89
519.44	3931.37
519.808	3962.78
520.175	3965.71
520.542	4070.8
520.909	4083
521.276	4049.33
521.643	4062.44
522.009	4144.02
522.376	4137.46
522.743	4182.88
523.11	4212.94
523.477	4212.04
523.843	4207.06
524.21	4312.6
524.577	4305.37
524.943	4300.62
525.31	4356.89
525.676	4372.26
526.043	4438.24
526.409	4391.47
526.776	4494.74
527.142	4425.36
527.508	4528.64
527.874	4531.58
528.241	4543.1
528.607	4562.31
528.973	4591.46
529.339	4648.41
529.705	4644.12
530.071	4703.1
530.437	4744.23
530.803	4709.65
531.169	4808.18
531.535	4731.12
531.901	4809.08
532.267	4788.29
532.632	4888.63
532.998	4885.69
533.364	4941.73
533.73	4866.71
534.095	4982.64
534.461	4984.45
534.826	4991.9
535.192	5007.04
535.557	5028.74
535.923	5049.53
536.288	5073.03
536.653	5093.82
537.019	5096.53
537.384	5160.49
537.749	5146.02
538.114	5186.25
538.479	5208.85
538.845	5261.27
539.21	5241.61
539.575	5252.69
539.94	5236.87
540.305	5364.32
540.67	5338.79
541.034	5376.75
541.399	5411.1
541.764	5414.26
542.129	5353.25
542.494	5410.2
542.858	5467.37
543.223	5484.09
543.587	5502.17
543.952	5504.21
544.316	5564.99
544.681	5482.29
545.045	5602.96
545.41	5619
545.774	5642.96
546.138	5611.32
546.503	5630.98
546.867	5667.59
547.231	5749.17
547.595	5734.48
547.959	5743.07
548.324	5721.15
548.688	5793.92
549.052	5759.11
549.416	5833.69
549.779	5858.77
550.143	5842.5
550.507	5908.94
550.871	5890.64
551.235	5929.51
551.599	5967.02
551.962	6010.86
552.326	6026.9
552.689	6083.4
553.053	6008.15
553.417	6028.94
553.78	6108.03
554.143	6063.29
554.507	6162.27
554.87	6139.22
555.234	6225.32
555.597	6175.6
555.96	6248.82
556.323	6237.52
556.686	6221.93
557.05	6265.32
557.413	6336.5
557.776	6359.78
558.139	6371.53
558.502	6387.35
558.865	6392.32
559.228	6471.86
559.59	6484.97
559.953	6472.54
560.316	6589.83
560.679	6583.5
561.041	6605.42
561.404	6589.83
561.767	6661.24
562.129	6623.5
562.492	6710.28
562.854	6727.9
563.217	6665.3
563.579	6723.16
563.941	6784.62
564.304	6842.7
564.666	6838.41
565.028	6875.92
565.39	6820.1
565.753	6946.2
566.115	6904.17
566.477	6971.74
566.839	7027.56
567.201	7050.61
567.563	7076.37
567.925	7039.98
568.287	7061
568.648	7097.61
569.01	7122.47
569.372	7225.97
569.734	7186.65
570.095	7209.7
570.457	7265.06
570.819	7262.35
571.18	7310.26
571.542	7287.66
571.903	7300.77
572.265	7351.84
572.626	7384.61
572.987	7397.72
573.349	7450.6
573.71	7424.16
574.071	7447.21
574.432	7555.23
574.794	7536.47
575.155	7560.42
575.516	7531.27
575.877	7555.68
576.238	7587.99
576.599	7625.51
576.96	7630.7
577.32	7635.45
577.681	7631.83
578.042	7639.52
578.403	7729.23
578.763	7725.62
579.124	7754.99
579.485	7732.62
579.845	7790.47
580.206	7726.75
580.566	7734.2
580.927	7740.08
581.287	7836.35
581.648	7754.54
582.008	7811.04
582.368	7792.06
582.728	7787.08
583.089	7852.17
583.449	7838.83
583.809	7839.51
584.169	7831.6
584.529	7803.35
584.889	7887.65
585.249	7834.77
585.609	7879.51
585.969	7914.99
586.329	7851.71
586.688	7866.63
587.048	7892.39
587.408	7872.96
587.768	7849.45
588.127	7939.85
588.487	7872.96
588.846	7885.61
589.206	7873.41
589.565	7850.13
589.925	7932.84
590.284	7859.62
590.643	7922.45
591.003	7912.05
591.362	7906.85
591.721	7934.65
592.08	7890.58
592.44	7938.94
592.799	7961.54
593.158	7966.74
593.517	7918.15
593.876	8009.45
594.235	7929
594.593	7990.02
594.952	7925.16
595.311	7951.37
595.67	7948.66
596.029	7992.95
596.387	8022.33
596.746	7995.67
597.104	7994.76
597.463	8013.07
597.822	8038.38
598.18	7976.46
598.538	7954.08
598.897	8062.1
599.255	7935.78
599.613	8071.6
599.972	8019.39
600.33	8019.17
600.688	8000.41
601.046	8048.32
601.404	8044.03
601.762	8041.77
602.12	8000.41
602.478	8089.22
602.836	8018.94
603.194	8049.22
603.552	8058.71
603.91	8103.23
604.268	8094.65
604.625	8069.34
604.983	8100.97
605.341	8086.28
605.698	8096.68
606.056	8126.96
606.413	8100.3
606.771	8139.62
607.128	8116.34
607.485	8120.86
607.843	8113.4
608.2	8168.99
608.557	8192.04
608.914	8128.09
609.272	8186.85
609.629	8191.14
609.986	8208.99
610.343	8226.62
610.7	8244.92
611.057	8213.06
611.414	8174.42
611.771	8280.63
612.127	8223.23
612.484	8235.43
612.841	8298.93
613.198	8214.19
613.554	8273.85
613.911	8319.95
614.267	8285.83
614.624	8295.32
614.98	8322.21
615.337	8400.85
615.693	8306.17
616.05	8315.43
616.406	8380.97
616.762	8353.4
617.118	8385.94
617.475	8392.94
617.831	8371.7
618.187	8358.59
618.543	8353.62
618.899	8402.43
619.255	8393.62
619.611	8369.89
619.967	8428.42
620.323	8420.06
620.678	8377.8
621.034	8432.72
621.39	8414.64
621.746	8392.72
622.101	8459.16
622.457	8399.04
622.812	8402.89
623.168	8437.01
623.523	8442.21
623.879	8456.67
624.234	8421.42
624.589	8489.89
624.945	8447.63
625.3	8388.2
625.655	8482.21
626.01	8437.01
626.365	8505.48
626.72	8439.5
627.075	8456.44
627.43	8414.64
627.785	8394.53
628.14	8484.01
628.495	8443.79
628.85	8504.35
629.205	8495.09
629.559	8463
629.914	8432.04
630.269	8444.69
630.623	8430.68
630.978	8436.78
631.332	8466.84
631.687	8414.64
632.041	8368.31
632.396	8458.25
632.75	8446.73
633.104	8399.5
633.459	8362.21
633.813	8373.73
634.167	8396.33
634.521	8436.56
634.875	8395.65
635.229	8363.11
635.583	8338.03
635.937	8364.02
636.291	8345.26
636.645	8364.02
636.999	8305.04
637.352	8404.47
637.706	8330.57
638.06	8336.67
638.413	8334.41
638.767	8300.06
639.121	8343.23
639.474	8264.36
639.828	8237.69
640.181	8318.82
640.534	8324.24
640.888	8258.71
641.241	8201.54
641.594	8232.27
641.947	8305.71
642.301	8331.25
642.654	8204.7
643.007	8290.12
643.36	8256.45
643.713	8204.93
644.066	8302.32
644.419	8292.83
644.771	8178.03
645.124	8164.25
645.477	8138.94
645.83	8049.45
646.182	8038.15
646.535	8050.58
646.888	8044.7
647.24	7976.23
647.593	8040.41
647.945	8044.93
648.298	7946.18
648.65	7978.72
649.002	7966.51
649.355	8002.67
649.707	7994.31
650.059	8052.61
650.411	8128.54
650.763	8141.42
651.115	8256.68
651.467	8197.92
651.819	8181.42
652.171	8153.63
652.523	8106.17
652.875	8206.96
653.227	8121.09
653.578	8208.32
653.93	8231.14
654.282	8159.5
654.633	8102.56
654.985	8150.69
655.337	8205.6
655.688	8190.69
656.039	8198.82
656.391	8160.41
656.742	8144.59
657.094	8214.87
657.445	8159.95
657.796	8155.44
658.147	8204.7
658.498	8075.89
658.849	8115.66
659.2	8125.61
659.551	8127.87
659.902	8198.6
660.253	8163.34
660.604	8184.81
660.955	8104.14
661.306	8184.14
661.656	8144.14
662.007	8163.8
662.358	8174.64
662.708	8152.5
663.059	8216.22
663.409	8147.98
663.76	8130.13
664.11	8163.34
664.461	8189.11
664.811	8161.31
665.161	8207.64
665.511	8090.58
665.862	8140.52
666.212	8174.19
666.562	8171.93
666.912	8198.15
667.262	8152.5
667.612	8181.65
667.962	8194.3
668.312	8111.82
668.662	8176.9
669.011	8206.28
669.361	8148.88
669.711	8190.91
670.06	8142.55
670.41	8145.04
670.76	8168.77
671.109	8171.93
671.459	8140.07
671.808	8101.88
672.157	8125.38
672.507	8086.51
672.856	8067.98
673.205	8107.3
673.554	8127.19
673.904	8093.74
674.253	8096
674.602	8150.92
674.951	7996.57
675.3	7980.52
675.649	8061.43
675.998	8092.39
676.346	8124.25
676.695	8054.2
677.044	8043.57
677.393	8075.21
677.741	8031.82
678.09	7971.49
678.438	7996.57
678.787	7988.43
679.135	7982.56
679.484	7966.74
679.832	7955.89
680.181	7941.2
680.529	7986.17
680.877	7943.24
681.225	7904.82
681.573	7953.63
681.922	7894.43
682.27	7884.26
682.618	7894.43
682.966	7877.02
683.314	7891.26
683.661	7930.13
684.009	7801.32
684.357	7837.48
684.705	7824.82
685.053	7759.97
685.4	7743.69
685.748	7724.26
686.095	7769.68
686.443	7675.22
686.79	7681.78
687.138	7677.48
687.485	7674.32
687.832	7633.87
688.18	7612.85
688.527	7654.88
688.874	7622.12
689.221	7606.52
689.568	7571.72
689.915	7589.57
690.262	7578.05
690.609	7577.37
690.956	7486.53
691.303	7475
691.65	7474.78
691.997	7401.78
692.344	7391.39
692.69	7369.47
693.037	7412.4
693.383	7353.65
693.73	7329.69
694.077	7344.16
694.423	7319.53
694.769	7272.97
695.116	7235.01
695.462	7238.62
695.808	7233.65
696.155	7257.61
696.501	7185.74
696.847	7161.34
697.193	7117.04
697.539	7132.86
697.885	7096.25
698.231	7063.03
698.577	7108.91
698.923	7013.54
699.269	7012.19
699.614	6986.2
699.96	6982.81
700.306	6933.55
700.651	6924.73
700.997	6938.74
701.342	6916.82
701.688	6885.64
702.033	6898.97
702.379	6847.9
702.724	6756.15
703.069	6802.93
703.415	6740.11
703.76	6769.03
704.105	6747.79
704.45	6724.29
704.795	6700.33
705.14	6685.87
705.485	6708.92
705.83	6674.34
706.175	6674.12
706.52	6612.65
706.865	6555.03
707.209	6628.7
707.554	6576.95
707.899	6526.33
708.243	6586.44
708.588	6520.68
708.932	6554.8
709.277	6490.39
709.621	6488.36
709.966	6443.84
710.31	6438.42
710.654	6393.22
710.998	6450.17
711.342	6448.81
711.687	6397.52
712.031	6401.13
712.375	6363.17
712.719	6373.56
713.063	6331.08
713.407	6444.29
713.75	6378.98
714.094	6274.58
714.438	6331.98
714.782	6352.09
715.125	6242.49
715.469	6314.58
715.812	6304.18
716.156	6220.12
716.499	6226.67
716.843	6268.48
717.186	6189.84
717.53	6288.82
717.873	6213.11
718.216	6199.78
718.559	6267.35
718.902	6192.78
719.246	6210.18
719.589	6186.22
719.932	6156.84
720.275	6234.81
720.617	6180.57
720.96	6182.61
721.303	6156.17
721.646	6171.53
721.989	6100.8
722.331	6157.75
722.674	6096.96
723.016	6166.34
723.359	6182.38
723.701	6163.62
724.044	6125.21
724.386	6089.27
724.729	6079.33
725.071	6104.87
725.413	6095.83
725.755	6092.89
726.097	6054.7
726.439	6048.15
726.782	6059.9
727.124	6125.66
727.465	6032.1
727.807	6035.27
728.149	6046.56
728.491	6051.76
728.833	6064.42
729.175	6042.72
729.516	6049.05
729.858	6049.28
730.199	6076.62
730.541	6057.19
730.882	6067.81
731.224	6067.35
731.565	6040.01
731.906	6070.74
732.248	6029.39
732.589	5992.1
732.93	6007.7
733.271	5994.36
733.612	6002.95
733.953	5978.32
734.294	5974.93
734.635	5969.05
734.976	6021.71
735.317	5995.94
735.658	6022.38
735.999	6000.92
736.339	5991.88
736.68	6031.2
737.021	6035.04
737.361	6006.79
737.702	6005.21
738.042	6014.25
738.383	5992.1
738.723	6019.45
739.063	5972.67
739.404	5953.01
739.744	6031.88
740.084	5984.42
740.424	6025.32
740.764	5994.14
741.104	5971.76
741.444	5967.24
741.784	5990.75
742.124	5948.26
742.464	5958.66
742.804	6017.19
743.143	5992.55
743.483	5948.26
743.823	5952.33
744.162	5971.99
744.502	5959.33
744.841	5958.66
745.181	5980.13
745.52	5941.48
745.86	5982.84
746.199	5962.5
746.538	5965.89
746.877	5996.4
747.216	5993.23
747.556	5967.7
747.895	5968.15
748.234	5966.57
748.573	5964.98
748.911	5951.65
749.25	5948.94
749.589	5943.29
749.928	5954.14
750.267	5953.91
750.605	5930.64
750.944	5963.63
751.283	5898.32
751.621	5950.75
751.96	5929.96
752.298	5882.27
752.636	5942.84
752.975	5882.95
753.313	5857.19
753.651	5900.81
753.989	5884.99
754.327	5912.56
754.666	5860.13
755.004	5822.16
755.342	5891.99
755.679	5871.88
756.017	5781.94
756.355	5830.98
756.693	5820.81
757.031	5840.69
757.368	5807.02
757.706	5792.79
758.044	5803.18
758.381	5837.08
758.719	5809.06
759.056	5770.41
759.394	5741.94
759.731	5735.61
760.068	5694.94
760.405	5753.92
760.743	5675.05
761.08	5693.35
761.417	5646.12
761.754	5637.99
762.091	5679.34
762.428	5607.93
762.765	5600.02
763.102	5650.42
763.438	5612.9
763.775	5572.23
764.112	5578.55
764.449	5552.34
764.785	5601.15
765.122	5518.89
765.458	5540.14
765.795	5477.99
766.131	5510.31
766.467	5484.77
766.804	5419.24
767.14	5420.59
767.476	5422.17
767.812	5380.82
768.148	5438.9
768.485	5366.36
768.821	5369.52
769.157	5335.4
769.492	5300.14
769.828	5313.48
770.164	5234.61
770.5	5286.13
770.836	5265.34
771.171	5264.21
771.507	5287.94
771.842	5208.39
772.178	5203.42
772.513	5160.94
772.849	5152.35
773.184	5146.25
773.519	5090.88
773.855	5155.74
774.19	5125.68
774.525	5098.79
774.86	5020.15
775.195	5033.03
775.53	5074.39
775.865	5030.09
776.2	5002.75
776.535	4995.97
776.87	4967.27
777.205	4930.44
777.539	4946.25
777.874	4948.97
778.209	4859.25
778.543	4904
778.878	4896.54
779.212	4864
779.547	4854.73
779.881	4878.46
780.215	4806.14
780.55	4822.19
780.884	4784
781.218	4795.98
781.552	4772.47
781.886	4774.73
782.22	4738.35
782.554	4744.23
782.888	4671.01
783.222	4710.78
783.556	4661.06
783.889	4653.61
784.223	4609.09
784.557	4608.18
784.89	4607.73
785.224	4584.91
785.557	4552.82
785.891	4531.12
786.224	4585.59
786.558	4575.87
786.891	4559.37
787.224	4479.37
787.557	4496.1
787.891	4497.9
788.224	4460.39
788.557	4477.79
788.89	4402.54
789.223	4409.09
789.556	4398.25
789.888	4395.99
790.221	4411.35
790.554	4327.06
790.887	4361.86
791.219	4332.26
791.552	4308.08
791.884	4333.84
792.217	4257.23
792.549	4294.29
792.882	4236.89
793.214	4239.61
793.546	4283.9
793.879	4210.91
794.211	4171.81
794.543	4229.89
794.875	4207.52
795.207	4211.36
795.539	4168.42
795.871	4132.04
796.203	4113.73
796.535	4103.11
796.867	4125.94
797.198	4071.02
797.53	4093.85
797.862	4087.29
798.193	4094.07
798.525	4046.84
798.856	4031.48
799.188	4017.46
799.519	4001.19
799.85	3982.89
800.182	4055.2
800.513	3996.22
800.844	3983.57
801.175	3989.67
801.506	3962.33
801.837	3921.87
802.168	3957.13
802.499	3916.9
802.83	3907.19
803.161	3885.04
803.491	3870.58
803.822	3892.95
804.153	3871.25
804.483	3851.82
804.814	3804.82
805.145	3844.14
805.475	3820.41
805.805	3819.96
806.136	3840.97
806.466	3825.15
806.796	3800.97
807.126	3798.04
807.457	3737.02
807.787	3748.09
808.117	3795.32
808.447	3739.51
808.777	3749.9
809.107	3683.24
809.436	3708.32
809.766	3731.14
810.096	3704.48
810.426	3699.96
810.755	3701.32
811.085	3698.6
811.414	3676.46
811.744	3628.55
812.073	3670.81
812.403	3642.33
812.732	3623.58
813.061	3684.14
813.39	3602.56
813.719	3601.88
814.049	3620.19
814.378	3622
814.707	3587.19
815.036	3589.91
815.365	3582.67
815.693	3549
816.022	3566.86
816.351	3567.31
816.68	3498.16
817.008	3560.3
817.337	3496.8
817.665	3505.61
817.994	3511.26
818.322	3505.84
818.651	3485.5
818.979	3493.18
819.307	3456.8
819.636	3451.38
819.964	3460.19
820.292	3474.88
820.62	3475.11
820.948	3478.72
821.276	3475.78
821.604	3469.23
821.932	3430.59
822.259	3466.07
822.587	3449.8
822.915	3437.37
823.243	3489.57
823.57	3486.86
823.898	3445.95
824.225	3442.79
824.553	3414.54
824.88	3421.1
825.207	3419.74
825.535	3443.47
825.862	3436.92
826.189	3407.76
826.516	3493.86
826.843	3469
827.17	3450.7
827.497	3474.2
827.824	3480.3
828.151	3448.44
828.478	3448.89
828.805	3464.71
829.131	3472.62
829.458	3438.72
829.785	3438.05
830.111	3438.05
830.438	3412.28
830.764	3448.89
831.09	3409.57
831.417	3426.52
831.743	3447.54
832.069	3397.37
832.395	3422.23
832.722	3420.42
833.048	3424.49
833.374	3431.94
833.7	3371.38
834.026	3413.64
834.351	3408.67
834.677	3390.81
835.003	3437.14
835.329	3407.31
835.654	3479.17
835.98	3421.1
836.306	3397.14
836.631	3386.3
836.956	3386.07
837.282	3384.94
837.607	3345.62
837.932	3361.21
838.258	3406.41
838.583	3345.62
838.908	3351.27
839.233	3382.91
839.558	3324.83
839.883	3331.83
840.208	3325.05
840.533	3341.1
840.858	3312.62
841.182	3332.29
841.507	3345.62
841.832	3318.27
842.156	3294.32
842.481	3293.42
842.805	3296.35
843.13	3280.54
843.454	3296.35
843.778	3256.58
844.103	3284.15
844.427	3245.96
844.751	3221.55
845.075	3239.63
845.399	3249.8
845.723	3208.45
846.047	3250.48
846.371	3158.73
846.695	3212.97
847.019	3207.09
847.343	3167.77
847.666	3179.52
847.99	3177.04
848.313	3116.25
848.637	3099.97
848.96	3140.43
849.284	3127.54
849.607	3101.1
849.931	3068.56
850.254	3046.87
850.577	3025.17
850.9	3046.64
851.223	3060.65
851.546	3018.4
851.869	2994.44
852.192	2999.41
852.515	2963.71
852.838	2998.73
853.161	2929.58
853.483	2979.07
853.806	2929.13
854.129	2954.89
854.451	2956.7
854.774	2914.22
855.096	2928.45
855.419	2918.28
855.741	2906.53
856.063	2927.32
856.385	2913.77
856.708	2875.12
857.03	2863.15
857.352	2849.36
857.674	2826.99
857.996	2848.91
858.318	2847.55
858.64	2811.62
858.961	2862.47
859.283	2775.69
859.605	2809.81
859.926	2833.09
860.248	2824.5
860.57	2844.61
860.891	2790.83
861.212	2794.9
861.534	2781.11
861.855	2791.28
862.176	2801.9
862.498	2770.49
862.819	2792.64
863.14	2750.38
863.461	2745.18
863.782	2747.67
864.103	2791.28
864.424	2740.44
864.745	2727.78
865.065	2748.57
865.386	2714.45
865.707	2714.45
866.027	2718.06
866.348	2720.32
866.668	2699.53
866.989	2697.73
867.309	2666.99
867.63	2707.67
867.95	2671.74
868.27	2666.77
868.59	2709.25
868.91	2682.36
869.23	2672.64
869.55	2616.15
869.87	2690.49
870.19	2666.54
870.51	2671.06
870.83	2673.55
871.15	2676.26
871.469	2664.51
871.789	2643.94
872.109	2686.65
872.428	2614.79
872.748	2613.89
873.067	2633.32
873.386	2618.18
873.706	2625.41
874.025	2634.45
874.344	2596.94
874.663	2591.06
874.982	2589.03
875.301	2637.84
875.62	2626.99
875.939	2589.48
876.258	2613.66
876.577	2580.21
876.896	2593.32
877.214	2608.46
877.533	2577.28
877.852	2558.29
878.17	2588.12
878.489	2565.07
878.807	2574.11
879.125	2558.07
879.444	2540.44
879.762	2567.33
880.08	2572.53
880.398	2563.72
880.716	2576.82
881.034	2518.97
881.352	2551.29
881.67	2513.78
881.988	2518.52
882.306	2504.06
882.624	2524.4
882.941	2498.86
883.259	2501.8
883.577	2484.62
883.894	2516.71
884.212	2468.81
884.529	2490.5
884.846	2502.7
885.164	2466.77
885.481	2472.19
885.798	2464.96
886.115	2452.99
886.432	2478.75
886.75	2497.5
887.067	2472.19
887.383	2439.43
887.7	2446.43
888.017	2415.47
888.334	2424.51
888.651	2422.7
888.967	2382.25
889.284	2439.88
889.6	2396.04
889.917	2385.19
890.233	2390.39
890.55	2366.89
890.866	2388.36
891.182	2399.43
891.498	2352.42
891.815	2361.01
892.131	2371.63
892.447	2400.11
892.763	2317.4
893.079	2351.75
893.395	2323.72
893.71	2343.38
894.026	2321.92
894.342	2293.22
894.657	2295.48
894.973	2302.93
895.289	2338.41
895.604	2313.33
895.92	2302.93
896.235	2315.36
896.55	2289.6
896.865	2268.13
897.181	2245.53
897.496	2238.75
897.811	2267.91
898.126	2239.43
898.441	2238.53
898.756	2188.59
899.071	2220.22
899.386	2241.92
899.7	2207.12
900.015	2214.57
900.33	2201.02
900.644	2183.61
900.959	2217.29
901.273	2172.32
901.588	2150.85
901.902	2148.59
902.216	2160.79
902.531	2167.8
902.845	2135.03
903.159	2125.99
903.473	2114.46
903.787	2111.98
904.101	2095.03
904.415	2097.29
904.729	2123.5
905.042	2072.88
905.356	2087.8
905.67	2071.53
905.984	2107.68
906.297	2055.26
906.611	2057.29
906.924	2057.06
907.237	2052.54
907.551	2077.63
907.864	2054.13
908.177	2031.3
908.491	2049.83
908.804	2013.45
909.117	2001.92
909.43	2005.09
909.743	1985.88
910.056	2010.29
910.368	2016.61
910.681	1968.25
910.994	1954.47
911.307	1963.28
911.619	1920.12
911.932	1929.84
912.244	1931.19
912.557	1917.63
912.869	1944.3
913.181	1950.17
913.494	1930.51
913.806	1886.45
914.118	1891.87
914.43	1918.54
914.742	1905.66
915.054	1902.72
915.366	1879.44
915.678	1898.65
915.99	1862.49
916.302	1864.3
916.613	1821.82
916.925	1847.8
917.236	1845.09
917.548	1832.66
917.859	1809.84
918.171	1805.09
918.482	1801.25
918.794	1807.58
919.105	1804.64
919.416	1798.54
919.727	1785.66
920.038	1804.19
920.349	1755.6
920.66	1763.51
920.971	1784.76
921.282	1755.6
921.593	1728.03
921.903	1730.52
922.214	1740.24
922.525	1723.06
922.835	1738.65
923.146	1709.05
923.456	1714.7
923.767	1699.11
924.077	1726.23
924.387	1707.47
924.697	1683.97
925.008	1690.97
925.318	1662.05
925.628	1686.23
925.938	1693.91
926.248	1665.89
926.558	1670.18
926.867	1634.25
927.177	1655.95
927.487	1650.97
927.796	1644.19
928.106	1633.8
928.416	1635.83
928.725	1644.65
929.034	1585.44
929.344	1628.83
929.653	1604.87
929.962	1585.44
930.271	1595.16
930.581	1573.46
930.89	1587.25
931.199	1575.04
931.508	1555.83
931.817	1568.26
932.125	1551.77
932.434	1571.43
932.743	1545.89
933.051	1550.41
933.36	1573.01
933.669	1526.68
933.977	1534.37
934.286	1534.59
934.594	1515.38
934.902	1509.51
935.21	1499.34
935.519	1507.7
935.827	1519.9
936.135	1501.15
936.443	1449.4
936.751	1490.98
937.059	1461.83
937.367	1470.87
937.674	1476.97
937.982	1476.29
938.29	1439.45
938.597	1431.77
938.905	1432.45
939.213	1439.68
939.52	1424.31
939.827	1434.93
940.135	1424.76
940.442	1408.49
940.749	1417.53
941.056	1397.87
941.363	1389.29
941.67	1381.15
941.977	1395.16
942.284	1406.46
942.591	1394.26
942.898	1377.08
943.205	1376.18
943.511	1358.1
943.818	1363.07
944.125	1361.04
944.431	1381.6
944.738	1330.08
945.044	1358.33
945.35	1317.87
945.657	1329.17
945.963	1364.2
946.269	1321.26
946.575	1317.65
946.881	1307.03
947.187	1322.39
947.493	1327.59
947.799	1298.67
948.105	1316.75
948.41	1306.8
948.716	1286.24
949.022	1298.44
949.327	1310.64
949.633	1289.85
949.938	1307.93
950.244	1261.83
950.549	1262.74
950.854	1252.57
951.16	1247.82
951.465	1278.55
951.77	1264.09
952.075	1272.68
952.38	1244.2
952.685	1240.59
952.99	1213.24
953.294	1208.27
953.599	1220.48
953.904	1234.94
954.209	1204.43
954.513	1220.93
954.818	1206.47
955.122	1192.23
955.426	1185.22
955.731	1187.48
956.035	1210.53
956.339	1204.43
956.643	1194.49
956.948	1189.06
957.252	1161.49
957.556	1180.7
957.86	1176.41
958.163	1177.77
958.467	1149.52
958.771	1163.3
959.075	1160.14
959.378	1160.14
959.682	1181.16
959.985	1168.05
960.289	1111.55
960.592	1130.31
960.896	1157.65
961.199	1102.29
961.502	1107.26
961.805	1115.39
962.108	1109.52
962.411	1137.54
962.714	1112.91
963.017	1109.74
963.32	1122.4
963.623	1096.19
963.926	1088.28
964.228	1090.31
964.531	1078.79
964.833	1117.65
965.136	1059.35
965.438	1076.98
965.741	1076.53
966.043	1087.15
966.345	1054.61
966.648	1065
966.95	1059.58
967.252	1056.86
967.554	1077.43
967.856	1018.9
968.158	1052.57
968.46	1060.03
968.761	1036.3
969.063	1041.72
969.365	1045.57
969.666	1048.73
969.968	1039.69
970.269	1025.45
970.571	1022.97
970.872	1036.75
971.174	999.92
971.475	1020.03
971.776	1014.83
972.077	1034.94
972.378	1029.97
972.679	1003.08
972.98	999.92
973.281	998.56
973.582	1006.47
973.883	972.57
974.183	1001.73
974.484	990.2
974.785	936.19
975.085	1005.34
975.386	963.76
975.686	988.39
975.986	939.58
976.287	966.47
976.587	959.24
976.887	950.65
977.187	951.33
977.487	965.12
977.787	939.81
978.087	975.96
978.387	948.39
978.687	955.62
978.987	927.83
979.286	938.22
979.586	927.15
979.885	933.03
980.185	900.03
980.484	921.28
980.784	937.77
981.083	931.44
981.382	914.95
981.682	902.07
981.981	886.93
982.28	895.97
982.579	891.9
982.878	884.89
983.177	889.64
983.475	900.48
983.774	880.15
984.073	897.55
984.372	900.71
984.67	906.36
984.969	893.93
985.267	895.29
985.566	847.6
985.864	873.37
986.162	859.58
986.461	871.11
986.759	860.71
987.057	851.9
987.355	852.12
987.653	842.63
987.951	865.91
988.249	850.99
988.547	845.35
988.844	833.37
989.142	828.17
989.44	853.48
989.737	819.36
990.035	829.75
990.332	839.47
990.63	818.68
990.927	834.5
991.224	815.74
991.521	824.33
991.819	827.49
992.116	849.19
992.413	832.69
992.71	815.29
993.006	800.83
993.303	800.83
993.6	804.44
993.897	810.77
994.193	786.82
994.49	797.66
994.787	787.95
995.083	797.66
995.379	793.59
995.676	778.91
995.972	808.51
996.268	781.84
996.565	787.04
996.861	782.75
997.157	773.03
997.453	785.23
997.749	766.7
998.044	763.99
998.34	746.82
998.636	743.88
998.932	762.18
999.227	750.66
999.523	746.59
999.818	754.5
1000.114	752.92
1000.409	718.57
1000.704	747.95
1001	711.34
1001.295	743.2
1001.59	717.21
1001.885	733.48
1002.18	733.03
1002.475	729.42
1002.77	701.85
1003.065	712.69
1003.359	726.7
1003.654	692.13
1003.949	705.91
1004.243	693.48
1004.538	695.52
1004.832	694.16
1005.127	698.91
1005.421	705.91
1005.715	684.9
1006.009	712.24
1006.304	687.38
1006.598	675.18
1006.892	672.92
1007.186	679.02
1007.48	696.87
1007.773	651
1008.067	689.19
1008.361	663.88
1008.655	661.4
1008.948	656.65
1009.242	667.04
1009.535	641.28
1009.829	677.44
1010.122	672.69
1010.415	637.67
1010.708	644.67
1011.001	674.5
1011.295	660.72
1011.588	638.57
1011.881	650.77
1012.173	693.03
1012.466	642.86
1012.759	650.32
1013.052	653.26
1013.344	624.56
1013.637	616.2
1013.93	615.52
1014.222	633.83
1014.514	629.31
1014.807	642.64
1015.099	606.03
1015.391	635.41
1015.683	608.29
1015.976	629.31
1016.268	645.35
1016.56	621.62
1016.851	621.4
1017.143	621.17
1017.435	597.89
1017.727	599.7
1018.018	589.53
1018.31	585.92
1018.602	605.35
1018.893	578.69
1019.185	566.26
1019.476	594.28
1019.767	600.83
1020.058	592.24
1020.35	608.06
1020.641	591.34
1020.932	577.1
1021.223	586.14
1021.514	575.52
1021.804	565.58
1022.095	562.19
1022.386	573.71
1022.677	580.27
1022.967	609.42
1023.258	570.55
1023.548	556.99
1023.839	539.82
1024.129	571.23
1024.419	529.65
1024.709	562.87
1025	535.3
1025.29	541.4
1025.58	561.06
1025.87	555.64
1026.16	546.37
1026.449	535.75
1026.739	556.99
1027.029	547.27
1027.319	507.27
1027.608	539.36
1027.898	555.41
1028.187	514.96
1028.477	519.25
1028.766	513.83
1029.055	535.3
1029.344	524.9
1029.634	524.22
1029.923	520.83
1030.212	534.62
1030.501	515.41
1030.79	504.11
1031.078	518.35
1031.367	509.99
1031.656	506.14
1031.945	512.92
1032.233	511.57
1032.522	525.13
1032.81	497.56
1033.099	503.43
1033.387	493.49
1033.675	477.22
1033.963	489.42
1034.251	501.63
1034.54	472.7
1034.828	493.26
1035.116	500.27
1035.403	493.49
1035.691	478.35
1035.979	475.86
1036.267	510.66
1036.554	502.3
1036.842	491
1037.129	507.05
1037.417	473.15
1037.704	470.89
1037.992	487.84
1038.279	501.17
1038.566	489.65
1038.853	489.65
1039.14	489.65
