Data from mousepad_grey_FLMS001491_00006.txt Node
Date: Wed Feb 08 14:28:54 GMT 2017
User: dcchb
Spectrometer: FLMS00149
Trigger mode: 0
Integration Time (sec): 2.000000E-2
Scans to average: 10
Electric dark correction enabled: true
Nonlinearity correction enabled: false
Boxcar width: 0
XAxis mode: Wavelengths
Number of Pixels in Spectrum: 2048
>>>>>Begin Spectral Data<<<<<
341.393	-11.24
341.776	-11.24
342.16	-11.24
342.543	-65.93
342.927	-63.22
343.31	-53.5
343.693	-60.96
344.077	-53.5
344.46	-64.35
344.843	-52.15
345.226	-42.43
345.61	-18.25
345.993	-29.32
346.376	-8.98
346.759	7.51
347.142	23.11
347.525	22.65
347.908	73.5
348.291	75.31
348.674	82.99
349.057	98.36
349.44	116.66
349.823	130.22
350.206	153.72
350.588	151.46
350.971	191.92
351.354	205.93
351.737	228.75
352.119	228.98
352.502	249.99
352.884	262.87
353.267	263.55
353.65	276.66
354.032	248.41
354.414	299.71
354.797	280.95
355.179	310.33
355.562	312.14
355.944	313.04
356.326	330.22
356.709	336.77
357.091	322.76
357.473	319.37
357.855	330.9
358.238	323.66
358.62	305.59
359.002	336.09
359.384	324.57
359.766	315.98
360.148	306.26
360.53	313.04
360.912	327.73
361.294	304.23
361.676	317.79
362.057	306.26
362.439	308.52
362.821	295.42
363.203	309.65
363.584	313.95
363.966	307.85
364.348	305.36
364.729	309.43
365.111	287.51
365.493	306.04
365.874	299.94
366.256	302.65
366.637	307.17
367.019	286.15
367.4	287.05
367.781	295.87
368.163	288.18
368.544	292.25
368.925	291.57
369.306	316.21
369.688	282.08
370.069	277.56
370.45	297
370.831	291.12
371.212	304.23
371.593	297.9
371.974	296.32
372.355	315.08
372.736	311.91
373.117	304.91
373.498	298.13
373.879	307.39
374.26	309.88
374.641	303.33
375.021	286.15
375.402	292.48
375.783	283.89
376.163	334.28
376.544	313.27
376.925	286.15
377.305	283.89
377.686	312.14
378.066	306.04
378.447	308.07
378.827	311.46
379.208	307.17
379.588	299.94
379.968	307.17
380.349	315.98
380.729	305.81
381.109	319.37
381.489	303.55
381.87	305.13
382.25	309.43
382.63	309.43
383.01	329.09
383.39	323.89
383.77	314.62
384.15	307.62
384.53	319.6
384.91	310.33
385.29	309.43
385.67	329.99
386.049	353.04
386.429	341.97
386.809	321.4
387.189	339.48
387.568	322.76
387.948	303.55
388.328	329.54
388.707	344.45
389.087	346.04
389.466	337.9
389.846	348.07
390.225	338.13
390.605	352.36
390.984	340.16
391.363	343.32
391.743	336.54
392.122	348.52
392.501	331.8
392.881	339.03
393.26	355.75
393.639	330.22
394.018	365.92
394.397	364.79
394.776	339.71
395.155	366.37
395.534	367.73
395.913	347.62
396.292	352.14
396.671	347.39
397.05	340.16
397.429	366.83
397.808	360.27
398.186	378.58
398.565	349.43
398.944	360.05
399.323	371.12
399.701	374.28
400.08	383.55
400.458	363.89
400.837	377
401.215	372.93
401.594	362.31
401.972	383.32
402.351	372.48
402.729	380.39
403.107	365.02
403.486	398.46
403.864	391.01
404.242	375.19
404.62	383.78
404.999	406.6
405.377	418.12
405.755	390.55
406.133	412.7
406.511	423.32
406.889	406.83
407.267	419.48
407.645	414.06
408.023	414.73
408.401	437.33
408.779	428.29
409.156	428.29
409.534	427.16
409.912	430.78
410.29	406.6
410.667	443.21
411.045	425.58
411.422	432.14
411.8	441.17
412.178	428.97
412.555	427.16
412.933	443.89
413.31	441.63
413.687	445.47
414.065	459.03
414.442	443.89
414.819	463.77
415.197	482.53
415.574	451.8
415.951	446.15
416.328	483.66
416.705	467.84
417.082	462.87
417.46	487.95
417.837	467.39
418.214	478.24
418.591	460.84
418.967	490.44
419.344	489.99
419.721	497.67
420.098	499.03
420.475	506.26
420.852	509.2
421.228	516.43
421.605	498.8
421.982	512.59
422.358	521.17
422.735	533.6
423.111	529.76
423.488	523.21
423.864	495.86
424.241	525.47
424.617	534.28
424.994	530.66
425.37	542.19
425.746	531.12
426.123	533.6
426.499	543.09
426.875	570.66
427.251	560.72
427.627	565.69
428.003	570.89
428.379	564.79
428.756	577.89
429.132	587.61
429.507	579.02
429.883	569.08
430.259	570.89
430.635	588.97
431.011	572.92
431.387	588.74
431.763	590.32
432.138	599.81
432.514	623.32
432.89	605.69
433.265	614.05
433.641	639.36
434.016	632.13
434.392	615.63
434.767	643.88
435.143	646.82
435.518	666.03
435.894	685.91
436.269	654.5
436.644	657.89
437.02	682.3
437.395	680.94
437.77	679.81
438.145	670.32
438.52	692.69
438.895	685.91
439.271	706.93
439.646	715.52
440.021	716.65
440.395	705.57
440.77	709.19
441.145	700.83
441.52	732.24
441.895	717.33
442.27	731.79
442.645	734.05
443.019	741.96
443.394	749.42
443.769	748.96
444.143	733.37
444.518	728.85
444.892	740.15
445.267	751
445.641	785.57
446.016	764.33
446.39	764.33
446.764	785.8
447.139	799.13
447.513	802.97
447.887	767.95
448.262	779.47
448.636	768.62
449.01	813.37
449.384	819.24
449.758	795.74
450.132	834.61
450.506	834.84
450.88	831.45
451.254	840.71
451.628	822.41
452.002	867.15
452.376	848.17
452.75	847.04
453.123	881.84
453.497	870.32
453.871	889.07
454.244	883.65
454.618	891.78
454.992	885.46
455.365	893.82
455.739	910.32
456.112	923.42
456.486	942.4
456.859	907.38
457.232	961.84
457.606	942.18
457.979	975.62
458.352	996.87
458.725	967.71
459.099	995.96
459.472	1027.37
459.845	1017.88
460.218	1026.7
460.591	1028.28
460.964	1034.61
461.337	1045.45
461.71	1060.14
462.083	1071.89
462.456	1064.21
462.829	1070.31
463.201	1105.79
463.574	1079.8
463.947	1104.89
464.32	1135.62
464.692	1153.02
465.065	1159.35
465.438	1154.6
465.81	1173.36
466.183	1183.08
466.555	1183.3
466.928	1191.44
467.3	1222.85
467.672	1223.98
468.045	1248.61
468.417	1252.23
468.789	1274.83
469.161	1257.65
469.534	1278.21
469.906	1321.6
470.278	1296.75
470.65	1310.3
471.022	1356.41
471.394	1371.55
471.766	1362.28
472.138	1403.41
472.51	1392.34
472.882	1435.27
473.253	1426.01
473.625	1466.01
473.997	1441.15
474.369	1501.49
474.74	1512.79
475.112	1545.1
475.484	1552.33
475.855	1595.72
476.227	1578.32
476.598	1637.3
476.97	1632.1
477.341	1658.09
477.713	1697.19
478.084	1684.98
478.455	1743.29
478.827	1750.29
479.198	1783.29
479.569	1778.99
479.94	1840.23
480.311	1838.88
480.682	1847.01
481.053	1900.57
481.424	1939.67
481.795	1923.85
482.166	1956.39
482.537	1998.42
482.908	2034.35
483.279	2034.13
483.65	2062.83
484.021	2112.54
484.391	2112.54
484.762	2137.63
485.133	2185.31
485.503	2199.32
485.874	2235.03
486.244	2265.53
486.615	2296.49
486.985	2313.22
487.356	2397.28
487.726	2376.72
488.097	2425.08
488.467	2411.52
488.837	2436.15
489.207	2492.65
489.578	2515.02
489.948	2519.09
490.318	2533.32
490.688	2597.73
491.058	2610.61
491.428	2664.17
491.798	2677.95
492.168	2708.01
492.538	2751.17
492.908	2779.64
493.278	2799.3
493.648	2781.23
494.017	2818.06
494.387	2830.72
494.757	2844.5
495.126	2919.08
495.496	2889.02
495.866	2926.08
496.235	2963.59
496.605	2989.36
496.974	3032.75
497.344	3031.39
497.713	3086.75
498.082	3094.66
498.452	3067.32
498.821	3131.05
499.19	3147.54
499.559	3111.84
499.928	3166.07
500.298	3180.99
500.667	3195.45
501.036	3208.33
501.405	3237.71
501.774	3231.61
502.143	3269.8
502.512	3289.46
502.88	3310.93
503.249	3329.23
503.618	3376.46
503.987	3400.65
504.356	3371.27
504.724	3402.23
505.093	3410.36
505.462	3471.83
505.83	3495.56
506.199	3407.2
506.567	3482.45
506.936	3529.23
507.304	3587.08
507.672	3562.45
508.041	3598.61
508.409	3623.69
508.777	3668.89
509.145	3696.23
509.514	3692.61
509.882	3690.13
510.25	3710.02
510.618	3768.09
510.986	3765.38
511.354	3779.39
511.722	3845.83
512.09	3862.1
512.458	3887.64
512.826	3941.87
513.193	3889.22
513.561	3943.91
513.929	3970.12
514.297	3997.01
514.664	4019.84
515.032	4038.82
515.4	4062.55
515.767	4069.33
516.135	4130.12
516.502	4097.8
516.869	4175.31
517.237	4143.9
517.604	4201.08
517.972	4159.27
518.339	4247.63
518.706	4258.25
519.073	4269.32
519.44	4300.06
519.808	4321.07
520.175	4338.7
520.542	4444.23
520.909	4466.38
521.276	4456.21
521.643	4463.67
522.009	4538.24
522.376	4494.85
522.743	4599.03
523.11	4569.2
523.477	4620.27
523.843	4663.44
524.21	4736.88
524.577	4750.44
524.943	4775.52
525.31	4756.99
525.676	4826.14
526.043	4877.22
526.409	4860.49
526.776	4907.95
527.142	4950.43
527.508	4984.11
527.874	5004.44
528.241	5026.37
528.607	5007.61
528.973	5064.33
529.339	5097.1
529.705	5149.53
530.071	5163.08
530.437	5191.78
530.803	5185
531.169	5230.2
531.535	5261.84
531.901	5314.72
532.267	5325.79
532.632	5316.3
532.998	5361.95
533.364	5376.64
533.73	5389.75
534.095	5424.32
534.461	5504.32
534.826	5504.77
535.192	5574.83
535.557	5530.76
535.923	5563.3
536.288	5566.69
536.653	5598.78
537.019	5596.75
537.384	5612.11
537.749	5695.5
538.114	5745.44
538.479	5736.4
538.845	5755.39
539.21	5816.85
539.575	5799
539.94	5775.5
540.305	5858.89
540.67	5906.79
541.034	5873.35
541.399	5906.79
541.764	5948.83
542.129	5953.12
542.494	5969.62
542.858	6012.1
543.223	6007.81
543.587	6104.3
543.952	6055.94
544.316	6080.57
544.681	6115.6
545.045	6095.94
545.41	6160.8
545.774	6152.89
546.138	6186.79
546.503	6202.61
546.867	6267.01
547.231	6273.56
547.595	6356.05
547.959	6335.26
548.324	6359.44
548.688	6383.62
549.052	6414.35
549.416	6402.83
549.779	6424.07
550.143	6447.34
550.507	6495.48
550.871	6522.6
551.235	6547.45
551.599	6586.32
551.962	6597.62
552.326	6610.73
552.689	6641.01
553.053	6634.46
553.417	6647.11
553.78	6794
554.143	6757.62
554.507	6802.59
554.87	6794.91
555.234	6843.04
555.597	6810.27
555.96	6843.04
556.323	6906.32
556.686	6890.5
557.05	6925.3
557.413	6981.79
557.776	6979.76
558.139	7077.16
558.502	7013.88
558.865	7138.63
559.228	7165.52
559.59	7127.33
559.953	7159.87
560.316	7253.43
560.679	7264.27
561.041	7204.39
561.404	7328.23
561.767	7360.31
562.129	7308.79
562.492	7366.42
562.854	7409.81
563.217	7417.94
563.579	7450.93
563.941	7494.55
564.304	7494.32
564.666	7511.72
565.028	7609.12
565.39	7615.45
565.753	7703.36
566.115	7678.72
566.477	7800.76
566.839	7734.99
567.201	7781.09
567.563	7815.67
567.925	7797.14
568.287	7889.57
568.648	7930.47
569.01	7898.15
569.372	8021.09
569.734	8000.75
570.095	8093.63
570.457	8110.13
570.819	8082.56
571.18	8100.18
571.542	8087.3
571.903	8095.66
572.265	8174.98
572.626	8181.54
572.987	8210.46
573.349	8198.94
573.71	8314.64
574.071	8288.43
574.432	8333.17
574.794	8353.96
575.155	8338.37
575.516	8343.57
575.877	8400.29
576.238	8389.21
576.599	8416.78
576.96	8433.73
577.32	8471.47
577.681	8480.74
578.042	8487.52
578.403	8488.65
578.763	8547.4
579.124	8511.02
579.485	8595.54
579.845	8578.14
580.206	8561.19
580.566	8550.79
580.927	8571.81
581.287	8652.26
581.648	8558.93
582.008	8662.88
582.368	8688.87
582.728	8691.13
583.089	8635.31
583.449	8667.17
583.809	8635.31
584.169	8731.13
584.529	8725.02
584.889	8769.77
585.249	8637.8
585.609	8711.69
585.969	8756.66
586.329	8711.92
586.688	8767.74
587.048	8730
587.408	8761.86
587.768	8728.19
588.127	8736.32
588.487	8750.33
588.846	8865.13
589.206	8774.52
589.565	8687.51
589.925	8755.53
590.284	8734.97
590.643	8734.29
591.003	8799.6
591.362	8830.33
591.721	8797.57
592.08	8780.16
592.44	8721.41
592.799	8878.47
593.158	8820.62
593.517	8823.33
593.876	8806.83
594.235	8838.92
594.593	8791.92
594.952	8826.27
595.311	8871.69
595.67	8787.17
596.029	8913.95
596.387	8857.22
596.746	8896.77
597.104	8831.91
597.463	8913.95
597.822	8829.65
598.18	8811.58
598.538	8832.37
598.897	8878.92
599.255	8838.92
599.613	8939.71
599.972	8930.22
600.33	8926.6
600.688	8861.07
601.046	8938.13
601.404	8983.78
601.762	8884.79
602.12	8980.61
602.478	8895.19
602.836	8979.93
603.194	8912.36
603.552	8878.02
603.91	8965.92
604.268	8935.64
604.625	8983.78
604.983	8978.35
605.341	8943.55
605.698	9038.91
606.056	8987.62
606.413	9041.17
606.771	8997.11
607.128	9018.12
607.485	9063.77
607.843	9043.89
608.2	9034.62
608.557	9054.06
608.914	9081.4
609.272	9066.94
609.629	9092.7
609.986	9098.8
610.343	9058.58
610.7	9113.49
611.057	9161.17
611.414	9181.51
611.771	9151.23
612.127	9170.44
612.484	9162.08
612.841	9207.5
613.198	9136.54
613.554	9217.22
613.911	9235.97
614.267	9197.78
614.624	9144.22
614.98	9235.52
615.337	9289.98
615.693	9193.49
616.05	9221.96
616.406	9303.31
616.762	9247.95
617.118	9282.07
617.475	9248.17
617.831	9300.6
618.187	9313.26
618.543	9269.64
618.899	9357.78
619.255	9346.03
619.611	9342.18
619.967	9324.11
620.323	9429.19
620.678	9290.21
621.034	9346.93
621.39	9341.05
621.746	9342.41
622.101	9430.32
622.457	9338.57
622.812	9357.78
623.168	9365.91
623.523	9429.64
623.879	9446.36
624.234	9353.93
624.589	9415.85
624.945	9380.83
625.3	9470.32
625.655	9385.57
626.01	9388.06
626.365	9466.47
626.72	9398.68
627.075	9394.61
627.43	9408.62
627.785	9394.16
628.14	9458.56
628.495	9461.73
628.85	9465.12
629.205	9364.56
629.559	9402.3
629.914	9384.67
630.269	9466.47
630.623	9395.74
630.978	9369.3
631.332	9459.69
631.687	9474.38
632.041	9363.88
632.396	9458.34
632.75	9390.77
633.104	9360.71
633.459	9338.34
633.813	9315.74
634.167	9320.49
634.521	9354.16
634.875	9354.84
635.229	9304.9
635.583	9238.01
635.937	9253.6
636.291	9234.62
636.645	9223.99
636.999	9277.78
637.352	9296.54
637.706	9224.45
638.06	9300.15
638.413	9256.76
638.767	9249.76
639.121	9200.04
639.474	9195.97
639.828	9221.73
640.181	9230.77
640.534	9266.93
640.888	9204.11
641.241	9193.04
641.594	9146.26
641.947	9173.37
642.301	9195.07
642.654	9196.2
643.007	9181.74
643.36	9182.41
643.713	9153.04
644.066	9207.95
644.419	9122.75
644.771	9066.94
645.124	9016.99
645.477	9036.43
645.83	8941.74
646.182	8913.95
646.535	8900.39
646.888	8950.33
647.24	8840.05
647.593	8973.61
647.945	8938.8
648.298	8908.52
648.65	8866.94
649.002	8769.09
649.355	8846.6
649.707	8828.07
650.059	8920.95
650.411	9039.37
650.763	8990.55
651.115	9092.47
651.467	9112.13
651.819	9089.76
652.171	9086.15
652.523	9034.85
652.875	9071.91
653.227	9057.67
653.578	9093.83
653.93	9073.04
654.282	9021.97
654.633	9013.38
654.985	9065.58
655.337	9086.6
655.688	9094.96
656.039	9098.57
656.391	9011.57
656.742	9020.38
657.094	8987.62
657.445	9082.53
657.796	9081.17
658.147	9018.12
658.498	9068.74
658.849	9076.88
659.2	9028.29
659.551	9039.37
659.902	9092.92
660.253	9024.68
660.604	9048.86
660.955	9017.45
661.306	9026.71
661.656	9029.88
662.007	9024.68
662.358	8998.92
662.708	9092.25
663.059	9087.05
663.409	9040.72
663.76	9041.85
664.11	9007.05
664.461	9101.06
664.811	9029.88
665.161	9073.94
665.511	9024.45
665.862	9076.43
666.212	9087.73
666.562	9028.07
666.912	9092.7
667.262	9038.24
667.612	8989.2
667.962	9043.66
668.312	9052.25
668.662	9078.91
669.011	9069.65
669.361	8984
669.711	9020.61
670.06	9014.96
670.41	9010.22
670.76	8965.02
671.109	8961.63
671.459	8981.06
671.808	8994.4
672.157	8975.19
672.507	8914.17
672.856	8948.75
673.205	8985.13
673.554	8923.44
673.904	8951.23
674.253	8951.01
674.602	9030.1
674.951	8845.93
675.3	8812.25
675.649	8902.42
675.998	8896.77
676.346	8912.82
676.695	8983.78
677.044	8868.3
677.393	8895.87
677.741	8897.22
678.09	8895.42
678.438	8855.19
678.787	8948.75
679.135	8854.96
679.484	8856.55
679.832	8920.27
680.181	8753.05
680.529	8774.74
680.877	8746.72
681.225	8784.46
681.573	8844.12
681.922	8700.84
682.27	8758.92
682.618	8810.45
682.966	8705.14
683.314	8693.61
683.661	8713.95
684.009	8632.6
684.357	8701.07
684.705	8665.37
685.053	8642.09
685.4	8652.03
685.748	8587.18
686.095	8585.37
686.443	8536.1
686.79	8566.61
687.138	8518.48
687.485	8574.07
687.832	8534.97
688.18	8541.53
688.527	8411.36
688.874	8468.99
689.221	8471.25
689.568	8472.6
689.915	8394.41
690.262	8402.55
690.609	8331.14
690.956	8376.33
691.303	8304.47
691.65	8286.84
691.997	8269.67
692.344	8276
692.69	8284.81
693.037	8259.27
693.383	8180.41
693.73	8185.6
694.077	8169.33
694.423	8153.06
694.769	8105.38
695.116	8084.14
695.462	8080.07
695.808	8029.45
696.155	8050.24
696.501	7995.55
696.847	7979.51
697.193	7903.13
697.539	8000.52
697.885	7879.4
698.231	7880.3
698.577	7827.42
698.923	7923.24
699.269	7801.21
699.614	7816.57
699.96	7767.31
700.306	7773.41
700.651	7758.72
700.997	7713.3
701.342	7677.59
701.688	7644.83
702.033	7641.44
702.379	7633.75
702.724	7617.94
703.069	7597.6
703.415	7564.83
703.76	7550.37
704.105	7482.12
704.45	7507.66
704.795	7399.64
705.14	7427.43
705.485	7426.75
705.83	7402.35
706.175	7414.32
706.52	7385.4
706.865	7339.75
707.209	7316.25
707.554	7260.2
707.899	7367.55
708.243	7263.82
708.588	7307.89
708.932	7202.35
709.277	7221.34
709.621	7228.12
709.966	7205.52
710.31	7232.41
710.654	7150.38
710.998	7132.07
711.342	7155.57
711.687	7126.2
712.031	7137.5
712.375	7078.29
712.719	7063.6
713.063	7077.61
713.407	7108.34
713.75	7031.06
714.094	7039.87
714.438	7014.11
714.782	6980.89
715.125	7045.97
715.469	7065.18
715.812	7034.22
716.156	6930.5
716.499	7004.62
716.843	6945.64
717.186	6877.62
717.53	6992.19
717.873	6937.28
718.216	6943.38
718.559	6861.8
718.902	6879.2
719.246	6862.7
719.589	6862.02
719.932	6848.92
720.275	6816.6
720.617	6926.88
720.96	6807.11
721.303	6843.04
721.646	6879.88
721.989	6863.6
722.331	6874.68
722.674	6855.02
723.016	6836.26
723.359	6787
723.701	6849.14
724.044	6784.74
724.386	6809.59
724.729	6794.23
725.071	6833.78
725.413	6794.91
725.755	6751.07
726.097	6797.17
726.439	6707.68
726.782	6697.73
727.124	6772.76
727.465	6752.65
727.807	6757.17
728.149	6697.73
728.491	6662.03
728.833	6708.58
729.175	6745.42
729.516	6696.15
729.858	6710.61
730.199	6731.4
730.541	6740.22
730.882	6739.09
731.224	6734.12
731.565	6719.2
731.906	6723.27
732.248	6711.29
732.589	6693.67
732.93	6631.29
733.271	6626.77
733.612	6710.61
733.953	6697.96
734.294	6654.57
734.635	6652.76
734.976	6739.77
735.317	6653.44
735.658	6658.19
735.999	6682.37
736.339	6656.15
736.68	6709.94
737.021	6629.49
737.361	6652.08
737.702	6691.63
738.042	6634.91
738.383	6731.86
738.723	6641.46
739.063	6645.31
739.404	6648.7
739.744	6658.86
740.084	6579.77
740.424	6689.6
740.764	6603.5
741.104	6646.21
741.444	6647.11
741.784	6585.65
742.124	6612.54
742.464	6615.93
742.804	6649.83
743.143	6616.61
743.483	6640.56
743.823	6626.1
744.162	6566.21
744.502	6617.06
744.841	6603.5
745.181	6651.63
745.52	6671.75
745.86	6596.49
746.199	6634.23
746.538	6604.85
746.877	6636.04
747.216	6607.34
747.556	6667.23
747.895	6568.47
748.234	6594.69
748.573	6560.11
748.911	6525.76
749.25	6626.77
749.589	6568.47
749.928	6565.53
750.267	6491.86
750.605	6543.84
750.944	6587.91
751.283	6502.03
751.621	6568.92
751.96	6540.22
752.298	6501.81
752.636	6539.32
752.975	6488.7
753.313	6480.79
753.651	6521.47
753.989	6444.41
754.327	6477.17
754.666	6461.36
755.004	6485.08
755.342	6550.39
755.679	6486.89
756.017	6440.34
756.355	6436.5
756.693	6477.4
757.031	6416.61
757.368	6407.8
757.706	6455.93
758.044	6413
758.381	6408.02
758.719	6419.77
759.056	6357.4
759.394	6328.48
759.731	6317.18
760.068	6314.01
760.405	6283.51
760.743	6307.69
761.08	6294.13
761.417	6191.76
761.754	6267.24
762.091	6276.73
762.428	6222.94
762.765	6162.38
763.102	6247.12
763.438	6178.2
763.775	6194.92
764.112	6147.47
764.449	6158.99
764.785	6138.2
765.122	6083.51
765.458	6073.8
765.795	6072.21
766.131	6074.25
766.467	6049.39
766.804	6035.83
767.14	5969.39
767.476	5948.15
767.812	5971.88
768.148	5974.36
768.485	5937.3
768.821	5879.45
769.157	5909.05
769.492	5887.36
769.828	5864.54
770.164	5823.86
770.5	5777.98
770.836	5790.86
771.171	5820.24
771.507	5745.44
771.842	5743.18
772.178	5744.54
772.513	5718.78
772.849	5719.68
773.184	5651.66
773.519	5674.48
773.855	5704.54
774.19	5645.56
774.525	5595.16
774.86	5613.69
775.195	5602.62
775.53	5562.62
775.865	5546.8
776.2	5554.26
776.535	5495.96
776.87	5487.82
777.205	5473.13
777.539	5426.35
777.874	5409.41
778.209	5403.98
778.543	5373.7
778.878	5379.58
779.212	5362.18
779.547	5343.64
779.881	5351.1
780.215	5323.08
780.55	5309.3
780.884	5257.55
781.218	5220.26
781.552	5251.44
781.886	5241.5
782.22	5193.37
782.554	5157.21
782.888	5114.27
783.222	5106.59
783.556	5116.98
783.889	5120.37
784.223	5063.88
784.557	5071.56
784.89	5042.41
785.224	5043.99
785.557	5030.21
785.891	4983.88
786.224	5006.7
786.558	5015.07
786.891	4963.54
787.224	4938.46
787.557	4959.93
787.891	4939.81
788.224	4893.26
788.557	4838.8
788.89	4875.63
789.223	4912.47
789.556	4818.91
789.888	4832.47
790.221	4817.1
790.554	4834.96
790.887	4832.7
791.219	4766.03
791.552	4797.22
791.884	4736.66
792.217	4726.71
792.549	4694.85
792.882	4704.57
793.214	4672.48
793.546	4732.14
793.879	4681.97
794.211	4588.64
794.543	4651.91
794.875	4666.83
795.207	4668.86
795.539	4636.54
795.871	4619.37
796.203	4577.34
796.535	4535.53
796.867	4537.56
797.198	4551.8
797.53	4527.62
797.862	4480.84
798.193	4508.41
798.525	4506.83
798.856	4470
799.188	4391.81
799.519	4466.61
799.85	4428.87
800.182	4412.37
800.513	4414.18
800.844	4343.9
801.175	4358.59
801.506	4403.1
801.837	4382.31
802.168	4318.14
802.499	4357
802.83	4323.33
803.161	4292.15
803.491	4282.43
803.822	4286.05
804.153	4293.95
804.483	4274.29
804.814	4211.92
805.145	4241.75
805.475	4250.57
805.805	4213.05
806.136	4188.65
806.466	4186.39
806.796	4213.05
807.126	4159.72
807.457	4164.01
807.787	4179.16
808.117	4125.82
808.447	4096.45
808.777	4135.54
809.107	4117.69
809.436	4108.88
809.766	4082.89
810.096	4127.86
810.426	4091.7
810.755	4072.94
811.085	4048.76
811.414	4072.49
811.744	4001.99
812.073	4015.09
812.403	4031.14
812.732	4004.47
813.061	4013.51
813.39	3984.13
813.719	3983.91
814.049	4016.9
814.378	3983.45
814.707	3954.75
815.036	3962.21
815.365	3941.87
815.693	3926.73
816.022	3915.43
816.351	3925.15
816.68	3881.54
817.008	3923.57
817.337	3873.4
817.665	3860.07
817.994	3847.86
818.322	3857.81
818.651	3835.89
818.979	3793.63
819.307	3788.88
819.636	3786.17
819.964	3817.36
820.292	3750.01
820.62	3778.71
820.948	3802.89
821.276	3798.83
821.604	3792.05
821.932	3806.96
822.259	3773.74
822.587	3789.56
822.915	3783.69
823.243	3765.38
823.57	3789.56
823.898	3822.55
824.225	3770.13
824.553	3729.22
824.88	3755.89
825.207	3823.68
825.535	3763.57
825.862	3771.26
826.189	3810.8
826.516	3794.76
826.843	3820.3
827.17	3790.69
827.497	3800.86
827.824	3811.93
828.151	3786.85
828.478	3801.31
828.805	3816
829.131	3759.28
829.458	3802.89
829.785	3774.42
830.111	3772.61
830.438	3781.2
830.764	3752.05
831.09	3806.74
831.417	3785.72
831.743	3795.21
832.069	3773.97
832.395	3733.74
832.722	3800.41
833.048	3738.49
833.374	3770.8
833.7	3757.92
834.026	3765.38
834.351	3775.32
834.677	3765.38
835.003	3751.37
835.329	3725.61
835.654	3784.59
835.98	3719.05
836.306	3736.68
836.631	3751.82
836.956	3750.69
837.282	3713.86
837.607	3718.15
837.932	3677.7
838.258	3711.6
838.583	3729.45
838.908	3693.07
839.233	3660.07
839.558	3657.59
839.883	3648.32
840.208	3648.32
840.533	3635.44
840.858	3661.2
841.182	3664.14
841.507	3699.62
841.832	3630.24
842.156	3649.9
842.481	3611.94
842.805	3636.57
843.13	3614.88
843.454	3627.98
843.778	3577.36
844.103	3553.18
844.427	3551.6
844.751	3581.88
845.075	3547.53
845.399	3557.7
845.723	3510.25
846.047	3555.44
846.371	3519.74
846.695	3513.86
847.019	3478.16
847.343	3503.92
847.666	3483.58
847.99	3463.02
848.313	3440.64
848.637	3443.81
848.96	3445.84
849.284	3449.91
849.607	3395.9
849.931	3367.43
850.254	3362.23
850.577	3363.58
850.9	3334.43
851.223	3343.25
851.546	3324.49
851.869	3330.82
852.192	3322.91
852.515	3273.19
852.838	3281.33
853.161	3286.3
853.483	3259.41
853.806	3240.42
854.129	3216.47
854.451	3253.08
854.774	3195.68
855.096	3215.79
855.419	3215.57
855.741	3197.49
856.063	3168.56
856.385	3179.63
856.708	3159.52
857.03	3143.48
857.352	3181.22
857.674	3095.57
857.996	3160.88
858.318	3107.55
858.64	3110.48
858.961	3094.44
859.283	3121.56
859.605	3100.99
859.926	3122.23
860.248	3098.96
860.57	3080.2
860.891	3078.85
861.212	3092.4
861.534	3057.38
861.855	3042.46
862.176	3061.67
862.498	3046.53
862.819	3035.23
863.14	3011.95
863.461	3044.04
863.782	3011.28
864.103	3039.07
864.424	3035
864.745	2996.14
865.065	3006.53
865.386	2996.36
865.707	2975.57
866.027	2995.46
866.348	3017.6
866.668	2974.22
866.989	3018.28
867.309	2943.48
867.63	2950.71
867.95	2947.1
868.27	2935.12
868.59	2911.17
868.91	2949.13
869.23	2971.96
869.55	2919.08
869.87	2992.75
870.19	2950.71
870.51	2925.63
870.83	2930.37
871.15	2876.59
871.469	2938.51
871.789	2953.65
872.109	2896.03
872.428	2875.01
872.748	2877.72
873.067	2877.72
873.386	2882.92
873.706	2888.79
874.025	2863.71
874.344	2851.28
874.663	2878.4
874.982	2904.39
875.301	2874.11
875.62	2833.43
875.939	2856.93
876.258	2864.61
876.577	2853.77
876.896	2825.74
877.214	2816.03
877.533	2865.52
877.852	2833.65
878.17	2864.39
878.489	2865.07
878.807	2821.23
879.125	2809.7
879.444	2795.92
879.762	2778.51
880.08	2846.54
880.398	2785.97
880.716	2798.18
881.034	2810.15
881.352	2797.05
881.67	2807.44
881.988	2774.45
882.306	2781.9
882.624	2778.74
882.941	2772.64
883.259	2738.74
883.577	2754.56
883.894	2729.7
884.212	2724.5
884.529	2727.44
884.846	2737.16
885.164	2719.76
885.481	2684.96
885.798	2709.59
886.115	2722.92
886.432	2712.08
886.75	2681.12
887.067	2665.75
887.383	2637.95
887.7	2689.25
888.017	2660.33
888.334	2686.09
888.651	2625.98
888.967	2677.73
889.284	2634.11
889.6	2650.38
889.917	2617.16
890.233	2639.99
890.55	2606.54
890.866	2629.82
891.182	2622.81
891.498	2582.36
891.815	2611.51
892.131	2565.86
892.447	2594.11
892.763	2581.01
893.079	2570.61
893.395	2585.07
893.71	2572.87
894.026	2570.38
894.342	2553.89
894.657	2512.31
894.973	2524.51
895.289	2518.41
895.604	2535.36
895.92	2492.19
896.235	2480.22
896.55	2525.41
896.865	2486.54
897.181	2481.12
897.496	2497.84
897.811	2478.41
898.126	2472.53
898.441	2467.34
898.756	2462.36
899.071	2456.26
899.386	2411.07
899.7	2427.56
900.015	2428.47
900.33	2423.27
900.644	2393.89
900.959	2415.81
901.273	2406.55
901.588	2365.87
901.902	2340.79
902.216	2349.37
902.531	2406.55
902.845	2364.74
903.159	2339.43
903.473	2335.59
903.787	2286.55
904.101	2302.14
904.415	2326.55
904.729	2297.17
905.042	2288.58
905.356	2291.97
905.67	2290.62
905.984	2261.92
906.297	2272.09
906.611	2264.63
906.924	2263.05
907.237	2234.8
907.551	2217.85
907.864	2269.15
908.177	2234.35
908.491	2234.35
908.804	2196.38
909.117	2186.21
909.43	2187.8
909.743	2176.95
910.056	2159.77
910.368	2199.55
910.681	2150.28
910.994	2170.85
911.307	2160.68
911.619	2156.84
911.932	2118.64
912.244	2134.69
912.557	2131.07
912.869	2125.88
913.181	2089.72
913.494	2104.41
913.806	2058.31
914.118	2075.48
914.43	2061.92
914.742	2084.07
915.054	2087.46
915.366	2059.66
915.678	2036.39
915.99	2049.27
916.302	2051.75
916.613	2016.5
916.925	2014.92
917.236	2012.43
917.548	1987.57
917.859	2021.7
918.171	1989.38
918.482	2000.46
918.794	1963.39
919.105	1984.64
919.416	1974.02
919.727	1943.28
920.038	1955.71
920.349	1933.79
920.66	1930.85
920.971	1922.72
921.282	1947.8
921.593	1895.83
921.903	1897.86
922.214	1924.75
922.525	1937.63
922.835	1891.98
923.146	1870.74
923.456	1890.4
923.767	1890.85
924.077	1879.56
924.387	1876.84
924.697	1813.12
925.008	1869.16
925.318	1836.39
925.628	1865.54
925.938	1845.88
926.248	1835.49
926.558	1826
926.867	1797.75
927.177	1803.62
927.487	1789.39
927.796	1772.89
928.106	1817.64
928.416	1789.84
928.725	1777.86
929.034	1746.23
929.344	1771.76
929.653	1767.92
929.962	1715.72
930.271	1735.6
930.581	1678.66
930.89	1723.4
931.199	1722.27
931.508	1722.72
931.817	1707.36
932.125	1725.66
932.434	1701.48
932.743	1702.61
933.051	1681.14
933.36	1673.68
933.669	1657.87
933.977	1653.35
934.286	1666.68
934.594	1658.54
934.902	1628.71
935.21	1661.71
935.519	1641.37
935.827	1637.75
936.135	1623.29
936.443	1617.87
936.751	1629.39
937.059	1599.34
937.367	1595.95
937.674	1575.38
937.982	1599.11
938.29	1594.14
938.597	1561.15
938.905	1581.03
939.213	1594.36
939.52	1546.68
939.827	1563.41
940.135	1555.27
940.442	1538.77
940.749	1553.91
941.056	1533.12
941.363	1517.3
941.67	1537.64
941.977	1529.28
942.284	1503.07
942.591	1519.34
942.898	1525.21
943.205	1535.16
943.511	1478.44
943.818	1493.58
944.125	1491.09
944.431	1479.34
944.738	1461.71
945.044	1486.8
945.35	1467.59
945.657	1461.04
945.963	1471.66
946.269	1437.98
946.575	1451.09
946.881	1440.92
947.187	1457.65
947.493	1443.86
947.799	1434.82
948.105	1399.79
948.41	1403.64
948.716	1414.26
949.022	1400.7
949.327	1418.32
949.633	1385.1
949.938	1386.91
950.244	1382.62
950.549	1377.87
950.854	1396.18
951.16	1385.1
951.465	1364.09
951.77	1371.77
952.075	1346.24
952.38	1369.06
952.685	1366.35
952.99	1352.34
953.294	1356.63
953.599	1331.32
953.904	1323.86
954.209	1306.01
954.513	1333.35
954.818	1305.11
955.122	1283.41
955.426	1299.01
955.731	1297.88
956.035	1303.53
956.339	1297.2
956.643	1297.2
956.948	1261.72
957.252	1277.54
957.556	1275.05
957.86	1263.3
958.163	1296.29
958.467	1248.16
958.771	1273.47
959.075	1263.53
959.378	1247.71
959.682	1265.56
959.985	1234.37
960.289	1243.87
960.592	1241.83
960.896	1216.97
961.199	1222.17
961.502	1220.82
961.805	1214.71
962.108	1189.86
962.411	1217.43
962.714	1190.99
963.017	1202.96
963.32	1192.34
963.623	1186.92
963.926	1175.62
964.228	1176.75
964.531	1181.49
964.833	1197.77
965.136	1179.69
965.438	1159.8
965.741	1176.97
966.043	1173.13
966.345	1148.95
966.648	1146.24
966.95	1158.9
967.252	1147.14
967.554	1130.87
967.856	1099.91
968.158	1133.59
968.46	1105.34
968.761	1132.68
969.063	1133.13
969.365	1117.32
969.666	1120.7
969.968	1097.88
970.269	1123.42
970.571	1117.32
970.872	1081.16
971.174	1132.91
971.475	1107.15
971.776	1079.35
972.077	1077.32
972.378	1082.74
972.679	1077.54
972.98	1079.58
973.281	1078.67
973.582	1060.37
973.883	1067.83
974.183	1067.37
974.484	1086.13
974.785	1058.33
975.085	1059.01
975.386	1045
975.686	1053.36
975.986	1039.58
976.287	1048.62
976.587	1011.33
976.887	1042.29
977.187	1002.06
977.487	1035.28
977.787	1037.09
978.087	1013.82
978.387	997.77
978.687	1034.83
978.987	1002.29
979.286	973.82
979.586	986.02
979.885	995.96
980.185	1000.93
980.484	1009.97
980.784	976.08
981.083	967.94
981.382	962.52
981.682	1013.36
981.981	976.98
982.28	962.97
982.579	984.66
982.878	987.83
983.177	966.58
983.475	958
983.774	958.45
984.073	973.36
984.372	946.92
984.67	962.52
984.969	934.04
985.267	935.85
985.566	954.61
985.864	945.34
986.162	938.11
986.461	929.98
986.759	926.81
987.057	912.35
987.355	914.16
987.653	912.8
987.951	916.42
988.249	910.77
988.547	901.5
988.844	914.61
989.142	881.84
989.44	888.85
989.737	895.63
990.035	886.13
990.332	886.13
990.63	902.41
990.927	886.36
991.224	873.93
991.521	877.1
991.819	872.35
992.116	880.49
992.413	866.7
992.71	876.19
993.006	852.46
993.303	852.24
993.6	864.89
993.897	846.36
994.193	843.65
994.49	852.69
994.787	858.79
995.083	821.05
995.379	836.42
995.676	831.45
995.972	831.9
996.268	825.12
996.565	820.83
996.861	824.22
997.157	824.22
997.453	811.79
997.749	840.49
998.044	807.04
998.34	813.37
998.636	804.56
998.932	788.51
999.227	781.96
999.523	793.93
999.818	819.7
1000.114	795.29
1000.409	785.57
1000.704	795.29
1001	786.7
1001.295	771.56
1001.59	774.95
1001.885	786.25
1002.18	761.62
1002.475	770.88
1002.77	747.83
1003.065	772.92
1003.359	747.38
1003.654	768.17
1003.949	776.76
1004.243	748.29
1004.538	732.01
1004.832	736.31
1005.127	737.21
1005.421	760.94
1005.715	755.74
1006.009	695.63
1006.304	744.67
1006.598	716.87
1006.892	708.74
1007.186	722.98
1007.48	713.48
1007.773	732.47
1008.067	710.77
1008.361	709.87
1008.655	691.34
1008.948	708.06
1009.242	701.73
1009.535	706.25
1009.829	708.06
1010.122	697.21
1010.415	683.43
1010.708	689.08
1011.001	690.43
1011.295	704.22
1011.588	681.62
1011.881	685.01
1012.173	678.23
1012.466	694.5
1012.759	666.48
1013.052	690.43
1013.344	686.82
1013.637	675.52
1013.93	666.25
1014.222	677.1
1014.514	670.55
1014.807	656.99
1015.099	660.15
1015.391	616.76
1015.683	656.99
1015.976	656.99
1016.268	650.21
1016.56	643.88
1016.851	639.59
1017.143	638.91
1017.435	651.11
1017.727	617.67
1018.018	625.12
1018.31	664.22
1018.602	623.32
1018.893	630.1
1019.185	631.23
1019.476	617.67
1019.767	611.79
1020.058	616.31
1020.35	625.58
1020.641	602.07
1020.932	610.89
1021.223	617.44
1021.514	610.21
1021.804	601.4
1022.095	621.74
1022.386	605.92
1022.677	589.65
1022.967	574.73
1023.258	588.06
1023.548	579.25
1023.839	570.66
1024.129	590.78
1024.419	607.5
1024.709	565.69
1025	566.82
1025.29	605.01
1025.58	558.46
1025.87	559.59
1026.16	551.45
1026.449	571.57
1026.739	557.33
1027.029	570.44
1027.319	564.34
1027.608	546.26
1027.898	545.8
1028.187	567.05
1028.477	536.99
1028.766	539.25
1029.055	572.02
1029.344	543.09
1029.634	539.25
1029.923	550.78
1030.212	536.31
1030.501	542.19
1030.79	517.11
1031.078	525.92
1031.367	545.35
1031.656	520.27
1031.945	543.09
1032.233	535.41
1032.522	522.98
1032.81	497.9
1033.099	520.04
1033.387	527.27
1033.675	525.47
1033.963	516.2
1034.251	513.94
1034.54	503.77
1034.828	496.77
1035.116	511.68
1035.403	517.33
1035.691	521.62
1035.979	520.95
1036.267	505.13
1036.554	503.77
1036.842	491.79
1037.129	479.14
1037.417	483.89
1037.704	494.73
1037.992	493.38
1038.279	494.73
1038.566	469.87
1038.853	469.87
1039.14	469.87
