Data from mousepad_grey_FLMS001491_00070.txt Node
Date: Wed Feb 08 14:29:47 GMT 2017
User: dcchb
Spectrometer: FLMS00149
Trigger mode: 0
Integration Time (sec): 2.000000E-2
Scans to average: 10
Electric dark correction enabled: true
Nonlinearity correction enabled: false
Boxcar width: 0
XAxis mode: Wavelengths
Number of Pixels in Spectrum: 2048
>>>>>Begin Spectral Data<<<<<
341.393	-7.5
341.776	-7.5
342.16	-7.5
342.543	-45.24
342.927	-69.87
343.31	-64.45
343.693	-71.45
344.077	-42.98
344.46	-57.22
344.843	-48.63
345.226	-55.41
345.61	-17.44
345.993	-29.19
346.376	4.48
346.759	-0.95
347.142	34.08
347.525	38.83
347.908	66.17
348.291	57.58
348.674	86.96
349.057	99.62
349.44	114.98
349.823	130.8
350.206	157.47
350.588	172.38
350.971	209.22
351.354	216.68
351.737	227.3
352.119	232.04
352.502	232.72
352.884	255.09
353.267	253.06
353.65	284.7
354.032	284.02
354.414	287.18
354.797	310.01
355.179	301.42
355.562	311.59
355.944	317.01
356.326	299.61
356.709	312.94
357.091	321.76
357.473	326.5
357.855	320.18
358.238	330.12
358.62	327.86
359.002	340.97
359.384	347.97
359.766	339.61
360.148	333.51
360.53	314.98
360.912	322.21
361.294	316.79
361.676	306.39
362.057	323.34
362.439	317.92
362.821	296.45
363.203	304.36
363.584	304.13
363.966	316.11
364.348	307.29
364.729	298.48
365.111	288.09
365.493	305.49
365.874	305.94
366.256	290.35
366.637	304.13
367.019	321.98
367.4	284.02
367.781	288.31
368.163	288.09
368.544	306.39
368.925	288.54
369.306	320.85
369.688	312.49
370.069	299.84
370.45	291.93
370.831	325.82
371.212	306.16
371.593	293.51
371.974	293.74
372.355	282.44
372.736	295.54
373.117	295.54
373.498	300.74
373.879	300.29
374.26	286.96
374.641	289.89
375.021	303.9
375.402	300.06
375.783	304.81
376.163	315.2
376.544	319.72
376.925	293.28
377.305	311.36
377.686	305.49
378.066	298.71
378.447	314.3
378.827	331.47
379.208	344.36
379.588	322.89
379.968	306.39
380.349	308.42
380.729	312.72
381.109	311.36
381.489	318.82
381.87	318.14
382.25	338.03
382.63	345.94
383.01	314.75
383.39	321.53
383.77	321.98
384.15	320.63
384.53	321.08
384.91	315.43
385.29	334.86
385.67	328.08
386.049	324.02
386.429	352.72
386.809	340.74
387.189	334.86
387.568	342.77
387.948	368.54
388.328	334.41
388.707	332.15
389.087	334.86
389.466	348.2
389.846	340.51
390.225	347.75
390.605	350
390.984	364.02
391.363	341.19
391.743	357.46
392.122	382.09
392.501	354.52
392.881	361.76
393.26	361.53
393.639	368.31
394.018	362.89
394.397	378.48
394.776	361.08
395.155	388.42
395.534	381.19
395.913	366.28
396.292	367.41
396.671	370.8
397.05	371.47
397.429	395.43
397.808	380.96
398.186	371.47
398.565	376.9
398.944	382.55
399.323	412.83
399.701	379.16
400.08	360.17
400.458	385.26
400.837	408.53
401.215	399.04
401.594	394.07
401.972	409.44
402.351	389.55
402.729	408.53
403.107	419.16
403.486	416.67
403.864	383.9
404.242	410.34
404.62	434.75
404.999	413.28
405.377	420.74
405.755	424.13
406.133	413.51
406.511	411.92
406.889	440.85
407.267	432.04
407.645	436.1
408.023	448.53
408.401	434.3
408.779	430.91
409.156	433.62
409.534	463.45
409.912	460.06
410.29	482.88
410.667	458.93
411.045	463.45
411.422	484.46
411.8	477.01
412.178	504.35
412.555	480.4
412.933	473.39
413.31	466.16
413.687	480.62
414.065	496.67
414.442	484.46
414.819	491.7
415.197	502.77
415.574	510
415.951	502.09
416.328	519.49
416.705	505.48
417.082	512.94
417.46	533.95
417.837	535.08
418.214	518.36
418.591	511.36
418.967	525.82
419.344	533.73
419.721	539.6
420.098	549.77
420.475	536.89
420.852	542.99
421.228	544.8
421.605	529.66
421.982	550.45
422.358	563.11
422.735	561.3
423.111	554.07
423.488	579.38
423.864	564.01
424.241	573.28
424.617	569.66
424.994	581.86
425.37	595.87
425.746	590.9
426.123	599.72
426.499	599.49
426.875	600.85
427.251	606.04
427.627	614.86
428.003	597
428.379	650.56
428.756	614.86
429.132	628.64
429.507	625.7
429.883	658.25
430.259	638.58
430.635	644.46
431.011	656.44
431.387	653.27
431.763	661.41
432.138	690.79
432.514	670.22
432.89	680.17
433.265	666.15
433.641	704.35
434.016	706.61
434.392	694.63
434.767	714.29
435.143	708.87
435.518	740.5
435.894	728.3
436.269	736.66
436.644	744.8
437.02	754.97
437.395	748.19
437.77	778.02
438.145	772.14
438.52	776.66
438.895	763.33
439.271	787.51
439.646	800.39
440.021	799.03
440.395	803.33
440.77	815.76
441.145	789.09
441.52	804.46
441.895	812.59
442.27	836.55
442.645	839.03
443.019	850.33
443.394	826.38
443.769	832.03
444.143	845.36
444.518	867.73
444.892	850.1
445.267	874.74
445.641	872.7
446.016	868.18
446.39	893.27
446.764	876.54
447.139	856.43
447.513	880.61
447.887	904.79
448.262	906.83
448.636	889.2
449.01	909.54
449.384	922.19
449.758	935.53
450.132	946.6
450.506	932.14
450.88	938.69
451.254	962.64
451.628	968.07
452.002	939.59
452.376	967.39
452.75	962.64
453.123	977.33
453.497	999.93
453.871	1010.78
454.244	1008.07
454.618	1008.97
454.992	1021.85
455.365	1043.77
455.739	1068.63
456.112	1039.93
456.486	1072.92
456.859	1073.15
457.232	1077.9
457.606	1084.45
457.979	1091.45
458.352	1096.65
458.725	1126.93
459.099	1131.45
459.472	1143.88
459.845	1152.02
460.218	1168.51
460.591	1199.02
460.964	1193.37
461.337	1181.85
461.71	1224.11
462.083	1212.58
462.456	1216.42
462.829	1227.72
463.201	1260.49
463.574	1273.37
463.947	1253.48
464.32	1298.68
464.692	1329.19
465.065	1314.05
465.438	1342.52
465.81	1369.41
466.183	1382.07
466.555	1377.55
466.928	1356.08
467.3	1376.19
467.672	1385.23
468.045	1452.57
468.417	1446.47
468.789	1460.48
469.161	1490.99
469.534	1488.28
469.906	1511.33
470.278	1529.41
470.65	1516.75
471.022	1567.6
471.394	1584.32
471.766	1587.03
472.138	1603.76
472.51	1630.65
472.882	1656.41
473.253	1676.98
473.625	1696.41
473.997	1732.12
474.369	1763.98
474.74	1766.24
475.112	1772.11
475.484	1806.69
475.855	1856.86
476.227	1846.69
476.598	1909.96
476.97	1917.2
477.341	1928.27
477.713	1985.89
478.084	1977.31
478.455	2008.72
478.827	2020.92
479.198	2098.89
479.569	2080.81
479.94	2158.54
480.311	2154.25
480.682	2225.89
481.053	2249.39
481.424	2261.82
481.795	2299.11
482.166	2326.22
482.537	2328.94
482.908	2397.18
483.279	2416.62
483.65	2450.51
484.021	2480.34
484.391	2520.8
484.762	2511.53
485.133	2565.77
485.503	2600.57
485.874	2645.54
486.244	2660.45
486.615	2678.08
486.985	2760.56
487.356	2784.29
487.726	2829.26
488.097	2874.01
488.467	2834.69
488.837	2944.29
489.207	2967.79
489.578	2979.99
489.948	3017.05
490.318	3084.85
490.688	3041.23
491.058	3116.49
491.428	3167.56
491.798	3166.2
492.168	3249.82
492.538	3252.75
492.908	3250.27
493.278	3302.7
493.648	3371.17
494.017	3372.98
494.387	3419.98
494.757	3424.95
495.126	3462.92
495.496	3505.18
495.866	3477.83
496.235	3525.51
496.605	3552.41
496.974	3543.37
497.344	3601.67
497.713	3598.51
498.082	3674.66
498.452	3691.84
498.821	3718.28
499.19	3717.15
499.559	3745.17
499.928	3768.9
500.298	3801.21
500.667	3819.07
501.036	3883.02
501.405	3845.05
501.774	3866.75
502.143	3909.91
502.512	3961.44
502.88	3961.21
503.249	3964.37
503.618	3983.58
503.987	3989.23
504.356	4085.73
504.724	4085.73
505.093	4059.74
505.462	4109.68
505.83	4134.76
506.199	4126.4
506.567	4209.11
506.936	4219.73
507.304	4281.2
507.672	4256.34
508.041	4310.13
508.409	4334.98
508.777	4381.76
509.145	4411.59
509.514	4400.07
509.882	4426.51
510.25	4406.62
510.618	4422.44
510.986	4484.13
511.354	4530.91
511.722	4584.02
512.09	4600.29
512.458	4607.75
512.826	4652.26
513.193	4679.83
513.561	4678.93
513.929	4713.05
514.297	4772.71
514.664	4785.59
515.032	4840.28
515.4	4833.73
515.767	4883.9
516.135	4906.72
516.502	4898.13
516.869	4986.95
517.237	4929.09
517.604	5014.74
517.972	5092.48
518.339	5096.55
518.706	5087.28
519.073	5151.46
519.44	5159.82
519.808	5193.95
520.175	5226.26
520.542	5244.34
520.909	5283.66
521.276	5349.2
521.643	5336.77
522.009	5396.43
522.376	5450.21
522.743	5511
523.11	5508.06
523.477	5580.6
523.843	5594.84
524.21	5656.08
524.577	5665.8
524.943	5710.77
525.31	5726.81
525.676	5806.58
526.043	5834.38
526.409	5881.38
526.776	5934.26
527.142	5934.72
527.508	5973.81
527.874	5990.53
528.241	6018.33
528.607	6034.38
528.973	6086.13
529.339	6134.71
529.705	6177.42
530.071	6283.18
530.437	6261.49
530.803	6282.73
531.169	6273.46
531.535	6321.15
531.901	6389.85
532.267	6385.78
532.632	6511.42
532.998	6561.14
533.364	6526.79
533.73	6529.5
534.095	6655.15
534.461	6614.7
534.826	6622.16
535.192	6684.75
535.557	6708.03
535.923	6656.05
536.288	6774.24
536.653	6793.68
537.019	6804.75
537.384	6830.06
537.749	6887.91
538.114	6897.63
538.479	6891.98
538.845	6949.61
539.21	6973.79
539.575	6947.35
539.94	7023.73
540.305	7079.55
540.67	7056.72
541.034	7136.27
541.399	7201.8
541.764	7117.28
542.129	7207.68
542.494	7264.4
542.858	7270.5
543.223	7255.36
543.587	7330.39
543.952	7275.47
544.316	7380.78
544.681	7348.92
545.045	7446.77
545.41	7488.57
545.774	7514.34
546.138	7459.2
546.503	7545.3
546.867	7600.66
547.231	7598.4
547.595	7601.57
547.959	7686.76
548.324	7744.61
548.688	7697.61
549.052	7758.17
549.416	7738.06
549.779	7762.24
550.143	7829.13
550.507	7895.34
550.871	7924.5
551.235	7909.81
551.599	7981.89
551.962	8027.54
552.326	8110.48
552.689	8029.35
553.053	8062.8
553.417	8091.04
553.78	8191.61
554.143	8195.45
554.507	8124.04
554.87	8261.66
555.234	8335.78
555.597	8261.44
555.96	8336.91
556.323	8346.86
556.686	8398.38
557.05	8463.69
557.413	8437.25
557.776	8446.06
558.139	8546.85
558.502	8545.5
558.865	8514.76
559.228	8671.82
559.59	8681.31
559.953	8686.96
560.316	8826.62
560.679	8810.8
561.041	8835.21
561.404	8916.56
561.767	8890.35
562.129	8839.5
562.492	8960.4
562.854	8986.16
563.217	9025.71
563.579	9040.85
563.941	9058.7
564.304	9077.23
564.666	9202.65
565.028	9228.64
565.39	9237.45
565.753	9283.78
566.115	9331.46
566.477	9362.42
566.839	9419.6
567.201	9411.24
567.563	9427.96
567.925	9468.86
568.287	9509.76
568.648	9544.57
569.01	9637.9
569.372	9694.39
569.734	9698.01
570.095	9766.93
570.457	9786.14
570.819	9784.79
571.18	9892.8
571.542	9819.59
571.903	9921.05
572.265	9820.04
572.626	9955.18
572.987	9994.5
573.349	9983.88
573.71	10100.48
574.071	10118.56
574.432	10033.14
574.794	10197.2
575.155	10105
575.516	10145.91
575.877	10201.05
576.238	10206.92
576.599	10210.54
576.96	10222.74
577.32	10273.13
577.681	10277.65
578.042	10319.23
578.403	10298.22
578.763	10382.74
579.124	10345.45
579.485	10328.95
579.845	10434.94
580.206	10394.03
580.566	10449.63
580.927	10434.03
581.287	10487.82
581.648	10467.93
582.008	10528.49
582.368	10503.41
582.728	10541.83
583.089	10482.62
583.449	10521.71
583.809	10570.08
584.169	10584.54
584.529	10537.31
584.889	10619.57
585.249	10552.9
585.609	10552.45
585.969	10614.37
586.329	10537.99
586.688	10570.53
587.048	10585.22
587.408	10636.74
587.768	10541.6
588.127	10563.75
588.487	10555.84
588.846	10628.15
589.206	10567.82
589.565	10638.77
589.925	10614.14
590.284	10659.11
590.643	10674.93
591.003	10695.27
591.362	10667.25
591.721	10637.42
592.08	10701.15
592.44	10712.44
592.799	10715.61
593.158	10662.95
593.517	10683.52
593.876	10739.11
594.235	10733.91
594.593	10694.59
594.952	10744.08
595.311	10628.83
595.67	10723.52
596.029	10786.57
596.387	10804.87
596.746	10835.38
597.104	10777.75
597.463	10694.37
597.822	10712.22
598.18	10750.18
598.538	10777.75
598.897	10803.74
599.255	10794.48
599.613	10832.44
599.972	10805.32
600.33	10893.91
600.688	10771.88
601.046	10791.99
601.404	10859.56
601.762	10843.74
602.12	10846.9
602.478	10876.51
602.836	10901.59
603.194	10731.43
603.552	10813.01
603.91	10798.09
604.268	10832.22
604.625	10882.38
604.983	10958.77
605.341	10858.43
605.698	10917.64
606.056	10871.31
606.413	10956.51
606.771	10946.56
607.128	11029.95
607.485	10950.4
607.843	10881.03
608.2	11035.83
608.557	11006.9
608.914	11011.19
609.272	11043.96
609.629	11074.69
609.986	11054.58
610.343	11006.67
610.7	11086.45
611.057	11064.07
611.414	11162.6
611.771	11105.43
612.127	11094.13
612.484	11138.65
612.841	11146.33
613.198	11088.25
613.554	11089.61
613.911	11211.41
614.267	11216.61
614.624	11223.39
614.98	11187.23
615.337	11242.15
615.693	11218.87
616.05	11232.88
616.406	11279.44
616.762	11226.1
617.118	11261.81
617.475	11289.38
617.831	11398.3
618.187	11368.7
618.543	11254.58
618.899	11310.17
619.255	11350.39
619.611	11322.37
619.967	11374.12
620.323	11422.71
620.678	11327.12
621.034	11316.5
621.39	11410.73
621.746	11331.41
622.101	11493.67
622.457	11389.71
622.812	11371.86
623.168	11367.34
623.523	11392.43
623.879	11418.19
624.234	11429.26
624.589	11365.31
624.945	11383.39
625.3	11492.31
625.655	11489.6
626.01	11525.98
626.365	11506.32
626.72	11384.74
627.075	11428.36
627.43	11364.86
627.785	11434.69
628.14	11443.5
628.495	11406.21
628.85	11389.49
629.205	11409.83
629.559	11438.3
629.914	11418.64
630.269	11430.62
630.623	11361.47
630.978	11348.81
631.332	11436.27
631.687	11438.75
632.041	11396.95
632.396	11372.09
632.75	11373.44
633.104	11368.7
633.459	11288.93
633.813	11356.5
634.167	11269.49
634.521	11217.06
634.875	11278.08
635.229	11268.14
635.583	11278.31
635.937	11200.12
636.291	11208.7
636.645	11304.29
636.999	11201.92
637.352	11241.47
637.706	11258.42
638.06	11256.84
638.413	11206.67
638.767	11174.81
639.121	11213.22
639.474	11138.87
639.828	11197.4
640.181	11176.39
640.534	11156.73
640.888	11125.99
641.241	11131.64
641.594	11097.52
641.947	11083.51
642.301	11080.57
642.654	11153.56
643.007	11130.29
643.36	11154.47
643.713	11135.94
644.066	11123.28
644.419	11182.94
644.771	10988.37
645.124	10870.18
645.477	10867.47
645.83	10898.2
646.182	10878.54
646.535	10822.95
646.888	10741.37
647.24	10686.91
647.593	10787.7
647.945	10771.65
648.298	10712.9
648.65	10642.16
649.002	10714.48
649.355	10663.41
649.707	10760.13
650.059	10800.8
650.411	10874.93
650.763	10899.56
651.115	11028.82
651.467	10943.62
651.819	10965.55
652.171	11031.76
652.523	10954.25
652.875	10970.29
653.227	10848.26
653.578	11004.41
653.93	10951.99
654.282	10982.72
654.633	10880.8
654.985	10902.95
655.337	10960.8
655.688	10966.22
656.039	10991.76
656.391	10870.86
656.742	10869.28
657.094	10950.63
657.445	10901.59
657.796	10911.08
658.147	10872.67
658.498	10808.71
658.849	10926.22
659.2	10902.04
659.551	10864.53
659.902	10862.95
660.253	10879.22
660.604	10895.94
660.955	10891.65
661.306	10886.68
661.656	10835.83
662.007	10940.69
662.358	10933.91
662.708	10903.63
663.059	10817.75
663.409	10827.47
663.76	10851.65
664.11	10919.67
664.461	10921.25
664.811	10817.98
665.161	10886.68
665.511	10903.63
665.862	10886.9
666.212	10944.3
666.562	10910.86
666.912	10837.86
667.262	10812.78
667.612	10893
667.962	10911.76
668.312	10845.32
668.662	10966.45
669.011	10822.27
669.361	10832.89
669.711	10904.53
670.06	10815.94
670.41	10799
670.76	10810.75
671.109	10869.28
671.459	10808.94
671.808	10806.91
672.157	10808.26
672.507	10712.44
672.856	10769.62
673.205	10742.05
673.554	10824.08
673.904	10758.54
674.253	10846
674.602	10800.13
674.951	10639.9
675.3	10585.89
675.649	10736.85
675.998	10744.76
676.346	10751.31
676.695	10747.92
677.044	10695.27
677.393	10701.37
677.741	10747.02
678.09	10690.98
678.438	10673.58
678.787	10662.05
679.135	10599.23
679.484	10603.52
679.832	10614.14
680.181	10582.28
680.529	10553.35
680.877	10583.63
681.225	10619.57
681.573	10563.3
681.922	10508.38
682.27	10494.82
682.618	10552
682.966	10470.64
683.314	10513.81
683.661	10472.22
684.009	10381.38
684.357	10381.15
684.705	10423.19
685.053	10459.34
685.4	10366.92
685.748	10385.22
686.095	10319.23
686.443	10278.33
686.79	10244.43
687.138	10363.75
687.485	10350.19
687.832	10212.12
688.18	10237.65
688.527	10202.63
688.874	10232.91
689.221	10106.13
689.568	10076.53
689.915	10067.72
690.262	10105.23
690.609	10020.94
690.956	10057.32
691.303	10011.45
691.65	9995.18
691.997	9986.59
692.344	9966.7
692.69	9940.94
693.037	9892.58
693.383	9816.42
693.73	9839.92
694.077	9778.01
694.423	9747.05
694.769	9768.74
695.116	9715.63
695.462	9746.14
695.808	9669.08
696.155	9660.72
696.501	9636.54
696.847	9578.69
697.193	9477
697.539	9591.12
697.885	9495.98
698.231	9513.15
698.577	9465.25
698.923	9430.67
699.269	9424.12
699.614	9301.86
699.96	9335.53
700.306	9326.04
700.651	9298.47
700.997	9240.39
701.342	9225.03
701.688	9225.48
702.033	9199.72
702.379	9125.59
702.724	9189.55
703.069	9170.11
703.415	9093.05
703.76	9055.54
704.105	9033.39
704.45	9035.88
704.795	8981.87
705.14	8985.94
705.485	9011.92
705.83	8902.1
706.175	8856.67
706.52	8904.13
706.865	8880.85
707.209	8879.72
707.554	8745.49
707.899	8775.55
708.243	8789.33
708.588	8760.86
708.932	8723.34
709.277	8708.88
709.621	8738.48
709.966	8562.22
710.31	8680.41
710.654	8564.7
710.998	8662.55
711.342	8601.77
711.687	8602.22
712.031	8540.75
712.375	8538.72
712.719	8548.21
713.063	8501.65
713.407	8495.55
713.75	8496.23
714.094	8484.25
714.438	8370.58
714.782	8463.24
715.125	8359.74
715.469	8495.33
715.812	8358.83
716.156	8370.13
716.499	8441.32
716.843	8397.7
717.186	8350.02
717.53	8385.73
717.873	8282
718.216	8268.21
718.559	8347.99
718.902	8280.19
719.246	8286.97
719.589	8231.15
719.932	8246.97
720.275	8279.97
720.617	8279.51
720.96	8234.77
721.303	8266.63
721.646	8279.51
721.989	8177.82
722.331	8196.13
722.674	8188.67
723.016	8187.54
723.359	8187.99
723.701	8198.84
724.044	8202.68
724.386	8098.5
724.729	8146.18
725.071	8098.5
725.413	8109.8
725.755	8151.38
726.097	8150.7
726.439	8063.7
726.782	8148.9
727.124	8110.03
727.465	8110.93
727.807	8096.47
728.149	8053.31
728.491	8032.97
728.833	8146.64
729.175	8069.12
729.516	8098.05
729.858	8070.93
730.199	8008.56
730.541	8003.36
730.882	8071.38
731.224	8022.35
731.565	8026.87
731.906	8032.97
732.248	8039.52
732.589	7974.89
732.93	7923.59
733.271	7939.18
733.612	7989.35
733.953	7984.61
734.294	7938.28
734.635	7987.32
734.976	7993.87
735.317	7973.31
735.658	7904.83
735.999	7970.82
736.339	7991.84
736.68	8009.01
737.021	7985.06
737.361	7876.81
737.702	7987.32
738.042	7991.61
738.383	7959.3
738.723	7947.77
739.063	7943.93
739.404	7962.91
739.744	7868.9
740.084	7896.02
740.424	8007.66
740.764	7921.78
741.104	7957.04
741.444	7888.34
741.784	7886.98
742.124	7940.99
742.464	7896.7
742.804	7885.85
743.143	7851.05
743.483	7930.37
743.823	7921.78
744.162	7891.28
744.502	7844.72
744.841	7822.58
745.181	7844.05
745.52	7768.34
745.86	7835.23
746.199	7826.64
746.538	7858.73
746.877	7815.57
747.216	7838.85
747.556	7872.07
747.895	7836.36
748.234	7826.42
748.573	7787.55
748.911	7812.41
749.25	7787.55
749.589	7773.31
749.928	7803.14
750.267	7752.52
750.605	7761.79
750.944	7812.18
751.283	7741.22
751.621	7756.82
751.96	7674.78
752.298	7690.6
752.636	7691.96
752.975	7703.94
753.313	7684.5
753.651	7740.77
753.989	7676.37
754.327	7729.92
754.666	7621.68
755.004	7621
755.342	7625.29
755.679	7643.6
756.017	7593.2
756.355	7570.15
756.693	7621.68
757.031	7619.64
757.368	7529.7
757.706	7493.55
758.044	7468.69
758.381	7577.39
758.719	7509.14
759.056	7516.82
759.394	7480.21
759.731	7429.14
760.068	7419.88
760.405	7404.96
760.743	7442.47
761.08	7400.22
761.417	7330.61
761.754	7316.83
762.091	7330.84
762.428	7291.52
762.765	7263.5
763.102	7322.25
763.438	7299.2
763.775	7246.55
764.112	7230.5
764.449	7263.5
764.785	7158.19
765.122	7138.3
765.458	7105.08
765.795	7132.43
766.131	7182.59
766.467	7058.76
766.804	7060.34
767.14	7059.43
767.476	7077.29
767.812	7018.53
768.148	7028.02
768.485	6964.29
768.821	6893.34
769.157	6888.14
769.492	6918.19
769.828	6842.26
770.164	6834.35
770.5	6823.51
770.836	6874.58
771.171	6736.5
771.507	6797.74
771.842	6719.1
772.178	6725.2
772.513	6726.79
772.849	6698.99
773.184	6661.25
773.519	6660.8
773.855	6694.92
774.19	6623.96
774.525	6639.33
774.86	6567.69
775.195	6569.28
775.53	6545.32
775.865	6496.28
776.2	6448.83
776.535	6428.26
776.87	6415.83
777.205	6381.94
777.539	6390.52
777.874	6350.98
778.209	6346.91
778.543	6284.99
778.878	6311.88
779.212	6268.95
779.547	6231.43
779.881	6253.58
780.215	6188.72
780.55	6238.44
780.884	6164.09
781.218	6226.91
781.552	6167.48
781.886	6099.68
782.22	6131.32
782.554	6054.71
782.888	6094.03
783.222	5962.96
783.556	5985.79
783.889	5993.7
784.223	6019.91
784.557	5968.84
784.89	5947.37
785.224	5901.72
785.557	5908.95
785.891	5818.56
786.224	5857.88
786.558	5837.54
786.891	5778.34
787.224	5830.99
787.557	5754.83
787.891	5731.33
788.224	5782.63
788.557	5719.13
788.89	5707.6
789.223	5775.17
789.556	5656.31
789.888	5648.62
790.221	5645.01
790.554	5553.71
790.887	5603.43
791.219	5583.77
791.552	5588.29
791.884	5526.59
792.217	5546.03
792.549	5519.81
792.882	5500.83
793.214	5449.53
793.546	5462.19
793.879	5432.36
794.211	5388.97
794.543	5460.15
794.875	5398.01
795.207	5390.78
795.539	5401.17
795.871	5403.43
796.203	5314.17
796.535	5311.91
796.867	5282.76
797.198	5326.37
797.53	5289.54
797.862	5241.63
798.193	5226.71
798.525	5258.58
798.856	5210.22
799.188	5200.5
799.519	5083.21
799.85	5136.09
800.182	5158.92
800.513	5167.73
800.844	5089.09
801.175	5122.08
801.506	5111.91
801.837	5085.47
802.168	5104.68
802.499	5028.75
802.83	4997.34
803.161	4969.54
803.491	5026.72
803.822	4955.31
804.153	4945.59
804.483	5004.8
804.814	4946.27
805.145	4968.19
805.475	4910.11
805.805	4925.48
806.136	4892.94
806.466	4928.87
806.796	4912.6
807.126	4841.64
807.457	4824.92
807.787	4855.2
808.117	4824.01
808.447	4818.36
808.777	4803.45
809.107	4804.13
809.436	4755.99
809.766	4745.82
810.096	4727.29
810.426	4768.42
810.755	4803.45
811.085	4733.17
811.414	4744.01
811.744	4686.84
812.073	4722.77
812.403	4674.41
812.732	4658.37
813.061	4684.35
813.39	4600.51
813.719	4616.33
814.049	4619.5
814.378	4650.68
814.707	4580.4
815.036	4576.79
815.365	4564.58
815.693	4557.13
816.022	4542.66
816.351	4562.32
816.68	4519.84
817.008	4533.17
817.337	4452.5
817.665	4454.53
817.994	4490.69
818.322	4492.27
818.651	4490.46
818.979	4511.7
819.307	4485.94
819.636	4474.64
819.964	4465.15
820.292	4430.35
820.62	4443.68
820.948	4418.6
821.276	4431.48
821.604	4419.5
821.932	4414.3
822.259	4389.9
822.587	4432.38
822.915	4420.18
823.243	4402.1
823.57	4406.4
823.898	4446.85
824.225	4413.17
824.553	4430.35
824.88	4406.62
825.207	4399.16
825.535	4434.87
825.862	4429.22
826.189	4430.12
826.516	4441.65
826.843	4414.53
827.17	4396.45
827.497	4399.62
827.824	4452.72
828.151	4406.4
828.478	4420.63
828.805	4425.6
829.131	4394.42
829.458	4388.77
829.785	4380.86
830.111	4381.09
830.438	4398.71
830.764	4403.46
831.09	4427.19
831.417	4351.48
831.743	4400.07
832.069	4384.25
832.395	4367.53
832.722	4386.51
833.048	4354.87
833.374	4384.93
833.7	4349.9
834.026	4353.74
834.351	4349.22
834.677	4375.66
835.003	4377.7
835.329	4373.4
835.654	4351.93
835.98	4335.44
836.306	4356
836.631	4320.3
836.956	4315.1
837.282	4303.57
837.607	4299.73
837.932	4307.87
838.258	4302.44
838.583	4290.92
838.908	4260.64
839.233	4256.79
839.558	4267.42
839.883	4292.5
840.208	4233.74
840.533	4249.79
840.858	4215.67
841.182	4229
841.507	4219.28
841.832	4189.9
842.156	4221.09
842.481	4217.25
842.805	4191.49
843.13	4174.31
843.454	4205.5
843.778	4133.41
844.103	4168.66
844.427	4196.68
844.751	4163.46
845.075	4103.58
845.399	4138.61
845.723	4112.84
846.047	4158.04
846.371	4077.82
846.695	4093.64
847.019	4050.92
847.343	4072.84
847.666	4043.02
847.99	4011.83
848.313	3993.07
848.637	3979.97
848.96	3971.15
849.284	3947.42
849.607	3940.19
849.931	3923.47
850.254	3903.13
850.577	3899.74
850.9	3875.56
851.223	3895
851.546	3828.11
851.869	3843.92
852.192	3833.3
852.515	3799.63
852.838	3807.09
853.161	3821.33
853.483	3763.93
853.806	3763.93
854.129	3770.93
854.451	3734.77
854.774	3758.73
855.096	3748.11
855.419	3702.01
855.741	3692.97
856.063	3717.15
856.385	3701.33
856.708	3660.2
857.03	3627.88
857.352	3666.53
857.674	3604.83
857.996	3675.57
858.318	3607.32
858.64	3644.61
858.961	3603.25
859.283	3610.26
859.605	3576.13
859.926	3593.08
860.248	3590.82
860.57	3558.06
860.891	3565.06
861.212	3502.24
861.534	3526.64
861.855	3538.4
862.176	3550.6
862.498	3540.2
862.819	3546.08
863.14	3493.65
863.461	3507.66
863.782	3501.33
864.103	3518.96
864.424	3470.37
864.745	3502.69
865.065	3475.57
865.386	3450.04
865.707	3434.67
866.027	3449.58
866.348	3418.62
866.668	3449.36
866.989	3485.52
867.309	3439.19
867.63	3442.35
867.95	3456.82
868.27	3397.16
868.59	3420.88
868.91	3431.51
869.23	3420.21
869.55	3407.55
869.87	3406.2
870.19	3386.31
870.51	3386.31
870.83	3412.52
871.15	3405.29
871.469	3379.3
871.789	3381.79
872.109	3372.75
872.428	3338.85
872.748	3360.32
873.067	3339.08
873.386	3359.42
873.706	3365.29
874.025	3310.61
874.344	3366.65
874.663	3353.54
874.982	3297.5
875.301	3304.05
875.62	3287.1
875.939	3316.25
876.258	3316.71
876.577	3270.83
876.896	3287.78
877.214	3286.88
877.533	3277.84
877.852	3282.81
878.17	3290.49
878.489	3228.35
878.807	3298.18
879.125	3272.41
879.444	3242.36
879.762	3246.88
880.08	3261.34
880.398	3241.45
880.716	3209.14
881.034	3231.74
881.352	3269.7
881.67	3219.99
881.988	3227.22
882.306	3170.5
882.624	3189.7
882.941	3212.98
883.259	3169.37
883.577	3164.39
883.894	3173.43
884.212	3184.28
884.529	3161.46
884.846	3129.59
885.164	3140.44
885.481	3129.37
885.798	3134.56
886.115	3113.77
886.432	3141.8
886.75	3104.06
887.067	3103.6
887.383	3097.96
887.7	3101.8
888.017	3060.22
888.334	3079.2
888.651	3069.93
888.967	3079.88
889.284	3088.69
889.6	3077.62
889.917	2994.23
890.233	3057.96
890.55	3018.86
890.866	3009.14
891.182	3025.19
891.498	3025.41
891.815	2995.81
892.131	3004.4
892.447	2937.51
892.763	2963.72
893.079	2940.67
893.395	2937.73
893.71	2949.48
894.026	2934.57
894.342	2931.63
894.657	2927.56
894.973	2921.69
895.289	2935.02
895.604	2923.27
895.92	2919.2
896.235	2859.32
896.55	2874.68
896.865	2866.77
897.181	2869.71
897.496	2847.57
897.811	2862.03
898.126	2826.1
898.441	2835.59
898.756	2779.55
899.071	2795.14
899.386	2788.58
899.7	2775.7
900.015	2791.07
900.33	2747.91
900.644	2736.61
900.959	2733.9
901.273	2734.35
901.588	2709.94
901.902	2718.98
902.216	2711.75
902.531	2727.12
902.845	2723.05
903.159	2706.33
903.473	2689.6
903.787	2683.5
904.101	2647.8
904.415	2637.4
904.729	2653.45
905.042	2659.77
905.356	2655.26
905.67	2609.61
905.984	2639.44
906.297	2618.87
906.611	2593.79
906.924	2610.74
907.237	2594.92
907.551	2555.37
907.864	2611.87
908.177	2565.99
908.491	2613.9
908.804	2570.51
909.117	2548.82
909.43	2533
909.743	2493.68
910.056	2506.78
910.368	2495.03
910.681	2486.22
910.994	2461.36
911.307	2475.82
911.619	2466.79
911.932	2462.72
912.244	2464.07
912.557	2438.54
912.869	2452.1
913.181	2414.81
913.494	2411.87
913.806	2404.87
914.118	2411.87
914.43	2414.58
914.742	2356.96
915.054	2360.8
915.366	2314.47
915.678	2353.79
915.99	2364.87
916.302	2345.88
916.613	2342.72
916.925	2328.26
917.236	2307.92
917.548	2281.48
917.859	2298.2
918.171	2311.76
918.482	2277.19
918.794	2245.1
919.105	2262.72
919.416	2244.87
919.727	2247.58
920.038	2205.78
920.349	2240.12
920.66	2215.49
920.971	2203.74
921.282	2203.52
921.593	2210.75
921.903	2180.47
922.214	2174.36
922.525	2191.76
922.835	2174.59
923.146	2156.74
923.456	2154.48
923.767	2121.26
924.077	2134.82
924.387	2141.82
924.697	2107.02
925.008	2080.35
925.318	2093.01
925.628	2103.86
925.938	2099.34
926.248	2084.42
926.558	2079
926.867	2057.53
927.177	2071.32
927.487	2058.43
927.796	2031.99
928.106	2040.36
928.416	2036.51
928.725	2042.84
929.034	2016.63
929.344	2025.89
929.653	2023.18
929.962	2015.5
930.271	1982.28
930.581	1968.49
930.89	1949.74
931.199	1917.42
931.508	1913.13
931.817	1971.88
932.125	1952.22
932.434	1916.52
932.743	1922.39
933.051	1931.43
933.36	1923.3
933.669	1913.58
933.977	1892.56
934.286	1884.2
934.594	1890.53
934.902	1897.31
935.21	1854.37
935.519	1859.12
935.827	1880.13
936.135	1854.37
936.443	1845.33
936.751	1832.68
937.059	1841.72
937.367	1777.76
937.674	1794.26
937.982	1809.63
938.29	1781.61
938.597	1802.17
938.905	1794.49
939.213	1752.68
939.52	1782.06
939.827	1787.26
940.135	1794.94
940.442	1757.2
940.749	1743.41
941.056	1760.36
941.363	1760.59
941.67	1730.99
941.977	1729.4
942.284	1718.33
942.591	1718.1
942.898	1693.7
943.205	1722.4
943.511	1708.61
943.818	1684.21
944.125	1671.33
944.431	1686.01
944.738	1658.9
945.044	1633.81
945.35	1659.12
945.657	1677.2
945.963	1652.57
946.269	1630.2
946.575	1643.53
946.881	1636.98
947.187	1657.09
947.493	1590.2
947.799	1645.11
948.105	1595.4
948.41	1587.71
948.716	1599.01
949.022	1618.45
949.327	1607.15
949.633	1594.27
949.938	1572.12
950.244	1581.61
950.549	1571.67
950.854	1569.86
951.16	1543.19
951.465	1552.23
951.77	1528.28
952.075	1552.01
952.38	1547.94
952.685	1504.1
952.99	1527.38
953.294	1527.15
953.599	1470.65
953.904	1496.87
954.209	1512.01
954.513	1513.36
954.818	1476.53
955.122	1490.54
955.426	1477.66
955.731	1476.75
956.035	1455.51
956.339	1450.31
956.643	1463.42
956.948	1486.02
957.252	1414.38
957.556	1422.07
957.86	1430.2
958.163	1456.87
958.467	1442.41
958.771	1448.96
959.075	1408.73
959.378	1414.16
959.682	1410.54
959.985	1400.82
960.289	1403.99
960.592	1386.59
960.896	1363.09
961.199	1349.53
961.502	1389.07
961.805	1358.57
962.108	1361.96
962.411	1363.09
962.714	1326.93
963.017	1338.23
963.32	1386.59
963.623	1311.56
963.926	1344.56
964.228	1332.8
964.531	1312.01
964.833	1299.58
965.136	1312.24
965.438	1300.71
965.741	1316.53
966.043	1318.79
966.345	1295.97
966.648	1289.42
966.95	1284.44
967.252	1289.19
967.554	1299.36
967.856	1249.19
968.158	1276.31
968.46	1260.26
968.761	1252.35
969.063	1255.52
969.365	1262.07
969.666	1263.65
969.968	1223.2
970.269	1246.25
970.571	1221.85
970.872	1256.2
971.174	1224.11
971.475	1245.57
971.776	1229.76
972.077	1200.6
972.378	1224.33
972.679	1203.99
972.98	1189.53
973.281	1206.48
973.582	1177.1
973.883	1187.05
974.183	1175.75
974.484	1194.28
974.785	1194.05
975.085	1194.05
975.386	1182.53
975.686	1174.84
975.986	1184.33
976.287	1159.48
976.587	1148.4
976.887	1137.78
977.187	1150.66
977.487	1148.18
977.787	1150.44
978.087	1140.72
978.387	1144.79
978.687	1144.11
978.987	1100.27
979.286	1144.11
979.586	1125.35
979.885	1139.81
980.185	1095.07
980.484	1065.69
980.784	1101.62
981.083	1085.8
981.382	1099.14
981.682	1099.59
981.981	1064.56
982.28	1064.79
982.579	1095.52
982.878	1100.27
983.177	1058.46
983.475	1071.34
983.774	1078.35
984.073	1045.35
984.372	1054.62
984.67	1077.67
984.969	1063.43
985.267	1079.93
985.566	1043.09
985.864	992.02
986.162	1039.03
986.461	1025.47
986.759	1014.62
987.057	1038.35
987.355	1029.54
987.653	1030.89
987.951	1010.33
988.249	1017.78
988.547	1011.23
988.844	1020.72
989.142	1018.46
989.44	1026.15
989.737	996.77
990.035	992.02
990.332	1001.97
990.63	1006.71
990.927	971.91
991.224	973.04
991.521	974.62
991.819	967.39
992.116	974.4
992.413	947.96
992.71	935.07
993.006	952.93
993.303	954.73
993.6	924.23
993.897	966.03
994.193	939.37
994.49	935.75
994.787	928.97
995.083	940.5
995.379	942.53
995.676	934.62
995.972	921.29
996.268	918.58
996.565	919.71
996.861	916.54
997.157	920.39
997.453	888.97
997.749	922.65
998.044	893.72
998.34	900.05
998.636	897.34
998.932	872.03
999.227	879.48
999.523	848.3
999.818	881.97
1000.114	870.67
1000.409	891.46
1000.704	862.99
1001	861.86
1001.295	870.67
1001.59	858.69
1001.885	867.96
1002.18	875.87
1002.475	843.33
1002.77	843.1
1003.065	839.03
1003.359	822.08
1003.654	842.2
1003.949	834.06
1004.243	827.05
1004.538	820.05
1004.832	804.91
1005.127	823.21
1005.421	829.99
1005.715	806.26
1006.009	784.57
1006.304	804.68
1006.598	832.03
1006.892	818.02
1007.186	792.03
1007.48	783.21
1007.773	800.16
1008.067	778.24
1008.361	784.57
1008.655	763.33
1008.948	785.25
1009.242	779.37
1009.535	797.68
1009.829	745.02
1010.122	768.98
1010.415	761.75
1010.708	739.15
1011.001	764.91
1011.295	752.48
1011.588	736.66
1011.881	730.11
1012.173	715.65
1012.466	760.16
1012.759	750.45
1013.052	737.34
1013.344	753.61
1013.637	688.98
1013.93	719.71
1014.222	710.45
1014.514	701.86
1014.807	719.26
1015.099	726.72
1015.391	719.03
1015.683	704.57
1015.976	714.29
1016.268	701.63
1016.56	694.4
1016.851	721.29
1017.143	712.48
1017.435	697.11
1017.727	679.71
1018.018	661.18
1018.31	682.2
1018.602	675.19
1018.893	676.32
1019.185	655.99
1019.476	663.67
1019.767	675.65
1020.058	655.53
1020.35	646.95
1020.641	636.78
1020.932	650.79
1021.223	669.09
1021.514	647.85
1021.804	627.51
1022.095	634.52
1022.386	638.13
1022.677	654.4
1022.967	664.35
1023.258	618.25
1023.548	625.25
1023.839	617.12
1024.129	627.06
1024.419	602.88
1024.709	626.16
1025	618.02
1025.29	630
1025.58	594.52
1025.87	628.19
1026.16	608.3
1026.449	609.43
1026.739	620.73
1027.029	607.63
1027.319	586.16
1027.608	588.64
1027.898	578.02
1028.187	591.58
1028.477	582.09
1028.766	595.2
1029.055	577.57
1029.344	593.16
1029.634	571.47
1029.923	549.1
1030.212	545.48
1030.501	593.84
1030.79	576.67
1031.078	578.7
1031.367	548.87
1031.656	570.56
1031.945	554.29
1032.233	573.5
1032.522	561.07
1032.81	569.66
1033.099	571.24
1033.387	541.41
1033.675	545.03
1033.963	553.84
1034.251	549.55
1034.54	540.28
1034.828	531.02
1035.116	533.05
1035.403	530.34
1035.691	526.95
1035.979	533.73
1036.267	533.05
1036.554	548.19
1036.842	531.47
1037.129	526.72
1037.417	538.7
1037.704	526.95
1037.992	506.16
1038.279	512.26
1038.566	498.93
1038.853	498.93
1039.14	498.93
