Data from mousepad_grey_FLMS001491_00064.txt Node
Date: Wed Feb 08 14:29:46 GMT 2017
User: dcchb
Spectrometer: FLMS00149
Trigger mode: 0
Integration Time (sec): 2.000000E-2
Scans to average: 10
Electric dark correction enabled: true
Nonlinearity correction enabled: false
Boxcar width: 0
XAxis mode: Wavelengths
Number of Pixels in Spectrum: 2048
>>>>>Begin Spectral Data<<<<<
341.393	-5.27
341.776	-5.27
342.16	-5.27
342.543	-47.08
342.927	-51.82
343.31	-78.26
343.693	-61.54
344.077	-52.5
344.46	-61.76
344.843	-50.01
345.226	-22.44
345.61	-22.89
345.993	-14.99
346.376	-2.1
346.759	-6.4
347.142	5.58
347.525	43.54
347.908	53.04
348.291	55.3
348.674	102.3
349.057	113.15
349.44	126.03
349.823	150.43
350.206	160.15
350.588	197.66
350.971	205.12
351.354	217.1
351.737	240.38
352.119	247.38
352.502	245.8
352.884	249.87
353.267	277.89
353.65	277.44
354.032	307.04
354.414	285.57
354.797	294.84
355.179	312.69
355.562	311.33
355.944	308.85
356.326	319.47
356.709	323.76
357.091	349.07
357.473	323.31
357.855	325.8
358.238	326.7
358.62	312.92
359.002	326.7
359.384	331.45
359.766	333.71
360.148	339.36
360.53	331.22
360.912	314.05
361.294	300.26
361.676	306.36
362.057	304.78
362.439	317.66
362.821	343.2
363.203	319.47
363.584	305.46
363.966	325.57
364.348	293.93
364.729	302.07
365.111	297.77
365.493	307.04
365.874	310.43
366.256	319.92
366.637	309.07
367.019	309.75
367.4	321.95
367.781	309.53
368.163	307.04
368.544	288.51
368.925	319.47
369.306	295.06
369.688	310.43
370.069	318.34
370.45	297.32
370.831	323.54
371.212	297.77
371.593	299.13
371.974	295.74
372.355	302.52
372.736	324.44
373.117	309.07
373.498	309.53
373.879	307.49
374.26	314.05
374.641	303.88
375.021	326.25
375.402	317.66
375.783	321.28
376.163	302.97
376.544	300.26
376.925	324.21
377.305	323.76
377.686	311.33
378.066	309.53
378.447	302.29
378.827	329.19
379.208	318.34
379.588	324.89
379.968	321.05
380.349	332.58
380.729	325.34
381.109	332.8
381.489	333.48
381.87	328.06
382.25	344.78
382.63	322.41
383.01	331.22
383.39	325.8
383.77	316.98
384.15	317.21
384.53	338.9
384.91	349.3
385.29	352.01
385.67	326.02
386.049	311.33
386.429	323.08
386.809	333.48
387.189	359.24
387.568	343.88
387.948	345.01
388.328	332.35
388.707	354.72
389.087	349.52
389.466	334.16
389.846	363.54
390.225	347.26
390.605	344.78
390.984	323.99
391.363	356.76
391.743	351.78
392.122	357.66
392.501	354.5
392.881	384.78
393.26	356.08
393.639	362.18
394.018	362.41
394.397	371.67
394.776	392.91
395.155	370.09
395.534	355.85
395.913	371.22
396.292	387.26
396.671	385.46
397.05	392.91
397.429	382.52
397.808	379.35
398.186	384.55
398.565	389.3
398.944	382.29
399.323	386.81
399.701	381.16
400.08	392.24
400.458	409.41
400.837	389.3
401.215	415.06
401.594	390.43
401.972	396.98
402.351	378.68
402.729	409.86
403.107	429.52
403.486	412.8
403.864	413.25
404.242	431.33
404.62	414.61
404.999	424.78
405.377	420.48
405.755	408.51
406.133	415.74
406.511	420.71
406.889	434.49
407.267	419.35
407.645	435.85
408.023	415.06
408.401	444.44
408.779	437.66
409.156	448.96
409.534	465.91
409.912	466.13
410.29	462.52
410.667	462.29
411.045	470.2
411.422	464.78
411.8	470.88
412.178	442.86
412.555	469.3
412.933	471.56
413.31	488.96
413.687	491.44
414.065	470.43
414.442	498.22
414.819	483.98
415.197	495.74
415.574	509.52
415.951	508.39
416.328	496.87
416.705	492.57
417.082	535.73
417.46	524.44
417.837	530.08
418.214	520.37
418.591	539.35
418.967	537.09
419.344	514.94
419.721	543.42
420.098	527.15
420.475	552.68
420.852	555.62
421.228	552.23
421.605	554.72
421.982	556.52
422.358	549.07
422.735	568.95
423.111	568.95
423.488	591.33
423.864	548.39
424.241	588.16
424.617	605.11
424.994	573.93
425.37	572.57
425.746	601.27
426.123	590.42
426.499	617.54
426.875	613.47
427.251	614.6
427.627	617.09
428.003	621.61
428.379	633.81
428.756	625.45
429.132	628.39
429.507	663.41
429.883	630.87
430.259	647.37
430.635	658.22
431.011	652.12
431.387	671.55
431.763	680.59
432.138	665.22
432.514	666.58
432.89	689.63
433.265	708.61
433.641	713.13
434.016	698.67
434.392	718.1
434.767	718.55
435.143	721.04
435.518	749.29
435.894	723.3
436.269	741.38
436.644	747.93
437.02	745.22
437.395	746.35
437.77	786.35
438.145	739.57
438.52	774.82
438.895	771.89
439.271	759.46
439.646	772.79
440.021	787.25
440.395	774.37
440.77	786.58
441.145	795.16
441.52	809.17
441.895	842.17
442.27	822.28
442.645	836.74
443.019	831.32
443.394	855.5
443.769	865.22
444.143	850.53
444.518	849.4
444.892	832.68
445.267	860.92
445.641	864.31
446.016	867.03
446.39	881.71
446.764	904.09
447.139	875.61
447.513	902.28
447.887	891.21
448.262	894.6
448.636	902.73
449.01	907.93
449.384	913.8
449.758	932.56
450.132	933.92
450.506	923.97
450.88	938.89
451.254	955.16
451.628	958.1
452.002	958.32
452.376	977.08
452.75	991.09
453.123	975.5
453.497	993.12
453.871	992.22
454.244	994.93
454.618	1033.35
454.992	1051.88
455.365	1026.12
455.739	1026.8
456.112	1048.94
456.486	1069.51
456.859	1064.08
457.232	1116.96
457.606	1086.91
457.979	1107.92
458.352	1118.54
458.725	1129.39
459.099	1140.46
459.472	1139.56
459.845	1159.67
460.218	1181.14
460.591	1203.97
460.964	1186.11
461.337	1198.77
461.71	1231.08
462.083	1249.16
462.456	1226.79
462.829	1223.63
463.201	1261.59
463.574	1274.25
463.947	1272.66
464.32	1308.82
464.692	1332.55
465.065	1290.74
465.438	1342.27
465.81	1345.88
466.183	1378.65
466.555	1376.16
466.928	1392.21
467.3	1384.53
467.672	1402.38
468.045	1450.96
468.417	1450.96
468.789	1444.41
469.161	1467.46
469.534	1504.75
469.906	1509.27
470.278	1514.92
470.65	1509.72
471.022	1552.88
471.394	1586.33
471.766	1591.07
472.138	1631.52
472.51	1659.55
472.882	1644.41
473.253	1689.6
473.625	1712.2
473.997	1746.78
474.369	1739.09
474.74	1776.83
475.112	1752.65
475.484	1811.63
475.855	1858.64
476.227	1835.59
476.598	1915.59
476.97	1896.15
477.341	1950.61
477.713	1994.68
478.084	1989.48
478.455	2013.66
478.827	2047.11
479.198	2090.72
479.569	2116.71
479.94	2142.92
480.311	2167.33
480.682	2194
481.053	2245.52
481.424	2246.2
481.795	2292.3
482.166	2353.77
482.537	2374.56
482.908	2403.71
483.279	2406.87
483.65	2471.73
484.021	2477.83
484.391	2511.95
484.762	2565.06
485.133	2585.4
485.503	2582.46
485.874	2659.52
486.244	2662.46
486.615	2722.12
486.985	2721.44
487.356	2822.68
487.726	2819.52
488.097	2855.22
488.467	2864.94
488.837	2927.54
489.207	2965.05
489.578	2943.58
489.948	2998.27
490.318	3061.09
490.688	3069.45
491.058	3092.28
491.428	3120.3
491.798	3142.22
492.168	3212.73
492.538	3253.18
492.908	3225.61
493.278	3283.68
493.648	3300.86
494.017	3389.44
494.387	3409.56
494.757	3398.48
495.126	3481.65
495.496	3445.26
495.866	3477.8
496.235	3520.51
496.605	3613.85
496.974	3593.28
497.344	3600.96
497.713	3577.46
498.082	3631.02
498.452	3677.12
498.821	3710.57
499.19	3743.79
499.559	3721.19
499.928	3761.86
500.298	3748.53
500.667	3778.14
501.036	3826.72
501.405	3859.04
501.774	3871.47
502.143	3899.49
502.512	3935.19
502.88	3940.39
503.249	3969.77
503.618	4021.74
503.987	4009.77
504.356	4058.35
504.724	4081.4
505.093	4087.96
505.462	4102.65
505.83	4098.35
506.199	4169.76
506.567	4207.28
506.936	4128.18
507.304	4257.44
507.672	4244.79
508.041	4257.44
508.409	4335.18
508.777	4355.3
509.145	4367.72
509.514	4430.1
509.882	4418.34
510.25	4433.03
510.618	4462.64
510.986	4544.89
511.354	4528.17
511.722	4574.72
512.09	4599.58
512.458	4622.41
512.826	4654.5
513.193	4646.81
513.561	4703.31
513.929	4759.13
514.297	4787.37
514.664	4827.37
515.032	4856.52
515.4	4845.68
515.767	4867.82
516.135	4899.91
516.502	4888.16
516.869	4981.49
517.237	4984.43
517.604	4973.13
517.972	5048.38
518.339	5068.72
518.706	5153.01
519.073	5064.88
519.44	5152.79
519.808	5196.4
520.175	5177.87
520.542	5287.02
520.909	5277.53
521.276	5322.28
521.643	5385.32
522.009	5386.45
522.376	5394.82
522.743	5521.59
523.11	5490.41
523.477	5550.74
523.843	5590.29
524.21	5650.63
524.577	5662.38
524.943	5704.64
525.31	5777.63
525.676	5804.75
526.043	5850.85
526.409	5856.95
526.776	5913.22
527.142	5945.54
527.508	6006.33
527.874	5993.22
528.241	6047.91
528.607	6060.56
528.973	6149.37
529.339	6124.97
529.705	6171.07
530.071	6243.61
530.437	6247
530.803	6299.88
531.169	6377.39
531.535	6380.55
531.901	6384.62
532.267	6414.68
532.632	6449.25
532.998	6465.07
533.364	6520.21
533.73	6534.22
534.095	6571.51
534.461	6617.61
534.826	6691.96
535.192	6626.2
535.557	6737.38
535.923	6690.15
536.288	6766.31
536.653	6791.39
537.019	6820.99
537.384	6883.36
537.749	6839.07
538.114	6905.51
538.479	6955
538.845	6991.16
539.21	6949.58
539.575	6978.73
539.94	7018.95
540.305	7058.73
540.67	7140.76
541.034	7107.77
541.399	7137.37
541.764	7175.56
542.129	7183.47
542.494	7191.15
542.858	7242.9
543.223	7283.13
543.587	7324.71
543.952	7318.38
544.316	7319.74
544.681	7377.36
545.045	7431.15
545.41	7514.99
545.774	7479.51
546.138	7499.17
546.503	7565.83
546.867	7567.64
547.231	7604.7
547.595	7643.57
547.959	7664.36
548.324	7622.33
548.688	7718.14
549.052	7696
549.416	7777.13
549.779	7788.43
550.143	7838.37
550.507	7874.75
550.871	7900.96
551.235	7882.21
551.599	7945.03
551.962	7964.24
552.326	8011.24
552.689	8065.71
553.053	8027.29
553.417	8051.02
553.78	8184.35
554.143	8170.56
554.507	8197.68
554.87	8242.65
555.234	8270.45
555.597	8246.72
555.96	8339.82
556.323	8376.88
556.686	8399.48
557.05	8431.57
557.413	8456.66
557.776	8518.58
558.139	8529.65
558.502	8522.87
558.865	8554.05
559.228	8623.66
559.59	8673.6
559.953	8709.08
560.316	8806.93
560.679	8750.21
561.041	8840.37
561.404	8860.94
561.767	8877.44
562.129	8862.3
562.492	8933.93
562.854	9044.44
563.217	8978
563.579	9084.44
563.941	9104.55
564.304	9176.64
564.666	9182.74
565.028	9152.01
565.39	9309.97
565.753	9282.85
566.115	9370.3
566.477	9396.29
566.839	9386.8
567.201	9451.66
567.563	9422.05
567.925	9480.58
568.287	9549.96
568.648	9553.58
569.01	9608.72
569.372	9723.52
569.734	9598.32
570.095	9689.17
570.457	9764.64
570.819	9838.77
571.18	9759.9
571.542	9853
571.903	9872.89
572.265	9866.34
572.626	9930.97
572.987	9963.28
573.349	9979.55
573.71	9973.9
574.071	10063.62
574.432	10014.36
574.794	10140.45
575.155	10112.43
575.516	10109.72
575.877	10139.78
576.238	10242.37
576.599	10221.81
576.96	10259.55
577.32	10205.99
577.681	10367.79
578.042	10392.2
578.403	10351.97
578.763	10358.75
579.124	10363.05
579.485	10437.17
579.845	10397.85
580.206	10409.15
580.566	10397.4
580.927	10440.11
581.287	10509.48
581.648	10461.8
582.008	10497.05
582.368	10517.84
582.728	10540.22
583.089	10486.21
583.449	10492.99
583.809	10573.66
584.169	10617.05
584.529	10532.76
584.889	10579.31
585.249	10525.75
585.609	10492.99
585.969	10562.36
586.329	10614.11
586.688	10578.41
587.048	10570.05
587.408	10551.97
587.768	10551.06
588.127	10555.81
588.487	10549.93
588.846	10668.58
589.206	10535.02
589.565	10608.01
589.925	10671.51
590.284	10633.32
590.643	10601.68
591.003	10626.32
591.362	10681.46
591.721	10664.73
592.08	10668.12
592.44	10694.11
592.799	10631.97
593.158	10611.85
593.517	10657.95
593.876	10687.56
594.235	10774.34
594.593	10666.99
594.952	10710.38
595.311	10735.47
595.67	10712.42
596.029	10764.39
596.387	10763.94
596.746	10790.38
597.104	10720.78
597.463	10777.95
597.822	10784.73
598.18	10715.13
598.538	10724.85
598.897	10834.22
599.255	10726.88
599.613	10861.56
599.972	10736.37
600.33	10827.44
600.688	10789.7
601.046	10768.91
601.404	10829.25
601.762	10900.66
602.12	10927.55
602.478	10863.6
602.836	10854.79
603.194	10786.76
603.552	10805.97
603.91	10811.85
604.268	10881.23
604.625	10797.84
604.983	10901.79
605.341	10854.11
605.698	10890.94
606.056	10868.34
606.413	10881.45
606.771	10931.17
607.128	11019.07
607.485	10896.37
607.843	10980.43
608.2	11008
608.557	10996.93
608.914	11046.19
609.272	11013.65
609.629	10975.91
609.986	11084.61
610.343	11011.39
610.7	11103.82
611.057	11112.86
611.414	11055.01
611.771	11079.64
612.127	11142.01
612.484	11093.2
612.841	11126.64
613.198	11111.28
613.554	11151.95
613.911	11194.89
614.267	11226.75
614.624	11179.07
614.98	11278.73
615.337	11275.79
615.693	11221.56
616.05	11093.87
616.406	11363.7
616.762	11226.3
617.118	11251.61
617.475	11226.75
617.831	11322.8
618.187	11300.2
618.543	11318.73
618.899	11351.5
619.255	11290.48
619.611	11330.7
619.967	11335.68
620.323	11391.72
620.678	11342.23
621.034	11303.36
621.39	11281.67
621.746	11300.2
622.101	11512.4
622.457	11310.14
622.812	11365.51
623.168	11398.95
623.523	11358.95
623.879	11452.51
624.234	11378.16
624.589	11451.38
624.945	11452.06
625.3	11454.32
625.655	11496.58
626.01	11422.45
626.365	11454.54
626.72	11451.83
627.075	11486.18
627.43	11440.53
627.785	11392.85
628.14	11434.88
628.495	11432.85
628.85	11432.4
629.205	11453.19
629.559	11517.59
629.914	11425.17
630.269	11419.06
630.623	11400.31
630.978	11299.29
631.332	11460.19
631.687	11361.89
632.041	11396.47
632.396	11416.13
632.75	11355.79
633.104	11394.88
633.459	11315.56
633.813	11291.38
634.167	11254.77
634.521	11306.52
634.875	11311.04
635.229	11284.83
635.583	11278.73
635.937	11225.85
636.291	11220.2
636.645	11313.53
636.999	11179.75
637.352	11291.38
637.706	11173.19
638.06	11229.92
638.413	11205.51
638.767	11089.81
639.121	11203.93
639.474	11143.82
639.828	11157.38
640.181	11185.17
640.534	11132.74
640.888	11111.5
641.241	11130.03
641.594	11104.72
641.947	11090.49
642.301	11132.97
642.654	11166.64
643.007	11148.56
643.36	11163.93
643.713	11116.47
644.066	11127.09
644.419	11097.26
644.771	11066.53
645.124	10942.01
645.477	10816.82
645.83	10802.58
646.182	10789.93
646.535	10763.04
646.888	10778.4
647.24	10695.69
647.593	10749.03
647.945	10764.39
648.298	10754.9
648.65	10664.96
649.002	10671.06
649.355	10723.04
649.707	10710.16
650.059	10772.08
650.411	10951.28
650.763	10869.25
651.115	11013.88
651.467	11014.56
651.819	10983.14
652.171	10942.92
652.523	10870.15
652.875	10954.67
653.227	10948.34
653.578	10999.19
653.93	11019.3
654.282	10920.55
654.633	10861.11
654.985	10919.87
655.337	10957.61
655.688	10955.8
656.039	11008.23
656.391	10842.81
656.742	10917.61
657.094	10930.72
657.445	10944.05
657.796	10923.94
658.147	10898.4
658.498	10921.45
658.849	10905.63
659.2	10916.03
659.551	10902.92
659.902	10864.5
660.253	10900.89
660.604	10928.68
660.955	10864.05
661.306	10862.47
661.656	10880.77
662.007	10872.41
662.358	10832.19
662.708	10841.45
663.059	10892.07
663.409	10767.1
663.76	10889.13
664.11	10892.52
664.461	10961.45
664.811	10862.02
665.161	10915.12
665.511	10831.96
665.862	10877.84
666.212	10918.29
666.562	10933.88
666.912	10922.35
667.262	10868.57
667.612	10914.22
667.962	10847.1
668.312	10875.8
668.662	10924.61
669.011	10954.9
669.361	10874.45
669.711	10863.37
670.06	10809.81
670.41	10780.44
670.76	10830.83
671.109	10865.86
671.459	10803.71
671.808	10786.31
672.157	10768.23
672.507	10682.81
672.856	10741.12
673.205	10714.22
673.554	10773.21
673.904	10706.31
674.253	10847.1
674.602	10805.97
674.951	10678.74
675.3	10565.53
675.649	10733.21
675.998	10648.91
676.346	10794.45
676.695	10777.05
677.044	10668.8
677.393	10724.62
677.741	10751.51
678.09	10711.29
678.438	10657.95
678.787	10708.57
679.135	10668.12
679.484	10608.46
679.832	10610.95
680.181	10547.45
680.529	10664.28
680.877	10564.17
681.225	10634
681.573	10629.48
681.922	10511.07
682.27	10489.6
682.618	10547.22
682.966	10496.6
683.314	10565.3
683.661	10455.47
684.009	10382.93
684.357	10370.96
684.705	10337.51
685.053	10444.85
685.4	10350.39
685.748	10355.59
686.095	10292.54
686.443	10295.93
686.79	10206.67
687.138	10283.95
687.485	10295.93
687.832	10221.81
688.18	10273.56
688.527	10241.02
688.874	10163.73
689.221	10079.89
689.568	10122.15
689.915	10112.21
690.262	10045.09
690.609	10063.17
690.956	10018.2
691.303	10042.83
691.65	9968.03
691.997	9919.89
692.344	9949.27
692.69	9899.56
693.037	9879.9
693.383	9853.91
693.73	9886.45
694.077	9730.75
694.423	9765.1
694.769	9792.44
695.116	9742.72
695.462	9672.44
695.808	9659.56
696.155	9729.39
696.501	9606
696.847	9640.35
697.193	9543.41
697.539	9566.46
697.885	9522.62
698.231	9450.08
698.577	9472
698.923	9480.13
699.269	9384.54
699.614	9329.85
699.96	9326.46
700.306	9339.8
700.651	9232.68
700.997	9182.74
701.342	9158.78
701.688	9232.91
702.033	9172.12
702.379	9162.85
702.724	9112.91
703.069	9147.03
703.415	9045.34
703.76	9081.72
704.105	9104.1
704.45	8943.88
704.795	8980.94
705.14	8994.95
705.485	8898.68
705.83	8863.43
706.175	8951.78
706.52	8855.97
706.865	8861.84
707.209	8839.47
707.554	8726.25
707.899	8812.13
708.243	8779.13
708.588	8737.55
708.932	8696.65
709.277	8628.4
709.621	8698.46
709.966	8629.53
710.31	8648.29
710.654	8542.98
710.998	8618.23
711.342	8621.4
711.687	8628.18
712.031	8537.56
712.375	8556.77
712.719	8461.18
713.063	8483.55
713.407	8528.74
713.75	8494.62
714.094	8448.07
714.438	8496.43
714.782	8493.27
715.125	8441.06
715.469	8411.69
715.812	8411.91
716.156	8407.62
716.499	8408.3
716.843	8396.09
717.186	8376.66
717.53	8338.69
717.873	8333.5
718.216	8314.51
718.559	8295.53
718.902	8316.55
719.246	8256.89
719.589	8271.35
719.932	8183.44
720.275	8287.62
720.617	8248.75
720.96	8211.92
721.303	8252.14
721.646	8287.17
721.989	8175.08
722.331	8180.28
722.674	8206.72
723.016	8165.14
723.359	8228.64
723.701	8181.18
724.044	8123.11
724.386	8139.6
724.729	8135.31
725.071	8132.82
725.413	8113.61
725.755	8125.82
726.097	8066.61
726.439	8066.61
726.782	8099.15
727.124	8170.56
727.465	8131.24
727.807	8056.44
728.149	8028.42
728.491	8066.84
728.833	8132.6
729.175	8080.39
729.516	8047.63
729.858	8049.21
730.199	8065.48
730.541	8063.22
730.882	8060.96
731.224	8030.9
731.565	8017.12
731.906	8035.65
732.248	8040.85
732.589	8027.74
732.93	8034.97
733.271	7991.81
733.612	7950
733.953	7985.48
734.294	7979.61
734.635	7948.87
734.976	8014.41
735.317	7933.73
735.658	7919.72
735.999	7907.52
736.339	7912.49
736.68	7941.19
737.021	7945.03
737.361	7888.99
737.702	8008.08
738.042	7959.04
738.383	7942.09
738.723	7971.7
739.063	7970.12
739.404	7854.41
739.744	7876.56
740.084	7879.5
740.424	7950.91
740.764	7968.53
741.104	7900.51
741.444	7922.43
741.784	7889.67
742.124	7912.49
742.464	7776.67
742.804	7893.51
743.143	7898.03
743.483	7896.67
743.823	7862.1
744.162	7845.6
744.502	7840.85
744.841	7818.25
745.181	7890.57
745.52	7867.52
745.86	7856.9
746.199	7898.48
746.538	7831.14
746.877	7850.34
747.216	7852.83
747.556	7829.78
747.895	7841.08
748.234	7802.66
748.573	7765.6
748.911	7841.76
749.25	7818.93
749.589	7837.92
749.928	7795.88
750.267	7733.96
750.605	7727.86
750.944	7747.97
751.283	7789.1
751.621	7807.41
751.96	7662.1
752.298	7715.66
752.636	7731.7
752.975	7680.86
753.313	7653.97
753.651	7686.51
753.989	7650.35
754.327	7639.05
754.666	7611.25
755.004	7615.77
755.342	7635.89
755.679	7581.88
756.017	7622.55
756.355	7641.76
756.693	7533.97
757.031	7659.61
757.368	7540.07
757.706	7566.06
758.044	7466.4
758.381	7482.44
758.719	7486.06
759.056	7477.02
759.394	7432.73
759.731	7358.83
760.068	7408.1
760.405	7411.71
760.743	7404.48
761.08	7421.43
761.417	7374.2
761.754	7353.63
762.091	7332.17
762.428	7358.83
762.765	7240.64
763.102	7319.74
763.438	7210.81
763.775	7202.23
764.112	7204.03
764.449	7251.94
764.785	7189.12
765.122	7142.57
765.458	7131.04
765.795	7166.75
766.131	7110.48
766.467	7071.83
766.804	7111.38
767.14	6989.12
767.476	7053.76
767.812	6974.21
768.148	6941.89
768.485	6995.9
768.821	6907.54
769.157	6933.08
769.492	6941.67
769.828	6908
770.164	6822.12
770.5	6807.89
770.836	6808.34
771.171	6795.46
771.507	6775.57
771.842	6728.11
772.178	6739.41
772.513	6736.7
772.849	6702.58
773.184	6662.81
773.519	6610.15
773.855	6609.25
774.19	6561.56
774.525	6580.55
774.86	6537.38
775.195	6556.14
775.53	6540.77
775.865	6532.41
776.2	6492.87
776.535	6407.44
776.87	6401.79
777.205	6366.09
777.539	6367.67
777.874	6356.15
778.209	6309.37
778.543	6336.26
778.878	6298.97
779.212	6322.93
779.547	6250.39
779.881	6302.81
780.215	6208.58
780.55	6162.48
780.884	6211.07
781.218	6147.56
781.552	6159.54
781.886	6127.68
782.22	6101.69
782.554	6034.8
782.888	6016.72
783.222	6019.43
783.556	6030.28
783.889	5925.42
784.223	5938.98
784.557	5901.7
784.89	5963.39
785.224	5891.07
785.557	5864.63
785.891	5847.91
786.224	5854.24
786.558	5845.43
786.891	5840
787.224	5808.14
787.557	5793
787.891	5752.09
788.224	5740.57
788.557	5750.06
788.89	5710.06
789.223	5708.25
789.556	5662.61
789.888	5657.41
790.221	5622.83
790.554	5624.41
790.887	5566.56
791.219	5562.49
791.552	5541.7
791.884	5577.64
792.217	5502.38
792.549	5525.89
792.882	5489.73
793.214	5474.14
793.546	5500.35
793.879	5418.54
794.211	5397.75
794.543	5429.17
794.875	5387.13
795.207	5396.85
795.539	5381.03
795.871	5412.44
796.203	5275.95
796.535	5281.6
796.867	5261.26
797.198	5292.45
797.53	5275.5
797.862	5268.94
798.193	5236.18
798.525	5224.2
798.856	5202.28
799.188	5188.04
799.519	5132.22
799.85	5157.08
800.182	5171.77
800.513	5152.34
800.844	5001.83
801.175	5154.6
801.506	5092.9
801.837	5090.87
802.168	5053.36
802.499	5035.05
802.83	5052.45
803.161	5063.98
803.491	5049.29
803.822	4983.53
804.153	5005.45
804.483	4955.73
804.814	4949.86
805.145	4908.95
805.475	4913.25
805.805	4881.61
806.136	4905.11
806.466	4846.81
806.796	4873.02
807.126	4862.4
807.457	4784.66
807.787	4881.16
808.117	4798.45
808.447	4813.14
808.777	4844.55
809.107	4812.23
809.436	4777.88
809.766	4783.76
810.096	4772.46
810.426	4752.35
810.755	4771.78
811.085	4737.88
811.414	4711.22
811.744	4664.89
812.073	4639.81
812.403	4691.33
812.732	4640.03
813.061	4682.97
813.39	4644.78
813.719	4640.94
814.049	4653.14
814.378	4636.64
814.707	4617.66
815.036	4590.32
815.365	4582.41
815.693	4565.91
816.022	4569.07
816.351	4525.46
816.68	4510.32
817.008	4519.13
817.337	4502.18
817.665	4452.24
817.994	4479.36
818.322	4490.21
818.651	4527.04
818.979	4471.68
819.307	4472.81
819.636	4431.68
819.964	4383.32
820.292	4454.95
820.62	4426.71
820.948	4373.83
821.276	4424.9
821.604	4410.89
821.932	4418.34
822.259	4428.06
822.587	4363.43
822.915	4395.29
823.243	4417.67
823.57	4374.73
823.898	4432.58
824.225	4342.41
824.553	4392.13
824.88	4390.77
825.207	4370.21
825.535	4408.4
825.862	4445.91
826.189	4372.47
826.516	4325.24
826.843	4423.09
827.17	4430.1
827.497	4412.47
827.824	4416.31
828.151	4417.67
828.478	4401.62
828.805	4447.04
829.131	4413.37
829.458	4361.17
829.785	4411.79
830.111	4401.4
830.438	4373.83
830.764	4436.65
831.09	4407.05
831.417	4425.58
831.743	4431.9
832.069	4398.91
832.395	4402.98
832.722	4374.73
833.048	4342.64
833.374	4383.77
833.7	4366.59
834.026	4374.5
834.351	4393.49
834.677	4358.46
835.003	4378.35
835.329	4369.98
835.654	4350.32
835.98	4352.58
836.306	4357.33
836.631	4308.06
836.956	4337.22
837.282	4302.64
837.607	4280.72
837.932	4296.54
838.258	4302.64
838.583	4341.06
838.908	4314.84
839.233	4288.4
839.558	4261.74
839.883	4266.94
840.208	4259.7
840.533	4279.59
840.858	4244.56
841.182	4242.53
841.507	4220.84
841.832	4236.88
842.156	4195.07
842.481	4240.95
842.805	4230.1
843.13	4233.72
843.454	4208.41
843.778	4162.98
844.103	4139.71
844.427	4115.3
844.751	4106.49
845.075	4133.83
845.399	4141.97
845.723	4102.87
846.047	4083.44
846.371	4057.22
846.695	4065.36
847.019	4052.03
847.343	4026.04
847.666	4035.08
847.99	4011.12
848.313	3981.07
848.637	3992.37
848.96	3956.21
849.284	3927.28
849.607	3910.34
849.931	3909.21
850.254	3913.5
850.577	3861.3
850.9	3864.69
851.223	3830.11
851.546	3822.43
851.869	3828.3
852.192	3815.2
852.515	3790.34
852.838	3829.66
853.161	3799.15
853.483	3751.24
853.806	3783.56
854.129	3751.7
854.451	3734.75
854.774	3737.91
855.096	3723.67
855.419	3724.13
855.741	3712.83
856.063	3674.86
856.385	3645.26
856.708	3658.14
857.03	3634.86
857.352	3636.44
857.674	3642.77
857.996	3601.19
858.318	3589.44
858.64	3637.12
858.961	3592.6
859.283	3591.02
859.605	3606.84
859.926	3578.82
860.248	3578.14
860.57	3558.71
860.891	3598.25
861.212	3542.66
861.534	3532.49
861.855	3535.88
862.176	3519.61
862.498	3565.94
862.819	3536.56
863.14	3560.29
863.461	3466.96
863.782	3458.6
864.103	3511.25
864.424	3488.65
864.745	3498.82
865.065	3453.85
865.386	3444.13
865.707	3446.62
866.027	3449.1
866.348	3423.57
866.668	3408.88
866.989	3468.76
867.309	3415.43
867.63	3447.97
867.95	3419.73
868.27	3422.21
868.59	3393.96
868.91	3400.29
869.23	3403.46
869.55	3383.12
869.87	3418.6
870.19	3371.37
870.51	3414.75
870.83	3399.61
871.15	3350.35
871.469	3368.2
871.789	3343.8
872.109	3350.12
872.428	3374.76
872.748	3347.19
873.067	3303.8
873.386	3337.69
873.706	3334.53
874.025	3296.57
874.344	3351.03
874.663	3338.15
874.982	3270.8
875.301	3315.32
875.62	3282.1
875.939	3327.07
876.258	3319.16
876.577	3299.05
876.896	3231.03
877.214	3271.03
877.533	3276
877.852	3284.14
878.17	3248.21
878.489	3276.45
878.807	3252.73
879.125	3254.08
879.444	3227.87
879.762	3271.26
880.08	3250.47
880.398	3232.61
880.716	3217.25
881.034	3217.25
881.352	3212.05
881.67	3172.95
881.988	3197.36
882.306	3186.51
882.624	3174.76
882.941	3189.45
883.259	3211.14
883.577	3212.95
883.894	3179.05
884.212	3176.34
884.529	3164.82
884.846	3158.72
885.164	3143.35
885.481	3139.51
885.798	3120.75
886.115	3083.92
886.432	3118.94
886.75	3098.83
887.067	3084.82
887.383	3090.47
887.7	3072.39
888.017	3070.13
888.334	3101.32
888.651	3040.08
888.967	3082.11
889.284	3072.84
889.6	3080.75
889.917	3005.05
890.233	3018.16
890.55	3023.13
890.866	3046.4
891.182	3009.79
891.498	3046.63
891.815	2988.55
892.131	3001.66
892.447	2987.65
892.763	3010.7
893.079	2951.72
893.395	2939.51
893.71	2980.19
894.026	2942.9
894.342	2908.55
894.657	2925.95
894.973	2893.41
895.289	2910.81
895.604	2861.32
895.92	2884.83
896.235	2880.53
896.55	2867.42
896.865	2859.97
897.181	2849.35
897.496	2866.75
897.811	2843.7
898.126	2850.93
898.441	2825.39
898.756	2831.27
899.071	2811.38
899.386	2790.82
899.7	2759.86
900.015	2755.56
900.33	2806.64
900.644	2775
900.959	2775.9
901.273	2724.83
901.588	2761.21
901.902	2740.2
902.216	2742.23
902.531	2735.45
902.845	2722.8
903.159	2700.2
903.473	2680.99
903.787	2703.36
904.101	2634.66
904.415	2647.09
904.729	2663.59
905.042	2613.19
905.356	2658.39
905.67	2631.72
905.984	2652.97
906.297	2586.53
906.611	2618.84
906.924	2645.74
907.237	2562.35
907.551	2588.79
907.864	2574.1
908.177	2569.58
908.491	2576.58
908.804	2546.08
909.117	2535.91
909.43	2515.34
909.743	2490.71
910.056	2528.9
910.368	2525.96
910.681	2498.62
910.994	2497.26
911.307	2443.48
911.619	2479.19
911.932	2456.81
912.244	2387.89
912.557	2441.9
912.869	2414.1
913.181	2415.01
913.494	2409.81
913.806	2406.42
914.118	2397.61
914.43	2408
914.742	2366.87
915.054	2368.45
915.366	2354.44
915.678	2325.07
915.99	2372.75
916.302	2316.7
916.613	2318.51
916.925	2349.25
917.236	2316.7
917.548	2282.36
917.859	2315.12
918.171	2289.59
918.482	2267.67
918.794	2241.23
919.105	2256.37
919.416	2301.79
919.727	2273.77
920.038	2203.49
920.349	2241.45
920.66	2189.93
920.971	2240.32
921.282	2197.16
921.593	2192.87
921.903	2194.22
922.214	2211.4
922.525	2162.58
922.835	2141.34
923.146	2141.34
923.456	2118.74
923.767	2131.17
924.077	2143.83
924.387	2146.09
924.697	2117.84
925.008	2120.33
925.318	2095.69
925.628	2092.98
925.938	2084.85
926.248	2041.91
926.558	2080.55
926.867	2081
927.177	2057.73
927.487	2057.73
927.796	2045.98
928.106	2062.93
928.416	2050.5
928.725	2024.06
929.034	2018.86
929.344	2010.05
929.653	2000.1
929.962	1987.9
930.271	1966.21
930.581	1959.65
930.89	1993.1
931.199	1958.75
931.508	1979.09
931.817	1953.1
932.125	1936.15
932.434	1912.42
932.743	1937.05
933.051	1894.34
933.36	1880.56
933.669	1887.34
933.977	1890.28
934.286	1895.47
934.594	1876.04
934.902	1873.78
935.21	1865.42
935.519	1826.77
935.827	1876.04
936.135	1840.33
936.443	1870.84
936.751	1829.94
937.059	1838.3
937.367	1795.14
937.674	1824.97
937.982	1819.99
938.29	1805.76
938.597	1826.77
938.905	1778.19
939.213	1781.58
939.52	1811.41
939.827	1769.37
940.135	1755.82
940.442	1795.81
940.749	1759.21
941.056	1754.69
941.363	1746.1
941.67	1729.6
941.977	1729.6
942.284	1684.18
942.591	1715.82
942.898	1691.64
943.205	1718.3
943.511	1708.13
943.818	1683.5
944.125	1667.68
944.431	1700
944.738	1668.59
945.044	1708.81
945.35	1692.31
945.657	1692.54
945.963	1628.81
946.269	1654.8
946.575	1660
946.881	1616.84
947.187	1625.65
947.493	1636.5
947.799	1616.61
948.105	1635.82
948.41	1614.35
948.716	1609.83
949.022	1615.03
949.327	1575.93
949.633	1572.54
949.938	1570.51
950.244	1589.72
950.549	1566.67
950.854	1568.48
951.16	1562.15
951.465	1542.26
951.77	1523.73
952.075	1563.05
952.38	1548.59
952.685	1532.32
952.99	1500.68
953.294	1501.13
953.599	1516.27
953.904	1506.78
954.209	1519.66
954.513	1500.45
954.818	1497.74
955.122	1485.77
955.426	1503.84
955.731	1461.36
956.035	1459.55
956.339	1467.46
956.643	1457.97
956.948	1455.71
957.252	1453.68
957.556	1461.13
957.86	1438.76
958.163	1461.81
958.467	1408.93
958.771	1446.45
959.075	1415.71
959.378	1406.67
959.682	1433.79
959.985	1401.25
960.289	1408.25
960.592	1406.45
960.896	1390.85
961.199	1389.95
961.502	1382.27
961.805	1361.02
962.108	1365.32
962.411	1375.26
962.714	1338.43
963.017	1348.59
963.32	1355.37
963.623	1337.3
963.926	1365.77
964.228	1353.79
964.531	1334.13
964.833	1329.84
965.136	1330.97
965.438	1315.83
965.741	1320.8
966.043	1311.31
966.345	1296.39
966.648	1278.31
966.95	1294.36
967.252	1301.14
967.554	1270.63
967.856	1289.39
968.158	1272.21
968.46	1265.21
968.761	1283.06
969.063	1272.66
969.365	1253.91
969.666	1264.3
969.968	1253.46
970.269	1241.03
970.571	1248.94
970.872	1236.51
971.174	1221.37
971.475	1206.23
971.776	1214.81
972.077	1222.95
972.378	1228.6
972.679	1218.88
972.98	1191.54
973.281	1213.23
973.582	1203.06
973.883	1192.67
974.183	1179.79
974.484	1199.67
974.785	1173.46
975.085	1168.94
975.386	1166.23
975.686	1169.39
975.986	1166.23
976.287	1160.12
976.587	1162.38
976.887	1160.58
977.187	1152.22
977.487	1159.22
977.787	1136.17
978.087	1131.2
978.387	1112.44
978.687	1132.1
978.987	1121.26
979.286	1119.67
979.586	1135.72
979.885	1108.37
980.185	1106.11
980.484	1108.6
980.784	1109.73
981.083	1111.76
981.382	1083.74
981.682	1069.96
981.981	1066.34
982.28	1079.45
982.579	1075.38
982.878	1060.69
983.177	1066.57
983.475	1073.35
983.774	1082.39
984.073	1062.73
984.372	1061.82
984.67	1049.85
984.969	1047.13
985.267	1039.22
985.566	1038.77
985.864	1029.73
986.162	1016.17
986.461	1024.54
986.759	1055.49
987.057	1037.42
987.355	1031.54
987.653	1020.02
987.951	1027.92
988.249	1009.85
988.547	1006
988.844	1038.55
989.142	989.96
989.44	988.83
989.737	980.69
990.035	995.61
990.332	1013.91
990.63	985.21
990.927	969.4
991.224	991.32
991.521	973.46
991.819	969.62
992.116	956.74
992.413	990.64
992.71	944.76
993.006	961.71
993.303	975.04
993.6	936.63
993.897	944.54
994.193	932.79
994.49	945.22
994.787	920.81
995.083	946.12
995.379	945.44
995.676	904.54
995.972	900.47
996.268	922.62
996.565	923.29
996.861	907.02
997.157	879.68
997.453	909.96
997.749	918.55
998.044	911.77
998.34	890.75
998.636	893.92
998.932	888.72
999.227	872.9
999.523	881.94
999.818	886.23
1000.114	879.68
1000.409	909.96
1000.704	880.36
1001	865.67
1001.295	848.72
1001.59	839.23
1001.885	840.13
1002.18	867.03
1002.475	863.41
1002.77	827.03
1003.065	841.49
1003.359	846.01
1003.654	858.89
1003.949	819.34
1004.243	829.74
1004.538	843.52
1004.832	820.7
1005.127	842.85
1005.421	830.42
1005.715	814.82
1006.009	811.21
1006.304	813.47
1006.598	805.11
1006.892	798.78
1007.186	808.72
1007.48	807.37
1007.773	810.76
1008.067	791.1
1008.361	792.68
1008.655	768.27
1008.948	753.36
1009.242	761.27
1009.535	766.46
1009.829	771.89
1010.122	775.5
1010.415	744.09
1010.708	763.07
1011.001	749.97
1011.295	735.05
1011.588	762.62
1011.881	723.3
1012.173	746.8
1012.466	742.28
1012.759	714.49
1013.052	746.58
1013.344	735.73
1013.637	729.4
1013.93	729.63
1014.222	725.33
1014.514	725.56
1014.807	722.62
1015.099	724.66
1015.391	719.01
1015.683	711.78
1015.976	717.42
1016.268	693.92
1016.56	685.11
1016.851	704.54
1017.143	694.15
1017.435	684.21
1017.727	689.85
1018.018	668.61
1018.31	698.89
1018.602	695.73
1018.893	665.45
1019.185	666.13
1019.476	658.9
1019.767	674.26
1020.058	648.27
1020.35	645.79
1020.641	676.75
1020.932	664.32
1021.223	631.33
1021.514	645.34
1021.804	671.55
1022.095	649.18
1022.386	664.54
1022.677	648.95
1022.967	631.55
1023.258	625.9
1023.548	650.76
1023.839	607.15
1024.129	628.61
1024.419	629.52
1024.709	617.31
1025	614.38
1025.29	627.03
1025.58	614.6
1025.87	610.53
1026.16	615.96
1026.449	625.9
1026.739	589.97
1027.029	602.85
1027.319	599.69
1027.608	597.2
1027.898	586.58
1028.187	622.51
1028.477	606.92
1028.766	572.12
1029.055	577.32
1029.344	604.43
1029.634	570.31
1029.923	589.07
1030.212	573.25
1030.501	575.96
1030.79	565.11
1031.078	576.19
1031.367	569.86
1031.656	568.05
1031.945	571.44
1032.233	554.94
1032.522	562.63
1032.81	555.17
1033.099	576.64
1033.387	573.25
1033.675	538.9
1033.963	560.14
1034.251	564.66
1034.54	552.23
1034.828	543.64
1035.116	545.23
1035.403	542.97
1035.691	521.95
1035.979	550.2
1036.267	543.87
1036.554	539.35
1036.842	542.29
1037.129	531.67
1037.417	506.13
1037.704	523.31
1037.992	526.92
1038.279	530.08
1038.566	519.01
1038.853	519.01
1039.14	519.01
