Data from mousepad_grey_FLMS001491_00097.txt Node
Date: Wed Feb 08 14:30:13 GMT 2017
User: dcchb
Spectrometer: FLMS00149
Trigger mode: 0
Integration Time (sec): 2.000000E-2
Scans to average: 10
Electric dark correction enabled: true
Nonlinearity correction enabled: false
Boxcar width: 0
XAxis mode: Wavelengths
Number of Pixels in Spectrum: 2048
>>>>>Begin Spectral Data<<<<<
341.393	3.08
341.776	3.08
342.16	3.08
342.543	-48.22
342.927	-65.85
343.31	-72.63
343.693	-67.43
344.077	-71.27
344.46	-61.78
344.843	-46.19
345.226	-26.07
345.61	-39.63
345.993	-22.01
346.376	-12.74
346.759	28.39
347.142	31.78
347.525	38.11
347.908	70.87
348.291	72.68
348.674	74.49
349.057	103.42
349.44	116.97
349.823	137.99
350.206	154.71
350.588	181.61
350.971	193.58
351.354	215.28
351.737	213.02
352.119	212.57
352.502	243.98
352.884	266.12
353.267	264.32
353.65	300.92
354.032	323.97
354.414	292.56
354.797	292.11
355.179	289.4
355.562	314.03
355.944	311.09
356.326	315.39
356.709	285.78
357.091	303.41
357.473	337.53
357.855	323.07
358.238	344.54
358.62	307.93
359.002	309.96
359.384	312.22
359.766	317.2
360.148	351.32
360.53	323.07
360.912	336.4
361.294	312.9
361.676	317.42
362.057	329.4
362.439	306.8
362.821	298.44
363.203	301.15
363.584	320.13
363.966	305.67
364.348	291.88
364.729	305.67
365.111	285.78
365.493	298.66
365.874	309.51
366.256	305.67
366.637	306.35
367.019	307.93
367.4	293.24
367.781	276.74
368.163	285.78
368.544	304.31
368.925	286.46
369.306	317.87
369.688	290.08
370.069	297.99
370.45	292.56
370.831	297.53
371.212	299.12
371.593	291.21
371.974	290.76
372.355	271.55
372.736	295.73
373.117	303.18
373.498	300.02
373.879	300.92
374.26	303.41
374.641	276.07
375.021	306.35
375.402	289.4
375.783	318.32
376.163	319.68
376.544	295.5
376.925	310.19
377.305	298.44
377.686	321.26
378.066	302.96
378.447	322.84
378.827	310.42
379.208	315.16
379.588	313.35
379.968	299.12
380.349	319.91
380.729	312.22
381.109	321.26
381.489	329.62
381.87	344.31
382.25	341.38
382.63	323.3
383.01	319.45
383.39	332.56
383.77	332.56
384.15	326.46
384.53	315.16
384.91	326.91
385.29	316.29
385.67	340.25
386.049	328.49
386.429	313.13
386.809	329.4
387.189	333.01
387.568	341.15
387.948	331.21
388.328	345.22
388.707	341.38
389.087	358.1
389.466	336.18
389.846	342.28
390.225	337.53
390.605	318.78
390.984	335.27
391.363	339.34
391.743	340.47
392.122	353.13
392.501	355.39
392.881	346.8
393.26	378.89
393.639	357.65
394.018	361.71
394.397	363.07
394.776	350.19
395.155	371.88
395.534	345.22
395.913	358.32
396.292	373.69
396.671	359.68
397.05	375.72
397.429	374.82
397.808	397.19
398.186	375.95
398.565	379.34
398.944	379.79
399.323	381.15
399.701	371.88
400.08	378.21
400.458	380.7
400.837	368.04
401.215	398.55
401.594	394.93
401.972	402.62
402.351	371.43
402.729	390.87
403.107	406.91
403.486	396.97
403.864	380.24
404.242	395.84
404.62	406.68
404.999	424.76
405.377	397.87
405.755	414.14
406.133	422.5
406.511	419.11
406.889	397.64
407.267	405.55
407.645	427.25
408.023	409.17
408.401	423.63
408.779	457.3
409.156	447.14
409.534	438.77
409.912	457.08
410.29	476.06
410.667	447.36
411.045	457.76
411.422	444.42
411.8	471.09
412.178	443.52
412.555	448.94
412.933	447.59
413.31	459.34
413.687	474.71
414.065	462.95
414.442	483.07
414.819	468.6
415.197	502.73
415.574	489.17
415.951	488.04
416.328	510.86
416.705	495.72
417.082	493.24
417.46	480.35
417.837	523.07
418.214	518.55
418.591	505.21
418.967	507.02
419.344	513.57
419.721	532.78
420.098	509.96
420.475	532.1
420.852	533.23
421.228	512.44
421.605	516.51
421.982	545.89
422.358	530.07
422.735	549.73
423.111	535.72
423.488	540.92
423.864	566.91
424.241	555.38
424.617	569.39
424.994	571.43
425.37	568.26
425.746	566
426.123	595.83
426.499	597.41
426.875	606
427.251	574.14
427.627	594.25
428.003	620.46
428.379	599
428.756	605.55
429.132	632.22
429.507	613.46
429.883	609.39
430.259	615.94
430.635	629.5
431.011	637.41
431.387	647.81
431.763	654.81
432.138	643.06
432.514	680.8
432.89	688.26
433.265	675.6
433.641	682.61
434.016	667.24
434.392	682.38
434.767	683.06
435.143	702.04
435.518	696.85
435.894	720.35
436.269	733
436.644	740.69
437.02	742.49
437.395	745.66
437.77	727.58
438.145	735.04
438.52	748.82
438.895	742.27
439.271	767.8
439.646	768.48
440.021	790.4
440.395	751.31
440.77	771.42
441.145	794.47
441.52	805.77
441.895	793.57
442.27	786.56
442.645	822.04
443.019	825.2
443.394	822.49
443.769	801.7
444.143	830.85
444.518	841.25
444.892	849.61
445.267	820.23
445.641	865.88
446.016	843.73
446.39	834.02
446.764	867.69
447.139	872.89
447.513	891.87
447.887	857.97
448.262	844.41
448.636	882.38
449.01	909.95
449.384	888.48
449.758	909.04
450.132	886.67
450.506	895.48
450.88	903.39
451.254	916.5
451.628	927.57
452.002	952.66
452.376	970.96
452.75	951.98
453.123	965.31
453.497	966.44
453.871	964.64
454.244	987.46
454.618	980
454.992	1010.06
455.365	1015.26
455.739	1001.47
456.112	1036.95
456.486	1048.02
456.859	1027.23
457.232	1065.65
457.606	1063.62
457.979	1100.9
458.352	1081.69
458.725	1129.6
459.099	1091.19
459.472	1140.22
459.845	1136.61
460.218	1136.61
460.591	1146.33
460.964	1152.43
461.337	1183.61
461.71	1174.12
462.083	1207.57
462.456	1228.81
462.829	1231.07
463.201	1230.39
463.574	1226.78
463.947	1255.7
464.32	1286.89
464.692	1285.08
465.065	1279.43
465.438	1299.54
465.81	1340.22
466.183	1336.38
466.555	1357.39
466.928	1344.06
467.3	1359.65
467.672	1361.46
468.045	1419.31
468.417	1422.93
468.789	1409.37
469.161	1449.82
469.534	1459.31
469.906	1497.5
470.278	1481.91
470.65	1495.47
471.022	1535.69
471.394	1535.47
471.766	1544.96
472.138	1605.52
472.51	1616.14
472.882	1626.54
473.253	1643.04
473.625	1668.12
473.997	1696.14
474.369	1708.8
474.74	1724.62
475.112	1746.08
475.484	1786.76
475.855	1807.78
476.227	1804.84
476.598	1852.52
476.97	1896.36
477.341	1893.88
477.713	1933.2
478.084	1951.05
478.455	1972.74
478.827	2031.95
479.198	2052.52
479.569	2068.34
479.94	2128.45
480.311	2134.32
480.682	2169.58
481.053	2212.06
481.424	2242.57
481.795	2235.79
482.166	2313.07
482.537	2313.3
482.908	2341.55
483.279	2396.46
483.65	2410.47
484.021	2475.33
484.391	2488.44
484.762	2524.37
485.133	2509.23
485.503	2544.03
485.874	2609.34
486.244	2629.45
486.615	2704.25
486.985	2719.62
487.356	2738.15
487.726	2790.58
488.097	2796.45
488.467	2807.07
488.837	2883.91
489.207	2932.27
489.578	2931.59
489.948	2965.94
490.318	3007.52
490.688	3070.79
491.058	3052.49
491.428	3119.16
491.798	3147.86
492.168	3180.4
492.538	3208.64
492.908	3209.32
493.278	3292.03
493.648	3318.25
494.017	3325.48
494.387	3405.48
494.757	3375.42
495.126	3424.91
495.496	3421.07
495.866	3458.36
496.235	3499.48
496.605	3509.2
496.974	3522.31
497.344	3562.08
497.713	3567.05
498.082	3621.29
498.452	3643.89
498.821	3631.46
499.19	3698.12
499.559	3725.92
499.928	3710.78
500.298	3775.64
500.667	3814.96
501.036	3794.62
501.405	3818.12
501.774	3849.98
502.143	3848.85
502.512	3939.25
502.88	3894.28
503.249	3963.2
503.618	3934.95
503.987	3985.12
504.356	3998.45
504.724	4082.52
505.093	4056.08
505.462	4132.46
505.83	4076.19
506.199	4140.37
506.567	4216.3
506.936	4175.85
507.304	4215.85
507.672	4259.46
508.041	4274.83
508.409	4301.05
508.777	4307.15
509.145	4364.77
509.514	4429.18
509.882	4400.93
510.25	4413.81
510.618	4466.24
510.986	4442.74
511.354	4496.97
511.722	4564.99
512.09	4567.48
512.458	4591.88
512.826	4644.54
513.193	4661.94
513.561	4669.85
513.929	4734.71
514.297	4747.59
514.664	4766.57
515.032	4762.5
515.4	4829.62
515.767	4854.25
516.135	4868.94
516.502	4855.61
516.869	4926.57
517.237	4968.37
517.604	4984.87
517.972	4975.38
518.339	5063.06
518.706	5030.74
519.073	5102.83
519.44	5133.79
519.808	5215.37
520.175	5220.57
520.542	5261.7
520.909	5293.34
521.276	5281.13
521.643	5333.33
522.009	5407
522.376	5422.82
522.743	5502.6
523.11	5526.78
523.477	5545.31
523.843	5630.05
524.21	5591.86
524.577	5682.25
524.943	5693.32
525.31	5710.95
525.676	5797.73
526.043	5867.78
526.409	5830.95
526.776	5918.18
527.142	5935.58
527.508	5952.53
527.874	5971.06
528.241	6011.28
528.607	6029.59
528.973	6095.35
529.339	6120.88
529.705	6169.92
530.071	6230.94
530.437	6215.12
530.803	6278.85
531.169	6296.7
531.535	6347.32
531.901	6367.21
532.267	6389.35
532.632	6449.46
532.998	6481.55
533.364	6467.77
533.73	6500.31
534.095	6583.7
534.461	6587.54
534.826	6610.59
535.192	6642.45
535.557	6660.98
535.923	6710.7
536.288	6759.29
536.653	6733.07
537.019	6716.57
537.384	6783.69
537.749	6864.14
538.114	6853.97
538.479	6832.5
538.845	6927.64
539.21	6901.2
539.575	6993.4
539.94	7011.48
540.305	7029.79
540.67	7028.43
541.034	7087.64
541.399	7060.29
541.764	7201.76
542.129	7187.52
542.494	7145.94
542.858	7186.17
543.223	7200.18
543.587	7245.15
543.952	7326.5
544.316	7321.53
544.681	7348.65
545.045	7446.05
545.41	7447.86
545.774	7420.29
546.138	7518.36
546.503	7477.68
546.867	7518.14
547.231	7548.87
547.595	7583.9
547.959	7593.16
548.324	7641.07
548.688	7662.76
549.052	7750.9
549.416	7822.31
549.779	7774.85
550.143	7790.9
550.507	7832.7
550.871	7908.63
551.235	7872.7
551.599	8002.64
551.962	7940.72
552.326	8028.86
552.689	8033.6
553.053	7961.06
553.417	8032.92
553.78	8136.42
554.143	8145.24
554.507	8171.9
554.87	8205.12
555.234	8240.83
555.597	8295.29
555.96	8251.9
556.323	8308.85
556.686	8337.55
557.05	8413.25
557.413	8410.09
557.776	8415.06
558.139	8455.96
558.502	8564.21
558.865	8590.42
559.228	8646.92
559.59	8607.15
559.953	8615.28
560.316	8775.05
560.679	8730.76
561.041	8724.21
561.404	8829.97
561.767	8825.22
562.129	8891.21
562.492	8990.64
562.854	8932.11
563.217	9010.98
563.579	9018.44
563.941	9059.79
564.304	9111.77
564.666	9160.58
565.028	9162.61
565.39	9172.56
565.753	9217.53
566.115	9310.63
566.477	9358.31
566.839	9364.64
567.201	9478.31
567.563	9434.7
567.925	9493
568.287	9483.28
568.648	9542.04
569.01	9607.8
569.372	9622.94
569.734	9560.79
570.095	9698.87
570.457	9831.75
570.819	9763.95
571.18	9822.48
571.542	9695.71
571.903	9799.21
572.265	9863.16
572.626	9927.11
572.987	9878.3
573.349	9938.41
573.71	9997.84
574.071	10017.96
574.432	10063.83
574.794	10159.42
575.155	10171.4
575.516	10064.28
575.877	10205.3
576.238	10245.07
576.599	10218.63
576.96	10241.91
577.32	10238.29
577.681	10243.49
578.042	10383.6
578.403	10311.96
578.763	10296.37
579.124	10378.17
579.485	10368
579.845	10437.61
580.206	10379.76
580.566	10463.37
580.927	10445.74
581.287	10408
581.648	10489.36
582.008	10449.36
582.368	10436.03
582.728	10472.63
583.089	10518.73
583.449	10520.77
583.809	10511.05
584.169	10567.77
584.529	10568.45
584.889	10646.87
585.249	10533.42
585.609	10526.19
585.969	10642.12
586.329	10548.34
586.688	10502.69
587.048	10553.76
587.408	10592.18
587.768	10594.21
588.127	10556.7
588.487	10550.15
588.846	10639.64
589.206	10587.89
589.565	10598.73
589.925	10712.4
590.284	10636.47
590.643	10659.97
591.003	10662.46
591.362	10667.88
591.721	10666.75
592.08	10580.2
592.44	10663.82
592.799	10694.1
593.158	10731.38
593.517	10732.06
593.876	10665.17
594.235	10650.48
594.593	10653.65
594.952	10693.65
595.311	10709.24
595.67	10714.89
596.029	10771.84
596.387	10759.41
596.746	10734.77
597.104	10783.36
597.463	10697.71
597.822	10834.88
598.18	10735.23
598.538	10710.82
598.897	10773.19
599.255	10730.25
599.613	10890.02
599.972	10775.68
600.33	10830.82
600.688	10826.52
601.046	10830.59
601.404	10858.39
601.762	10879.18
602.12	10911.27
602.478	10883.47
602.836	10871.49
603.194	10883.24
603.552	10850.48
603.91	10840.31
604.268	10896.8
604.625	10861.1
604.983	10926.41
605.341	10863.58
605.698	10975.22
606.056	10955.33
606.413	10944.26
606.771	11011.83
607.128	10948.33
607.485	10887.09
607.843	10883.92
608.2	11041.21
608.557	11025.39
608.914	11069.68
609.272	11046.86
609.629	11007.76
609.986	11169.57
610.343	11046.18
610.7	11132.28
611.057	11127.31
611.414	11146.74
611.771	11089.79
612.127	11156.23
612.484	11226.96
612.841	11264.48
613.198	11132.05
613.554	11191.71
613.911	11199.62
614.267	11233.74
614.624	11201.88
614.98	11238.72
615.337	11316.45
615.693	11347.41
616.05	11262.22
616.406	11356.9
616.762	11274.2
617.118	11316
617.475	11312.61
617.831	11353.29
618.187	11328.66
618.543	11328.66
618.899	11447.52
619.255	11363.01
619.611	11434.19
619.967	11487.97
620.323	11430.8
620.678	11334.53
621.034	11396.9
621.39	11392.16
621.746	11371.59
622.101	11495.21
622.457	11428.99
622.812	11388.77
623.168	11458.6
623.523	11468.09
623.879	11454.98
624.234	11394.64
624.589	11431.03
624.945	11480.29
625.3	11548.09
625.655	11406.17
626.01	11442.78
626.365	11522.55
626.72	11483.68
627.075	11541.31
627.43	11487.75
627.785	11401.42
628.14	11438.26
628.495	11455.66
628.85	11397.81
629.205	11451.14
629.559	11510.57
629.914	11485.04
630.269	11479.16
630.623	11434.64
630.978	11488.43
631.332	11463.34
631.687	11450.69
632.041	11402.78
632.396	11537.24
632.75	11364.14
633.104	11386.96
633.459	11336.57
633.813	11453.17
634.167	11416.79
634.521	11410.91
634.875	11415.66
635.229	11351.48
635.583	11319.84
635.937	11282.33
636.291	11315.78
636.645	11348.32
636.999	11240.52
637.352	11326.85
637.706	11248.89
638.06	11327.98
638.413	11301.76
638.767	11241.88
639.121	11260.64
639.474	11205.27
639.828	11282.1
640.181	11236.46
640.534	11211.15
640.888	11171.6
641.241	11145.38
641.594	11214.08
641.947	11251.6
642.301	11181.77
642.654	11230.81
643.007	11245.95
643.36	11220.19
643.713	11161.2
644.066	11254.31
644.419	11179.28
644.771	11070.13
645.124	10926.86
645.477	10947.88
645.83	10888.89
646.182	10848.67
646.535	10865.84
646.888	10909.46
647.24	10756.02
647.593	10876.01
647.945	10836.92
648.298	10781.55
648.65	10795.79
649.002	10754.66
649.355	10807.99
649.707	10823.13
650.059	10948.1
650.411	10996.69
650.763	10948.55
651.115	11088.89
651.467	11095.22
651.819	11052.05
652.171	11070.58
652.523	11075.56
652.875	10995.11
653.227	10963.24
653.578	11055.9
653.93	11133.63
654.282	11022.22
654.633	11013.18
654.985	11033.3
655.337	11046.18
655.688	11039.4
656.039	10958.5
656.391	10892.96
656.742	10959.63
657.094	11015.9
657.445	11033.98
657.796	10997.14
658.147	10999.17
658.498	10950.36
658.849	11005.05
659.2	10981.32
659.551	10914.43
659.902	10979.29
660.253	10998.27
660.604	11032.39
660.955	10920.08
661.306	10947.65
661.656	10965.73
662.007	10972.06
662.358	10950.81
662.708	11001.21
663.059	10949.23
663.409	10896.8
663.76	11019.51
664.11	10939.29
664.461	11033.52
664.811	11050.92
665.161	10927.99
665.511	10933.41
665.862	11007.08
666.212	10973.19
666.562	11060.64
666.912	10938.16
667.262	10992.85
667.612	10969.12
667.962	10975.67
668.312	10833.08
668.662	11008.44
669.011	10965.95
669.361	10950.81
669.711	10938.38
670.06	10960.98
670.41	10990.59
670.76	10904.71
671.109	10957.14
671.459	10945.39
671.808	10891.38
672.157	10905.17
672.507	10900.19
672.856	10931.61
673.205	10908.78
673.554	10940.64
673.904	10826.75
674.253	10963.02
674.602	10908.78
674.951	10696.81
675.3	10676.02
675.649	10900.42
675.998	10809.35
676.346	10891.38
676.695	10897.93
677.044	10749.24
677.393	10794.21
677.741	10829.91
678.09	10748.11
678.438	10766.41
678.787	10794.43
679.135	10784.26
679.484	10722.57
679.832	10745.4
680.181	10738.16
680.529	10732.74
680.877	10689.8
681.225	10702.68
681.573	10754.43
681.922	10675.79
682.27	10643.48
682.618	10696.81
682.966	10584.04
683.314	10661.56
683.661	10600.77
684.009	10549.02
684.357	10503.37
684.705	10586.76
685.053	10531.62
685.4	10515.12
685.748	10525.06
686.095	10444.61
686.443	10448.23
686.79	10336.82
687.138	10409.59
687.485	10379.98
687.832	10383.82
688.18	10414.33
688.527	10252.3
688.874	10277.84
689.221	10324.16
689.568	10186.77
689.915	10238.74
690.262	10240.78
690.609	10198.07
690.956	10145.19
691.303	10108.8
691.65	10104.73
691.997	10018.18
692.344	10007.34
692.69	10009.37
693.037	10029.48
693.383	9968.69
693.73	9908.58
694.077	9935.02
694.423	9916.72
694.769	9874.23
695.116	9890.73
695.462	9823.39
695.808	9784.74
696.155	9857.51
696.501	9778.42
696.847	9802.82
697.193	9676.95
697.539	9727.8
697.885	9635.59
698.231	9582.94
698.577	9594.24
698.923	9585.2
699.269	9512.21
699.614	9469.5
699.96	9464.3
700.306	9497.52
700.651	9420.68
700.997	9396.05
701.342	9365.09
701.688	9297.3
702.033	9285.09
702.379	9311.76
702.724	9305.89
703.069	9314.25
703.415	9136.85
703.76	9175.95
704.105	9165.1
704.45	9168.94
704.795	9125.33
705.14	9069.51
705.485	9085.33
705.83	8995.38
706.175	9026.34
706.52	8966.69
706.865	8996.51
707.209	8988.61
707.554	8931.43
707.899	8963.07
708.243	8909.51
708.588	8930.3
708.932	8811.89
709.277	8819.12
709.621	8850.08
709.966	8756.3
710.31	8876.52
710.654	8695.51
710.998	8747.26
711.342	8782.74
711.687	8791.55
712.031	8720.59
712.375	8688.5
712.719	8613.25
713.063	8622.06
713.407	8646.24
713.75	8619.58
714.094	8610.08
714.438	8614.15
714.782	8645.79
715.125	8562.85
715.469	8515.4
715.812	8549.29
716.156	8532.35
716.499	8549.97
716.843	8534.83
717.186	8464.55
717.53	8499.58
717.873	8501.39
718.216	8490.99
718.559	8426.36
718.902	8425.23
719.246	8451.44
719.589	8409.19
719.932	8409.86
720.275	8387.27
720.617	8396.98
720.96	8347.94
721.303	8393.82
721.646	8415.29
721.989	8342.75
722.331	8389.75
722.674	8291
723.016	8329.87
723.359	8406.25
723.701	8323.99
724.044	8241.28
724.386	8295.74
724.729	8271.34
725.071	8253.03
725.413	8303.43
725.755	8307.27
726.097	8261.39
726.439	8239.92
726.782	8196.99
727.124	8176.88
727.465	8180.94
727.807	8192.69
728.149	8206.71
728.491	8195.41
728.833	8239.92
729.175	8166.71
729.516	8206.93
729.858	8157.89
730.199	8171.45
730.541	8178.01
730.882	8141.85
731.224	8191.34
731.565	8185.46
731.906	8158.57
732.248	8239.92
732.589	8150.66
732.93	8067.05
733.271	8126.93
733.612	8156.76
733.953	8121.96
734.294	8095.97
734.635	8100.95
734.976	8105.69
735.317	8107.95
735.658	8099.14
735.999	8128.52
736.339	8109.76
736.68	8149.53
737.021	8115.18
737.361	8038.8
737.702	8117.89
738.042	8094.17
738.383	8035.18
738.723	8055.75
739.063	8049.65
739.404	8095.52
739.744	8047.84
740.084	8022.3
740.424	8055.07
740.764	8058.46
741.104	8062.75
741.444	7970.1
741.784	7991.8
742.124	8016.2
742.464	7997.9
742.804	7982.76
743.143	8010.55
743.483	8027.95
743.823	7986.15
744.162	7935.3
744.502	8033.38
744.841	7940.5
745.181	8059.82
745.52	7998.57
745.86	8015.07
746.199	7905.92
746.538	7940.27
746.877	7957.45
747.216	8036.54
747.556	7928.52
747.895	8042.42
748.234	7955.19
748.573	7980.04
748.911	7950.44
749.25	7909.09
749.589	7866.83
749.928	7911.8
750.267	7939.59
750.605	7933.94
750.944	7874.74
751.283	7831.8
751.621	7905.02
751.96	7883.55
752.298	7851.01
752.636	7877.9
752.975	7823.89
753.313	7827.96
753.651	7796.09
753.989	7813.04
754.327	7803.78
754.666	7727.62
755.004	7754.29
755.342	7783.21
755.679	7791.8
756.017	7755.19
756.355	7774.4
756.693	7670.22
757.031	7660.96
757.368	7701.18
757.706	7634.29
758.044	7632.03
758.381	7632.26
758.719	7598.59
759.056	7601.52
759.394	7619.83
759.731	7484.69
760.068	7571.69
760.405	7534.63
760.743	7467.74
761.08	7521.53
761.417	7476.78
761.754	7485.14
762.091	7421.42
762.428	7471.81
762.765	7383.9
763.102	7437.01
763.438	7394.98
763.775	7332.83
764.112	7346.61
764.449	7284.92
764.785	7320.85
765.122	7226.62
765.458	7197.47
765.795	7242.44
766.131	7199.73
766.467	7183.68
766.804	7177.35
767.14	7118.37
767.476	7135.55
767.812	7143.46
768.148	7135.77
768.485	7112.5
768.821	7034.76
769.157	7040.86
769.492	6986.62
769.828	7011.71
770.164	6963.35
770.5	6928.32
770.836	6951.6
771.171	6867.53
771.507	6827.31
771.842	6852.84
772.178	6824.37
772.513	6807.65
772.849	6807.19
773.184	6763.81
773.519	6760.19
773.855	6707.76
774.19	6711.6
774.525	6649.68
774.86	6688.78
775.195	6650.14
775.53	6656.69
775.865	6605.39
776.2	6523.36
776.535	6565.17
776.87	6509.8
777.205	6455.34
777.539	6493.98
777.874	6478.84
778.209	6416.02
778.543	6410.14
778.878	6458.28
779.212	6358.39
779.547	6338.96
779.881	6346.64
780.215	6292.63
780.55	6357.71
780.884	6269.13
781.218	6271.39
781.552	6246.3
781.886	6259.86
782.22	6208.11
782.554	6170.6
782.888	6117.49
783.222	6078.63
783.556	6068.68
783.889	6040.66
784.223	6070.49
784.557	6039.3
784.89	6066.42
785.224	6027.55
785.557	5981.23
785.891	5947.56
786.224	5973.77
786.558	5929.02
786.891	5937.61
787.224	5840.21
787.557	5892.87
787.891	5822.81
788.224	5838.18
788.557	5828.46
788.89	5806.09
789.223	5827.33
789.556	5765.19
789.888	5755.47
790.221	5747.56
790.554	5684.51
790.887	5687.22
791.219	5657.17
791.552	5678.86
791.884	5632.31
792.217	5645.87
792.549	5623.72
792.882	5528.13
793.214	5588.47
793.546	5507.57
793.879	5548.92
794.211	5478.19
794.543	5498.75
794.875	5466.44
795.207	5456.95
795.539	5475.7
795.871	5486.1
796.203	5403.16
796.535	5416.72
796.867	5447.46
797.198	5341.7
797.53	5364.52
797.862	5331.07
798.193	5361.58
798.525	5351.64
798.856	5311.64
799.188	5298.08
799.519	5283.39
799.85	5212.89
800.182	5262.83
800.513	5245.88
800.844	5158.2
801.175	5216.5
801.506	5202.04
801.837	5169.27
802.168	5145.77
802.499	5158.2
802.83	5096.73
803.161	5094.24
803.491	5088.6
803.822	5068.48
804.153	5102.38
804.483	5035.72
804.814	5044.08
805.145	5047.24
805.475	5027.13
805.805	4940.58
806.136	4967.92
806.466	5023.74
806.796	4967.02
807.126	4973.57
807.457	4918.66
807.787	4891.09
808.117	4908.26
808.447	4922.95
808.777	4925.44
809.107	4873.23
809.436	4867.81
809.766	4860.35
810.096	4829.84
810.426	4842.73
810.755	4845.44
811.085	4860.58
811.414	4792.56
811.744	4761.82
812.073	4760.47
812.403	4776.74
812.732	4731.09
813.061	4734.71
813.39	4758.43
813.719	4715.95
814.049	4752.11
814.378	4678.44
814.707	4712.33
815.036	4694.03
815.365	4649.06
815.693	4642.73
816.022	4669.17
816.351	4656.29
816.68	4619.91
817.008	4644.76
817.337	4543.07
817.665	4578.55
817.994	4560.7
818.322	4643.41
818.651	4541.26
818.979	4566.12
819.307	4542.85
819.636	4516.86
819.964	4497.88
820.292	4521.83
820.62	4492.23
820.948	4498.1
821.276	4509.4
821.604	4481.61
821.932	4514.6
822.259	4493.13
822.587	4496.97
822.915	4482.96
823.243	4482.51
823.57	4491.1
823.898	4479.12
824.225	4469.4
824.553	4488.61
824.88	4519.34
825.207	4506.92
825.535	4459.01
825.862	4484.54
826.189	4491.1
826.516	4535.62
826.843	4535.39
827.17	4461.72
827.497	4517.99
827.824	4475.5
828.151	4486.8
828.478	4470.08
828.805	4518.44
829.131	4447.03
829.458	4453.58
829.785	4478.44
830.111	4490.19
830.438	4528.84
830.764	4472.11
831.09	4434.83
831.417	4458.1
831.743	4455.62
832.069	4487.93
832.395	4443.64
832.722	4470.98
833.048	4482.06
833.374	4496.97
833.7	4469.18
834.026	4462.85
834.351	4461.72
834.677	4449.97
835.003	4495.39
835.329	4435.73
835.654	4439.57
835.98	4394.83
836.306	4425.11
836.631	4406.35
836.956	4427.6
837.282	4388.73
837.607	4391.89
837.932	4416.07
838.258	4363.42
838.583	4394.6
838.908	4359.35
839.233	4368.84
839.558	4322.06
839.883	4316.19
840.208	4303.08
840.533	4339.69
840.858	4290.88
841.182	4304.21
841.507	4307.6
841.832	4322.74
842.156	4258.33
842.481	4300.59
842.805	4285.45
843.13	4234.61
843.454	4277.99
843.778	4269.86
844.103	4253.59
844.427	4233.7
844.751	4220.37
845.075	4219.24
845.399	4195.06
845.723	4143.08
846.047	4212.91
846.371	4148.05
846.695	4117.55
847.019	4099.47
847.343	4112.58
847.666	4121.84
847.99	4083.88
848.313	4042.07
848.637	4045.01
848.96	4048.85
849.284	4014.95
849.607	4024.89
849.931	3988.74
850.254	3961.17
850.577	3982.64
850.9	3937.21
851.223	3971.34
851.546	3960.94
851.869	3901.96
852.192	3894.95
852.515	3864.45
852.838	3879.14
853.161	3869.64
853.483	3846.14
853.806	3848.18
854.129	3796.88
854.451	3802.53
854.774	3823.77
855.096	3807.05
855.419	3746.71
855.741	3775.18
856.063	3756.43
856.385	3753.94
856.708	3699.93
857.03	3718.24
857.352	3742.64
857.674	3702.19
857.996	3725.92
858.318	3689.99
858.64	3720.5
858.961	3680.27
859.283	3668.52
859.605	3639.82
859.926	3646.15
860.248	3653.6
860.57	3643.44
860.891	3630.78
861.212	3636.43
861.534	3619.48
861.855	3629.2
862.176	3607.28
862.498	3602.31
862.819	3579.71
863.14	3581.74
863.461	3571.8
863.782	3561.18
864.103	3570.67
864.424	3509.43
864.745	3575.87
865.065	3540.16
865.386	3569.76
865.707	3522.76
866.027	3557.34
866.348	3559.37
866.668	3522.76
866.989	3481.63
867.309	3500.39
867.63	3504.91
867.95	3520.73
868.27	3461.52
868.59	3442.54
868.91	3459.49
869.23	3468.07
869.55	3429.43
869.87	3462.65
870.19	3431.01
870.51	3466.26
870.83	3441.18
871.15	3440.5
871.469	3434.85
871.789	3460.84
872.109	3393.95
872.428	3408.41
872.748	3427.85
873.067	3396.44
873.386	3401.41
873.706	3436.21
874.025	3409.32
874.344	3368.19
874.663	3381.3
874.982	3391.69
875.301	3363.89
875.62	3397.79
875.939	3338.36
876.258	3379.94
876.577	3363.44
876.896	3355.76
877.214	3365.25
877.533	3368.64
877.852	3326.16
878.17	3338.58
878.489	3318.02
878.807	3324.8
879.125	3336.78
879.444	3311.24
879.762	3320.51
880.08	3363.22
880.398	3312.6
880.716	3293.61
881.034	3332.03
881.352	3317.12
881.67	3267.85
881.988	3297
882.306	3258.81
882.624	3247.06
882.941	3273.05
883.259	3255.65
883.577	3254.07
883.894	3247.06
884.212	3211.81
884.529	3259.72
884.846	3226.27
885.164	3219.27
885.481	3183.11
885.798	3222.88
886.115	3147.86
886.432	3174.52
886.75	3135.43
887.067	3129.55
887.383	3176.78
887.7	3157.12
888.017	3144.24
888.334	3155.54
888.651	3153.28
888.967	3112.83
889.284	3114.41
889.6	3089.55
889.917	3090.91
890.233	3092.26
890.55	3072.15
890.866	3098.36
891.182	3121.64
891.498	3078.48
891.815	3046.16
892.131	3040.97
892.447	3029.67
892.763	3006.16
893.079	3047.07
893.395	2990.12
893.71	3031.93
894.026	3000.29
894.342	3028.08
894.657	3006.39
894.973	2980.4
895.289	2976.56
895.604	2961.87
895.92	2969.55
896.235	2933.62
896.55	2959.39
896.865	2946.5
897.181	2931.82
897.496	2900.86
897.811	2903.57
898.126	2894.75
898.441	2825.15
898.756	2877.81
899.071	2834.87
899.386	2850.91
899.7	2819.5
900.015	2813.63
900.33	2793.74
900.644	2833.29
900.959	2809.11
901.273	2823.34
901.588	2827.19
901.902	2748.77
902.216	2778.15
902.531	2758.94
902.845	2716.68
903.159	2781.76
903.473	2737.24
903.787	2763.68
904.101	2731.59
904.415	2733.63
904.729	2716.23
905.042	2680.97
905.356	2666.74
905.67	2677.36
905.984	2698.38
906.297	2634.42
906.611	2629
906.924	2617.25
907.237	2643.69
907.551	2608.43
907.864	2603.24
908.177	2577.7
908.491	2632.39
908.804	2609.34
909.117	2576.12
909.43	2605.5
909.743	2597.81
910.056	2592.84
910.368	2580.64
910.681	2512.39
910.994	2534.09
911.307	2529.11
911.619	2486.63
911.932	2518.27
912.244	2473.52
912.557	2484.37
912.869	2474.65
913.181	2437.14
913.494	2440.98
913.806	2448.44
914.118	2471.04
914.43	2411.38
914.742	2417.93
915.054	2422.45
915.366	2385.39
915.678	2389.68
915.99	2389.23
916.302	2392.85
916.613	2358.95
916.925	2364.15
917.236	2353.75
917.548	2330.25
917.859	2364.6
918.171	2317.14
918.482	2292.28
918.794	2284.15
919.105	2343.36
919.416	2284.15
919.727	2314.66
920.038	2284.37
920.349	2305.39
920.66	2295.9
920.971	2248.9
921.282	2260.42
921.593	2219.74
921.903	2222.91
922.214	2275.79
922.525	2231.04
922.835	2221.55
923.146	2188.56
923.456	2172.97
923.767	2158.28
924.077	2171.38
924.387	2154.21
924.697	2172.51
925.008	2161.21
925.318	2142.68
925.628	2132.29
925.938	2169.35
926.248	2117.37
926.558	2102.68
926.867	2081.89
927.177	2101.55
927.487	2074.66
927.796	2058.84
928.106	2073.31
928.416	2077.37
928.725	2057.94
929.034	2022.46
929.344	2034.66
929.653	2099.75
929.962	2012.52
930.271	2026.75
930.581	2027.43
930.89	2020.65
931.199	1992.41
931.508	1978.39
931.817	2000.09
932.125	1999.64
932.434	1977.72
932.743	1956.93
933.051	1966.42
933.36	1927.77
933.669	1920.99
933.977	1932.97
934.286	1931.62
934.594	1920.77
934.902	1925.06
935.21	1914.44
935.519	1912.18
935.827	1929.58
936.135	1886.19
936.443	1854.1
936.751	1879.64
937.059	1855.46
937.367	1844.84
937.674	1854.33
937.982	1817.27
938.29	1815.69
938.597	1849.13
938.905	1847.1
939.213	1813.88
939.52	1817.04
939.827	1808.91
940.135	1784.05
940.442	1773.65
940.749	1812.75
941.056	1796.25
941.363	1753.77
941.67	1782.69
941.977	1720.1
942.284	1760.77
942.591	1762.58
942.898	1719.87
943.205	1743.82
943.511	1719.42
943.818	1735.01
944.125	1720.32
944.431	1728.68
944.738	1723.03
945.044	1690.49
945.35	1705.86
945.657	1681.68
945.963	1687.1
946.269	1687.55
946.575	1665.63
946.881	1654.56
947.187	1675.8
947.493	1649.82
947.799	1667.67
948.105	1682.13
948.41	1643.49
948.716	1660.21
949.022	1632.19
949.327	1611.85
949.633	1594.68
949.938	1605.52
950.244	1579.31
950.549	1599.65
950.854	1575.92
951.16	1587.44
951.465	1582.02
951.77	1559.2
952.075	1552.19
952.38	1572.98
952.685	1572.53
952.99	1569.37
953.294	1540.44
953.599	1527.56
953.904	1509.48
954.209	1546.99
954.513	1540.21
954.818	1529.37
955.122	1480.1
955.426	1507.9
955.731	1505.19
956.035	1503.6
956.339	1499.99
956.643	1464.74
956.948	1497.28
957.252	1466.54
957.556	1454.57
957.86	1449.37
958.163	1468.8
958.467	1471.97
958.771	1430.39
959.075	1452.98
959.378	1440.56
959.682	1447.11
959.985	1443.04
960.289	1447.33
960.592	1403.95
960.896	1408.01
961.199	1406.43
961.502	1419.99
961.805	1400.1
962.108	1397.62
962.411	1410.73
962.714	1375.7
963.017	1384.51
963.32	1394
963.623	1346.77
963.926	1351.29
964.228	1375.47
964.531	1360.33
964.833	1350.39
965.136	1370.05
965.438	1349.03
965.741	1355.81
966.043	1333.89
966.345	1323.72
966.648	1324.63
966.95	1303.38
967.252	1301.35
967.554	1331.18
967.856	1300.9
968.158	1327.11
968.46	1314.91
968.761	1271.52
969.063	1261.13
969.365	1285.31
969.666	1302.48
969.968	1255.48
970.269	1248.7
970.571	1280.56
970.872	1252.76
971.174	1260.9
971.475	1236.04
971.776	1245.08
972.077	1245.08
972.378	1244.18
972.679	1209.83
972.98	1241.46
973.281	1246.89
973.582	1227.68
973.883	1224.06
974.183	1217.74
974.484	1242.14
974.785	1202.6
975.085	1214.35
975.386	1198.53
975.686	1200.34
975.986	1199.21
976.287	1192.43
976.587	1191.07
976.887	1197.62
977.187	1180.68
977.487	1182.71
977.787	1172.31
978.087	1140.9
978.387	1143.39
978.687	1134.35
978.987	1133.44
979.286	1127.57
979.586	1136.61
979.885	1144.74
980.185	1138.19
980.484	1139.55
980.784	1121.92
981.083	1105.42
981.382	1140.45
981.682	1108.81
981.981	1123.73
982.28	1114.91
982.579	1087.12
982.878	1075.82
983.177	1092.54
983.475	1105.2
983.774	1104.07
984.073	1078.53
984.372	1071.07
984.67	1080.11
984.969	1055.25
985.267	1055.71
985.566	1085.31
985.864	1057.97
986.162	1061.58
986.461	1020
986.759	1045.09
987.057	1058.19
987.355	1031.98
987.653	1032.88
987.951	1021.36
988.249	1014.58
988.547	1051.86
988.844	1029.72
989.142	1032.2
989.44	1027.68
989.737	1021.58
990.035	999.21
990.332	1016.61
990.63	1014.13
990.927	1011.64
991.224	1004.18
991.521	986.78
991.819	974.35
992.116	987.69
992.413	978.42
992.71	989.27
993.006	965.99
993.303	964.64
993.6	956.5
993.897	965.54
994.193	940.91
994.49	961.47
994.787	950.62
995.083	948.59
995.379	955.6
995.676	924.18
995.972	941.59
996.268	936.84
996.565	949.95
996.861	923.96
997.157	925.77
997.453	933.9
997.749	910.85
998.044	913.11
998.34	921.25
998.636	903.62
998.932	917.63
999.227	883.51
999.523	887.58
999.818	883.28
1000.114	884.64
1000.409	864.53
1000.704	890.97
1001	902.04
1001.295	875.37
1001.59	887.58
1001.885	893
1002.18	854.81
1002.475	850.29
1002.77	853.45
1003.065	848.71
1003.359	859.1
1003.654	858.88
1003.949	863.85
1004.243	849.16
1004.538	833.34
1004.832	846.9
1005.127	839.22
1005.421	813.91
1005.715	842.15
1006.009	815.04
1006.304	817.07
1006.598	809.61
1006.892	819.78
1007.186	798.99
1007.48	829.05
1007.773	798.54
1008.067	800.12
1008.361	784.08
1008.655	801.48
1008.948	785.66
1009.242	787.92
1009.535	795.6
1009.829	786.11
1010.122	785.43
1010.415	779.78
1010.708	763.74
1011.001	773.45
1011.295	758.54
1011.588	763.74
1011.881	769.61
1012.173	743.62
1012.466	770.29
1012.759	745.66
1013.052	745.66
1013.344	744.98
1013.637	747.47
1013.93	714.92
1014.222	738.43
1014.514	716.96
1014.807	727.81
1015.099	736.39
1015.391	716.73
1015.683	722.83
1015.976	688.71
1016.268	702.72
1016.56	712.44
1016.851	703.63
1017.143	682.61
1017.435	689.39
1017.727	699.11
1018.018	697.75
1018.31	707.47
1018.602	733.91
1018.893	697.07
1019.185	687.35
1019.476	683.97
1019.767	680.58
1020.058	671.99
1020.35	674.25
1020.641	674.02
1020.932	648.26
1021.223	647.81
1021.514	647.81
1021.804	646
1022.095	653.46
1022.386	659.11
1022.677	624.08
1022.967	655.72
1023.258	631.76
1023.548	624.31
1023.839	631.31
1024.129	640.8
1024.419	640.58
1024.709	629.5
1025	623.18
1025.29	607.13
1025.58	634.25
1025.87	618.88
1026.16	637.86
1026.449	613.23
1026.739	593.12
1027.029	616.17
1027.319	606.23
1027.608	591.76
1027.898	594.7
1028.187	606
1028.477	584.08
1028.766	608.26
1029.055	599.45
1029.344	582.05
1029.634	567.81
1029.923	584.08
1030.212	569.39
1030.501	576.62
1030.79	562.61
1031.078	577.53
1031.367	591.54
1031.656	543.63
1031.945	557.87
1032.233	566
1032.522	561.26
1032.81	580.46
1033.099	548.15
1033.387	546.79
1033.675	556.06
1033.963	568.49
1034.251	545.21
1034.54	536.17
1034.828	550.41
1035.116	544.08
1035.403	530.75
1035.691	562.84
1035.979	544.31
1036.267	527.81
1036.554	536.4
1036.842	533.91
1037.129	513.57
1037.417	526.91
1037.704	533.69
1037.992	525.55
1038.279	523.97
1038.566	528.04
1038.853	528.04
1039.14	528.04
