Data from mousepad_grey_FLMS001491_00098.txt Node
Date: Wed Feb 08 14:30:13 GMT 2017
User: dcchb
Spectrometer: FLMS00149
Trigger mode: 0
Integration Time (sec): 2.000000E-2
Scans to average: 10
Electric dark correction enabled: true
Nonlinearity correction enabled: false
Boxcar width: 0
XAxis mode: Wavelengths
Number of Pixels in Spectrum: 2048
>>>>>Begin Spectral Data<<<<<
341.393	-13.42
341.776	-13.42
342.16	-13.42
342.543	-57.26
342.927	-60.87
343.31	-72.85
343.693	-64.26
344.077	-61.78
344.46	-59.97
344.843	-45.28
345.226	-33.08
345.61	-26.3
345.993	-29.46
346.376	5.79
346.759	-1.44
347.142	31.1
347.525	34.26
347.908	67.48
348.291	89.63
348.674	85.11
349.057	81.04
349.44	124.88
349.823	153.58
350.206	192.45
350.588	194.71
350.971	183.41
351.354	220.47
351.737	213.24
352.119	235.16
352.502	252.11
352.884	251.43
353.267	260.7
353.65	275.39
354.032	279.46
354.414	301.38
354.797	300.92
355.179	301.83
355.562	322.17
355.944	304.99
356.326	335.95
356.709	321.04
357.091	326.46
357.473	328.49
357.855	336.63
358.238	332.79
358.62	313.81
359.002	327.82
359.384	321.26
359.766	322.17
360.148	330.75
360.53	344.09
360.912	317.2
361.294	313.81
361.676	319.68
362.057	296.63
362.439	311.32
362.821	319
363.203	315.16
363.584	311.09
363.966	300.92
364.348	318.55
364.729	307.03
365.111	279.91
365.493	314.71
365.874	290.76
366.256	303.41
366.637	306.8
367.019	314.71
367.4	297.99
367.781	314.71
368.163	312
368.544	308.83
368.925	300.7
369.306	306.35
369.688	297.53
370.069	306.8
370.45	289.4
370.831	296.63
371.212	290.76
371.593	304.09
371.974	295.73
372.355	291.88
372.736	273.58
373.117	309.96
373.498	297.08
373.879	299.79
374.26	295.95
374.641	314.48
375.021	303.41
375.402	307.7
375.783	309.96
376.163	335.05
376.544	316.29
376.925	314.94
377.305	312.22
377.686	319.68
378.066	323.97
378.447	286.24
378.827	340.02
379.208	323.07
379.588	333.24
379.968	319.68
380.349	314.03
380.729	328.27
381.109	333.69
381.489	306.12
381.87	320.58
382.25	315.39
382.63	296.4
383.01	327.82
383.39	333.92
383.77	324.88
384.15	322.17
384.53	327.14
384.91	319.91
385.29	338.44
385.67	343.18
386.049	335.05
386.429	346.57
386.809	335.5
387.189	347.02
387.568	340.7
387.948	323.97
388.328	337.99
388.707	340.25
389.087	342.51
389.466	363.3
389.846	350.41
390.225	338.44
390.605	350.41
390.984	331.43
391.363	348.83
391.743	353.8
392.122	364.65
392.501	368.04
392.881	361.49
393.26	351.09
393.639	365.1
394.018	348.15
394.397	340.92
394.776	375.5
395.155	352.9
395.534	366.23
395.913	371.43
396.292	361.71
396.671	378.66
397.05	383.18
397.429	380.02
397.808	389.96
398.186	376.63
398.565	383.18
398.944	373.01
399.323	387.7
399.701	404.42
400.08	394.26
400.458	387.02
400.837	393.35
401.215	369.17
401.594	379.11
401.972	389.28
402.351	421.83
402.729	394.26
403.107	400.81
403.486	396.51
403.864	398.55
404.242	410.75
404.62	399.68
404.999	402.39
405.377	438.32
405.755	415.5
406.133	421.15
406.511	408.72
406.889	423.41
407.267	430.41
407.645	423.18
408.023	396.74
408.401	437.42
408.779	437.19
409.156	439.45
409.534	432.22
409.912	439.9
410.29	431.54
410.667	454.82
411.045	439
411.422	485.55
411.8	464.99
412.178	469.73
412.555	463.18
412.933	489.39
413.31	459.79
413.687	498.43
414.065	472.67
414.442	472.9
414.819	491.88
415.197	498.21
415.574	480.58
415.951	511.54
416.328	482.61
416.705	504.53
417.082	502.95
417.46	506.34
417.837	512.67
418.214	522.39
418.591	500.47
418.967	513.35
419.344	504.76
419.721	533.46
420.098	533.46
420.475	543.18
420.852	532.56
421.228	532.78
421.605	530.97
421.982	535.49
422.358	574.36
422.735	564.87
423.111	530.3
423.488	565.1
423.864	544.99
424.241	565.1
424.617	588.6
424.994	556.28
425.37	583.4
425.746	576.85
426.123	577.53
426.499	563.52
426.875	584.76
427.251	568.26
427.627	610.97
428.003	605.1
428.379	628.83
428.756	623.63
429.132	647.13
429.507	617.53
429.883	629.5
430.259	630.63
430.635	639.45
431.011	630.41
431.387	657.75
431.763	654.59
432.138	681.03
432.514	671.99
432.89	667.02
433.265	674.25
433.641	674.93
434.016	692.78
434.392	664.3
434.767	712.21
435.143	711.08
435.518	718.77
435.894	712.21
436.269	729.84
436.644	721.25
437.02	737.97
437.395	744.75
437.77	741.14
438.145	772.32
438.52	755.38
438.895	757.18
439.271	769.16
439.646	786.34
440.021	810.06
440.395	795.83
440.77	776.62
441.145	790.18
441.52	797.18
441.895	839.89
442.27	822.04
442.645	806.67
443.019	805.09
443.394	818.2
443.769	810.06
444.143	828.37
444.518	830.85
444.892	854.81
445.267	856.84
445.641	851.42
446.016	861.81
446.39	870.85
446.764	864.3
447.139	880.12
447.513	877.18
447.887	871.53
448.262	897.07
448.636	872.21
449.01	895.48
449.384	907.01
449.758	881.25
450.132	900.68
450.506	922.15
450.88	899.78
451.254	908.82
451.628	927.57
452.002	933.9
452.376	943.85
452.75	958.53
453.123	956.27
453.497	987.01
453.871	983.17
454.244	1001.24
454.618	996.05
454.992	1000.79
455.365	1005.76
455.739	1034.92
456.112	1039.44
456.486	1039.21
456.859	1043.05
457.232	1044.41
457.606	1053.9
457.979	1100
458.352	1088.93
458.725	1122.82
459.099	1131.18
459.472	1140.22
459.845	1150.17
460.218	1159.43
460.591	1143.16
460.964	1158.98
461.337	1200.56
461.71	1179.32
462.083	1198.75
462.456	1224.06
462.829	1222.93
463.201	1243.27
463.574	1281.24
463.947	1259.09
464.32	1268.36
464.692	1299.32
465.065	1279.88
465.438	1310.16
465.81	1316.72
466.183	1353.55
466.555	1355.13
466.928	1365.53
467.3	1358.98
467.672	1401.23
468.045	1411.63
468.417	1433.78
468.789	1451.4
469.161	1457.28
469.534	1447.11
469.906	1490.05
470.278	1509.93
470.65	1542.47
471.022	1561.68
471.394	1582.47
471.766	1570.72
472.138	1609.82
472.51	1614.11
472.882	1631.96
473.253	1664.05
473.625	1669.7
473.997	1684.16
474.369	1708.8
474.74	1735.24
475.112	1757.61
475.484	1783.37
475.855	1810.94
476.227	1832.18
476.598	1847.78
476.97	1904.5
477.341	1930.26
477.713	1957.15
478.084	1976.59
478.455	1973.42
478.827	2025.62
479.198	2077.83
479.569	2052.06
479.94	2105.85
480.311	2139.75
480.682	2185.17
481.053	2223.36
481.424	2222.68
481.795	2254.32
482.166	2289.35
482.537	2307.65
482.908	2356.92
483.279	2382.9
483.65	2470.36
484.021	2435.78
484.391	2502
484.762	2523.46
485.133	2537.7
485.503	2595.1
485.874	2608.66
486.244	2638.26
486.615	2662.67
486.985	2721.43
487.356	2761.42
487.726	2745.61
488.097	2783.8
488.467	2846.39
488.837	2898.6
489.207	2890.23
489.578	2976.33
489.948	2957.58
490.318	3008.65
490.688	3023.56
491.058	3065.6
491.428	3116.67
491.798	3135.2
492.168	3185.14
492.538	3193.28
492.908	3230.79
493.278	3292.71
493.648	3254.97
494.017	3360.96
494.387	3349.21
494.757	3380.84
495.126	3431.92
495.496	3424.23
495.866	3478.92
496.235	3454.74
496.605	3487.28
496.974	3546.71
497.344	3585.58
497.713	3614.06
498.082	3620.84
498.452	3651.34
498.821	3643.89
499.19	3692.47
499.559	3728.18
499.928	3736.31
500.298	3748.74
500.667	3768.18
501.036	3826.48
501.405	3816.76
501.774	3854.96
502.143	3854.73
502.512	3887.27
502.88	3926.37
503.249	3934.28
503.618	3952.35
503.987	4007.49
504.356	4025.8
504.724	4066.02
505.093	4092.46
505.462	4071.9
505.83	4118
506.199	4132.69
506.567	4183.08
506.936	4181.95
507.304	4240.93
507.672	4281.38
508.041	4275.74
508.409	4297.88
508.777	4335.85
509.145	4381.95
509.514	4380.14
509.882	4405.22
510.25	4462.85
510.618	4464.88
510.986	4460.81
511.354	4505.11
511.722	4559.8
512.09	4555.95
512.458	4611.09
512.826	4666.69
513.193	4612.22
513.561	4675.05
513.929	4702.16
514.297	4709.4
514.664	4762.73
515.032	4831.65
515.4	4844.31
515.767	4841.14
516.135	4886.34
516.502	4907.36
516.869	4968.6
517.237	4983.74
517.604	5005.89
517.972	4988.48
518.339	5089.05
518.706	5064.87
519.073	5105.77
519.44	5152.1
519.808	5196.16
520.175	5183.28
520.542	5253.34
520.909	5263.28
521.276	5289.95
521.643	5334.69
522.009	5406.55
522.376	5444.29
522.743	5434.8
523.11	5517.28
523.477	5487.91
523.843	5570.62
524.21	5651.29
524.577	5648.81
524.943	5682.93
525.31	5741.01
525.676	5785.07
526.043	5824.85
526.409	5839.76
526.776	5958.85
527.142	5930.83
527.508	5977.39
527.874	5952.98
528.241	6056.48
528.607	6082.92
528.973	6127.89
529.339	6114.1
529.705	6173.76
530.071	6196.81
530.437	6203.82
530.803	6284.72
531.169	6345.06
531.535	6291.05
531.901	6371.5
532.267	6391.39
532.632	6388.45
532.998	6455.11
533.364	6538.27
533.73	6479.97
534.095	6590.02
534.461	6548.22
534.826	6659.85
535.192	6642.68
535.557	6683.81
535.923	6691.72
536.288	6746.86
536.653	6821.66
537.019	6774.88
537.384	6813.97
537.749	6850.36
538.114	6853.75
538.479	6885.38
538.845	6912.5
539.21	6902.78
539.575	6973.29
539.94	7027.98
540.305	7055.32
540.67	7005.15
541.034	7071.37
541.399	7134.64
541.764	7064.81
542.129	7211.7
542.494	7217.35
542.858	7202.89
543.223	7277.24
543.587	7284.7
543.952	7324.69
544.316	7324.24
544.681	7307.75
545.045	7360.63
545.41	7434.52
545.774	7444.92
546.138	7494.18
546.503	7544.58
546.867	7511.81
547.231	7618.02
547.595	7593.16
547.959	7634.74
548.324	7639.71
548.688	7709.32
549.052	7659.37
549.416	7680.84
549.779	7732.59
550.143	7761.75
550.507	7819.37
550.871	7830.44
551.235	7920.16
551.599	7967.62
551.962	7945.7
552.326	8032.7
552.689	8028.63
553.053	7972.36
553.417	8060.72
553.78	8200.6
554.143	8117.44
554.507	8176.2
554.87	8258.68
555.234	8315.18
555.597	8288.28
555.96	8313.82
556.323	8321.05
556.686	8360.37
557.05	8389.07
557.413	8453.93
557.776	8436.53
558.139	8468.62
558.502	8462.74
558.865	8528.28
559.228	8582.51
559.59	8645.11
559.953	8655.51
560.316	8754.94
560.679	8749.52
561.041	8771.66
561.404	8905.44
561.767	8895.27
562.129	8866.57
562.492	8893.47
562.854	8973.01
563.217	9003.75
563.579	9032.45
563.941	9100.69
564.304	9038.32
564.666	9208.94
565.028	9207.13
565.39	9272.44
565.753	9270.86
566.115	9294.13
566.477	9354.47
566.839	9421.59
567.201	9415.71
567.563	9415.03
567.925	9504.98
568.287	9488.25
568.648	9519.66
569.01	9562.6
569.372	9625.42
569.734	9642.37
570.095	9685.54
570.457	9731.86
570.819	9762.37
571.18	9735.03
571.542	9860.67
571.903	9853.89
572.265	9903.16
572.626	9938.41
572.987	9886.43
573.349	10005.53
573.71	10039.43
574.071	10007.56
574.432	10051.4
574.794	10091.63
575.155	10114.45
575.516	10058.86
575.877	10205.97
576.238	10205.07
576.599	10177.5
576.96	10192.42
577.32	10249.36
577.681	10302.24
578.042	10304.28
578.403	10337.95
578.763	10352.86
579.124	10428.34
579.485	10421.34
579.845	10478.96
580.206	10385.63
580.566	10410.49
580.927	10445.74
581.287	10481.67
581.648	10413.88
582.008	10437.61
582.368	10414.78
582.728	10484.39
583.089	10491.62
583.449	10464.95
583.809	10466.53
584.169	10544.95
584.529	10515.12
584.889	10606.64
585.249	10532.97
585.609	10459.3
585.969	10549.92
586.329	10564.16
586.688	10619.75
587.048	10581.56
587.408	10632.63
587.768	10600.77
588.127	10586.08
588.487	10622.01
588.846	10607.32
589.206	10560.32
589.565	10605.06
589.925	10590.82
590.284	10589.92
590.643	10605.74
591.003	10677.37
591.362	10663.59
591.721	10624.04
592.08	10662.23
592.44	10673.53
592.799	10590.82
593.158	10717.6
593.517	10690.03
593.876	10698.62
594.235	10567.77
594.593	10721.44
594.952	10687.09
595.311	10615.91
595.67	10715.11
596.029	10821.33
596.387	10770.48
596.746	10763.25
597.104	10777.48
597.463	10737.49
597.822	10770.03
598.18	10835.11
598.538	10817.94
598.897	10774.1
599.255	10726.41
599.613	10836.01
599.972	10815.68
600.33	10816.81
600.688	10734.77
601.046	10844.6
601.404	10887.09
601.762	10869.01
602.12	10914.66
602.478	10887.99
602.836	10891.15
603.194	10824.26
603.552	10853.87
603.91	10795.11
604.268	10871.49
604.625	10848.22
604.983	10957.37
605.341	10895.45
605.698	10878.73
606.056	10925.05
606.413	10936.58
606.771	10960.53
607.128	10995.11
607.485	10970.02
607.843	10957.82
608.2	11024.71
608.557	11063.13
608.914	10972.28
609.272	11099.96
609.629	11130.02
609.986	11111.94
610.343	11122.79
610.7	11207.76
611.057	11045.5
611.414	11068.78
611.771	11168.21
612.127	11150.13
612.484	11171.37
612.841	11241.2
613.198	11175.21
613.554	11174.99
613.911	11218.83
614.267	11194.2
614.624	11211.82
614.98	11310.35
615.337	11290.01
615.693	11253.4
616.05	11264.93
616.406	11343.35
616.762	11311.26
617.118	11315.1
617.475	11317.58
617.831	11317.13
618.187	11382.89
618.543	11385.83
618.899	11390.35
619.255	11352.16
619.611	11349.45
619.967	11446.62
620.323	11474.42
620.678	11392.38
621.034	11386.06
621.39	11390.35
621.746	11436.22
622.101	11500.63
622.457	11399.16
622.812	11382.44
623.168	11478.48
623.523	11521.42
623.879	11476.9
624.234	11381.76
624.589	11478.03
624.945	11434.19
625.3	11480.29
625.655	11457.24
626.01	11503.79
626.365	11526.84
626.72	11495.21
627.075	11452.27
627.43	11421.31
627.785	11443.91
628.14	11508.99
628.495	11457.24
628.85	11470.8
629.205	11398.03
629.559	11490.23
629.914	11428.54
630.269	11402.78
630.623	11450.46
630.978	11349.67
631.332	11489.56
631.687	11515.09
632.041	11404.36
632.396	11406.62
632.75	11449.78
633.104	11456.34
633.459	11359.62
633.813	11396.68
634.167	11419.73
634.521	11361.88
634.875	11450.01
635.229	11419.05
635.583	11351.71
635.937	11316
636.291	11316.45
636.645	11351.26
636.999	11312.84
637.352	11334.76
637.706	11283.01
638.06	11325.04
638.413	11319.39
638.767	11243.69
639.121	11322.1
639.474	11224.03
639.828	11215.44
640.181	11212.05
640.534	11252.27
640.888	11250.24
641.241	11151.71
641.594	11211.15
641.947	11223.12
642.301	11231.26
642.654	11245.27
643.007	11174.08
643.36	11156.46
643.713	11189.45
644.066	11253.86
644.419	11145.38
644.771	11198.72
645.124	10997.37
645.477	10956.92
645.83	10878.73
646.182	10849.8
646.535	10797.82
646.888	10881.66
647.24	10862
647.593	10852.74
647.945	10807.54
648.298	10779.97
648.65	10728.67
649.002	10771.84
649.355	10905.84
649.707	10772.06
650.059	10835.79
650.411	11023.13
650.763	11041.21
651.115	11087.31
651.467	11114.88
651.819	11066.52
652.171	11027.2
652.523	10988.33
652.875	11036.69
653.227	10954.2
653.578	11080.75
653.93	11082.79
654.282	11054.09
654.633	10945.84
654.985	11058.16
655.337	11052.51
655.688	11022.45
656.039	11070.58
656.391	10960.76
656.742	10999.85
657.094	10996.91
657.445	11100.64
657.796	10991.94
658.147	11006.86
658.498	10974.77
658.849	10970.7
659.2	11019.74
659.551	11022.9
659.902	10993.52
660.253	11002.11
660.604	11002.56
660.955	10995.56
661.306	10941.32
661.656	10997.14
662.007	10973.64
662.358	10935.45
662.708	10995.11
663.059	10998.27
663.409	10962.11
663.76	10986.07
664.11	10976.8
664.461	10985.39
664.811	11073.07
665.161	10975.67
665.511	11018.61
665.862	10994.88
666.212	11036.24
666.562	10996.24
666.912	11044.37
667.262	11003.69
667.612	10975.22
667.962	10953.75
668.312	10971.38
668.662	10953.98
669.011	10931.83
669.361	10947.88
669.711	10986.97
670.06	10948.78
670.41	10871.27
670.76	10900.65
671.109	10927.99
671.459	10974.99
671.808	10922.34
672.157	10903.81
672.507	10921.89
672.856	10807.99
673.205	10912.85
673.554	10959.18
673.904	10866.97
674.253	10950.36
674.602	10880.76
674.951	10768.9
675.3	10691.84
675.649	10810.7
675.998	10895.67
676.346	10902.68
676.695	10926.41
677.044	10773.87
677.393	10778.84
677.741	10865.39
678.09	10824.72
678.438	10790.14
678.787	10795.11
679.135	10846.86
679.484	10706.53
679.832	10830.14
680.181	10649.8
680.529	10750.82
680.877	10680.31
681.225	10669.69
681.573	10802.57
681.922	10656.36
682.27	10643.93
682.618	10674.89
682.966	10609.35
683.314	10585.4
683.661	10662.46
684.009	10518.73
684.357	10525.29
684.705	10488
685.053	10592.63
685.4	10513.54
685.748	10399.87
686.095	10433.54
686.443	10446.87
686.79	10381.11
687.138	10392.86
687.485	10418.85
687.832	10363.48
688.18	10380.21
688.527	10332.07
688.874	10298.85
689.221	10188.8
689.568	10275.35
689.915	10211.62
690.262	10218.18
690.609	10163.26
690.956	10121.91
691.303	10088.92
691.65	10079.88
691.997	10123.49
692.344	10059.31
692.69	9955.59
693.037	10011.86
693.383	9970.27
693.73	9957.17
694.077	9977.28
694.423	9905.87
694.769	9927.79
695.116	9821.58
695.462	9823.84
695.808	9804.86
696.155	9785.42
696.501	9776.38
696.847	9717.4
697.193	9613
697.539	9714.01
697.885	9621.81
698.231	9632.2
698.577	9627.01
698.923	9553.56
699.269	9525.31
699.614	9522.6
699.96	9492.32
700.306	9429.27
700.651	9370.06
700.997	9460.46
701.342	9339.56
701.688	9312.89
702.033	9292.55
702.379	9313.12
702.724	9325.09
703.069	9297.07
703.415	9163.97
703.76	9167.13
704.105	9206
704.45	9189.05
704.795	9125.33
705.14	9080.81
705.485	9091.43
705.83	9011.88
706.175	9070.64
706.52	9066.8
706.865	9075.61
707.209	8974.14
707.554	8929.17
707.899	8964.88
708.243	8902.96
708.588	8893.47
708.932	8797.2
709.277	8837.87
709.621	8854.15
709.966	8824.32
710.31	8795.62
710.654	8740.48
710.998	8811.89
711.342	8783.64
711.687	8680.14
712.031	8682.85
712.375	8687.82
712.719	8629.74
713.063	8647.37
713.407	8674.04
713.75	8565.34
714.094	8600.14
714.438	8608.5
714.782	8586.13
715.125	8615.06
715.469	8548.39
715.812	8559.01
716.156	8505.45
716.499	8445.79
716.843	8504.55
717.186	8481.95
717.53	8497.77
717.873	8540.93
718.216	8523.76
718.559	8456.42
718.902	8395.85
719.246	8408.96
719.589	8408.96
719.932	8367.6
720.275	8431.56
720.617	8415.74
720.96	8375.06
721.303	8362.41
721.646	8355.18
721.989	8321.05
722.331	8345.01
722.674	8341.39
723.016	8348.17
723.359	8351.33
723.701	8353.82
724.044	8301.62
724.386	8262.97
724.729	8285.35
725.071	8236.53
725.413	8269.3
725.755	8243.99
726.097	8295.97
726.439	8211.68
726.782	8249.64
727.124	8264.56
727.465	8237.66
727.807	8213.94
728.149	8117.67
728.491	8175.29
728.833	8199.93
729.175	8172.81
729.516	8229.08
729.858	8178.01
730.199	8239.92
730.541	8233.37
730.882	8183.2
731.224	8196.08
731.565	8119.93
731.906	8129.19
732.248	8117.89
732.589	8174.62
732.93	8134.84
733.271	8127.84
733.612	8192.92
733.953	8135.52
734.294	8121.51
734.635	8103.43
734.976	8083.54
735.317	8029.99
735.658	8097.78
735.999	8102.3
736.339	8081.51
736.68	8106.37
737.021	8082.41
737.361	8071.79
737.702	8126.03
738.042	8022.98
738.383	8029.76
738.723	8138.01
739.063	8132.58
739.404	8065.01
739.744	8029.99
740.084	8019.14
740.424	8009.87
740.764	8011.91
741.104	8082.19
741.444	7972.36
741.784	7984.79
742.124	8016.43
742.464	7964.9
742.804	8004.45
743.143	7985.47
743.483	8029.31
743.823	7981.63
744.162	8002.42
744.502	8002.42
744.841	8004
745.181	7976.88
745.52	7920.84
745.86	7955.86
746.199	7914.96
746.538	7977.78
746.877	7983.43
747.216	8014.62
747.556	8057.56
747.895	7978.01
748.234	7898.46
748.573	7900.95
748.911	7894.85
749.25	7918.8
749.589	7884.23
749.928	7982.3
750.267	7948.41
750.605	7875.64
750.944	7838.13
751.283	7815.98
751.621	7900.5
751.96	7876.54
752.298	7863.89
752.636	7848.52
752.975	7819.6
753.313	7869.31
753.651	7842.42
753.989	7768.75
754.327	7846.04
754.666	7803.33
755.004	7770.78
755.342	7807.62
755.679	7752.93
756.017	7765.36
756.355	7747.96
756.693	7751.12
757.031	7666.61
757.368	7689.43
757.706	7696.66
758.044	7644.46
758.381	7660.73
758.719	7630
759.056	7556.78
759.394	7623.22
759.731	7572.15
760.068	7524.24
760.405	7548.19
760.743	7523.79
761.08	7502.77
761.417	7407.4
761.754	7385.26
762.091	7489.21
762.428	7490.11
762.765	7350.68
763.102	7416.44
763.438	7370.57
763.775	7320.4
764.112	7274.75
764.449	7380.74
764.785	7298.93
765.122	7253.74
765.458	7211.03
765.795	7247.41
766.131	7287.63
766.467	7203.79
766.804	7159.95
767.14	7118.82
767.476	7118.37
767.812	7121.99
768.148	7070.01
768.485	7047.19
768.821	7048.09
769.157	7037.24
769.492	7029.33
769.828	7094.87
770.164	6934.2
770.5	6963.35
770.836	6875.89
771.171	6900.07
771.507	6874.54
771.842	6832.96
772.178	6775.56
772.513	6764.26
772.849	6772.39
773.184	6788.89
773.519	6783.47
773.855	6670.93
774.19	6661.66
774.525	6676.58
774.86	6645.62
775.195	6696.69
775.53	6655.11
775.865	6597.48
776.2	6645.84
776.535	6580.76
776.87	6539.18
777.205	6524.72
777.539	6460.76
777.874	6468.9
778.209	6446.07
778.543	6437.03
778.878	6385.06
779.212	6331.05
779.547	6401.33
779.881	6318.85
780.215	6336.92
780.55	6289.69
780.884	6278.85
781.218	6320.88
781.552	6247.21
781.886	6216.47
782.22	6203.14
782.554	6159.53
782.888	6145.06
783.222	6100.77
783.556	6066.87
783.889	6061
784.223	6029.14
784.557	6066.2
784.89	6076.82
785.224	6023.03
785.557	6016.93
785.891	5990.49
786.224	5952.98
786.558	5990.04
786.891	5898.97
787.224	5855.35
787.557	5906.2
787.891	5870.95
788.224	5876.6
788.557	5867.11
788.89	5861.91
789.223	5782.36
789.556	5732.42
789.888	5770.16
790.221	5753.44
790.554	5751.85
790.887	5739.88
791.219	5660.78
791.552	5652.87
791.884	5632.54
792.217	5619.65
792.549	5592.76
792.882	5574.01
793.214	5545.08
793.546	5588.02
793.879	5517.74
794.211	5498.75
794.543	5500.34
794.875	5531.75
795.207	5503.95
795.539	5512.99
795.871	5492.88
796.203	5421.69
796.535	5372.66
796.867	5416.72
797.198	5384.18
797.53	5418.53
797.862	5318.65
798.193	5338.53
798.525	5302.83
798.856	5343.05
799.188	5247.91
799.519	5238.65
799.85	5205.2
800.182	5235.71
800.513	5247.23
800.844	5166.56
801.175	5270.51
801.506	5200
801.837	5203.85
802.168	5150.06
802.499	5151.64
802.83	5125.2
803.161	5145.54
803.491	5071.87
803.822	5105.54
804.153	5096.5
804.483	5033.46
804.814	5004.3
805.145	5026.22
805.475	4986.45
805.805	4985.55
806.136	5002.72
806.466	4997.52
806.796	5005.43
807.126	4906.45
807.457	4930.41
807.787	4943.97
808.117	4937.86
808.447	4913.68
808.777	4854.7
809.107	4873.23
809.436	4893.57
809.766	4897.41
810.096	4836.4
810.426	4815.16
810.755	4870.97
811.085	4850.18
811.414	4816.74
811.744	4813.8
812.073	4811.09
812.403	4786.91
812.732	4722.05
813.061	4745.78
813.39	4732.45
813.719	4697.87
814.049	4788.94
814.378	4677.76
814.707	4666.23
815.036	4675.5
815.365	4694.71
815.693	4632.56
816.022	4656.74
816.351	4660.13
816.68	4614.26
817.008	4615.61
817.337	4569.06
817.665	4574.94
817.994	4607.48
818.322	4543.75
818.651	4571.32
818.979	4523.41
819.307	4549.63
819.636	4559.34
819.964	4496.07
820.292	4485
820.62	4526.58
820.948	4515.28
821.276	4515.73
821.604	4496.97
821.932	4517.31
822.259	4504.66
822.587	4481.38
822.915	4516.63
823.243	4516.18
823.57	4480.93
823.898	4456.07
824.225	4453.58
824.553	4470.53
824.88	4493.36
825.207	4510.08
825.535	4494.26
825.862	4510.08
826.189	4481.15
826.516	4520.02
826.843	4487.25
827.17	4512.11
827.497	4486.12
827.824	4466.01
828.151	4513.47
828.478	4492.9
828.805	4496.75
829.131	4493.58
829.458	4525.67
829.785	4450.19
830.111	4477.76
830.438	4519.8
830.764	4480.25
831.09	4501.94
831.417	4478.67
831.743	4494.26
832.069	4485.45
832.395	4458.56
832.722	4516.18
833.048	4472.11
833.374	4480.7
833.7	4430.99
834.026	4492.23
834.351	4479.12
834.677	4400.7
835.003	4496.52
835.329	4482.51
835.654	4450.42
835.98	4407.48
836.306	4435.5
836.631	4410.42
836.956	4423.3
837.282	4407.48
837.607	4401.61
837.932	4416.75
838.258	4387.37
838.583	4404.77
838.908	4383.53
839.233	4398.67
839.558	4364.77
839.883	4363.42
840.208	4284.77
840.533	4348.28
840.858	4345.79
841.182	4354.83
841.507	4302.85
841.832	4252.46
842.156	4289.29
842.481	4301.95
842.805	4262.85
843.13	4280.48
843.454	4263.76
843.778	4259.46
844.103	4216.75
844.427	4233.02
844.751	4223.76
845.075	4176.75
845.399	4205.23
845.723	4195.06
846.047	4178.11
846.371	4206.36
846.695	4141.05
847.019	4183.99
847.343	4086.59
847.666	4094.95
847.99	4070.32
848.313	4059.02
848.637	4030.32
848.96	4028.06
849.284	4038.68
849.607	3993.48
849.931	4023.31
850.254	3945.35
850.577	3946.25
850.9	3952.58
851.223	3931.11
851.546	3891.34
851.869	3889.08
852.192	3957.55
852.515	3895.63
852.838	3864.9
853.161	3890.43
853.483	3862.19
853.806	3859.93
854.129	3880.94
854.451	3790.1
854.774	3791
855.096	3783.54
855.419	3770.21
855.741	3743.09
856.063	3723.89
856.385	3751.23
856.708	3732.02
857.03	3727.05
857.352	3756.43
857.674	3704.45
857.996	3721.63
858.318	3690.44
858.64	3698.12
858.961	3663.77
859.283	3685.47
859.605	3635.3
859.926	3661.97
860.248	3647.05
860.57	3653.6
860.891	3625.13
861.212	3580.84
861.534	3571.12
861.855	3613.61
862.176	3596.88
862.498	3608.86
862.819	3599.37
863.14	3551.01
863.461	3584
863.782	3587.84
864.103	3568.63
864.424	3540.84
864.745	3572.7
865.065	3553.72
865.386	3539.26
865.707	3519.37
866.027	3512.14
866.348	3548.3
866.668	3498.13
866.989	3514.4
867.309	3459.26
867.63	3515.08
867.95	3502.87
868.27	3506.49
868.59	3460.84
868.91	3500.61
869.23	3465.81
869.55	3449.09
869.87	3431.92
870.19	3419.71
870.51	3449.77
870.83	3445.02
871.15	3397.79
871.469	3468.98
871.789	3440.05
872.109	3427.62
872.428	3422.88
872.748	3460.62
873.067	3437.11
873.386	3428.98
873.706	3397.79
874.025	3367.06
874.344	3367.06
874.663	3429.2
874.982	3390.79
875.301	3423.78
875.62	3327.29
875.939	3379.71
876.258	3391.92
876.577	3362.54
876.896	3363.44
877.214	3332.26
877.533	3342.43
877.852	3375.19
878.17	3359.6
878.489	3329.77
878.807	3322.77
879.125	3311.47
879.444	3329.55
879.762	3321.18
880.08	3322.77
880.398	3320.28
880.716	3309.21
881.034	3307.85
881.352	3284.35
881.67	3273.28
881.988	3292.26
882.306	3292.71
882.624	3259.72
882.941	3247.51
883.259	3242.09
883.577	3263.11
883.894	3226.95
884.212	3188.98
884.529	3214.07
884.846	3216.1
885.164	3224.01
885.481	3196.22
885.798	3215.2
886.115	3180.62
886.432	3176.55
886.75	3172.04
887.067	3178.14
887.383	3141.3
887.7	3120.51
888.017	3127.97
888.334	3130.91
888.651	3144.47
888.967	3127.74
889.284	3087.97
889.6	3123
889.917	3092.26
890.233	3103.11
890.55	3087.97
890.866	3106.95
891.182	3076.22
891.498	3082.09
891.815	3061.53
892.131	3065.82
892.447	3036.9
892.763	3026.73
893.079	3030.34
893.395	3026.5
893.71	3033.73
894.026	3013.85
894.342	2987.41
894.657	3009.1
894.973	2982.89
895.289	3013.62
895.604	2969.78
895.92	2921.65
896.235	2939.05
896.55	2937.01
896.865	2903.12
897.181	2950.57
897.496	2913.96
897.811	2908.54
898.126	2913.96
898.441	2900.18
898.756	2894.98
899.071	2848.65
899.386	2866.73
899.7	2848.2
900.015	2877.35
900.33	2826.06
900.644	2836.22
900.959	2819.95
901.273	2774.76
901.588	2795.55
901.902	2789.67
902.216	2826.51
902.531	2767.3
902.845	2737.7
903.159	2723.46
903.473	2738.6
903.787	2741.99
904.101	2714.65
904.415	2720.75
904.729	2723.01
905.042	2681.88
905.356	2713.74
905.67	2661.99
905.984	2677.58
906.297	2659.73
906.611	2647.76
906.924	2653.63
907.237	2685.04
907.551	2663.12
907.864	2633.07
908.177	2639.17
908.491	2610.92
908.804	2594.65
909.117	2591.26
909.43	2587.64
909.743	2542.67
910.056	2593.75
910.368	2518.04
910.681	2571.37
910.994	2510.81
911.307	2531.15
911.619	2493.86
911.932	2488.66
912.244	2488.66
912.557	2472.17
912.869	2495.44
913.181	2477.82
913.494	2462.9
913.806	2464.94
914.118	2457.7
914.43	2426.97
914.742	2437.14
915.054	2389.68
915.366	2449.34
915.678	2414.77
915.99	2370.47
916.302	2373.86
916.613	2359.63
916.925	2349.91
917.236	2361.89
917.548	2339.51
917.859	2350.36
918.171	2324.83
918.482	2339.51
918.794	2335.22
919.105	2313.53
919.416	2318.5
919.727	2318.95
920.038	2318.95
920.349	2286.18
920.66	2263.13
920.971	2261.78
921.282	2255.9
921.593	2255
921.903	2206.64
922.214	2225.62
922.525	2230.14
922.835	2214.32
923.146	2186.52
923.456	2219.07
923.767	2203.93
924.077	2183.13
924.387	2173.19
924.697	2182.91
925.008	2158.5
925.318	2155.34
925.628	2133.87
925.938	2130.03
926.248	2116.24
926.558	2089.35
926.867	2115.57
927.177	2109.92
927.487	2112.63
927.796	2060.2
928.106	2085.28
928.416	2096.13
928.725	2089.35
929.034	2043.25
929.344	2045.96
929.653	2035.57
929.962	2032.18
930.271	2027.66
930.581	1979.98
930.89	2003.25
931.199	2003.25
931.508	2005.06
931.817	1985.63
932.125	1971.61
932.434	1990.6
932.743	1953.31
933.051	1986.98
933.36	1954.44
933.669	1953.76
933.977	1931.62
934.286	1897.04
934.594	1911.5
934.902	1927.77
935.21	1916.02
935.519	1925.97
935.827	1871.05
936.135	1867.89
936.443	1905.4
936.751	1877.61
937.059	1887.1
937.367	1858.4
937.674	1864.27
937.982	1866.53
938.29	1850.04
938.597	1858.85
938.905	1823.6
939.213	1843.93
939.52	1818.85
939.827	1822.24
940.135	1796.03
940.442	1773.43
940.749	1774.56
941.056	1791.05
941.363	1764.16
941.67	1777.72
941.977	1777.5
942.284	1758.97
942.591	1746.54
942.898	1754.22
943.205	1736.59
943.511	1764.16
943.818	1757.84
944.125	1729.59
944.431	1723.03
944.738	1717.61
945.044	1694.56
945.35	1704.28
945.657	1679.42
945.963	1709.47
946.269	1682.81
946.575	1694.33
946.881	1637.84
947.187	1677.84
947.493	1656.59
947.799	1647.78
948.105	1641.68
948.41	1650.04
948.716	1620.21
949.022	1654.34
949.327	1611.17
949.633	1606.88
949.938	1604.17
950.244	1613.43
950.549	1586.31
950.854	1605.97
951.16	1582.7
951.465	1564.17
951.77	1615.92
952.075	1582.92
952.38	1555.35
952.685	1570.5
952.99	1558.52
953.294	1540.21
953.599	1562.59
953.904	1536.15
954.209	1572.53
954.513	1535.24
954.818	1540.21
955.122	1523.27
955.426	1505.41
955.731	1511.74
956.035	1481.91
956.339	1474
956.643	1494.57
956.948	1493.66
957.252	1488.46
957.556	1490.95
957.86	1490.95
958.163	1478.75
958.467	1459.31
958.771	1471.74
959.075	1460.89
959.378	1434.23
959.682	1448.46
959.985	1442.82
960.289	1449.14
960.592	1447.79
960.896	1435.58
961.199	1415.7
961.502	1416.83
961.805	1410.05
962.108	1406.88
962.411	1388.35
962.714	1365.08
963.017	1396.26
963.32	1402.36
963.623	1383.83
963.926	1375.25
964.228	1357.17
964.531	1357.17
964.833	1353.78
965.136	1312.42
965.438	1330.73
965.741	1323.5
966.043	1362.82
966.345	1323.5
966.648	1319.2
966.95	1303.84
967.252	1318.98
967.554	1305.19
967.856	1310.62
968.158	1279.2
968.46	1292.31
968.761	1290.95
969.063	1306.1
969.365	1288.24
969.666	1274.68
969.968	1278.53
970.269	1265.64
970.571	1271.52
970.872	1259.54
971.174	1249.6
971.475	1282.37
971.776	1261.35
972.077	1242.14
972.378	1236.04
972.679	1252.99
972.98	1230.17
973.281	1224.06
973.582	1235.81
973.883	1252.31
974.183	1230.17
974.484	1211.18
974.785	1204.86
975.085	1207.79
975.386	1235.36
975.686	1195.14
975.986	1200.34
976.287	1202.6
976.587	1195.82
976.887	1183.16
977.187	1175.03
977.487	1160.11
977.787	1133.22
978.087	1160.11
978.387	1147.91
978.687	1162.6
978.987	1173.9
979.286	1167.12
979.586	1142.71
979.885	1172.54
980.185	1133.44
980.484	1117.63
980.784	1124.63
981.083	1112.43
981.382	1162.82
981.682	1111.98
981.981	1098.87
982.28	1126.44
982.579	1089.38
982.878	1126.89
983.177	1098.87
983.475	1088.25
983.774	1095.03
984.073	1099.1
984.372	1099.32
984.67	1063.84
984.969	1074.69
985.267	1066.1
985.566	1077.18
985.864	1076.72
986.162	1076.95
986.461	1041.7
986.759	1048.7
987.057	1064.52
987.355	1030.4
987.653	1043.28
987.951	1054.8
988.249	1047.12
988.547	1031.3
988.844	1036.05
989.142	1043.05
989.44	1025.43
989.737	1017.29
990.035	1016.61
990.332	1004.86
990.63	1019.32
990.927	1000.34
991.224	1018.65
991.521	999.21
991.819	981.81
992.116	1012.54
992.413	983.62
992.71	977.06
993.006	975.03
993.303	940.91
993.6	953.79
993.897	970.74
994.193	958.08
994.49	952.43
994.787	960.79
995.083	961.02
995.379	952.43
995.676	942.72
995.972	953.11
996.268	950.17
996.565	935.71
996.861	937.97
997.157	926.67
997.453	946.78
997.749	937.52
998.044	928.93
998.34	907.01
998.636	911.3
998.932	905.43
999.227	914.02
999.523	908.37
999.818	891.42
1000.114	900.46
1000.409	882.83
1000.704	874.92
1001	890.74
1001.295	864.07
1001.59	882.83
1001.885	879.89
1002.18	860.46
1002.475	869.72
1002.77	870.85
1003.065	870.63
1003.359	861.59
1003.654	842.83
1003.949	851.64
1004.243	853.23
1004.538	823.85
1004.832	825.2
1005.127	844.64
1005.421	825.66
1005.715	851.19
1006.009	815.94
1006.304	820.23
1006.598	820.68
1006.892	818.65
1007.186	802.38
1007.48	809.16
1007.773	805.54
1008.067	838.09
1008.361	776.39
1008.655	796.73
1008.948	795.83
1009.242	787.69
1009.535	786.56
1009.829	795.83
1010.122	783.17
1010.415	790.85
1010.708	772.55
1011.001	753.34
1011.295	765.32
1011.588	771.87
1011.881	761.48
1012.173	760.35
1012.466	738.65
1012.759	750.63
1013.052	739.56
1013.344	758.77
1013.637	744.53
1013.93	743.17
1014.222	753.79
1014.514	721.7
1014.807	736.39
1015.099	734.13
1015.391	726
1015.683	739.78
1015.976	707.02
1016.268	742.04
1016.56	699.11
1016.851	713.79
1017.143	698.88
1017.435	708.6
1017.727	687.13
1018.018	702.95
1018.31	700.91
1018.602	696.85
1018.893	679.9
1019.185	706.79
1019.476	692.33
1019.767	667.69
1020.058	680.8
1020.35	669.28
1020.641	678.32
1020.932	672.21
1021.223	667.92
1021.514	668.15
1021.804	663.17
1022.095	663.17
1022.386	641.25
1022.677	651.88
1022.967	640.8
1023.258	650.75
1023.548	642.84
1023.839	652.1
1024.129	614.59
1024.419	611.88
1024.709	631.76
1025	633.34
1025.29	606.45
1025.58	623.18
1025.87	638.09
1026.16	619.56
1026.449	624.31
1026.739	611.88
1027.029	607.58
1027.319	609.16
1027.608	603.29
1027.898	608.94
1028.187	618.66
1028.477	593.57
1028.766	585.44
1029.055	597.41
1029.344	579.56
1029.634	597.87
1029.923	598.32
1030.212	607.36
1030.501	607.36
1030.79	573.23
1031.078	573.46
1031.367	578.66
1031.656	572.1
1031.945	577.98
1032.233	581.37
1032.522	570.75
1032.81	587.7
1033.099	553.57
1033.387	574.14
1033.675	538.88
1033.963	569.39
1034.251	563.97
1034.54	565.78
1034.828	577.3
1035.116	543.18
1035.403	536.4
1035.691	538.21
1035.979	537.08
1036.267	542.27
1036.554	533.91
1036.842	553.57
1037.129	557.41
1037.417	532.33
1037.704	538.88
1037.992	539.79
1038.279	542.73
1038.566	535.49
1038.853	535.49
1039.14	535.49
