Data from mousepad_grey_FLMS001491_00059.txt Node
Date: Wed Feb 08 14:29:38 GMT 2017
User: dcchb
Spectrometer: FLMS00149
Trigger mode: 0
Integration Time (sec): 2.000000E-2
Scans to average: 10
Electric dark correction enabled: true
Nonlinearity correction enabled: false
Boxcar width: 0
XAxis mode: Wavelengths
Number of Pixels in Spectrum: 2048
>>>>>Begin Spectral Data<<<<<
341.393	-33.08
341.776	-33.08
342.16	-33.08
342.543	-54.32
342.927	-60.87
343.31	-65.17
343.693	-82.34
344.077	-64.49
344.46	-58.84
344.843	-48.45
345.226	-28.56
345.61	-20.42
345.993	-15.45
346.376	-3.47
346.759	1.72
347.142	33.81
347.525	46.69
347.908	34.94
348.291	66.81
348.674	100.03
349.057	103.19
349.44	135.5
349.823	154.04
350.206	131.89
350.588	160.36
350.971	201.94
351.354	200.81
351.737	204.66
352.119	230.87
352.502	229.97
352.884	262.06
353.267	264.32
353.65	271.32
354.032	272
354.414	266.12
354.797	306.57
355.179	282.39
355.562	292.79
355.944	312.22
356.326	306.12
356.709	300.47
357.091	309.96
357.473	314.94
357.855	326.23
358.238	334.6
358.62	319.68
359.002	313.58
359.384	318.1
359.766	327.36
360.148	326.23
360.53	315.39
360.912	307.93
361.294	294.14
361.676	326.23
362.057	307.48
362.439	308.16
362.821	292.79
363.203	309.51
363.584	321.71
363.966	312.68
364.348	281.72
364.729	298.44
365.111	292.34
365.493	275.16
365.874	302.96
366.256	289.63
366.637	287.59
367.019	273.58
367.4	277.87
367.781	302.05
368.163	298.66
368.544	294.14
368.925	284.65
369.306	292.79
369.688	302.28
370.069	307.7
370.45	288.27
370.831	286.46
371.212	285.56
371.593	295.73
371.974	284.65
372.355	285.56
372.736	307.93
373.117	284.43
373.498	272.45
373.879	294.37
374.26	290.53
374.641	290.53
375.021	295.27
375.402	302.73
375.783	292.79
376.163	303.18
376.544	322.39
376.925	300.47
377.305	297.99
377.686	311.77
378.066	312.68
378.447	292.34
378.827	301.83
379.208	321.26
379.588	305.44
379.968	329.17
380.349	315.39
380.729	319.91
381.109	310.42
381.489	294.82
381.87	299.12
382.25	313.58
382.63	311.55
383.01	305.44
383.39	312.68
383.77	314.94
384.15	299.57
384.53	318.32
384.91	327.82
385.29	318.1
385.67	308.83
386.049	332.34
386.429	314.48
386.809	326.01
387.189	332.56
387.568	321.26
387.948	302.28
388.328	325.1
388.707	323.97
389.087	343.41
389.466	325.56
389.846	334.14
390.225	320.36
390.605	336.63
390.984	330.75
391.363	330.75
391.743	339.79
392.122	332.79
392.501	326.69
392.881	342.28
393.26	347.25
393.639	337.08
394.018	332.56
394.397	339.34
394.776	339.34
395.155	344.76
395.534	349.06
395.913	343.41
396.292	368.04
396.671	372.11
397.05	337.99
397.429	347.02
397.808	339.34
398.186	353.13
398.565	341.6
398.944	354.48
399.323	338.21
399.701	348.83
400.08	391.77
400.458	361.71
400.837	341.15
401.215	359
401.594	370.53
401.972	352
402.351	386.12
402.729	367.14
403.107	368.27
403.486	353.8
403.864	374.82
404.242	366.46
404.62	350.41
404.999	380.92
405.377	362.39
405.755	404.65
406.133	390.64
406.511	359
406.889	376.4
407.267	406.46
407.645	384.99
408.023	403.07
408.401	398.32
408.779	408.04
409.156	411.66
409.534	425.44
409.912	426.34
410.29	428.38
410.667	415.27
411.045	408.27
411.422	410.3
411.8	428.15
412.178	436.06
412.555	422.5
412.933	429.06
413.31	434.93
413.687	440.58
414.065	429.73
414.442	442.62
414.819	443.97
415.197	443.52
415.574	446.46
415.951	467.93
416.328	451.43
416.705	441.94
417.082	465.89
417.46	440.58
417.837	450.07
418.214	480.58
418.591	453.24
418.967	467.02
419.344	479
419.721	446.91
420.098	448.49
420.475	486.91
420.852	484.87
421.228	495.72
421.605	477.87
421.982	484.87
422.358	509.05
422.735	494.82
423.111	505.44
423.488	493.24
423.864	506.79
424.241	511.99
424.617	505.89
424.994	489.85
425.37	514.93
425.746	509.28
426.123	500.24
426.499	536.17
426.875	530.52
427.251	515.83
427.627	506.34
428.003	556.74
428.379	526.91
428.756	521.71
429.132	550.41
429.507	550.64
429.883	573.91
430.259	526.46
430.635	577.75
431.011	564.65
431.387	571.88
431.763	582.05
432.138	573.69
432.514	590.86
432.89	604.19
433.265	594.02
433.641	593.12
434.016	622.95
434.392	606.45
434.767	636.28
435.143	618.66
435.518	622.05
435.894	597.41
436.269	641.25
436.644	617.07
437.02	617.3
437.395	637.64
437.77	650.97
438.145	676.28
438.52	680.58
438.895	667.92
439.271	672.67
439.646	671.31
440.021	671.31
440.395	670.18
440.77	680.12
441.145	682.38
441.52	681.03
441.895	664.3
442.27	711.53
442.645	710.18
443.019	695.26
443.394	717.86
443.769	715.15
444.143	718.09
444.518	724.87
444.892	712.66
445.267	732.55
445.641	724.87
446.016	705.89
446.39	733.68
446.764	734.81
447.139	723.29
447.513	747.92
447.887	744.53
448.262	754.47
448.636	748.6
449.01	753.12
449.384	767.13
449.758	751.99
450.132	766.45
450.506	766.67
450.88	787.92
451.254	784.3
451.628	794.92
452.002	789.5
452.376	812.32
452.75	794.7
453.123	797.86
453.497	827.46
453.871	803.96
454.244	841.93
454.618	849.38
454.992	837.86
455.365	844.41
455.739	871.08
456.112	871.53
456.486	878.54
456.859	875.15
457.232	898.87
457.606	887.12
457.979	919.44
458.352	921.25
458.725	940
459.099	944.75
459.472	926.22
459.845	951.53
460.218	968.7
460.591	962.6
460.964	978.19
461.337	989.49
461.71	979.55
462.083	1001.7
462.456	987.69
462.829	1026.55
463.201	1033.56
463.574	1032.43
463.947	1034.01
464.32	1053.22
464.692	1031.07
465.065	1052.54
465.438	1091.64
465.81	1097.74
466.183	1077.85
466.555	1144.52
466.928	1108.59
467.3	1106.33
467.672	1149.72
468.045	1161.24
468.417	1150.17
468.789	1185.19
469.161	1192.2
469.534	1204.86
469.906	1194.69
470.278	1226.55
470.65	1234.23
471.022	1264.06
471.394	1240.33
471.766	1302.03
472.138	1282.37
472.51	1302.71
472.882	1349.03
473.253	1342.7
473.625	1356.72
473.997	1362.82
474.369	1368.01
474.74	1410.95
475.112	1435.36
475.484	1439.88
475.855	1450.5
476.227	1448.24
476.598	1474.23
476.97	1488.01
477.341	1516.94
477.713	1559.65
478.084	1598.97
478.455	1615.24
478.827	1612.98
479.198	1626.31
479.569	1665.63
479.94	1707.44
480.311	1729.36
480.682	1761.68
481.053	1756.71
481.424	1787.66
481.795	1815.69
482.166	1822.47
482.537	1831.28
482.908	1871.05
483.279	1899.3
483.65	1910.83
484.021	1962.12
484.391	1997.38
484.762	1996.25
485.133	2016.59
485.503	2016.13
485.874	2057.26
486.244	2065.62
486.615	2113.08
486.985	2143.14
487.356	2168.22
487.726	2195.34
488.097	2201.44
488.467	2224.49
488.837	2287.54
489.207	2273.3
489.578	2341.55
489.948	2325.5
490.318	2379.74
490.688	2382
491.058	2400.98
491.428	2423.81
491.798	2483.47
492.168	2531.6
492.538	2501.54
492.908	2502.9
493.278	2566.4
493.648	2586.74
494.017	2579.28
494.387	2615.67
494.757	2639.17
495.126	2657.02
495.496	2674.65
495.866	2681.88
496.235	2723.01
496.605	2710.13
496.974	2746.96
497.344	2785.38
497.713	2787.19
498.082	2812.95
498.452	2802.78
498.821	2828.09
499.19	2834.19
499.559	2899.5
499.928	2872.38
500.298	2906.05
500.667	2927.75
501.036	2949.89
501.405	2968.42
501.774	2945.15
502.143	2985.15
502.512	3024.47
502.88	3038.48
503.249	3045.71
503.618	3045.03
503.987	3116.44
504.356	3095.88
504.724	3148.53
505.093	3117.12
505.462	3134.3
505.83	3152.6
506.199	3188.53
506.567	3227.18
506.936	3236.67
507.304	3231.47
507.672	3264.91
508.041	3262.65
508.409	3281.18
508.777	3354.63
509.145	3375.42
509.514	3370.67
509.882	3407.06
510.25	3446.6
510.618	3433.5
510.986	3453.16
511.354	3427.62
511.722	3501.52
512.09	3502.42
512.458	3493.16
512.826	3555.98
513.193	3584.23
513.561	3591.23
513.929	3595.75
514.297	3649.08
514.664	3675.07
515.032	3625.13
515.4	3725.92
515.767	3682.76
516.135	3767.73
516.502	3703.32
516.869	3783.54
517.237	3772.25
517.604	3762.08
517.972	3833.49
518.339	3888.4
518.706	3920.72
519.073	3941.96
519.44	3926.14
519.808	3975.18
520.175	3960.49
520.542	4036.87
520.909	4010.88
521.276	4027.83
521.643	4094.27
522.009	4124.55
522.376	4122.07
522.743	4183.99
523.11	4159.81
523.477	4200.03
523.843	4225.79
524.21	4300.14
524.577	4310.31
524.943	4335.62
525.31	4299.46
525.676	4376.3
526.043	4420.82
526.409	4378.56
526.776	4453.58
527.142	4503.75
527.508	4493.13
527.874	4532
528.241	4579.68
528.607	4622.17
528.973	4668.72
529.339	4629.4
529.705	4675.05
530.071	4724.08
530.437	4737.64
530.803	4763.86
531.169	4790.3
531.535	4787.81
531.901	4781.94
532.267	4829.84
532.632	4826
532.998	4809.73
533.364	4922.95
533.73	4889.73
534.095	4903.06
534.461	4948.49
534.826	5001.37
535.192	5003.4
535.557	5080.23
535.923	5026
536.288	5032.55
536.653	5140.8
537.019	5124.98
537.384	5139.67
537.749	5206.11
538.114	5130.85
538.479	5176.05
538.845	5231.64
539.21	5265.99
539.575	5273
539.94	5293.79
540.305	5341.92
540.67	5347.35
541.034	5315.26
541.399	5377.85
541.764	5410.39
542.129	5401.58
542.494	5444.97
542.858	5469.6
543.223	5465.08
543.587	5468.02
543.952	5459.88
544.316	5527.23
544.681	5531.97
545.045	5520.67
545.41	5616.94
545.774	5609.03
546.138	5612.42
546.503	5645.64
546.867	5619.43
547.231	5691.97
547.595	5719.76
547.959	5735.58
548.324	5744.4
548.688	5771.74
549.052	5797.95
549.416	5839.99
549.779	5863.49
550.143	5864.62
550.507	5916.82
550.871	5913.88
551.235	5880.21
551.599	5886.77
551.962	5966.99
552.326	5969.25
552.689	6016.25
553.053	6031.62
553.417	6030.72
553.78	6131.05
554.143	6086.99
554.507	6117.04
554.87	6171.5
555.234	6222.58
555.597	6173.31
555.96	6227.55
556.323	6210.37
556.686	6232.97
557.05	6284.04
557.413	6357.94
557.776	6336.92
558.139	6348
558.502	6414.21
558.865	6419.86
559.228	6466.86
559.59	6442.01
559.953	6420.76
560.316	6509.12
560.679	6548.22
561.041	6623.92
561.404	6571.04
561.767	6689
562.129	6609.23
562.492	6653.3
562.854	6702.34
563.217	6724.71
563.579	6752.05
563.941	6752.28
564.304	6789.79
564.666	6823.24
565.028	6868.44
565.39	6863.69
565.753	6900.07
566.115	6908.43
566.477	6981.2
566.839	6957.25
567.201	7050.58
567.563	7099.62
567.925	7061.42
568.287	7122.21
568.648	7088.54
569.01	7135.77
569.372	7177.58
569.734	7222.1
570.095	7194.98
570.457	7275.2
570.819	7237.47
571.18	7274.07
571.542	7291.25
571.903	7284.02
572.265	7329.89
572.626	7324.69
572.987	7407.63
573.349	7471.58
573.71	7436.1
574.071	7473.39
574.432	7552.26
574.794	7552.49
575.155	7504.12
575.516	7533.73
575.877	7601.75
576.238	7567.4
576.599	7633.84
576.96	7605.36
577.32	7591.35
577.681	7649.66
578.042	7611.92
578.403	7719.94
578.763	7674.74
579.124	7708.64
579.485	7712.03
579.845	7729.43
580.206	7712.93
580.566	7772.82
580.927	7731.46
581.287	7786.15
581.648	7772.14
582.008	7805.13
582.368	7745.93
582.728	7784.34
583.089	7855.53
583.449	7809.43
583.809	7872.7
584.169	7861.86
584.529	7858.92
584.889	7846.94
585.249	7891.69
585.609	7835.19
585.969	7866.6
586.329	7877.9
586.688	7885.13
587.048	7832.93
587.408	7804.68
587.768	7835.19
588.127	7900.5
588.487	7844.91
588.846	7959.71
589.206	7844.68
589.565	7848.07
589.925	7914.28
590.284	7899.82
590.643	7943.21
591.003	7942.08
591.362	7852.59
591.721	7893.72
592.08	7886.71
592.44	7943.89
592.799	7921.51
593.158	7929.65
593.517	7894.62
593.876	7976.88
594.235	7944.34
594.593	7942.98
594.952	7957.45
595.311	7937.79
595.67	7879.71
596.029	7999.03
596.387	8040.38
596.746	7974.17
597.104	7961.97
597.463	8005.58
597.822	8033.38
598.18	7938.69
598.538	7905.92
598.897	8088.52
599.255	7906.37
599.613	8073.6
599.972	7981.4
600.33	8026.82
600.688	7981.85
601.046	7990.21
601.404	8048.97
601.762	7976.88
602.12	8069.53
602.478	8038.57
602.836	8064.79
603.194	7989.99
603.552	8006.94
603.91	8029.53
604.268	8081.06
604.625	8070.66
604.983	8092.81
605.341	8037.67
605.698	8084.22
606.056	8096.2
606.413	8108.4
606.771	8175.07
607.128	8094.39
607.485	8101.4
607.843	8091
608.2	8154.5
608.557	8169.19
608.914	8205.12
609.272	8109.98
609.629	8140.27
609.986	8189.76
610.343	8202.64
610.7	8239.92
611.057	8162.41
611.414	8215.74
611.771	8322.86
612.127	8281.96
612.484	8246.48
612.841	8308.85
613.198	8247.83
613.554	8244.67
613.911	8281.51
614.267	8309.08
614.624	8235.18
614.98	8309.75
615.337	8387.72
615.693	8260.04
616.05	8287.61
616.406	8331.9
616.762	8302.75
617.118	8307.72
617.475	8328.28
617.831	8363.99
618.187	8396.08
618.543	8385.91
618.899	8435.17
619.255	8386.59
619.611	8299.58
619.967	8400.37
620.323	8399.69
620.678	8429.98
621.034	8390.43
621.39	8415.97
621.746	8403.08
622.101	8482.63
622.457	8406.47
622.812	8416.64
623.168	8441.28
623.523	8439.92
623.879	8427.26
624.234	8412.58
624.589	8513.82
624.945	8412.58
625.3	8455.74
625.655	8419.35
626.01	8501.16
626.365	8488.05
626.72	8443.76
627.075	8490.09
627.43	8485.12
627.785	8421.39
628.14	8494.16
628.495	8495.74
628.85	8445.34
629.205	8414.61
629.559	8480.82
629.914	8431.78
630.269	8516.3
630.623	8408.73
630.978	8462.29
631.332	8413.71
631.687	8441.5
632.041	8409.86
632.396	8456.87
632.75	8402.18
633.104	8390.43
633.459	8398.34
633.813	8353.59
634.167	8379.13
634.521	8360.83
634.875	8340.71
635.229	8380.03
635.583	8330.32
635.937	8363.99
636.291	8333.93
636.645	8341.84
636.999	8314.27
637.352	8349.07
637.706	8325.57
638.06	8348.62
638.413	8269.75
638.767	8296.42
639.121	8323.76
639.474	8306.82
639.828	8289.87
640.181	8316.76
640.534	8325.12
640.888	8233.82
641.241	8256.65
641.594	8262.97
641.947	8293.93
642.301	8219.36
642.654	8296.42
643.007	8276.76
643.36	8279.25
643.713	8244.44
644.066	8283.54
644.419	8178.01
644.771	8107.27
645.124	8120.61
645.477	8097.78
645.83	8095.97
646.182	8067.73
646.535	8044.22
646.888	8006.94
647.24	7960.38
647.593	8026.14
647.945	7981.4
648.298	8053.26
648.65	7969.42
649.002	7984.79
649.355	7966.49
649.707	7985.69
650.059	8007.16
650.411	8072.92
650.763	8170.1
651.115	8182.98
651.467	8157.89
651.819	8166.48
652.171	8191.79
652.523	8195.18
652.875	8081.74
653.227	8154.96
653.578	8213.48
653.93	8193.6
654.282	8163.09
654.633	8162.86
654.985	8155.41
655.337	8256.42
655.688	8162.19
656.039	8189.3
656.391	8143.2
656.742	8152.7
657.094	8127.61
657.445	8179.14
657.796	8154.05
658.147	8128.29
658.498	8220.26
658.849	8180.04
659.2	8148.4
659.551	8142.98
659.902	8179.36
660.253	8156.76
660.604	8205.58
660.955	8089.42
661.306	8139.14
661.656	8093.94
662.007	8157.44
662.358	8087.39
662.708	8079.93
663.059	8086.26
663.409	8122.41
663.76	8184.56
664.11	8197.44
664.461	8230.66
664.811	8178.01
665.161	8197.44
665.511	8135.29
665.862	8154.96
666.212	8162.41
666.562	8172.13
666.912	8164.45
667.262	8150.66
667.612	8116.09
667.962	8151.79
668.312	8107.05
668.662	8152.92
669.011	8140.27
669.361	8079.7
669.711	8112.02
670.06	8166.71
670.41	8128.52
670.76	8107.95
671.109	8091.23
671.459	8154.5
671.808	8214.84
672.157	8131.45
672.507	8104.79
672.856	8129.87
673.205	8065.69
673.554	8091
673.904	8087.16
674.253	8110.21
674.602	8119.02
674.951	7940.5
675.3	7935.07
675.649	8088.29
675.998	8065.47
676.346	8054.17
676.695	8056.88
677.044	8013.94
677.393	8039.7
677.741	8035.18
678.09	7982.98
678.438	7996.99
678.787	8024.56
679.135	7998.12
679.484	7879.26
679.832	7940.95
680.181	7926.03
680.529	8005.58
680.877	7904.11
681.225	7875.64
681.573	7952.02
681.922	7899.59
682.27	7888.97
682.618	7939.37
682.966	7858.92
683.314	7884.91
683.661	7821.4
684.009	7778.47
684.357	7802.87
684.705	7723.1
685.053	7779.15
685.4	7814.85
685.748	7704.8
686.095	7798.35
686.443	7709.77
686.79	7726.94
687.138	7726.04
687.485	7662.54
687.832	7677.68
688.18	7679.94
688.527	7581.86
688.874	7599.94
689.221	7581.86
689.568	7595.65
689.915	7500.96
690.262	7579.38
690.609	7530.56
690.956	7481.3
691.303	7528.76
691.65	7445.6
691.997	7463
692.344	7392.49
692.69	7408.76
693.037	7447.63
693.383	7327.41
693.73	7360.4
694.077	7272.27
694.423	7324.47
694.769	7272.04
695.116	7323.34
695.462	7240.85
695.808	7200.18
696.155	7295.77
696.501	7168.54
696.847	7168.09
697.193	7142.1
697.539	7177.13
697.885	7091.93
698.231	7027.53
698.577	7086.51
698.923	7060.97
699.269	7023.01
699.614	6917.47
699.96	6954.08
700.306	7002.44
700.651	6906.85
700.997	6896.46
701.342	6930.35
701.688	6851.26
702.033	6879.96
702.379	6825.72
702.724	6844.48
703.069	6874.76
703.415	6755.44
703.76	6752.28
704.105	6757.25
704.45	6695.33
704.795	6711.6
705.14	6670.02
705.485	6700.08
705.83	6659.4
706.175	6642.23
706.52	6635
706.865	6585.96
707.209	6584.6
707.554	6583.02
707.899	6611.49
708.243	6467.32
708.588	6545.05
708.932	6501.67
709.277	6453.08
709.621	6510.25
709.966	6472.29
710.31	6488.78
710.654	6418.5
710.998	6409.92
711.342	6406.07
711.687	6423.25
712.031	6411.95
712.375	6337.83
712.719	6379.41
713.063	6336.7
713.407	6379.63
713.75	6337.6
714.094	6310.71
714.438	6299.64
714.782	6315.91
715.125	6256.47
715.469	6290.6
715.812	6290.6
716.156	6222.12
716.499	6237.94
716.843	6259.86
717.186	6187.78
717.53	6270.48
717.873	6219.86
718.216	6244.72
718.559	6257.38
718.902	6198.17
719.246	6193.88
719.589	6157.72
719.932	6146.19
720.275	6251.05
720.617	6175.35
720.96	6143.71
721.303	6147.32
721.646	6162.69
721.989	6114.56
722.331	6131.28
722.674	6110.04
723.016	6115.46
723.359	6109.59
723.701	6106.87
724.044	6121.11
724.386	6081.56
724.729	6136.25
725.071	6107.78
725.413	6077.27
725.755	6068
726.097	6054.45
726.439	6048.57
726.782	5993.66
727.124	6051.06
727.465	6036.37
727.807	6044.28
728.149	6096.03
728.491	6004.5
728.833	6044.28
729.175	6086.99
729.516	6072.75
729.858	6065.07
730.199	6067.33
730.541	6016.93
730.882	6038.63
731.224	6058.51
731.565	6023.49
731.906	6077.5
732.248	6058.96
732.589	6027.1
732.93	6009.93
733.271	5983.03
733.612	5975.35
733.953	6009.47
734.294	6002.24
734.635	5993.2
734.976	6034.11
735.317	6022.36
735.658	5985.07
735.999	6016.71
736.339	5989.36
736.68	6009.7
737.021	5993.43
737.361	5959.53
737.702	6006.31
738.042	6010.83
738.383	5968.35
738.723	5976.03
739.063	6049.7
739.404	6017.38
739.744	6014.67
740.084	5956.37
740.424	5987.78
740.764	6007.44
741.104	6023.94
741.444	6040.43
741.784	5987.78
742.124	5996.82
742.464	5999.53
742.804	5976.93
743.143	5955.92
743.483	5990.04
743.823	5917.05
744.162	5962.02
744.502	5946.65
744.841	5976.26
745.181	5971.51
745.52	5955.24
745.86	5948.46
746.199	5945.52
746.538	5954.56
746.877	5988.68
747.216	5967.44
747.556	5998.18
747.895	5967.89
748.234	5965.86
748.573	5947.56
748.911	5929.48
749.25	5932.19
749.589	5922.47
749.928	5910.49
750.267	6002.47
750.605	5878.4
750.944	5931.51
751.283	5859.87
751.621	5897.39
751.96	5893.09
752.298	5881.34
752.636	5880.89
752.975	5869.59
753.313	5897.84
753.651	5879.31
753.989	5860.33
754.327	5850.61
754.666	5819.2
755.004	5810.61
755.342	5807.67
755.679	5872.98
756.017	5840.67
756.355	5869.59
756.693	5824.17
757.031	5767.67
757.368	5836.6
757.706	5819.2
758.044	5723.83
758.381	5767.67
758.719	5769.03
759.056	5793.66
759.394	5775.58
759.731	5734.23
760.068	5727.45
760.405	5695.13
760.743	5701.69
761.08	5691.74
761.417	5639.31
761.754	5661.01
762.091	5629.6
762.428	5629.6
762.765	5626.43
763.102	5657.17
763.438	5567.9
763.775	5595.25
764.112	5598.41
764.449	5541.24
764.785	5584.4
765.122	5493.56
765.458	5489.49
765.795	5541.69
766.131	5482.26
766.467	5494.69
766.804	5414.69
767.14	5433.44
767.476	5433.22
767.812	5433.44
768.148	5411.3
768.485	5361.13
768.821	5319.78
769.157	5291.98
769.492	5353.67
769.828	5326.1
770.164	5247.01
770.5	5316.84
770.836	5250.62
771.171	5274.35
771.507	5239.55
771.842	5188.93
772.178	5246.78
772.513	5180.34
772.849	5151.19
773.184	5106.9
773.519	5166.79
773.855	5134.92
774.19	5066.45
774.525	5098.99
774.86	5099.89
775.195	5053.57
775.53	5002.72
775.865	4956.4
776.2	5002.04
776.535	4984.64
776.87	5007.47
777.205	4919.56
777.539	4953.68
777.874	4964.08
778.209	4869.84
778.543	4896.28
778.878	4818.77
779.212	4903.06
779.547	4865.32
779.881	4861.26
780.215	4793.69
780.55	4787.36
780.884	4828.71
781.218	4734.71
781.552	4777.87
781.886	4706.23
782.22	4727.25
782.554	4749.39
782.888	4683.18
783.222	4658.1
783.556	4662.84
783.889	4618.1
784.223	4591.88
784.557	4625.1
784.89	4608.38
785.224	4591.43
785.557	4550.76
785.891	4485.67
786.224	4526.12
786.558	4593.47
786.891	4411.78
787.224	4442.74
787.557	4474.83
787.891	4443.87
788.224	4429.18
788.557	4450.65
788.89	4419.69
789.223	4450.42
789.556	4355.28
789.888	4379.01
790.221	4383.98
790.554	4327.94
790.887	4332.23
791.219	4333.81
791.552	4346.24
791.884	4299.24
792.217	4285.23
792.549	4273.25
792.882	4247.26
793.214	4210.65
793.546	4243.19
793.879	4258.56
794.211	4194.38
794.543	4251.33
794.875	4189.86
795.207	4177.43
795.539	4188.28
795.871	4171.78
796.203	4127.94
796.535	4116.87
796.867	4113.25
797.198	4068.96
797.53	4151.22
797.862	4054.27
798.193	4087.72
798.525	4082.52
798.856	4032.58
799.188	4007.95
799.519	3993.26
799.85	3976.08
800.182	4053.14
800.513	3985.35
800.844	3985.57
801.175	3977.21
801.506	3984.9
801.837	3973.14
802.168	3965.01
802.499	3911
802.83	3894.73
803.161	3922.52
803.491	3862.19
803.822	3884.56
804.153	3864.45
804.483	3866.71
804.814	3875.97
805.145	3844.56
805.475	3835.52
805.805	3850.66
806.136	3825.35
806.466	3811.11
806.796	3799.36
807.126	3763.43
807.457	3770.66
807.787	3759.14
808.117	3770.21
808.447	3727.27
808.777	3783.77
809.107	3722.08
809.436	3758.46
809.766	3747.84
810.096	3767.27
810.426	3694.73
810.755	3667.62
811.085	3684.56
811.414	3700.38
811.744	3653.15
812.073	3639.59
812.403	3620.61
812.732	3623.77
813.061	3586.26
813.39	3608.18
813.719	3598.92
814.049	3632.14
814.378	3623.32
814.707	3559.82
815.036	3603.89
815.365	3587.62
815.693	3541.97
816.022	3541.74
816.351	3545.81
816.68	3502.65
817.008	3560.73
817.337	3508.52
817.665	3480.5
817.994	3522.76
818.322	3491.8
818.651	3476.21
818.979	3431.69
819.307	3536.32
819.636	3506.49
819.964	3471.91
820.292	3453.84
820.62	3449.09
820.948	3452.93
821.276	3448.64
821.604	3456.77
821.932	3437.79
822.259	3479.37
822.587	3416.77
822.915	3453.61
823.243	3409.32
823.57	3451.35
823.898	3424.01
824.225	3455.19
824.553	3468.98
824.88	3425.81
825.207	3429.88
825.535	3414.51
825.862	3462.2
826.189	3433.72
826.516	3427.4
826.843	3452.93
827.17	3446.15
827.497	3459.49
827.824	3432.59
828.151	3470.56
828.478	3460.39
828.805	3438.47
829.131	3412.03
829.458	3455.19
829.785	3412.93
830.111	3418.13
830.438	3435.31
830.764	3439.15
831.09	3449.09
831.417	3393.95
831.743	3428.07
832.069	3412.25
832.395	3419.03
832.722	3406.15
833.048	3409.77
833.374	3435.98
833.7	3375.42
834.026	3421.52
834.351	3394.4
834.677	3418.13
835.003	3391.01
835.329	3420.39
835.654	3389.66
835.98	3438.92
836.306	3372.71
836.631	3362.31
836.956	3375.87
837.282	3383.56
837.607	3337.68
837.932	3356.21
838.258	3338.36
838.583	3346.49
838.908	3348.75
839.233	3342.43
839.558	3334.74
839.883	3300.85
840.208	3295.42
840.533	3331.13
840.858	3311.01
841.182	3321.41
841.507	3308.75
841.832	3297.68
842.156	3283.22
842.481	3283.22
842.805	3227.85
843.13	3307.85
843.454	3246.61
843.778	3249.77
844.103	3218.14
844.427	3266.27
844.751	3238.47
845.075	3233.05
845.399	3241.86
845.723	3211.81
846.047	3200.51
846.371	3226.5
846.695	3221.53
847.019	3173.62
847.343	3159.61
847.666	3120.29
847.99	3157.12
848.313	3133.62
848.637	3082.09
848.96	3107.86
849.284	3086.16
849.607	3052.72
849.931	3057.24
850.254	3070.34
850.577	3028.54
850.9	3046.84
851.223	3057.69
851.546	3039.16
851.869	3005.03
852.192	3015.88
852.515	3024.47
852.838	2967.97
853.161	2943.11
853.483	2975.2
853.806	2905.83
854.129	2988.99
854.451	2928.2
854.774	2915.54
855.096	2913.96
855.419	2876
855.741	2901.31
856.063	2862.66
856.385	2902.89
856.708	2840.07
857.03	2862.66
857.352	2836.45
857.674	2823.57
857.996	2830.12
858.318	2788.09
858.64	2807.75
858.961	2782.89
859.283	2808.65
859.605	2786.51
859.926	2834.19
860.248	2800.75
860.57	2791.71
860.891	2815.43
861.212	2735.89
861.534	2775.89
861.855	2757.13
862.176	2738.83
862.498	2771.59
862.819	2772.95
863.14	2722.78
863.461	2781.54
863.782	2729.56
864.103	2727.98
864.424	2721.2
864.745	2743.57
865.065	2717.58
865.386	2717.13
865.707	2702.22
866.027	2722.33
866.348	2711.48
866.668	2721.2
866.989	2709.22
867.309	2664.48
867.63	2692.5
867.95	2707.41
868.27	2687.08
868.59	2659.73
868.91	2672.84
869.23	2677.58
869.55	2645.5
869.87	2704.93
870.19	2634.65
870.51	2648.43
870.83	2640.75
871.15	2680.3
871.469	2627.87
871.789	2657.02
872.109	2645.27
872.428	2622.22
872.748	2644.59
873.067	2625.61
873.386	2612.5
873.706	2595.55
874.025	2625.83
874.344	2591.03
874.663	2584.93
874.982	2625.38
875.301	2614.54
875.62	2617.47
875.939	2582.22
876.258	2591.03
876.577	2553.29
876.896	2568.44
877.214	2563.01
877.533	2534.31
877.852	2602.33
878.17	2568.44
878.489	2570.47
878.807	2556.23
879.125	2551.94
879.444	2583.58
879.762	2538.83
880.08	2549.23
880.398	2552.84
880.716	2550.13
881.034	2532.05
881.352	2539.28
881.67	2536.12
881.988	2512.39
882.306	2510.58
882.624	2496.12
882.941	2480.08
883.259	2490.25
883.577	2491.15
883.894	2492.73
884.212	2495.22
884.529	2484.82
884.846	2469
885.164	2469
885.481	2485.73
885.798	2483.92
886.115	2452.05
886.432	2472.17
886.75	2434.88
887.067	2443.69
887.383	2428.33
887.7	2429.23
888.017	2450.02
888.334	2432.39
888.651	2440.53
888.967	2428.1
889.284	2409.12
889.6	2385.62
889.917	2386.97
890.233	2387.2
890.55	2360.53
890.866	2393.07
891.182	2377.71
891.498	2364.6
891.815	2368.89
892.131	2352.85
892.447	2347.42
892.763	2317.59
893.079	2356.69
893.395	2312.62
893.71	2320.53
894.026	2317.37
894.342	2281.89
894.657	2287.09
894.973	2337.03
895.289	2272.85
895.604	2314.43
895.92	2278.5
896.235	2293.87
896.55	2258.16
896.865	2247.09
897.181	2245.51
897.496	2267.2
897.811	2245.96
898.126	2236.24
898.441	2215.45
898.756	2216.13
899.071	2251.16
899.386	2216.81
899.7	2200.76
900.015	2191.72
900.33	2177.94
900.644	2152.85
900.959	2195.11
901.273	2179.74
901.588	2166.19
901.902	2170.48
902.216	2151.27
902.531	2142.01
902.845	2154.21
903.159	2117.6
903.473	2104.94
903.787	2133.87
904.101	2119.63
904.415	2090.71
904.729	2107.66
905.042	2078.73
905.356	2104.94
905.67	2059.07
905.984	2069.47
906.297	2084.38
906.611	2067.21
906.924	2077.83
907.237	2061.78
907.551	2036.02
907.864	2008.68
908.177	2031.05
908.491	2010.48
908.804	2014.1
909.117	2013.87
909.43	1986.98
909.743	1993.54
910.056	1999.18
910.368	1983.59
910.681	1984.04
910.994	1967.1
911.307	1954.44
911.619	1951.5
911.932	1929.58
912.244	1933.2
912.557	1945.85
912.869	1925.06
913.181	1918.73
913.494	1897.72
913.806	1888.45
914.118	1886.42
914.43	1884.16
914.742	1867.89
915.054	1881.9
915.366	1870.37
915.678	1863.82
915.99	1851.17
916.302	1861.56
916.613	1833.77
916.925	1823.82
917.236	1840.09
917.548	1817.27
917.859	1824.05
918.171	1830.6
918.482	1806.42
918.794	1798.29
919.105	1770.26
919.416	1770.94
919.727	1791.51
920.038	1770.72
920.349	1786.31
920.66	1783.37
920.971	1738.4
921.282	1770.72
921.593	1726.65
921.903	1742.69
922.214	1707.67
922.525	1720.1
922.835	1707.44
923.146	1723.49
923.456	1704.05
923.767	1724.84
924.077	1740.21
924.387	1674.22
924.697	1683.71
925.008	1669.48
925.318	1674
925.628	1673.09
925.938	1676.48
926.248	1657.5
926.558	1686.65
926.867	1669.02
927.177	1654.11
927.487	1623.83
927.796	1614.56
928.106	1631.28
928.416	1628.57
928.725	1615.47
929.034	1591.51
929.344	1584.73
929.653	1579.08
929.962	1591.74
930.271	1578.4
930.581	1591.96
930.89	1563.26
931.199	1566.88
931.508	1552.42
931.817	1537.73
932.125	1557.61
932.434	1545.41
932.743	1535.02
933.051	1521.46
933.36	1516.71
933.669	1532.76
933.977	1525.98
934.286	1500.44
934.594	1517.39
934.902	1498.86
935.21	1510.61
935.519	1482.36
935.827	1488.24
936.135	1484.17
936.443	1476.26
936.751	1462.25
937.059	1480.1
937.367	1449.14
937.674	1426.77
937.982	1441.46
938.29	1458.18
938.597	1437.39
938.905	1416.15
939.213	1408.47
939.52	1442.14
939.827	1410.05
940.135	1427.45
940.442	1401.01
940.749	1418.64
941.056	1380.67
941.363	1387.45
941.67	1381.57
941.977	1368.69
942.284	1366.88
942.591	1375.47
942.898	1361.91
943.205	1352.42
943.511	1375.02
943.818	1349.94
944.125	1359.88
944.431	1354.68
944.738	1339.77
945.044	1334.57
945.35	1362.37
945.657	1339.09
945.963	1333.21
946.269	1339.32
946.575	1322.59
946.881	1302.48
947.187	1324.17
947.493	1318.3
947.799	1319.88
948.105	1288.47
948.41	1294.34
948.716	1322.59
949.022	1265.19
949.327	1257.06
949.633	1266.32
949.938	1271.75
950.244	1273.1
950.549	1267
950.854	1253.89
951.16	1244.18
951.465	1255.7
951.77	1235.14
952.075	1268.13
952.38	1259.77
952.685	1241.92
952.99	1197.62
953.294	1215.48
953.599	1245.53
953.904	1226.32
954.209	1209.15
954.513	1192.88
954.818	1208.92
955.122	1184.52
955.426	1171.86
955.731	1186.1
956.035	1227.68
956.339	1185.65
956.643	1207.34
956.948	1178.42
957.252	1177.96
957.556	1162.14
957.86	1162.82
958.163	1169.15
958.467	1157.62
958.771	1170.05
959.075	1153.33
959.378	1126.21
959.682	1137.51
959.985	1145.65
960.289	1148.81
960.592	1115.59
960.896	1118.08
961.199	1137.29
961.502	1121.92
961.805	1100.23
962.108	1129.15
962.411	1125.08
962.714	1109.72
963.017	1097.97
963.32	1131.64
963.623	1112.2
963.926	1094.12
964.228	1097.74
964.531	1091.19
964.833	1081.24
965.136	1077.4
965.438	1057.97
965.741	1083.73
966.043	1070.85
966.345	1087.8
966.648	1076.5
966.95	1048.48
967.252	1041.02
967.554	1037.18
967.856	1046.44
968.158	1045.76
968.46	1045.09
968.761	1026.33
969.063	1049.38
969.365	1026.78
969.666	1009.61
969.968	1019.32
970.269	1007.12
970.571	1015.26
970.872	1018.65
971.174	1058.64
971.475	1026.55
971.776	995.6
972.077	983.17
972.378	975.93
972.679	989.95
972.98	985.65
973.281	982.49
973.582	1008.93
973.883	984.52
974.183	975.71
974.484	980.91
974.785	982.71
975.085	990.4
975.386	995.82
975.686	940.91
975.986	965.09
976.287	981.58
976.587	949.27
976.887	945.2
977.187	943.85
977.487	930.74
977.787	930.96
978.087	969.83
978.387	947.69
978.687	953.56
978.987	943.62
979.286	925.77
979.586	902.72
979.885	912.21
980.185	910.63
980.484	900.91
980.784	927.8
981.083	907.91
981.382	901.13
981.682	906.33
981.981	914.24
982.28	899.55
982.579	888.48
982.878	906.78
983.177	877.86
983.475	887.12
983.774	862.49
984.073	882.15
984.372	885.09
984.67	870.63
984.969	862.94
985.267	870.85
985.566	862.27
985.864	854.36
986.162	862.49
986.461	850.74
986.759	852.55
987.057	835.6
987.355	863.85
987.653	859.55
987.951	849.84
988.249	834.02
988.547	864.98
988.844	846.22
989.142	849.84
989.44	814.58
989.737	809.39
990.035	814.81
990.332	829.27
990.63	817.75
990.927	825.88
991.224	791.76
991.521	834.47
991.819	804.64
992.116	786.56
992.413	807.13
992.71	808.71
993.006	800.57
993.303	798.99
993.6	814.58
993.897	786.34
994.193	789.27
994.49	788.37
994.787	786.79
995.083	771.87
995.379	806.22
995.676	754.25
995.972	754.47
996.268	767.58
996.565	770.74
996.861	750.4
997.157	779.78
997.453	769.39
997.749	766.45
998.044	775.49
998.34	773.68
998.636	762.16
998.932	757.64
999.227	747.47
999.523	756.96
999.818	734.36
1000.114	731.65
1000.409	743.17
1000.704	720.12
1001	758.77
1001.295	736.17
1001.59	739.56
1001.885	721.03
1002.18	723.96
1002.475	693.91
1002.77	708.82
1003.065	699.33
1003.359	711.76
1003.654	714.02
1003.949	725.77
1004.243	710.18
1004.538	707.02
1004.832	711.53
1005.127	698.88
1005.421	686.22
1005.715	678.32
1006.009	685.77
1006.304	692.55
1006.598	671.08
1006.892	662.72
1007.186	680.8
1007.48	675.15
1007.773	660.91
1008.067	654.36
1008.361	654.14
1008.655	681.48
1008.948	663.4
1009.242	649.84
1009.535	663.63
1009.829	665.43
1010.122	657.3
1010.415	638.32
1010.708	669.05
1011.001	647.36
1011.295	637.86
1011.588	662.5
1011.881	633.57
1012.173	633.34
1012.466	626.79
1012.759	635.38
1013.052	614.14
1013.344	627.24
1013.637	625.44
1013.93	612.78
1014.222	615.94
1014.514	627.92
1014.807	610.29
1015.099	629.28
1015.391	623.18
1015.683	623.85
1015.976	611.65
1016.268	600.35
1016.56	608.94
1016.851	622.72
1017.143	593.8
1017.435	583.85
1017.727	594.25
1018.018	593.12
1018.31	573.23
1018.602	591.54
1018.893	590.18
1019.185	617.75
1019.476	570.97
1019.767	581.14
1020.058	583.85
1020.35	582.95
1020.641	570.3
1020.932	576.85
1021.223	577.75
1021.514	574.14
1021.804	573.23
1022.095	562.61
1022.386	547.7
1022.677	548.83
1022.967	538.21
1023.258	562.39
1023.548	542.95
1023.839	542.95
1024.129	558.09
1024.419	534.36
1024.709	551.09
1025	535.49
1025.29	538.43
1025.58	530.3
1025.87	539.79
1026.16	522.39
1026.449	554.48
1026.739	533.91
1027.029	512.9
1027.319	501.37
1027.608	546.12
1027.898	532.56
1028.187	530.07
1028.477	527.58
1028.766	500.47
1029.055	504.31
1029.344	513.35
1029.634	523.52
1029.923	498.89
1030.212	504.99
1030.501	517.64
1030.79	514.7
1031.078	505.21
1031.367	504.31
1031.656	474.03
1031.945	508.83
1032.233	490.07
1032.522	514.03
1032.81	495.95
1033.099	491.65
1033.387	497.08
1033.675	497.76
1033.963	499.34
1034.251	468.83
1034.54	481.03
1034.828	485.78
1035.116	491.65
1035.403	455.5
1035.691	473.35
1035.979	476.74
1036.267	466.8
1036.554	449.85
1036.842	474.93
1037.129	474.93
1037.417	442.16
1037.704	472.9
1037.992	469.06
1038.279	484.87
1038.566	473.35
1038.853	473.35
1039.14	473.35
