Data from mousepad_grey_FLMS001491_00093.txt Node
Date: Wed Feb 08 14:30:12 GMT 2017
User: dcchb
Spectrometer: FLMS00149
Trigger mode: 0
Integration Time (sec): 2.000000E-2
Scans to average: 10
Electric dark correction enabled: true
Nonlinearity correction enabled: false
Boxcar width: 0
XAxis mode: Wavelengths
Number of Pixels in Spectrum: 2048
>>>>>Begin Spectral Data<<<<<
341.393	-21.68
341.776	-21.68
342.16	-21.68
342.543	-46.99
342.927	-57.39
343.31	-72.07
343.693	-78.63
344.077	-65.75
344.46	-53.54
344.843	-59.65
345.226	-46.09
345.61	-33.43
345.993	-4.51
346.376	-15.13
346.759	15.83
347.142	14.48
347.525	31.88
347.908	67.58
348.291	82.72
348.674	114.14
349.057	102.16
349.44	128.6
349.823	157.75
350.206	162.72
350.588	182.61
350.971	200.46
351.354	218.99
351.737	226.67
352.119	227.13
352.502	229.16
352.884	292.21
353.267	267.35
353.65	281.59
354.032	287.46
354.414	288.14
354.797	305.99
355.179	307.12
355.562	315.26
355.944	313
356.326	308.25
356.709	321.59
357.091	334.24
357.473	336.28
357.855	322.27
358.238	314.58
358.62	323.85
359.002	314.13
359.384	303.73
359.766	323.17
360.148	319.1
360.53	326.11
360.912	309.61
361.294	317.07
361.676	300.8
362.057	326.11
362.439	302.38
362.821	343.73
363.203	320.68
363.584	309.16
363.966	294.92
364.348	310.06
364.729	310.51
365.111	299.89
365.493	290.4
365.874	291.31
366.256	305.54
366.637	300.57
367.019	301.93
367.4	304.41
367.781	300.8
368.163	289.72
368.544	310.29
368.925	293.34
369.306	298.09
369.688	298.31
370.069	314.36
370.45	292.89
370.831	307.8
371.212	294.47
371.593	304.41
371.974	287.24
372.355	303.96
372.736	307.35
373.117	294.92
373.498	294.02
373.879	301.93
374.26	309.61
374.641	296.96
375.021	291.08
375.402	295.15
375.783	311.42
376.163	309.61
376.544	326.56
376.925	300.35
377.305	321.81
377.686	323.17
378.066	315.94
378.447	334.02
378.827	316.39
379.208	302.15
379.588	303.51
379.968	303.28
380.349	306.45
380.729	334.69
381.109	321.81
381.489	335.15
381.87	311.19
382.25	321.14
382.63	304.64
383.01	315.03
383.39	322.04
383.77	318.88
384.15	327.46
384.53	318.88
384.91	317.75
385.29	309.16
385.67	310.74
386.049	336.73
386.429	336.28
386.809	344.64
387.189	344.64
387.568	333.11
387.948	340.8
388.328	330.17
388.707	339.89
389.087	327.01
389.466	343.73
389.846	319.55
390.225	335.6
390.605	348.03
390.984	339.44
391.363	358.87
391.743	357.74
392.122	353
392.501	352.55
392.881	367.24
393.26	361.13
393.639	367.91
394.018	365.43
394.397	351.87
394.776	361.36
395.155	385.77
395.534	367.91
395.913	380.8
396.292	367.91
396.671	390.29
397.05	380.8
397.429	390.96
397.808	383.05
398.186	378.99
398.565	393
398.944	390.06
399.323	385.77
399.701	369.27
400.08	382.83
400.458	373.56
400.837	384.86
401.215	360.46
401.594	373.56
401.972	391.19
402.351	389.83
402.729	383.73
403.107	402.72
403.486	398.42
403.864	402.26
404.242	414.69
404.62	389.16
404.999	408.59
405.377	401.59
405.755	424.64
406.133	416.95
406.511	420.12
406.889	428.93
407.267	419.44
407.645	431.87
408.023	429.38
408.401	427.35
408.779	435.93
409.156	426.22
409.534	442.04
409.912	428.7
410.29	452.66
410.667	476.61
411.045	447.91
411.422	435.26
411.8	458.08
412.178	496.5
412.555	465.54
412.933	446.1
413.31	455.37
413.687	493.79
414.065	485.88
414.442	487.68
414.819	487.01
415.197	475.48
415.574	500.34
415.951	501.02
416.328	501.92
416.705	510.28
417.082	497.85
417.46	501.47
417.837	504.41
418.214	499.21
418.591	512.54
418.967	509.38
419.344	508.48
419.721	534.69
420.098	547.12
420.475	504.41
420.852	543.05
421.228	531.53
421.605	554.35
421.982	527.46
422.358	537.18
422.735	564.52
423.111	529.94
423.488	552.09
423.864	545.76
424.241	559.32
424.617	561.81
424.994	582.82
425.37	554.35
425.746	564.29
426.123	578.3
426.499	581.02
426.875	581.69
427.251	604.52
427.627	602.48
428.003	590.51
428.379	611.07
428.756	621.69
429.132	626.89
429.507	617.85
429.883	631.86
430.259	631.41
430.635	639.09
431.011	637.74
431.387	654.46
431.763	653.33
432.138	684.74
432.514	662.37
432.89	667.57
433.265	683.61
433.641	677.74
434.016	687
434.392	703.05
434.767	706.66
435.143	698.75
435.518	730.62
435.894	705.08
436.269	744.4
436.644	723.16
437.02	729.49
437.395	742.59
437.77	737.4
438.145	738.07
438.52	781.69
438.895	746.44
439.271	753.21
439.646	755.47
440.021	773.78
440.395	795.25
440.77	784.17
441.145	784.63
441.52	806.77
441.895	806.55
442.27	804.74
442.645	820.56
443.019	828.69
443.394	806.55
443.769	817.39
444.143	794.12
444.518	822.37
444.892	835.25
445.267	852.2
445.641	845.42
446.016	851.07
446.39	832.31
446.764	869.6
447.139	863.49
447.513	880.44
447.887	875.25
448.262	874.12
448.636	883.38
449.01	905.75
449.384	882.48
449.758	917.96
450.132	903.04
450.506	915.24
450.88	911.63
451.254	922.7
451.628	948.92
452.002	943.49
452.376	945.07
452.75	966.09
453.123	948.24
453.497	979.42
453.871	961.57
454.244	992.76
454.618	991.85
454.992	1023.72
455.365	1006.99
455.739	1025.98
456.112	1056.26
456.486	1039.08
456.859	1038.63
457.232	1053.55
457.606	1068.91
457.979	1083.38
458.352	1097.16
458.725	1077.95
459.099	1095.8
459.472	1147.55
459.845	1144.39
460.218	1171.06
460.591	1167.44
460.964	1172.19
461.337	1182.81
461.71	1195.24
462.083	1221.45
462.456	1230.26
462.829	1217.16
463.201	1262.35
463.574	1223.94
463.947	1278.17
464.32	1280.21
464.692	1298.29
465.065	1282.47
465.438	1315.46
465.81	1322.24
466.183	1321.79
466.555	1349.13
466.928	1368.79
467.3	1386.19
467.672	1381.67
468.045	1405.4
468.417	1406.53
468.789	1427.1
469.161	1449.02
469.534	1473.65
469.906	1491.95
470.278	1508.45
470.65	1498.05
471.022	1544.83
471.394	1563.36
471.766	1588.45
472.138	1621.89
472.51	1613.98
472.882	1660.54
473.253	1675.45
473.625	1706.41
473.997	1694.21
474.369	1744.83
474.74	1707.09
475.112	1750.25
475.484	1783.02
475.855	1798.61
476.227	1836.58
476.598	1874.09
476.97	1870.25
477.341	1883.81
477.713	1921.32
478.084	1948.89
478.455	1994.54
478.827	2016.91
479.198	2072.95
479.569	2059.17
479.94	2124.48
480.311	2142.78
480.682	2157.47
481.053	2247.64
481.424	2238.15
481.795	2253.06
482.166	2305.94
482.537	2330.8
482.908	2359.73
483.279	2350.01
483.65	2413.96
484.021	2478.14
484.391	2465.71
484.762	2514.75
485.133	2543.22
485.503	2560.85
485.874	2639.49
486.244	2639.27
486.615	2663.67
486.985	2697.34
487.356	2771.01
487.726	2771.69
488.097	2816.44
488.467	2875.87
488.837	2895.76
489.207	2923.78
489.578	2937.56
489.948	2994.29
490.318	3000.39
490.688	3028.41
491.058	3079.93
491.428	3072.93
491.798	3139.59
492.168	3179.82
492.538	3181.17
492.908	3253.94
493.278	3229.08
493.648	3288.97
494.017	3332.13
494.387	3349.98
494.757	3382.07
495.126	3403.54
495.496	3406.03
495.866	3442.41
496.235	3515.85
496.605	3509.75
496.974	3531.22
497.344	3567.38
497.713	3576.87
498.082	3620.48
498.452	3670.43
498.821	3655.29
499.19	3674.49
499.559	3718.79
499.928	3747.49
500.298	3746.13
500.667	3813.25
501.036	3815.73
501.405	3830.65
501.774	3847.14
502.143	3878.1
502.512	3881.95
502.88	3949.51
503.249	3935.05
503.618	4002.85
503.987	4055.5
504.356	4033.81
504.724	4027.93
505.093	4085.78
505.462	4095.5
505.83	4109.28
506.199	4121.04
506.567	4161.49
506.936	4148.15
507.304	4233.58
507.672	4272.22
508.041	4265.44
508.409	4295.49
508.777	4333.23
509.145	4379.33
509.514	4407.81
509.882	4415.94
510.25	4468.82
510.618	4449.61
510.986	4451.42
511.354	4532.55
511.722	4561.25
512.09	4626.79
512.458	4604.64
512.826	4676.95
513.193	4632.89
513.561	4691.87
513.929	4747.23
514.297	4752.66
514.664	4772.54
515.032	4770.28
515.4	4849.38
515.767	4862.03
516.135	4870.85
516.502	4879.66
516.869	4956.95
517.237	4990.39
517.604	4990.17
517.972	5022.48
518.339	5027.45
518.706	5070.16
519.073	5070.62
519.44	5122.37
519.808	5208.69
520.175	5155.36
520.542	5233.77
520.909	5243.04
521.276	5273.55
521.643	5334.79
522.009	5380.66
522.376	5427.89
522.743	5436.26
523.11	5512.86
523.477	5512.86
523.843	5599.19
524.21	5625.18
524.577	5688.68
524.943	5696.81
525.31	5754.89
525.676	5768.9
526.043	5790.82
526.409	5842.35
526.776	5859.97
527.142	5871.05
527.508	5939.07
527.874	5999.4
528.241	6015.22
528.607	6054.09
528.973	6120.31
529.339	6134.54
529.705	6103.36
530.071	6215.9
530.437	6258.38
530.803	6294.99
531.169	6317.14
531.535	6332.73
531.901	6367.3
532.267	6339.28
532.632	6419.96
532.998	6397.36
533.364	6493.63
533.73	6528.2
534.095	6591.25
534.461	6643.91
534.826	6614.53
535.192	6667.86
535.557	6715.54
535.923	6692.72
536.288	6720.97
536.653	6755.09
537.019	6761.87
537.384	6850.68
537.749	6896.33
538.114	6846.84
538.479	6868.31
538.845	6919.38
539.21	6893.17
539.575	6999.6
539.94	6989.43
540.305	7076.21
540.67	7018.36
541.034	7068.75
541.399	7176.32
541.764	7159.6
542.129	7142.2
542.494	7156.44
542.858	7260.16
543.223	7221.52
543.587	7300.61
543.952	7285.92
544.316	7315.08
544.681	7350.78
545.045	7405.7
545.41	7397.56
545.774	7513.94
546.138	7485.24
546.503	7519.14
546.867	7548.97
547.231	7571.34
547.595	7586.26
547.959	7610.89
548.324	7643.88
548.688	7658.12
549.052	7673.94
549.416	7708.29
549.779	7801.39
550.143	7762.52
550.507	7843.65
550.871	7852.91
551.235	7905.79
551.599	7961.16
551.962	7952.57
552.326	7981.95
552.689	8042.51
553.053	8014.94
553.417	8055.85
553.78	8097.65
554.143	8108.95
554.507	8148.73
554.87	8153.02
555.234	8254.26
555.597	8201.83
555.96	8244.09
556.323	8324.77
556.686	8319.12
557.05	8431.43
557.413	8415.16
557.776	8395.95
558.139	8566.79
558.502	8554.82
558.865	8591.2
559.228	8651.76
559.59	8640.92
559.953	8684.53
560.316	8745.09
560.679	8691.54
561.041	8800.01
561.404	8816.05
561.767	8894.92
562.129	8885.43
562.492	8953.45
562.854	8972.89
563.217	8962.04
563.579	8935.82
563.941	9065.54
564.304	9159.77
564.666	9151.41
565.028	9212.88
565.39	9261.01
565.753	9283.61
566.115	9324.97
566.477	9346.89
566.839	9357.73
567.201	9411.52
567.563	9482.7
567.925	9519.31
568.287	9500.78
568.648	9588.69
569.01	9616.48
569.372	9603.15
569.734	9649.7
570.095	9710.72
570.457	9758.63
570.819	9714.56
571.18	9766.99
571.542	9800.66
571.903	9879.3
572.265	9945.52
572.626	9948.91
572.987	9891.51
573.349	9907.32
573.71	9950.03
574.071	10028.9
574.432	10068.22
574.794	10138.73
575.155	10150.26
575.516	10109.13
575.877	10206.3
576.238	10122.23
576.599	10185.96
576.96	10207.88
577.32	10241.1
577.681	10264.83
578.042	10323.36
578.403	10312.74
578.763	10326.52
579.124	10379.4
579.485	10372.4
579.845	10391.15
580.206	10424.82
580.566	10422.11
580.927	10469.57
581.287	10460.3
581.648	10394.77
582.008	10478.16
582.368	10524.26
582.728	10516.35
583.089	10530.36
583.449	10501.88
583.809	10547.99
584.169	10504.82
584.529	10493.98
584.889	10560.19
585.249	10565.39
585.609	10508.21
585.969	10557.93
586.329	10528.55
586.688	10544.82
587.048	10614.2
587.408	10615.55
587.768	10623.69
588.127	10527.19
588.487	10520.19
588.846	10651.94
589.206	10553.86
589.565	10637.47
589.925	10691.03
590.284	10668.21
590.643	10634.99
591.003	10652.84
591.362	10728.77
591.721	10629.11
592.08	10694.87
592.44	10628.89
592.799	10705.04
593.158	10688.32
593.517	10651.49
593.876	10650.81
594.235	10682.67
594.593	10698.72
594.952	10695.33
595.311	10726.06
595.67	10750.47
596.029	10731.03
596.387	10719.96
596.746	10789.33
597.104	10797.24
597.463	10740.97
597.822	10801.09
598.18	10700.52
598.538	10737.81
598.897	10853.97
599.255	10790.92
599.613	10800.86
599.972	10776.45
600.33	10865.94
600.688	10830.24
601.046	10809.67
601.404	10882.67
601.762	10883.57
602.12	10905.49
602.478	10886.96
602.836	10920.4
603.194	10866.4
603.552	10871.14
603.91	10812.61
604.268	10909.11
604.625	10880.41
604.983	10863.01
605.341	10863.46
605.698	10950.01
606.056	11014.19
606.413	10954.08
606.771	10989.78
607.128	10972.16
607.485	11005.83
607.843	10943.46
608.2	11028.65
608.557	11046.28
608.914	10999.95
609.272	11010.57
609.629	11085.15
609.986	11134.41
610.343	11081.3
610.7	11214.63
611.057	11121.08
611.414	11111.36
611.771	11117.91
612.127	11168.53
612.484	11173.05
612.841	11117.91
613.198	11167.4
613.554	11183.22
613.911	11209.66
614.267	11253.96
614.624	11221.19
614.98	11250.57
615.337	11246.27
615.693	11248.08
616.05	11268.64
616.406	11372.82
616.762	11287.63
617.118	11278.59
617.475	11311.13
617.831	11302.32
618.187	11354.29
618.543	11280.62
618.899	11360.62
619.255	11411.24
619.611	11412.37
619.967	11499.6
620.323	11465.48
620.678	11414.18
621.034	11357.46
621.39	11371.01
621.746	11362.2
622.101	11500.73
622.457	11421.41
622.812	11457.79
623.168	11435.87
623.523	11489.88
623.879	11469.32
624.234	11382.09
624.589	11458.24
624.945	11385.25
625.3	11564
625.655	11517.9
626.01	11484.46
626.365	11489.43
626.72	11481.52
627.075	11499.15
627.43	11520.16
627.785	11375.99
628.14	11531.69
628.495	11504.57
628.85	11438.81
629.205	11443.56
629.559	11476.55
629.914	11453.5
630.269	11486.72
630.623	11403.1
630.978	11460.05
631.332	11502.54
631.687	11469.54
632.041	11397
632.396	11459.37
632.75	11349.55
633.104	11412.14
633.459	11352.26
633.813	11358.81
634.167	11408.3
634.521	11310.45
634.875	11382.77
635.229	11335.99
635.583	11267.06
635.937	11332.37
636.291	11259.38
636.645	11400.17
636.999	11302.09
637.352	11362.65
637.706	11272.49
638.06	11277.46
638.413	11291.02
638.767	11232.71
639.121	11261.41
639.474	11222.09
639.828	11179.83
640.181	11195.2
640.534	11164.92
640.888	11255.76
641.241	11178.25
641.594	11164.47
641.947	11203.79
642.301	11206.95
642.654	11271.36
643.007	11228.87
643.36	11201.3
643.713	11109.78
644.066	11215.99
644.419	11165.37
644.771	11094.19
645.124	10959.73
645.477	10978.26
645.83	10834.08
646.182	10882.89
646.535	10817.58
646.888	10809.22
647.24	10741.88
647.593	10846.96
647.945	10860.29
648.298	10798.83
648.65	10724.93
649.002	10763.57
649.355	10856.45
649.707	10824.81
650.059	10834.08
650.411	10939.84
650.763	10968.31
651.115	11103.45
651.467	11087.18
651.819	11031.14
652.171	11069.1
652.523	11003.11
652.875	11016
653.227	11022.32
653.578	11055.99
653.93	11030.91
654.282	11036.56
654.633	10917.47
654.985	11019.16
655.337	10954.53
655.688	11012.38
656.039	11014.64
656.391	10954.53
656.742	10958.6
657.094	10981.42
657.445	10999.27
657.796	10998.82
658.147	11041.53
658.498	10925.83
658.849	11025.94
659.2	11003.34
659.551	10926.05
659.902	11002.89
660.253	11008.76
660.604	11060.51
660.955	10966.05
661.306	11015.09
661.656	10968.99
662.007	10976.45
662.358	10947.07
662.708	10994.75
663.059	10993.17
663.409	10880.86
663.76	10968.54
664.11	10934.64
664.461	10984.36
664.811	10995.43
665.161	10965.38
665.511	10984.36
665.862	11029.1
666.212	11008.54
666.562	10997.01
666.912	10990.46
667.262	10939.39
667.612	11001.08
667.962	10967.64
668.312	11027.97
668.662	11010.8
669.011	10999.27
669.361	10933.51
669.711	10928.77
670.06	10947.07
670.41	10991.14
670.76	10957.24
671.109	10970.12
671.459	10913.4
671.808	10924.47
672.157	10971.25
672.507	10828.2
672.856	10952.72
673.205	10897.13
673.554	10872.04
673.904	10897.81
674.253	10931.93
674.602	10876.56
674.951	10717.7
675.3	10663.01
675.649	10860.75
675.998	10860.07
676.346	10827.3
676.695	10891.25
677.044	10810.8
677.393	10835.44
677.741	10845.83
678.09	10809.22
678.438	10747.53
678.787	10811.71
679.135	10805.83
679.484	10703.46
679.832	10792.5
680.181	10707.08
680.529	10730.13
680.877	10755.66
681.225	10673.86
681.573	10770.35
681.922	10682.45
682.27	10645.38
682.618	10670.02
682.966	10605.16
683.314	10632.73
683.661	10594.76
684.009	10505.05
684.357	10509.57
684.705	10466.86
685.053	10489.91
685.4	10542.56
685.748	10462.56
686.095	10392.51
686.443	10359.52
686.79	10353.19
687.138	10377.59
687.485	10426.86
687.832	10370.36
688.18	10409.91
688.527	10331.49
688.874	10287.65
689.221	10270.25
689.568	10243.59
689.915	10189.8
690.262	10245.85
690.609	10171.72
690.956	10113.42
691.303	10088.79
691.65	10142.57
691.997	10055.79
692.344	10068.22
692.69	10021.45
693.037	9999.98
693.383	9920.21
693.73	9920.66
694.077	9971.05
694.423	9931.28
694.769	9828.68
695.116	9904.16
695.462	9849.47
695.808	9808.12
696.155	9782.58
696.501	9700.32
696.847	9720.66
697.193	9707.33
697.539	9687.44
697.885	9595.47
698.231	9605.41
698.577	9662.81
698.923	9549.59
699.269	9544.17
699.614	9520.22
699.96	9440.67
700.306	9414.68
700.651	9424.85
700.997	9432.53
701.342	9384.4
701.688	9405.64
702.033	9288.36
702.379	9295.59
702.724	9270.5
703.069	9246.55
703.415	9133.79
703.76	9222.14
704.105	9174.69
704.45	9149.15
704.795	9102.6
705.14	9121.13
705.485	9088.81
705.83	9070.96
706.175	8989.16
706.52	9035.71
706.865	9048.82
707.209	8979.67
707.554	8966.78
707.899	8943.06
708.243	8899.89
708.588	8910.74
708.932	8858.31
709.277	8852.21
709.621	8795.49
709.966	8787.13
710.31	8768.37
710.654	8746.45
710.998	8764.3
711.342	8720.91
711.687	8725.89
712.031	8659.45
712.375	8658.77
712.719	8705.77
713.063	8713.01
713.407	8678.88
713.75	8609.28
714.094	8638.43
714.438	8590.75
714.782	8619.67
715.125	8599.56
715.469	8552.33
715.812	8614.02
716.156	8519.79
716.499	8493.35
716.843	8554.82
717.186	8507.14
717.53	8502.84
717.873	8538.09
718.216	8493.8
718.559	8477.98
718.902	8404.09
719.246	8453.13
719.589	8476.85
719.932	8405.22
720.275	8397.53
720.617	8386.69
720.96	8373.13
721.303	8380.81
721.646	8414.03
721.989	8322.28
722.331	8374.71
722.674	8305.56
723.016	8369.74
723.359	8322.96
723.701	8352.34
724.044	8284.09
724.386	8250.42
724.729	8269.85
725.071	8275.73
725.413	8331.32
725.755	8262.85
726.097	8221.04
726.439	8219.91
726.782	8204.77
727.124	8257.88
727.465	8242.51
727.807	8191.21
728.149	8186.92
728.491	8142.4
728.833	8211.1
729.175	8118.67
729.516	8155.28
729.858	8092.46
730.199	8146.92
730.541	8180.82
730.882	8190.99
731.224	8128.16
731.565	8121.38
731.906	8175.62
732.248	8157.54
732.589	8109.63
732.93	8098.56
733.271	8086.13
733.612	8109.41
733.953	8095.17
734.294	8121.38
734.635	8100.14
734.976	8117.54
735.317	8042.51
735.658	8011.78
735.999	8103.3
736.339	8083.64
736.68	8071.89
737.021	8073.93
737.361	8104.21
737.702	8053.59
738.042	8092.91
738.383	8058.33
738.723	8099.24
739.063	8011.1
739.404	8041.16
739.744	8028.96
740.084	8031.22
740.424	8038.22
740.764	8052.01
741.104	8014.27
741.444	7968.62
741.784	8019.01
742.124	7994.83
742.464	8031.44
742.804	7978.56
743.143	8001.61
743.483	7986.7
743.823	7948.96
744.162	7928.17
744.502	8004.1
744.841	7908.05
745.181	7984.44
745.52	7929.07
745.86	7969.52
746.199	7874.84
746.538	7970.2
746.877	8023.08
747.216	7976.75
747.556	8000.26
747.895	7996.64
748.234	7908.28
748.573	7961.84
748.911	7928.62
749.25	7904.67
749.589	7870.32
749.928	7888.85
750.267	7887.26
750.605	7933.59
750.944	7832.8
751.283	7882.74
751.621	7921.16
751.96	7840.26
752.298	7866.47
752.636	7871.9
752.975	7867.15
753.313	7711.68
753.651	7829.86
753.989	7816.08
754.327	7814.5
754.666	7748.06
755.004	7788.28
755.342	7687.95
755.679	7810.88
756.017	7753.26
756.355	7773.82
756.693	7777.21
757.031	7697.89
757.368	7663.77
757.706	7637.33
758.044	7625.8
758.381	7582.87
758.719	7668.74
759.056	7599.36
759.394	7545.13
759.731	7536.77
760.068	7535.41
760.405	7540.61
760.743	7501.29
761.08	7484.34
761.417	7502.42
761.754	7455.64
762.091	7456.32
762.428	7425.81
762.765	7338.35
763.102	7414.73
763.438	7372.93
763.775	7400.27
764.112	7304.68
764.449	7367.5
764.785	7311.91
765.122	7244.12
765.458	7257.68
765.795	7222.65
766.131	7214.74
766.467	7193.05
766.804	7164.12
767.14	7134.97
767.476	7135.19
767.812	7132.26
768.148	7093.61
768.485	7018.81
768.821	6988.3
769.157	7029.21
769.492	7009.77
769.828	6985.14
770.164	6926.39
770.5	6929.78
770.836	6911.24
771.171	6891.81
771.507	6819.72
771.842	6839.38
772.178	6887.06
772.513	6795.54
772.849	6785.15
773.184	6771.81
773.519	6839.38
773.855	6729.1
774.19	6678.71
774.525	6686.84
774.86	6666.28
775.195	6666.51
775.53	6622.66
775.865	6614.53
776.2	6563.91
776.535	6502.89
776.87	6485.04
777.205	6475.1
777.539	6544.02
777.874	6490.46
778.209	6438.26
778.543	6388.09
778.878	6397.59
779.212	6405.5
779.547	6331.6
779.881	6335.67
780.215	6328.21
780.55	6319.62
780.884	6244.14
781.218	6258.15
781.552	6237.36
781.886	6207.76
782.22	6190.81
782.554	6174.54
782.888	6137.93
783.222	6087.54
783.556	6117.14
783.889	6113.53
784.223	6024.26
784.557	6014.32
784.89	6053.87
785.224	6006.86
785.557	5985.39
785.891	5974.32
786.224	5975
786.558	5979.52
786.891	5953.98
787.224	5904.27
787.557	5874.44
787.891	5829.01
788.224	5841.67
788.557	5840.09
788.89	5747.89
789.223	5787.43
789.556	5728.9
789.888	5759.18
790.221	5697.04
790.554	5711.05
790.887	5680.09
791.219	5698.17
791.552	5648.45
791.884	5631.96
792.217	5611.39
792.549	5574.56
792.882	5562.13
793.214	5528.68
793.546	5588.57
793.879	5526.42
794.211	5470.38
794.543	5498.63
794.875	5481
795.207	5491.4
795.539	5455.69
795.871	5467.67
796.203	5412.3
796.535	5393.09
796.867	5403.49
797.198	5402.58
797.53	5347.44
797.862	5361.23
798.193	5309.48
798.525	5334.56
798.856	5358.52
799.188	5259.54
799.519	5265.64
799.85	5179.54
800.182	5180.89
800.513	5210.05
800.844	5178.86
801.175	5202.82
801.506	5227.22
801.837	5181.57
802.168	5163.27
802.499	5152.42
802.83	5115.13
803.161	5096.83
803.491	5030.16
803.822	5081.46
804.153	5061.35
804.483	5028.58
804.814	5047.79
805.145	5038.53
805.475	5006.21
805.805	4955.36
806.136	5001.69
806.466	4970.28
806.796	4974.8
807.126	4955.59
807.457	4945.19
807.787	4957.85
808.117	4902.48
808.447	4876.27
808.777	4887.34
809.107	4855.71
809.436	4874.01
809.766	4893.9
810.096	4852.99
810.426	4801.47
810.755	4849.15
811.085	4835.14
811.414	4813.9
811.744	4775.93
812.073	4761.92
812.403	4748.82
812.732	4725.77
813.061	4720.79
813.39	4765.99
813.719	4747.46
814.049	4715.14
814.378	4713.34
814.707	4682.83
815.036	4719.89
815.365	4696.84
815.693	4605.99
816.022	4616.16
816.351	4585.66
816.68	4614.36
817.008	4564.87
817.337	4574.13
817.665	4588.82
817.994	4556.96
818.322	4619.55
818.651	4552.66
818.979	4542.95
819.307	4572.32
819.636	4481.03
819.964	4512.21
820.292	4509.95
820.62	4529.84
820.948	4536.62
821.276	4526
821.604	4496.17
821.932	4531.19
822.259	4530.97
822.587	4520.12
822.915	4467.92
823.243	4478.54
823.57	4449.84
823.898	4479.44
824.225	4446.45
824.553	4456.85
824.88	4509.27
825.207	4478.99
825.535	4459.56
825.862	4489.16
826.189	4429.5
826.516	4493
826.843	4500.69
827.17	4495.04
827.497	4486.9
827.824	4467.47
828.151	4495.49
828.478	4499.78
828.805	4489.39
829.131	4434.02
829.458	4504.08
829.785	4460.24
830.111	4475.6
830.438	4476.05
830.764	4465.43
831.09	4478.99
831.417	4443.51
831.743	4520.12
832.069	4473.34
832.395	4470.18
832.722	4467.92
833.048	4507.47
833.374	4444.19
833.7	4406.45
834.026	4463.63
834.351	4438.54
834.677	4432.44
835.003	4493.46
835.329	4436.28
835.654	4421.59
835.98	4433.8
836.306	4396.06
836.631	4382.72
836.956	4390.86
837.282	4382.95
837.607	4381.59
837.932	4383.18
838.258	4380.01
838.583	4364.87
838.908	4377.07
839.233	4350.63
839.558	4387.92
839.883	4355.15
840.208	4321.26
840.533	4338.43
840.858	4304.76
841.182	4330.07
841.507	4312.67
841.832	4306.34
842.156	4283.97
842.481	4304.76
842.805	4259.56
843.13	4256.4
843.454	4212.11
843.778	4238.77
844.103	4257.76
844.427	4251.43
844.751	4261.15
845.075	4207.59
845.399	4199.23
845.723	4220.69
846.047	4184.76
846.371	4161.49
846.695	4143.86
847.019	4149.06
847.343	4122.62
847.666	4124.65
847.99	4060.92
848.313	4088.95
848.637	4066.57
848.96	4068.16
849.284	4024.09
849.607	4036.97
849.931	3996.75
850.254	3963.07
850.577	3983.86
850.9	3933.24
851.223	3989.74
851.546	3920.59
851.869	3882.4
852.192	3928.27
852.515	3890.99
852.838	3876.52
853.161	3880.14
853.483	3862.51
853.806	3845.11
854.129	3803.08
854.451	3786.36
854.774	3787.94
855.096	3808.05
855.419	3759.01
855.741	3762.18
856.063	3748.84
856.385	3756.3
856.708	3735.51
857.03	3745.68
857.352	3683.76
857.674	3713.81
857.996	3683.99
858.318	3683.31
858.64	3682.86
858.961	3701.16
859.283	3659.35
859.605	3596.76
859.926	3665.23
860.248	3646.02
860.57	3630.43
860.891	3650.99
861.212	3584.1
861.534	3607.6
861.855	3586.81
862.176	3601.05
862.498	3574.16
862.819	3635.4
863.14	3570.77
863.461	3598.79
863.782	3534.16
864.103	3563.08
864.424	3563.31
864.745	3544.55
865.065	3566.02
865.386	3492.58
865.707	3503.2
866.027	3513.82
866.348	3543.2
866.668	3506.81
866.989	3515.85
867.309	3479.24
867.63	3448.96
867.95	3528.96
868.27	3466.36
868.59	3500.94
868.91	3440.15
869.23	3489.19
869.55	3430.21
869.87	3474.73
870.19	3414.84
870.51	3407.83
870.83	3447.38
871.15	3440.15
871.469	3458
871.789	3454.61
872.109	3446.25
872.428	3411.45
872.748	3441.28
873.067	3397.89
873.386	3416.2
873.706	3429.75
874.025	3394.28
874.344	3403.77
874.663	3412.13
874.982	3356.99
875.301	3383.88
875.62	3392.69
875.939	3349.98
876.258	3379.36
876.577	3321.51
876.896	3396.08
877.214	3347.27
877.533	3354.5
877.852	3315.63
878.17	3336.65
878.489	3338.01
878.807	3315.41
879.125	3320.6
879.444	3308.63
879.762	3292.58
880.08	3305.01
880.398	3275.41
880.716	3293.49
881.034	3294.16
881.352	3296.65
881.67	3269.31
881.988	3282.19
882.306	3249.42
882.624	3231.34
882.941	3240.61
883.259	3234.96
883.577	3256.43
883.894	3208.29
884.212	3231.79
884.529	3278.8
884.846	3192.47
885.164	3214.39
885.481	3225.24
885.798	3183.66
886.115	3196.31
886.432	3172.59
886.75	3165.58
887.067	3156.09
887.383	3203.55
887.7	3156.77
888.017	3185.69
888.334	3140.95
888.651	3138.46
888.967	3164.68
889.284	3115.86
889.6	3102.53
889.917	3081.74
890.233	3095.75
890.55	3086.03
890.866	3046.71
891.182	3092.14
891.498	3081.52
891.815	3063.66
892.131	3059.37
892.447	3036.32
892.763	3047.17
893.079	3018.47
893.395	3014.62
893.71	3014.4
894.026	2996.77
894.342	2964.46
894.657	3011.01
894.973	2986.6
895.289	2979.82
895.604	2998.81
895.92	2923.33
896.235	2974.4
896.55	2945.02
896.865	2933.72
897.181	2930.11
897.496	2892.14
897.811	2888.53
898.126	2869.32
898.441	2867.51
898.756	2873.16
899.071	2845.59
899.386	2875.19
899.7	2824.35
900.015	2830.22
900.33	2801.07
900.644	2834.29
900.959	2835.42
901.273	2783.9
901.588	2789.09
901.902	2801.3
902.216	2785.25
902.531	2757.23
902.845	2744.57
903.159	2740.06
903.473	2727.4
903.787	2702.99
904.101	2711.13
904.415	2688.08
904.729	2706.61
905.042	2694.63
905.356	2669.77
905.67	2661.87
905.984	2678.36
906.297	2650.11
906.611	2678.59
906.924	2661.41
907.237	2628.42
907.551	2655.09
907.864	2594.75
908.177	2602.66
908.491	2602.66
908.804	2595.2
909.117	2580.96
909.43	2564.01
909.743	2562.66
910.056	2556.56
910.368	2547.97
910.681	2538.93
910.994	2528.54
911.307	2514.52
911.619	2543.45
911.932	2493.06
912.244	2475.43
912.557	2491.47
912.869	2518.14
913.181	2467.75
913.494	2460.29
913.806	2441.53
914.118	2453.96
914.43	2430.91
914.742	2414.41
915.054	2412.83
915.366	2416.9
915.678	2397.47
915.99	2375.32
916.302	2375.54
916.613	2367.64
916.925	2344.13
917.236	2353.85
917.548	2333.51
917.859	2358.6
918.171	2356.79
918.482	2330.57
918.794	2341.65
919.105	2322.66
919.416	2335.09
919.727	2309.56
920.038	2272.27
920.349	2271.82
920.66	2292.84
920.971	2275.66
921.282	2252.84
921.593	2232.5
921.903	2217.58
922.214	2200.41
922.525	2218.71
922.835	2213.52
923.146	2178.49
923.456	2191.82
923.767	2229.33
924.077	2161.54
924.387	2188.88
924.697	2188.21
925.008	2115.21
925.318	2134.65
925.628	2142.78
925.938	2141.43
926.248	2123.12
926.558	2134.87
926.867	2108.89
927.177	2098.72
927.487	2111.37
927.796	2067.3
928.106	2082.45
928.416	2063.69
928.725	2065.04
929.034	2073.41
929.344	2006.74
929.653	2019.62
929.962	2009
930.271	2011.26
930.581	2019.17
930.89	1997.25
931.199	1990.02
931.508	1997.93
931.817	1965.61
932.125	1956.8
932.434	2013.52
932.743	1962.67
933.051	1968.78
933.36	1951.6
933.669	1925.16
933.977	1920.19
934.286	1925.61
934.594	1921.09
934.902	1907.53
935.21	1904.14
935.519	1901.66
935.827	1911.6
936.135	1872.28
936.443	1881.09
936.751	1882.45
937.059	1851.04
937.367	1875.45
937.674	1877.25
937.982	1853.3
938.29	1840.19
938.597	1852.39
938.905	1840.87
939.213	1820.08
939.52	1816.46
939.827	1821.44
940.135	1798.16
940.442	1813.07
940.749	1792.51
941.056	1770.36
941.363	1782.79
941.67	1782.79
941.977	1749.57
942.284	1771.04
942.591	1767.43
942.898	1724.71
943.205	1745.5
943.511	1724.26
943.818	1730.36
944.125	1764.49
944.431	1712.51
944.738	1690.59
945.044	1702.79
945.35	1714.55
945.657	1672.29
945.963	1703.47
946.269	1671.38
946.575	1664.38
946.881	1643.81
947.187	1670.93
947.493	1652.17
947.799	1657.37
948.105	1615.56
948.41	1624.83
948.716	1612.85
949.022	1617.37
949.327	1619.63
949.633	1588.9
949.938	1604.49
950.244	1604.49
950.549	1628.45
950.854	1588.45
951.16	1597.03
951.465	1578.5
951.77	1598.16
952.075	1555.68
952.38	1577.83
952.685	1574.21
952.99	1544.38
953.294	1548
953.599	1544.15
953.904	1541.44
954.209	1549.58
954.513	1519.3
954.818	1528.11
955.122	1540.31
955.426	1526.75
955.731	1507.09
956.035	1483.36
956.339	1488.11
956.643	1478.39
956.948	1461.22
957.252	1467.55
957.556	1470.71
957.86	1467.55
958.163	1486.08
958.467	1488.34
958.771	1451.28
959.075	1430.48
959.378	1465.51
959.682	1446.08
959.985	1439.3
960.289	1423.71
960.592	1412.86
960.896	1419.19
961.199	1430.26
961.502	1413.76
961.805	1418.73
962.108	1396.14
962.411	1413.76
962.714	1375.57
963.017	1336.02
963.32	1367.21
963.623	1380.99
963.926	1357.72
964.228	1354.33
964.531	1355.23
964.833	1329.92
965.136	1353.88
965.438	1372.86
965.741	1335.35
966.043	1354.55
966.345	1347.32
966.648	1331.96
966.95	1344.61
967.252	1315.23
967.554	1345.97
967.856	1312.97
968.158	1282.92
968.46	1294.22
968.761	1296.7
969.063	1283.37
969.365	1264.16
969.666	1295.12
969.968	1285.18
970.269	1253.54
970.571	1244.95
970.872	1266.87
971.174	1283.82
971.475	1244.28
971.776	1244.5
972.077	1247.21
972.378	1235.01
972.679	1192.75
972.98	1219.42
973.281	1217.61
973.582	1225.07
973.883	1205.18
974.183	1211.51
974.484	1209.25
974.785	1206.76
975.085	1194.11
975.386	1190.27
975.686	1184.84
975.986	1193.2
976.287	1184.62
976.587	1173.99
976.887	1165.18
977.187	1176.71
977.487	1176.93
977.787	1186.2
978.087	1159.76
978.387	1172.41
978.687	1145.07
978.987	1147.55
979.286	1156.14
979.586	1155.24
979.885	1140.78
980.185	1129.48
980.484	1110.95
980.784	1140.32
981.083	1139.65
981.382	1116.82
981.682	1095.58
981.981	1094
982.28	1098.29
982.579	1074.56
982.878	1100.55
983.177	1099.87
983.475	1084.51
983.774	1110.49
984.073	1077.5
984.372	1056.26
984.67	1089.25
984.969	1062.36
985.267	1060.55
985.566	1074.11
985.864	1067.33
986.162	1066.65
986.461	1055.13
986.759	1089.48
987.057	1048.35
987.355	1029.37
987.653	1033.21
987.951	1048.8
988.249	1037.05
988.547	1038.86
988.844	1030.27
989.142	1035.47
989.44	1037.27
989.737	980.33
990.035	1005.41
990.332	1015.35
990.63	981.23
990.927	1012.87
991.224	1017.61
991.521	975.36
991.819	982.14
992.116	958.18
992.413	983.72
992.71	969.48
993.006	951.63
993.303	966.99
993.6	938.75
993.897	966.09
994.193	972.19
994.49	982.81
994.787	955.7
995.083	960.89
995.379	930.84
995.676	948.24
995.972	925.19
996.268	938.75
996.565	921.57
996.861	926.09
997.157	923.15
997.453	942.36
997.749	915.47
998.044	901.91
998.34	938.52
998.636	882.25
998.932	881.35
999.227	900.56
999.523	910.27
999.818	888.35
1000.114	899.2
1000.409	879.31
1000.704	883.61
1001	879.54
1001.295	896.49
1001.59	889.26
1001.885	881.57
1002.18	854.23
1002.475	866.66
1002.77	858.75
1003.065	843.61
1003.359	846.77
1003.654	841.57
1003.949	833.66
1004.243	837.96
1004.538	839.99
1004.832	850.16
1005.127	833.89
1005.421	844.74
1005.715	828.24
1006.009	825.08
1006.304	826.21
1006.598	801.57
1006.892	812.65
1007.186	797.28
1007.48	806.32
1007.773	809.26
1008.067	814.46
1008.361	799.54
1008.655	757.06
1008.948	798.86
1009.242	783.72
1009.535	779.2
1009.829	773.55
1010.122	759.09
1010.415	779.43
1010.708	782.82
1011.001	752.08
1011.295	754.34
1011.588	769.03
1011.881	744.4
1012.173	756.6
1012.466	762.93
1012.759	750.95
1013.052	750.5
1013.344	750.28
1013.637	738.3
1013.93	753.44
1014.222	747.57
1014.514	733.78
1014.807	708.92
1015.099	729.03
1015.391	726.77
1015.683	718.41
1015.976	722.93
1016.268	726.55
1016.56	704.63
1016.851	698.75
1017.143	698.75
1017.435	717.74
1017.727	713.67
1018.018	707.79
1018.31	703.5
1018.602	698.98
1018.893	699.2
1019.185	700.56
1019.476	687
1019.767	687.23
1020.058	669.6
1020.35	644.06
1020.641	651.97
1020.932	682.71
1021.223	668.47
1021.514	669.15
1021.804	660.79
1022.095	650.62
1022.386	649.94
1022.677	654.91
1022.967	650.84
1023.258	650.39
1023.548	632.77
1023.839	646.1
1024.129	650.62
1024.419	635.7
1024.709	626.89
1025	619.66
1025.29	619.88
1025.58	627.34
1025.87	610.17
1026.16	618.75
1026.449	605.65
1026.739	616.72
1027.029	604.07
1027.319	592.77
1027.608	632.54
1027.898	612.2
1028.187	611.52
1028.477	602.48
1028.766	610.17
1029.055	608.13
1029.344	604.29
1029.634	579.21
1029.923	586.89
1030.212	591.64
1030.501	588.47
1030.79	576.72
1031.078	586.67
1031.367	586.21
1031.656	593.22
1031.945	559.32
1032.233	571.07
1032.522	568.13
1032.81	585.54
1033.099	559.55
1033.387	547.34
1033.675	560.9
1033.963	552.54
1034.251	546.21
1034.54	541.92
1034.828	537.4
1035.116	562.71
1035.403	538.31
1035.691	540.79
1035.979	538.76
1036.267	528.59
1036.554	537.18
1036.842	524.75
1037.129	503.5
1037.417	538.98
1037.704	517.29
1037.992	524.75
1038.279	534.69
1038.566	524.29
1038.853	524.29
1039.14	524.29
