Data from mousepad_grey_FLMS001491_00078.txt Node
Date: Wed Feb 08 14:29:55 GMT 2017
User: dcchb
Spectrometer: FLMS00149
Trigger mode: 0
Integration Time (sec): 2.000000E-2
Scans to average: 10
Electric dark correction enabled: true
Nonlinearity correction enabled: false
Boxcar width: 0
XAxis mode: Wavelengths
Number of Pixels in Spectrum: 2048
>>>>>Begin Spectral Data<<<<<
341.393	-12.22
341.776	-12.22
342.16	-12.22
342.543	-68.71
342.927	-67.36
343.31	-82.5
343.693	-75.72
344.077	-59.67
344.46	-56.06
344.843	-46.11
345.226	-31.65
345.61	-51.99
345.993	-22.16
346.376	2.47
346.759	23.94
347.142	36.6
347.525	46.54
347.908	63.49
348.291	69.36
348.674	89.48
349.057	93.99
349.44	129.93
349.823	136.71
350.206	167.67
350.588	190.26
350.971	183.03
351.354	207.44
351.737	209.92
352.119	233.43
352.502	211.96
352.884	256.93
353.267	269.13
353.65	271.17
354.032	289.7
354.414	276.59
354.797	288.57
355.179	298.74
355.562	324.95
355.944	296.7
356.326	310.71
356.709	315.68
357.091	323.59
357.473	332.41
357.855	290.15
358.238	300.32
358.62	320.43
359.002	344.61
359.384	322.46
359.766	304.61
360.148	309.81
360.53	320.66
360.912	305.97
361.294	290.15
361.676	343.48
362.057	308.23
362.439	324.72
362.821	323.82
363.203	298.06
363.584	309.13
363.966	310.49
364.348	303.71
364.729	325.18
365.111	291.73
365.493	276.36
365.874	297.83
366.256	300.77
366.637	289.02
367.019	314.33
367.4	296.25
367.781	285.18
368.163	311.39
368.544	282.46
368.925	306.42
369.306	325.4
369.688	306.19
370.069	294.89
370.45	284.72
370.831	299.41
371.212	292.63
371.593	288.11
371.974	301.67
372.355	319.3
372.736	292.63
373.117	307.1
373.498	321.56
373.879	304.38
374.26	298.06
374.641	302.35
375.021	291.96
375.402	293.54
375.783	309.13
376.163	312.52
376.544	312.52
376.925	297.15
377.305	305.06
377.686	301.45
378.066	304.84
378.447	305.29
378.827	322.24
379.208	324.95
379.588	325.85
379.968	325.63
380.349	330.82
380.729	314.55
381.109	319.53
381.489	307.32
381.87	327.21
382.25	315.91
382.63	301.9
383.01	336.47
383.39	317.94
383.77	329.47
384.15	315.46
384.53	337.83
384.91	321.79
385.29	334.67
385.67	345.97
386.049	338.73
386.429	334.44
386.809	353.65
387.189	324.95
387.568	330.15
387.948	315.23
388.328	331.95
388.707	331.28
389.087	352.97
389.466	338.73
389.846	358.39
390.225	347.55
390.605	368.79
390.984	351.62
391.363	366.76
391.743	345.97
392.122	361.11
392.501	354.1
392.881	348
393.26	354.78
393.639	377.15
394.018	361.56
394.397	354.55
394.776	356.81
395.155	367.89
395.534	363.59
395.913	364.5
396.292	370.6
396.671	350.03
397.05	375.34
397.429	367.21
397.808	354.33
398.186	362.46
398.565	397.72
398.944	374.44
399.323	373.76
399.701	389.35
400.08	398.39
400.458	383.25
400.837	409.92
401.215	417.83
401.594	402.69
401.972	387.32
402.351	401.78
402.729	411.05
403.107	408.11
403.486	430.71
403.864	414.44
404.242	430.71
404.62	417.15
404.999	414.44
405.377	421.22
405.755	416.92
406.133	408.79
406.511	415.12
406.889	439.97
407.267	430.03
407.645	419.86
408.023	414.21
408.401	426.64
408.779	444.72
409.156	447.66
409.534	456.47
409.912	454.66
410.29	453.31
410.667	463.48
411.045	477.04
411.422	446.08
411.8	475.91
412.178	459.86
412.555	478.62
412.933	465.51
413.31	498.96
413.687	486.3
414.065	486.53
414.442	491.05
414.819	485.17
415.197	489.92
415.574	503.48
415.951	488.33
416.328	484.49
416.705	503.7
417.082	508.45
417.46	508.9
417.837	512.06
418.214	508
418.591	516.81
418.967	536.24
419.344	520.42
419.721	546.86
420.098	536.24
420.475	545.96
420.852	533.76
421.228	539.63
421.605	541.67
421.982	547.32
422.358	563.81
422.735	560.2
423.111	556.58
423.488	560.65
423.864	571.95
424.241	577.15
424.617	603.36
424.994	583.25
425.37	580.54
425.746	587.99
426.123	602.23
426.499	592.06
426.875	588.22
427.251	610.82
427.627	610.82
428.003	618.95
428.379	630.03
428.756	625.28
429.132	632.74
429.507	636.58
429.883	656.47
430.259	648.56
430.635	652.85
431.011	675.22
431.387	650.59
431.763	667.09
432.138	661.21
432.514	697.59
432.89	669.57
433.265	693.75
433.641	715.67
434.016	700.08
434.392	694.66
434.767	698.95
435.143	719.29
435.518	739.4
435.894	748.67
436.269	724.49
436.644	758.61
437.02	750.7
437.395	766.29
437.77	764.03
438.145	795.45
438.52	775.56
438.895	767.42
439.271	760.87
439.646	804.71
440.021	798.83
440.395	791.83
440.77	773.75
441.145	811.94
441.52	819.4
441.895	806.74
442.27	821.89
442.645	821.66
443.019	829.79
443.394	827.31
443.769	825.73
444.143	854.2
444.518	834.54
444.892	851.26
445.267	857.59
445.641	866.63
446.016	884.03
446.39	864.14
446.764	881.09
447.139	865.73
447.513	864.37
447.887	867.08
448.262	901.43
448.636	905.05
449.01	906.85
449.384	917.02
449.758	912.96
450.132	924.26
450.506	915.22
450.88	895.33
451.254	917.93
451.628	954.99
452.002	938.72
452.376	940.98
452.75	973.07
453.123	982.78
453.497	986.4
453.871	990.24
454.244	1018.04
454.618	1034.76
454.992	1008.32
455.365	1036.57
455.739	1059.17
456.112	1044.03
456.486	1049.9
456.859	1068.88
457.232	1085.61
457.606	1095.32
457.979	1089.9
458.352	1131.93
458.725	1101.88
459.099	1100.52
459.472	1141.2
459.845	1156.57
460.218	1189.11
460.591	1151.14
460.964	1167.86
461.337	1201.54
461.71	1199.73
462.083	1222.55
462.456	1215.32
462.829	1219.39
463.201	1268.65
463.574	1261.87
463.947	1259.61
464.32	1281.31
464.692	1303.23
465.065	1311.82
465.438	1320.18
465.81	1362.44
466.183	1362.44
466.555	1407.18
466.928	1364.24
467.3	1403.11
467.672	1366.96
468.045	1421.87
468.417	1443.11
468.789	1436.78
469.161	1466.16
469.534	1477.69
469.906	1505.71
470.278	1492.83
470.65	1536.44
471.022	1546.84
471.394	1573.73
471.766	1599.04
472.138	1601.75
472.51	1617.57
472.882	1649.43
473.253	1661.64
473.625	1663.67
473.997	1703.9
474.369	1699.83
474.74	1716.78
475.112	1756.78
475.484	1788.41
475.855	1811.01
476.227	1833.38
476.598	1831.58
476.97	1883.1
477.341	1915.42
477.713	1937.79
478.084	1939.14
478.455	1996.77
478.827	2031.12
479.198	2069.08
479.569	2069.54
479.94	2101.85
480.311	2095.98
480.682	2162.19
481.053	2194.05
481.424	2224.79
481.795	2240.38
482.166	2322.41
482.537	2320.6
482.908	2342.75
483.279	2353.82
483.65	2402.63
484.021	2467.04
484.391	2513.14
484.762	2490.99
485.133	2506.36
485.503	2579.58
485.874	2586.58
486.244	2618.22
486.615	2648.96
486.985	2747.71
487.356	2739.57
487.726	2752.46
488.097	2810.53
488.467	2827.26
488.837	2867.71
489.207	2874.49
489.578	2945.9
489.948	2974.82
490.318	2999.23
490.688	3022.73
491.058	3054.59
491.428	3078.55
491.798	3120.13
492.168	3181.37
492.538	3189.28
492.908	3161.71
493.278	3230.18
493.648	3225.21
494.017	3263.4
494.387	3320.35
494.757	3380.01
495.126	3366.45
495.496	3388.6
495.866	3395.6
496.235	3506.79
496.605	3495.49
496.974	3495.04
497.344	3497.97
497.713	3549.05
498.082	3577.74
498.452	3612.55
498.821	3650.96
499.19	3629.04
499.559	3651.19
499.928	3713.11
500.298	3695.93
500.667	3727.8
501.036	3763.5
501.405	3762.15
501.774	3780.45
502.143	3822.26
502.512	3837.4
502.88	3841.92
503.249	3875.59
503.618	3880.56
503.987	3902.48
504.356	3981.58
504.724	3944.06
505.093	3957.4
505.462	4001.91
505.83	4055.25
506.199	4058.18
506.567	4073.33
506.936	4118.97
507.304	4147.9
507.672	4195.36
508.041	4224.28
508.409	4239.42
508.777	4225.19
509.145	4313.77
509.514	4320.55
509.882	4316.03
510.25	4323.49
510.618	4392.41
510.986	4380.89
511.354	4444.61
511.722	4439.42
512.09	4468.12
512.458	4493.65
512.826	4529.36
513.193	4575.91
513.561	4591.05
513.929	4571.17
514.297	4658.85
514.664	4663.37
515.032	4728.45
515.4	4688
515.767	4758.28
516.135	4765.51
516.502	4705.62
516.869	4829.69
517.237	4838.28
517.604	4883.7
517.972	4880.31
518.339	4923.02
518.706	4944.94
519.073	4957.37
519.44	4964.38
519.808	5116.24
520.175	5041.21
520.542	5161.21
520.909	5104.03
521.276	5133.64
521.643	5206.85
522.009	5183.35
522.376	5263.35
522.743	5278.04
523.11	5373.4
523.477	5372.27
523.843	5409.56
524.21	5470.12
524.577	5528.88
524.943	5552.83
525.31	5566.85
525.676	5650.91
526.043	5622.89
526.409	5603.68
526.776	5741.53
527.142	5742.89
527.508	5791.7
527.874	5829.89
528.241	5790.79
528.607	5914.63
528.973	5938.81
529.339	5943.11
529.705	5994.4
530.071	6058.81
530.437	6041.41
530.803	6094.97
531.169	6133.84
531.535	6137.23
531.901	6124.12
532.267	6169.77
532.632	6282.08
532.998	6238.92
533.364	6277.79
533.73	6296.77
534.095	6377.67
534.461	6398.69
534.826	6386.94
535.192	6445.69
535.557	6444.56
535.923	6499.02
536.288	6490.66
536.653	6549.87
537.019	6583.77
537.384	6612.24
537.749	6605.69
538.114	6616.08
538.479	6685.69
538.845	6703.31
539.21	6710.77
539.575	6797.1
539.94	6730.88
540.305	6833.48
540.67	6784.21
541.034	6849.52
541.399	6882.97
541.764	6919.8
542.129	6974.27
542.494	6996.19
542.858	7034.6
543.223	6968.16
543.587	7137.2
543.952	7021.72
544.316	7070.31
544.681	7130.19
545.045	7154.83
545.41	7175.39
545.774	7217.2
546.138	7236.18
546.503	7262.39
546.867	7258.55
547.231	7374.48
547.595	7304.43
547.959	7389.17
548.324	7435.5
548.688	7418.77
549.052	7385.78
549.416	7520.01
549.779	7517.08
550.143	7498.55
550.507	7609.96
550.871	7606.11
551.235	7566.57
551.599	7673.46
551.962	7673.23
552.326	7663.97
552.689	7784.87
553.053	7721.14
553.417	7716.62
553.78	7862.15
554.143	7779.22
554.507	7873.45
554.87	7897.86
555.234	7977.63
555.597	7895.82
555.96	8005.2
556.323	8018.31
556.686	8107.8
557.05	8027.12
557.413	8100.11
557.776	8160.9
558.139	8176.27
558.502	8245.64
558.865	8256.04
559.228	8298.75
559.59	8288.81
559.953	8296.94
560.316	8415.81
560.679	8468.69
561.041	8501.01
561.404	8489.03
561.767	8507.33
562.129	8520.21
562.492	8648.35
562.854	8519.08
563.217	8615.35
563.579	8620.1
563.941	8743.03
564.304	8731.06
564.666	8838.62
565.028	8854.67
565.39	8871.62
565.753	8893.54
566.115	8974.67
566.477	8985.51
566.839	9005.62
567.201	9075.91
567.563	9076.58
567.925	9116.36
568.287	9060.99
568.648	9108.9
569.01	9239.74
569.372	9294.66
569.734	9286.3
570.095	9332.85
570.457	9357.25
570.819	9390.47
571.18	9410.13
571.542	9447.2
571.903	9439.51
572.265	9444.26
572.626	9463.47
572.987	9548.66
573.349	9551.37
573.71	9591.37
574.071	9580.98
574.432	9691.48
574.794	9748.88
575.155	9747.53
575.516	9703.01
575.877	9710.47
576.238	9754.76
576.599	9818.26
576.96	9829.33
577.32	9878.6
577.681	9864.36
578.042	9912.49
578.403	9904.13
578.763	9923.57
579.124	9963.11
579.485	9932.38
579.845	10008.54
580.206	9959.72
580.566	9978.03
580.927	10057.8
581.287	10041.76
581.648	9978.03
582.008	10088.08
582.368	9973.96
582.728	10107.06
583.089	10048.31
583.449	10000.4
583.809	10075.65
584.169	10088.76
584.529	10073.39
584.889	10110.91
585.249	10080.17
585.609	10044.92
585.969	10145.71
586.329	10142.77
586.688	10175.54
587.048	10137.12
587.408	10070.91
587.768	10099.61
588.127	10101.64
588.487	10092.83
588.846	10218.93
589.206	10084.92
589.565	10123.56
589.925	10141.64
590.284	10153.39
590.643	10135.09
591.003	10168.76
591.362	10221.86
591.721	10182.99
592.08	10149.1
592.44	10214.18
592.799	10253.73
593.158	10195.42
593.517	10187.74
593.876	10188.19
594.235	10162.66
594.593	10190.9
594.952	10225.71
595.311	10164.69
595.67	10178.25
596.029	10274.74
596.387	10328.98
596.746	10270.9
597.104	10261.86
597.463	10263.67
597.822	10199.49
598.18	10158.14
598.538	10191.13
598.897	10316.1
599.255	10236.33
599.613	10292.14
599.972	10255.76
600.33	10289.43
600.688	10308.64
601.046	10314.97
601.404	10319.04
601.762	10297.12
602.12	10330.34
602.478	10344.12
602.836	10420.95
603.194	10293.27
603.552	10331.01
603.91	10332.14
604.268	10371.01
604.625	10327.85
604.983	10404.01
605.341	10280.17
605.698	10415.53
606.056	10367.85
606.413	10357
606.771	10407.85
607.128	10482.42
607.485	10405.81
607.843	10436.55
608.2	10446.94
608.557	10521.07
608.914	10513.61
609.272	10433.38
609.629	10513.38
609.986	10477.9
610.343	10418.47
610.7	10597.67
611.057	10572.36
611.414	10521.74
611.771	10502.53
612.127	10578.69
612.484	10536.66
612.841	10638.8
613.198	10603.55
613.554	10562.87
613.911	10631.12
614.267	10626.15
614.624	10637.45
614.98	10651.23
615.337	10716.09
615.693	10720.38
616.05	10621.85
616.406	10746.37
616.762	10697.78
617.118	10661.85
617.475	10674.06
617.831	10720.16
618.187	10718.35
618.543	10694.62
618.899	10870.66
619.255	10789.08
619.611	10774.17
619.967	10821.4
620.323	10758.57
620.678	10768.29
621.034	10787.95
621.39	10753.15
621.746	10702.53
622.101	10917.66
622.457	10737.78
622.812	10806.71
623.168	10881.96
623.523	10850.55
623.879	10905.46
624.234	10778.01
624.589	10865.24
624.945	10803.09
625.3	10884.22
625.655	10809.87
626.01	10862.98
626.365	10813.03
626.72	10873.82
627.075	10836.99
627.43	10840.38
627.785	10780.27
628.14	10823.43
628.495	10905.46
628.85	10866.14
629.205	10810.1
629.559	10856.88
629.914	10787.5
630.269	10845.8
630.623	10805.35
630.978	10808.74
631.332	10751.12
631.687	10804.9
632.041	10795.63
632.396	10783.21
632.75	10829.76
633.104	10759.48
633.459	10723.09
633.813	10627.73
634.167	10639.03
634.521	10719.48
634.875	10690.1
635.229	10753.83
635.583	10647.39
635.937	10707.5
636.291	10629.31
636.645	10696.2
636.999	10624.57
637.352	10658.01
637.706	10553.38
638.06	10636.99
638.413	10657.33
638.767	10599.03
639.121	10580.72
639.474	10447.62
639.828	10557.9
640.181	10571.01
640.534	10542.53
640.888	10551.12
641.241	10558.35
641.594	10549.31
641.947	10582.98
642.301	10568.75
642.654	10555.64
643.007	10529.43
643.36	10531.01
643.713	10551.8
644.066	10602.42
644.419	10495.53
644.771	10439.26
645.124	10363.78
645.477	10338.7
645.83	10257.12
646.182	10170.79
646.535	10259.6
646.888	10214.18
647.24	10161.98
647.593	10161.98
647.945	10197.91
648.298	10164.69
648.65	10081.98
649.002	10118.59
649.355	10151.58
649.707	10185.71
650.059	10179.61
650.411	10398.36
650.763	10250.34
651.115	10437.45
651.467	10437
651.819	10344.8
652.171	10381.41
652.523	10414.18
652.875	10411.46
653.227	10321.07
653.578	10380.73
653.93	10387.51
654.282	10392.93
654.633	10272.71
654.985	10327.62
655.337	10425.02
655.688	10360.39
656.039	10383.89
656.391	10302.09
656.742	10302.31
657.094	10401.97
657.445	10387.74
657.796	10371.69
658.147	10357.23
658.498	10299.38
658.849	10335.31
659.2	10291.92
659.551	10295.76
659.902	10379.83
660.253	10295.99
660.604	10319.04
660.955	10254.86
661.306	10352.71
661.656	10337.79
662.007	10359.04
662.358	10349.54
662.708	10339.38
663.059	10331.47
663.409	10222.09
663.76	10299.15
664.11	10363.1
664.461	10300.51
664.811	10362.2
665.161	10332.6
665.511	10361.97
665.862	10332.82
666.212	10375.98
666.562	10276.55
666.912	10342.99
667.262	10356.78
667.612	10267.51
667.962	10326.95
668.312	10300.05
668.662	10349.77
669.011	10318.58
669.361	10287.85
669.711	10240.39
670.06	10273.16
670.41	10307.29
670.76	10269.55
671.109	10233.84
671.459	10249.66
671.808	10226.61
672.157	10347.06
672.507	10215.99
672.856	10225.03
673.205	10204.92
673.554	10172.83
673.904	10197.68
674.253	10289.43
674.602	10241.3
674.951	10125.14
675.3	10029.55
675.649	10149.1
675.998	10135.09
676.346	10133.05
676.695	10150.45
677.044	10076.11
677.393	10136.67
677.741	10114.75
678.09	10144.8
678.438	10067.74
678.787	10120.4
679.135	10093.96
679.484	10091.92
679.832	10057.35
680.181	10015.77
680.529	10079.04
680.877	10062.77
681.225	9989.55
681.573	10056.9
681.922	9942.32
682.27	9928.99
682.618	9978.25
682.966	9942.32
683.314	9889.9
683.661	9970.8
684.009	9888.09
684.357	9856.9
684.705	9897.8
685.053	9806.73
685.4	9882.66
685.748	9827.98
686.095	9785.27
686.443	9776.23
686.79	9756.34
687.138	9779.84
687.485	9671.37
687.832	9673.4
688.18	9622.56
688.527	9639.51
688.874	9662.56
689.221	9569.9
689.568	9623.46
689.915	9517.02
690.262	9544.14
690.609	9466.4
690.956	9504.59
691.303	9430.47
691.65	9394.09
691.997	9432.96
692.344	9349.12
692.69	9388.21
693.037	9420.76
693.383	9304.37
693.73	9283.58
694.077	9248.33
694.423	9230.25
694.769	9183.47
695.116	9232.74
695.462	9126.75
695.808	9103.93
696.155	9130.82
696.501	9055.57
696.847	9059.86
697.193	8973.99
697.539	8996.36
697.885	8952.07
698.231	8912.52
698.577	8880.43
698.923	8886.31
699.269	8841.79
699.614	8796.36
699.96	8773.54
700.306	8816.93
700.651	8731.51
700.997	8731.51
701.342	8744.84
701.688	8691.96
702.033	8632.98
702.379	8625.07
702.724	8621
703.069	8587.33
703.415	8547.11
703.76	8525.64
704.105	8481.34
704.45	8526.09
704.795	8476.6
705.14	8432.31
705.485	8494
705.83	8380.33
706.175	8387.79
706.52	8322.7
706.865	8365.64
707.209	8286.32
707.554	8300.11
707.899	8318.41
708.243	8233.22
708.588	8209.04
708.932	8217.4
709.277	8187.12
709.621	8197.74
709.966	8054.92
710.31	8140.79
710.654	8073.45
710.998	8095.82
711.342	8121.35
711.687	8053.79
712.031	8048.81
712.375	8033.9
712.719	8016.72
713.063	8003.84
713.407	7966.33
713.75	7997.29
714.094	7989.83
714.438	7967.91
714.782	7904.18
715.125	7935.6
715.469	7924.98
715.812	7920.46
716.156	7876.16
716.499	7831.87
716.843	7855.6
717.186	7800.91
717.53	7933.11
717.873	7824.64
718.216	7821.7
718.559	7836.84
718.902	7754.36
719.246	7817.86
719.589	7738.54
719.932	7729.27
720.275	7733.12
720.617	7741.93
720.96	7748.71
721.303	7691.99
721.646	7779.67
721.989	7741.03
722.331	7737.18
722.674	7685.21
723.016	7781.02
723.359	7678.88
723.701	7709.84
724.044	7651.76
724.386	7671.87
724.729	7669.61
725.071	7626
725.413	7686.34
725.755	7604.31
726.097	7608.83
726.439	7600.01
726.782	7623.06
727.124	7670.07
727.465	7555.27
727.807	7511.43
728.149	7608.15
728.491	7643.63
728.833	7561.37
729.175	7553.01
729.516	7574.02
729.858	7561.82
730.199	7550.07
730.541	7601.37
730.882	7611.99
731.224	7567.47
731.565	7505.33
731.906	7556.17
732.248	7563.63
732.589	7529.73
732.93	7563.18
733.271	7471.65
733.612	7545.55
733.953	7507.59
734.294	7530.41
734.635	7468.49
734.976	7539.22
735.317	7503.52
735.658	7467.36
735.999	7446.8
736.339	7452.67
736.68	7538.32
737.021	7483.18
737.361	7525.66
737.702	7487.92
738.042	7488.83
738.383	7449.28
738.723	7490.18
739.063	7488.83
739.404	7504.65
739.744	7423.29
740.084	7431.2
740.424	7482.5
740.764	7416.51
741.104	7480.47
741.444	7454.25
741.784	7396.4
742.124	7397.98
742.464	7409.51
742.804	7430.52
743.143	7432.33
743.483	7433.69
743.823	7415.16
744.162	7390.53
744.502	7429.62
744.841	7431.88
745.181	7416.06
745.52	7388.04
745.86	7388.72
746.199	7451.54
746.538	7388.27
746.877	7470.3
747.216	7448.83
747.556	7419.23
747.895	7376.97
748.234	7333.13
748.573	7329.06
748.911	7373.58
749.25	7418.32
749.589	7332
749.928	7326.8
750.267	7426.91
750.605	7404.99
750.944	7343.3
751.283	7301.94
751.621	7338.78
751.96	7345.33
752.298	7318.66
752.636	7354.14
752.975	7253.58
753.313	7248.38
753.651	7275.05
753.989	7231.66
754.327	7233.47
754.666	7199.8
755.004	7217.65
755.342	7200.02
755.679	7277.99
756.017	7220.36
756.355	7168.38
756.693	7218.55
757.031	7188.72
757.368	7193.24
757.706	7150.98
758.044	7181.94
758.381	7149.85
758.719	7056.3
759.056	7090.65
759.394	7045.45
759.731	7033.47
760.068	7080.48
760.405	7017.2
760.743	7032.34
761.08	7032.12
761.417	6997.99
761.754	6940.37
762.091	6949.63
762.428	6947.15
762.765	6868.96
763.102	6932.68
763.438	6840.94
763.775	6833.25
764.112	6845.23
764.449	6853.59
764.785	6837.32
765.122	6762.97
765.458	6767.72
765.795	6778.11
766.131	6763.42
766.467	6753.25
766.804	6695.86
767.14	6671.67
767.476	6696.08
767.812	6621.96
768.148	6690.21
768.485	6577.89
768.821	6599.81
769.157	6523.43
769.492	6564.56
769.828	6577.21
770.164	6447.27
770.5	6472.36
770.836	6489.31
771.171	6401.17
771.507	6407.73
771.842	6328.86
772.178	6362.3
772.513	6400.27
772.849	6367.28
773.184	6347.39
773.519	6306.71
773.855	6291.35
774.19	6270.56
774.525	6252.02
774.86	6166.83
775.195	6240.05
775.53	6169.77
775.865	6129.77
776.2	6129.09
776.535	6118.7
776.87	6107.62
777.205	6051.8
777.539	6037.57
777.874	6083.89
778.209	5990.56
778.543	6003.9
778.878	5921.64
779.212	5994.86
779.547	5960.51
779.881	5969.77
780.215	5862.43
780.55	5836.67
780.884	5899.94
781.218	5846.61
781.552	5903.56
781.886	5813.62
782.22	5776.78
782.554	5719.84
782.888	5693.4
783.222	5686.16
783.556	5692.27
783.889	5671.25
784.223	5631.93
784.557	5646.84
784.89	5634.87
785.224	5625.83
785.557	5584.25
785.891	5558.48
786.224	5546.05
786.558	5524.13
786.891	5460.18
787.224	5487.53
787.557	5454.76
787.891	5459.73
788.224	5451.37
788.557	5469.67
788.89	5435.78
789.223	5405.95
789.556	5369.11
789.888	5361.88
790.221	5372.5
790.554	5311.71
790.887	5319.62
791.219	5324.14
791.552	5294.76
791.884	5242.56
792.217	5253.86
792.549	5220.87
792.882	5175.22
793.214	5207.98
793.546	5228.1
793.879	5127.08
794.211	5123.69
794.543	5137.25
794.875	5119.63
795.207	5122.11
795.539	5105.39
795.871	5126.18
796.203	5081.89
796.535	5011.61
796.867	4974.09
797.198	4994.88
797.53	4993.3
797.862	4993.3
798.193	4980.42
798.525	4974.32
798.856	4953.75
799.188	4897.71
799.519	4923.47
799.85	4866.07
800.182	4886.64
800.513	4862
800.844	4850.48
801.175	4873.76
801.506	4844.83
801.837	4789.01
802.168	4857.03
802.499	4795.11
802.83	4799.18
803.161	4795.11
803.491	4787.66
803.822	4778.84
804.153	4694.33
804.483	4665.85
804.814	4699.3
805.145	4645.06
805.475	4649.81
805.805	4674.21
806.136	4654.1
806.466	4619.98
806.796	4684.38
807.126	4579.75
807.457	4581.79
807.787	4597.38
808.117	4560.09
808.447	4567.78
808.777	4591.96
809.107	4526.87
809.436	4559.87
809.766	4508.79
810.096	4507.66
810.426	4442.35
810.755	4457.95
811.085	4513.77
811.414	4455.46
811.744	4431.28
812.073	4421.11
812.403	4449.13
812.732	4398.29
813.061	4409.59
813.39	4387.67
813.719	4384.96
814.049	4385.18
814.378	4349.02
814.707	4326.88
815.036	4334.56
815.365	4327.78
815.693	4286.88
816.022	4283.72
816.351	4313.32
816.68	4279.87
817.008	4276.48
817.337	4237.39
817.665	4209.59
817.994	4262.25
818.322	4250.5
818.651	4214.56
818.979	4194.23
819.307	4240.33
819.636	4167.56
819.964	4203.72
820.292	4141.57
820.62	4225.41
820.948	4167.33
821.276	4204.17
821.604	4190.38
821.932	4214.34
822.259	4201.01
822.587	4214.11
822.915	4170.5
823.243	4193.1
823.57	4167.56
823.898	4172.76
824.225	4153.1
824.553	4116.04
824.88	4178.18
825.207	4132.98
825.535	4144.96
825.862	4148.58
826.189	4172.31
826.516	4128.92
826.843	4183.83
827.17	4195.58
827.497	4176.83
827.824	4183.38
828.151	4181.8
828.478	4169.14
828.805	4198.97
829.131	4148.58
829.458	4161.68
829.785	4139.31
830.111	4167.11
830.438	4137.5
830.764	4150.39
831.09	4174.79
831.417	4156.03
831.743	4155.81
832.069	4131.85
832.395	4143.38
832.722	4100.67
833.048	4093.66
833.374	4119.65
833.7	4107.22
834.026	4096.6
834.351	4064.29
834.677	4089.82
835.003	4121.46
835.329	4134.34
835.654	4117.39
835.98	4099.99
836.306	4116.71
836.631	4106.77
836.956	4060.44
837.282	4149.03
837.607	4085.53
837.932	4039.88
838.258	4059.99
838.583	4060.9
838.908	4021.12
839.233	4049.14
839.558	4041.91
839.883	4034.23
840.208	3981.58
840.533	4048.92
840.858	3976.6
841.182	4007.79
841.507	4015.02
841.832	3977.96
842.156	4002.59
842.481	3964.63
842.805	3982.25
843.13	3959.43
843.454	3958.75
843.778	3956.27
844.103	3951.29
844.427	3925.53
844.751	3910.84
845.075	3895.25
845.399	3873.78
845.723	3876.72
846.047	3874.01
846.371	3844.86
846.695	3842.14
847.019	3798.3
847.343	3809.83
847.666	3781.81
847.99	3775.93
848.313	3729.61
848.637	3761.24
848.96	3763.95
849.284	3713.11
849.607	3707.68
849.931	3695.03
850.254	3719.89
850.577	3671.75
850.9	3621.81
851.223	3659.55
851.546	3665.65
851.869	3611.42
852.192	3589.04
852.515	3648.48
852.838	3559.44
853.161	3591.76
853.483	3568.25
853.806	3538.2
854.129	3520.57
854.451	3543.62
854.774	3472.21
855.096	3511.08
855.419	3461.82
855.741	3477.63
856.063	3486.67
856.385	3478.54
856.708	3472.21
857.03	3494.36
857.352	3435.83
857.674	3437.86
857.996	3425.43
858.318	3349.28
858.64	3408.03
858.961	3396.51
859.283	3387.02
859.605	3383.85
859.926	3370.74
860.248	3362.16
860.57	3359.67
860.891	3344.08
861.212	3339.33
861.534	3356.96
861.855	3335.49
862.176	3316.51
862.498	3346.79
862.819	3350.41
863.14	3315.15
863.461	3314.25
863.782	3302.05
864.103	3279
864.424	3255.27
864.745	3283.97
865.065	3261.14
865.386	3296.4
865.707	3266.79
866.027	3271.31
866.348	3210.97
866.668	3288.26
866.989	3262.27
867.309	3222.95
867.63	3246.68
867.95	3238.77
868.27	3194.25
868.59	3198.09
868.91	3203.97
869.23	3191.99
869.55	3174.82
869.87	3192.67
870.19	3212.1
870.51	3187.25
870.83	3152.9
871.15	3189.51
871.469	3187.02
871.789	3147.93
872.109	3159.9
872.428	3166
872.748	3166.46
873.067	3116.06
873.386	3146.57
873.706	3136.4
874.025	3154.71
874.344	3129.17
874.663	3154.25
874.982	3095.05
875.301	3138.66
875.62	3140.02
875.939	3105.44
876.258	3099.11
876.577	3079
876.896	3102.28
877.214	3086.23
877.533	3063.18
877.852	3063.86
878.17	3094.14
878.489	3089.4
878.807	3078.32
879.125	3055.05
879.444	3077.19
879.762	3098.66
880.08	3055.27
880.398	3067.02
880.716	3040.13
881.034	3009.85
881.352	3043.75
881.67	3063.63
881.988	3042.62
882.306	3024.09
882.624	2986.8
882.941	3003.3
883.259	2980.92
883.577	2976.63
883.894	2973.92
884.212	2976.86
884.529	2987.48
884.846	2947.25
885.164	2919.01
885.481	2943.64
885.798	2928.72
886.115	2908.61
886.432	2934.15
886.75	2909.29
887.067	2936.18
887.383	2911.32
887.7	2903.19
888.017	2921.26
888.334	2895.95
888.651	2858.67
888.967	2878.78
889.284	2835.84
889.6	2835.17
889.917	2834.71
890.233	2904.99
890.55	2850.76
890.866	2852.79
891.182	2837.43
891.498	2818.89
891.815	2848.72
892.131	2809.86
892.447	2794.04
892.763	2768.73
893.079	2799.91
893.395	2782.29
893.71	2751.1
894.026	2760.14
894.342	2762.63
894.657	2736.86
894.973	2721.72
895.289	2720.82
895.604	2737.77
895.92	2726.24
896.235	2663.42
896.55	2716.75
896.865	2712.46
897.181	2685.56
897.496	2696.19
897.811	2681.05
898.126	2679.46
898.441	2658.67
898.756	2639.92
899.071	2648.5
899.386	2631.78
899.7	2584.32
900.015	2614.15
900.33	2589.3
900.644	2589.3
900.959	2592.46
901.273	2596.75
901.588	2559.69
901.902	2535.51
902.216	2573.7
902.531	2558.56
902.845	2540.94
903.159	2536.87
903.473	2560.14
903.787	2538.45
904.101	2482.63
904.415	2510.43
904.729	2491.9
905.042	2443.09
905.356	2457.77
905.67	2482.63
905.984	2425.01
906.297	2449.41
906.611	2432.92
906.924	2426.14
907.237	2419.36
907.551	2437.44
907.864	2393.6
908.177	2408.74
908.491	2415.97
908.804	2360.6
909.117	2377.32
909.43	2319.25
909.743	2364.67
910.056	2333.71
910.368	2343.2
910.681	2302.07
910.994	2365.57
911.307	2300.49
911.619	2305.91
911.932	2288.97
912.244	2319.25
912.557	2314.73
912.869	2262.98
913.181	2271.79
913.494	2269.3
913.806	2246.93
914.118	2220.72
914.43	2277.89
914.742	2231.34
915.054	2218.91
915.366	2196.31
915.678	2203.77
915.99	2198.12
916.302	2195.18
916.613	2183.88
916.925	2173.71
917.236	2156.31
917.548	2151.57
917.859	2163.32
918.171	2152.92
918.482	2148.4
918.794	2174.17
919.105	2109.08
919.416	2086.48
919.727	2135.3
920.038	2089.87
920.349	2088.29
920.66	2090.55
920.971	2071.8
921.282	2083.55
921.593	2056.65
921.903	2046.94
922.214	2047.16
922.525	2041.51
922.835	2055.98
923.146	2000.61
923.456	2019.37
923.767	2011.23
924.077	2018.01
924.387	2022.76
924.697	2006.26
925.008	1984.34
925.318	1956.54
925.628	1980.5
925.938	1968.3
926.248	1940.73
926.558	1931.69
926.867	1931.46
927.177	1914.06
927.487	1917.68
927.796	1895.08
928.106	1885.81
928.416	1863.44
928.725	1909.54
929.034	1889.43
929.344	1886.72
929.653	1846.27
929.962	1857.11
930.271	1853.95
930.581	1871.12
930.89	1848.3
931.199	1835.19
931.508	1850.78
931.817	1813.5
932.125	1817.57
932.434	1840.84
932.743	1835.64
933.051	1773.95
933.36	1801.07
933.669	1786.83
933.977	1782.09
934.286	1779.37
934.594	1799.49
934.902	1771.01
935.21	1739.6
935.519	1760.39
935.827	1743.67
936.135	1740.73
936.443	1711.13
936.751	1739.38
937.059	1711.81
937.367	1697.12
937.674	1680.17
937.982	1690.56
938.29	1706.16
938.597	1704.8
938.905	1694.4
939.213	1667.74
939.52	1640.17
939.827	1691.92
940.135	1665.48
940.442	1654.18
940.749	1655.99
941.056	1646.04
941.363	1635.2
941.67	1592.94
941.977	1601.75
942.284	1606.5
942.591	1607.4
942.898	1600.62
943.205	1569.66
943.511	1569.89
943.818	1613.95
944.125	1578.25
944.431	1570.57
944.738	1560.17
945.044	1563.33
945.35	1547.29
945.657	1546.39
945.963	1551.13
946.269	1537.12
946.575	1538.25
946.881	1530.34
947.187	1522.21
947.493	1523.79
947.799	1539.83
948.105	1516.78
948.41	1526.05
948.716	1519.49
949.022	1474.07
949.327	1472.49
949.633	1465.48
949.938	1470.91
950.244	1481.98
950.549	1491.7
950.854	1447.18
951.16	1454.64
951.465	1437.69
951.77	1471.13
952.075	1459.16
952.38	1399.5
952.685	1414.64
952.99	1421.19
953.294	1422.32
953.599	1422.32
953.904	1391.14
954.209	1407.86
954.513	1436.78
954.818	1419.16
955.122	1381.64
955.426	1420.51
955.731	1394.53
956.035	1392.72
956.339	1363.79
956.643	1364.47
956.948	1362.21
957.252	1362.66
957.556	1382.32
957.86	1371.93
958.163	1362.89
958.467	1341.42
958.771	1315.66
959.075	1337.58
959.378	1339.61
959.682	1328.76
959.985	1339.39
960.289	1314.3
960.592	1310.01
960.896	1304.81
961.199	1308.43
961.502	1271.36
961.805	1279.5
962.108	1275.43
962.411	1273.4
962.714	1290.12
963.017	1277.01
963.32	1259.84
963.623	1260.74
963.926	1252.61
964.228	1258.94
964.531	1258.03
964.833	1267.07
965.136	1217.81
965.438	1218.71
965.741	1238.37
966.043	1224.81
966.345	1213.51
966.648	1200.86
966.95	1213.97
967.252	1197.47
967.554	1224.13
967.856	1223
968.158	1168.99
968.46	1190.92
968.761	1180.52
969.063	1163.12
969.365	1189.79
969.666	1149.56
969.968	1180.52
970.269	1178.71
970.571	1148.88
970.872	1175.55
971.174	1163.8
971.475	1146.17
971.776	1151.14
972.077	1166.51
972.378	1127.41
972.679	1137.81
972.98	1119.28
973.281	1124.48
973.582	1141.2
973.883	1127.87
974.183	1117.47
974.484	1123.12
974.785	1112.72
975.085	1135.55
975.386	1133.97
975.686	1078.38
975.986	1086.74
976.287	1067.3
976.587	1078.6
976.887	1078.6
977.187	1081.77
977.487	1084.7
977.787	1083.8
978.087	1053.07
978.387	1075.66
978.687	1083.8
978.987	1068.21
979.286	1060.52
979.586	1056.46
979.885	1052.84
980.185	1033.41
980.484	1025.5
980.784	1027.53
981.083	1030.47
981.382	1045.16
981.682	1025.95
981.981	990.69
982.28	1007.87
982.579	1016.46
982.878	1013.07
983.177	996.8
983.475	992.05
983.774	1001.09
984.073	994.54
984.372	964.25
984.67	980.53
984.969	989.79
985.267	988.43
985.566	980.53
985.864	964.25
986.162	965.61
986.461	949.57
986.759	972.62
987.057	977.36
987.355	966.74
987.653	973.75
987.951	963.8
988.249	955.67
988.547	954.99
988.844	925.39
989.142	959.96
989.44	917.7
989.737	934.42
990.035	943.24
990.332	956.57
990.63	912.96
990.927	919.06
991.224	914.99
991.521	899.62
991.819	923.58
992.116	916.12
992.413	932.16
992.71	906.4
993.006	913.18
993.303	894.65
993.6	925.61
993.897	888.55
994.193	907.76
994.49	887.19
994.787	907.76
995.083	884.26
995.379	875.9
995.676	892.39
995.972	871.6
996.268	859.17
996.565	856.91
996.861	849.68
997.157	859.85
997.453	857.59
997.749	856.46
998.044	849
998.34	849.23
998.636	849.46
998.932	849.23
999.227	839.29
999.523	833.18
999.818	830.25
1000.114	843.58
1000.409	823.24
1000.704	809.91
1001	824.37
1001.295	841.32
1001.59	831.15
1001.885	809.91
1002.18	813.98
1002.475	790.93
1002.77	786.86
1003.065	836.8
1003.359	801.55
1003.654	768.55
1003.949	804.71
1004.243	804.94
1004.538	789.12
1004.832	779.4
1005.127	767.65
1005.421	785.73
1005.715	790.02
1006.009	767.88
1006.304	781.89
1006.598	776.24
1006.892	737.14
1007.186	745.73
1007.48	753.64
1007.773	746.63
1008.067	738.05
1008.361	736.24
1008.655	752.28
1008.948	742.11
1009.242	754.32
1009.535	725.16
1009.829	716.13
1010.122	719.29
1010.415	744.83
1010.708	726.52
1011.001	717.48
1011.295	720.42
1011.588	717.48
1011.881	705.73
1012.173	720.19
1012.466	705.73
1012.759	705.28
1013.052	711.61
1013.344	674.77
1013.637	686.97
1013.93	692.85
1014.222	685.17
1014.514	704.15
1014.807	684.04
1015.099	681.32
1015.391	691.49
1015.683	675.67
1015.976	669.35
1016.268	674.09
1016.56	670.02
1016.851	683.13
1017.143	649.01
1017.435	655.34
1017.727	634.55
1018.018	663.47
1018.31	658.05
1018.602	664.15
1018.893	652.17
1019.185	639.52
1019.476	636.35
1019.767	663.7
1020.058	636.13
1020.35	623.92
1020.641	635.9
1020.932	618.73
1021.223	599.97
1021.514	630.25
1021.804	630.03
1022.095	628.9
1022.386	623.47
1022.677	605.85
1022.967	595.9
1023.258	610.82
1023.548	590.48
1023.839	600.42
1024.129	612.63
1024.419	616.01
1024.709	589.8
1025	596.81
1025.29	592.06
1025.58	587.09
1025.87	576.47
1026.16	594.09
1026.449	595.9
1026.739	574.21
1027.029	586.41
1027.319	556.13
1027.608	577.6
1027.898	568.78
1028.187	564.94
1028.477	586.64
1028.766	583.93
1029.055	560.2
1029.344	543.7
1029.634	551.84
1029.923	542.34
1030.212	548.67
1030.501	547.77
1030.79	548.45
1031.078	540.76
1031.367	550.48
1031.656	534.66
1031.945	536.92
1032.233	544.6
1032.522	528.11
1032.81	537.6
1033.099	541.44
1033.387	531.95
1033.675	526.07
1033.963	521.78
1034.251	520.2
1034.54	530.37
1034.828	533.76
1035.116	500.99
1035.403	524.04
1035.691	512.51
1035.979	522.01
1036.267	488.33
1036.554	480.43
1036.842	503.93
1037.129	496.92
1037.417	489.69
1037.704	494.89
1037.992	492.85
1038.279	501.44
1038.566	492.18
1038.853	492.18
1039.14	492.18
