Data from mousepad_grey_FLMS001491_00009.txt Node
Date: Wed Feb 08 14:28:55 GMT 2017
User: dcchb
Spectrometer: FLMS00149
Trigger mode: 0
Integration Time (sec): 2.000000E-2
Scans to average: 10
Electric dark correction enabled: true
Nonlinearity correction enabled: false
Boxcar width: 0
XAxis mode: Wavelengths
Number of Pixels in Spectrum: 2048
>>>>>Begin Spectral Data<<<<<
341.393	-4.24
341.776	-4.24
342.16	-4.24
342.543	-67.96
342.927	-64.57
343.31	-55.99
343.693	-62.77
344.077	-51.24
344.46	-72.26
344.843	-78.81
345.226	-30.23
345.61	-44.24
345.993	-31.58
346.376	2.09
346.759	24.91
347.142	38.7
347.525	45.48
347.908	46.61
348.291	78.47
348.674	90
349.057	100.84
349.44	130.45
349.823	147.85
350.206	151.01
350.588	183.78
350.971	177.68
351.354	215.42
351.737	211.8
352.119	239.37
352.502	234.85
352.884	249.99
353.267	252.93
353.65	275.08
354.032	279.37
354.414	290.44
354.797	302.2
355.179	295.64
355.562	285.92
355.944	299.71
356.326	297
356.709	311.91
357.091	319.82
357.473	331.35
357.855	329.99
358.238	325.47
358.62	324.12
359.002	318.24
359.384	332.25
359.766	311.23
360.148	315.53
360.53	335.19
360.912	311.91
361.294	318.01
361.676	294.74
362.057	312.82
362.439	301.07
362.821	297
363.203	297
363.584	318.69
363.966	331.35
364.348	284.57
364.729	315.53
365.111	291.35
365.493	284.57
365.874	302.42
366.256	284.34
366.637	303.1
367.019	289.31
367.4	298.81
367.781	291.12
368.163	302.2
368.544	298.35
368.925	280.5
369.306	303.1
369.688	277.34
370.069	287.73
370.45	278.92
370.831	279.6
371.212	295.19
371.593	274.4
371.974	297.45
372.355	290.22
372.736	284.57
373.117	286.15
373.498	297.68
373.879	282.08
374.26	264.91
374.641	291.8
375.021	284.79
375.402	310.56
375.783	298.35
376.163	299.03
376.544	298.58
376.925	296.09
377.305	296.32
377.686	301.07
378.066	312.14
378.447	315.98
378.827	317.11
379.208	310.1
379.588	303.55
379.968	319.14
380.349	297.68
380.729	289.77
381.109	315.3
381.489	317.79
381.87	332.03
382.25	302.65
382.63	326.38
383.01	325.02
383.39	310.56
383.77	331.35
384.15	322.53
384.53	308.07
384.91	316.66
385.29	324.57
385.67	318.24
386.049	318.92
386.429	313.04
386.809	334.74
387.189	335.19
387.568	327.05
387.948	310.78
388.328	318.47
388.707	331.57
389.087	330.22
389.466	347.84
389.846	303.1
390.225	332.03
390.605	332.7
390.984	330.44
391.363	337.45
391.743	341.52
392.122	344
392.501	330.22
392.881	339.26
393.26	356.88
393.639	331.12
394.018	349.65
394.397	344
394.776	360.05
395.155	358.24
395.534	359.37
395.913	363.89
396.292	348.97
396.671	376.09
397.05	353.49
397.429	344
397.808	347.62
398.186	366.6
398.565	358.47
398.944	356.88
399.323	374.96
399.701	365.7
400.08	385.81
400.458	352.59
400.837	375.64
401.215	381.52
401.594	375.41
401.972	374.28
402.351	389.65
402.729	369.54
403.107	384.68
403.486	371.57
403.864	385.58
404.242	385.81
404.62	390.33
404.999	400.95
405.377	385.13
405.755	405.47
406.133	395.98
406.511	389.65
406.889	413.6
407.267	396.66
407.645	392.14
408.023	413.15
408.401	417.67
408.779	431.46
409.156	401.4
409.534	397.56
409.912	406.15
410.29	414.51
410.667	425.36
411.045	419.48
411.422	445.24
411.8	430.78
412.178	419.25
412.555	415.64
412.933	426.03
413.31	443.89
413.687	438.24
414.065	458.12
414.442	406.37
414.819	445.69
415.197	458.8
415.574	484.79
415.951	444.56
416.328	472.36
416.705	461.29
417.082	462.87
417.46	479.14
417.837	467.61
418.214	483.66
418.591	484.11
418.967	459.03
419.344	470.33
419.721	477.33
420.098	494.51
420.475	482.08
420.852	503.32
421.228	515.98
421.605	494.28
421.982	513.04
422.358	492.7
422.735	490.44
423.111	514.62
423.488	508.74
423.864	509.2
424.241	532.7
424.617	523.43
424.994	525.24
425.37	539.48
425.746	516.2
426.123	554.17
426.499	554.17
426.875	551.91
427.251	567.73
427.627	542.19
428.003	549.19
428.379	567.95
428.756	565.47
429.132	574.73
429.507	566.6
429.883	582.19
430.259	611.34
430.635	596.42
431.011	587.84
431.387	616.31
431.763	595.07
432.138	618.12
432.514	628.74
432.89	613.6
433.265	615.86
433.641	606.14
434.016	619.25
434.392	631
434.767	645.69
435.143	663.09
435.518	669.87
435.894	638.01
436.269	645.46
436.644	670.55
437.02	668.29
437.395	656.54
437.77	682.52
438.145	704.67
438.52	715.97
438.895	701.51
439.271	700.38
439.646	711
440.021	708.29
440.395	710.09
440.77	702.18
441.145	689.76
441.52	720.49
441.895	719.59
442.27	722.98
442.645	725.24
443.019	751
443.394	740.38
443.769	765.69
444.143	753.03
444.518	745.35
444.892	770.88
445.267	749.42
445.641	766.36
446.016	749.64
446.39	759.13
446.764	757.32
447.139	765.69
447.513	757.32
447.887	776.08
448.262	789.19
448.636	818.79
449.01	799.36
449.384	814.05
449.758	819.47
450.132	814.72
450.506	817.44
450.88	815.63
451.254	824.22
451.628	834.16
452.002	863.08
452.376	824.67
452.75	859.24
453.123	863.08
453.497	851.11
453.871	869.86
454.244	900.37
454.618	900.15
454.992	885
455.365	908.73
455.739	915.74
456.112	934.5
456.486	918
456.859	953.25
457.232	965.23
457.606	939.69
457.979	946.7
458.352	967.26
458.725	973.36
459.099	994.61
459.472	1001.61
459.845	1007.04
460.218	996.19
460.591	1034.61
460.964	1049.75
461.337	1036.87
461.71	1059.24
462.083	1074.15
462.456	1076.86
462.829	1094.04
463.201	1078.67
463.574	1098.56
463.947	1092.68
464.32	1132
464.692	1127.03
465.065	1132.68
465.438	1145.79
465.81	1186.92
466.183	1194.83
466.555	1200.7
466.928	1197.09
467.3	1190.08
467.672	1203.64
468.045	1243.64
468.417	1260.36
468.789	1253.36
469.161	1276.18
469.534	1270.53
469.906	1294.71
470.278	1302.17
470.65	1340.36
471.022	1332.9
471.394	1384.88
471.766	1379.46
472.138	1397.53
472.51	1411.09
472.882	1404.31
473.253	1437.53
473.625	1456.06
473.997	1463.75
474.369	1480.47
474.74	1483.18
475.112	1523.41
475.484	1562.73
475.855	1583.07
476.227	1586
476.598	1634.59
476.97	1633.01
477.341	1633.01
477.713	1685.21
478.084	1721.37
478.455	1730.41
478.827	1743.06
479.198	1775.6
479.569	1767.69
479.94	1828.48
480.311	1822.83
480.682	1856.73
481.053	1898.31
481.424	1921.59
481.795	1931.98
482.166	1951.87
482.537	2024.86
482.908	2015.37
483.279	2037.07
483.65	2076.39
484.021	2080.91
484.391	2157.51
484.762	2173.56
485.133	2157.97
485.503	2232.77
485.874	2249.04
486.244	2295.82
486.615	2289.49
486.985	2323.16
487.356	2354.34
487.726	2374.91
488.097	2408.13
488.467	2398.86
488.837	2487.67
489.207	2491.06
489.578	2530.39
489.948	2545.3
490.318	2592.3
490.688	2549.37
491.058	2571.06
491.428	2651.96
491.798	2667.11
492.168	2727.67
492.538	2691.29
492.908	2757.05
493.278	2760.89
493.648	2767.22
494.017	2821.23
494.387	2852.41
494.757	2869.36
495.126	2898.06
495.496	2865.29
495.866	2920.66
496.235	2960.88
496.605	2953.43
496.974	3004.95
497.344	3025.29
497.713	3017.83
498.082	3051.05
498.452	3098.28
498.821	3083.37
499.19	3104.16
499.559	3156.13
499.928	3153.19
500.298	3191.16
500.667	3195.9
501.036	3232.06
501.405	3207.88
501.774	3251.04
502.143	3314.77
502.512	3311.38
502.88	3320.65
503.249	3322.46
503.618	3366.07
503.987	3338.5
504.356	3383.92
504.724	3410.59
505.093	3438.84
505.462	3421.21
505.83	3444.71
506.199	3511.83
506.567	3566.74
506.936	3514.99
507.304	3548.66
507.672	3597.25
508.041	3598.83
508.409	3602
508.777	3681.77
509.145	3721.77
509.514	3689.9
509.882	3671.82
510.25	3718.83
510.618	3759.05
510.986	3787.98
511.354	3806.96
511.722	3833.18
512.09	3880.86
512.458	3858.94
512.826	3868.66
513.193	3936.22
513.561	3901.65
513.929	3943.68
514.297	3976.22
514.664	4010.35
515.032	4055.77
515.4	4053.06
515.767	4077.01
516.135	4073.85
516.502	4042.44
516.869	4147.29
517.237	4196.1
517.604	4148.42
517.972	4235.43
518.339	4283.56
518.706	4269.77
519.073	4270.68
519.44	4267.97
519.808	4384.57
520.175	4354.07
520.542	4355.65
520.909	4433.16
521.276	4453.05
521.643	4499.15
522.009	4479.03
522.376	4516.77
522.743	4536.66
523.11	4605.59
523.477	4620.95
523.843	4658.24
524.21	4684.68
524.577	4735.53
524.943	4778.91
525.31	4762.19
525.676	4842.19
526.043	4801.29
526.409	4891
526.776	4902.3
527.142	4916.99
527.508	4958.8
527.874	4980.72
528.241	5023.88
528.607	5059.36
528.973	5079.02
529.339	5045.8
529.705	5146.81
530.071	5138.23
530.437	5195.4
530.803	5237.88
531.169	5256.42
531.535	5216.87
531.901	5264.55
532.267	5301.61
532.632	5319.92
532.998	5316.98
533.364	5385.9
533.73	5384.32
534.095	5414.83
534.461	5453.92
534.826	5498.67
535.192	5565.11
535.557	5539.35
535.923	5564.43
536.288	5587.48
536.653	5639.46
537.019	5590.19
537.384	5629.06
537.749	5696.4
538.114	5712.45
538.479	5727.82
538.845	5738.44
539.21	5783.18
539.575	5730.3
539.94	5802.39
540.305	5839.9
540.67	5862.95
541.034	5864.31
541.399	5880.35
541.764	5940.01
542.129	5948.15
542.494	5985.21
542.858	6007.58
543.223	6030.41
543.587	6086.68
543.952	6050.29
544.316	6148.37
544.681	6118.99
545.045	6138.2
545.41	6135.94
545.774	6159.89
546.138	6189.95
546.503	6231.53
546.867	6227.24
547.231	6295.26
547.595	6264.52
547.959	6361.7
548.324	6294.35
548.688	6376.61
549.052	6374.58
549.416	6404.63
549.779	6410.51
550.143	6504.52
550.507	6505.65
550.871	6485.54
551.235	6512.43
551.599	6565.53
551.962	6624.29
552.326	6637.62
552.689	6650.96
553.053	6607.57
553.417	6660.45
553.78	6679.88
554.143	6744.51
554.507	6735.02
554.87	6837.39
555.234	6852.76
555.597	6774.57
555.96	6834
556.323	6909.25
556.686	6877.62
557.05	7023.37
557.413	6977.5
557.776	7003.71
558.139	7011.62
558.502	7020.21
558.865	7023.6
559.228	7168.91
559.59	7139.98
559.953	7194.9
560.316	7277.61
560.679	7258.17
561.041	7278.96
561.404	7298.17
561.767	7373.87
562.129	7290.26
562.492	7428.56
562.854	7436.47
563.217	7395.34
563.579	7459.07
563.941	7468.56
564.304	7559.63
564.666	7570.48
565.028	7615.68
565.39	7644.6
565.753	7650.02
566.115	7687.54
566.477	7727.08
566.839	7761.21
567.201	7814.99
567.563	7823.58
567.925	7874.65
568.287	7873.07
568.648	7876.23
569.01	7922.56
569.372	8003.69
569.734	7909
570.095	8000.75
570.457	8144.7
570.819	8060.18
571.18	8059.73
571.542	8150.58
571.903	8148.54
572.265	8197.13
572.626	8175.89
572.987	8249.56
573.349	8212.27
573.71	8271.03
574.071	8308.54
574.432	8350.35
574.794	8365.94
575.155	8352.83
575.516	8330.91
575.877	8408.87
576.238	8466.05
576.599	8410
576.96	8480.29
577.32	8435.09
577.681	8459.72
578.042	8418.37
578.403	8464.01
578.763	8531.13
579.124	8526.16
579.485	8623.11
579.845	8627.85
580.206	8547.18
580.566	8550.79
580.927	8571.36
581.287	8639.15
581.648	8612.49
582.008	8678.47
582.368	8662.65
582.728	8667.4
583.089	8686.38
583.449	8678.25
583.809	8669.66
584.169	8679.83
584.529	8719.83
584.889	8760.05
585.249	8672.6
585.609	8688.64
585.969	8818.36
586.329	8746.95
586.688	8720.73
587.048	8740.39
587.408	8675.53
587.768	8747.4
588.127	8740.84
588.487	8706.72
588.846	8791.24
589.206	8722.31
589.565	8719.6
589.925	8792.14
590.284	8716.66
590.643	8768.87
591.003	8687.51
591.362	8759.83
591.721	8789.88
592.08	8814.51
592.44	8819.71
592.799	8773.16
593.158	8814.29
593.517	8861.74
593.876	8848.64
594.235	8806.83
594.593	8826.04
594.952	8860.16
595.311	8736.1
595.67	8838.69
596.029	8889.77
596.387	8847.73
596.746	8904.68
597.104	8810.22
597.463	8861.07
597.822	8869.88
598.18	8851.12
598.538	8829.65
598.897	8851.58
599.255	8860.61
599.613	8935.19
599.972	8877.11
600.33	8897.68
600.688	8878.02
601.046	8951.01
601.404	8924.57
601.762	8845.93
602.12	8946.04
602.478	8978.35
602.836	9034.17
603.194	8883.21
603.552	8925.02
603.91	8908.07
604.268	8961.18
604.625	8991.46
604.983	9019.03
605.341	8984.9
605.698	8965.7
606.056	9003.44
606.413	9002.98
606.771	9025.13
607.128	8999.59
607.485	9065.35
607.843	8979.48
608.2	9111.23
608.557	9073.49
608.914	8988.07
609.272	9126.82
609.629	9087.73
609.986	9165.01
610.343	9080.04
610.7	9202.75
611.057	9198.01
611.414	9123.43
611.771	9085.02
612.127	9192.81
612.484	9142.41
612.841	9259.25
613.198	9164.34
613.554	9175.41
613.911	9192.36
614.267	9195.29
614.624	9252.02
614.98	9201.85
615.337	9234.62
615.693	9295.63
616.05	9260.38
616.406	9319.59
616.762	9314.61
617.118	9236.2
617.475	9229.87
617.831	9294.5
618.187	9240.72
618.543	9282.75
618.899	9384.22
619.255	9394.16
619.611	9363.65
619.967	9339.7
620.323	9349.87
620.678	9311.68
621.034	9380.15
621.39	9343.54
621.746	9343.09
622.101	9394.84
622.457	9362.3
622.812	9381.05
623.168	9351.68
623.523	9444.1
623.879	9453.59
624.234	9313.26
624.589	9414.95
624.945	9432.8
625.3	9443.2
625.655	9410.2
626.01	9462.41
626.365	9387.38
626.72	9393.03
627.075	9422.41
627.43	9441.16
627.785	9424.22
628.14	9397.32
628.495	9484.1
628.85	9406.59
629.205	9337.21
629.559	9416.53
629.914	9332.92
630.269	9454.95
630.623	9344.44
630.978	9371.34
631.332	9381.96
631.687	9405.23
632.041	9382.41
632.396	9413.82
632.75	9337.21
633.104	9362.75
633.459	9218.12
633.813	9356.87
634.167	9291.79
634.521	9372.01
634.875	9294.5
635.229	9359.36
635.583	9296.08
635.937	9288.17
636.291	9304.67
636.645	9233.71
636.999	9289.76
637.352	9298.12
637.706	9198.91
638.06	9279.59
638.413	9241.62
638.767	9184.9
639.121	9247.5
639.474	9225.35
639.828	9193.71
640.181	9238.01
640.534	9225.35
640.888	9211.34
641.241	9113.49
641.594	9199.59
641.947	9177.67
642.301	9156.2
642.654	9139.25
643.007	9160.72
643.36	9154.62
643.713	9132.02
644.066	9218.8
644.419	9158.69
644.771	9160.72
645.124	9021.06
645.477	9042.08
645.83	8920.73
646.182	8996.43
646.535	8854.06
646.888	8904.68
647.24	8847.28
647.593	8923.89
647.945	8956.66
648.298	8852.71
648.65	8777.68
649.002	8795.98
649.355	8901.52
649.707	8858.81
650.059	8863.78
650.411	8975.41
650.763	9023.77
651.115	9082.08
651.467	9061.51
651.819	9112.36
652.171	9069.2
652.523	9007.05
652.875	9068.07
653.227	9047.95
653.578	9079.59
653.93	9105.13
654.282	9021.74
654.633	8984.45
654.985	9069.2
655.337	9031.46
655.688	9045.69
656.039	9129.31
656.391	9024.23
656.742	8977.22
657.094	9047.5
657.445	9110.55
657.796	9027.16
658.147	9002.98
658.498	9029.42
658.849	9065.13
659.2	9051.34
659.551	8998.24
659.902	9086.15
660.253	8989.42
660.604	9104.9
660.955	9032.59
661.306	9041.85
661.656	9036.2
662.007	9047.5
662.358	9108.29
662.708	9012.47
663.059	8986.71
663.409	8966.83
663.76	9089.08
664.11	9077.33
664.461	9013.38
664.811	9012.25
665.161	9060.16
665.511	9099.25
665.862	9087.05
666.212	9060.38
666.562	9132.47
666.912	9062.87
667.262	9079.14
667.612	9063.1
667.962	9065.58
668.312	8958.92
668.662	9020.16
669.011	9010.44
669.361	9017.22
669.711	9009.54
670.06	9026.26
670.41	9022.87
670.76	9027.84
671.109	9020.38
671.459	9032.36
671.808	9017.45
672.157	8968.41
672.507	8935.87
672.856	8984.68
673.205	9015.41
673.554	8981.74
673.904	9014.73
674.253	8961.4
674.602	8978.58
674.951	8846.15
675.3	8770.67
675.649	8922.31
675.998	8895.19
676.346	8911.46
676.695	8943.1
677.044	8854.96
677.393	8905.36
677.741	8920.95
678.09	8884.12
678.438	8874.63
678.787	8851.8
679.135	8853.16
679.484	8904.23
679.832	8858.58
680.181	8872.82
680.529	8801.86
680.877	8731.58
681.225	8763.44
681.573	8824.91
681.922	8729.54
682.27	8777.68
682.618	8672.37
682.966	8763.67
683.314	8750.33
683.661	8664.46
684.009	8703.78
684.357	8670.11
684.705	8664.69
685.053	8608.87
685.4	8684.12
685.748	8572.26
686.095	8614.07
686.443	8545.37
686.79	8542.88
687.138	8489.55
687.485	8554.86
687.832	8571.36
688.18	8513.96
688.527	8459.95
688.874	8518.25
689.221	8505.14
689.568	8397.8
689.915	8446.16
690.262	8410
690.609	8363
690.956	8343.57
691.303	8258.14
691.65	8285.26
691.997	8263.57
692.344	8220.63
692.69	8279.16
693.037	8167.53
693.383	8198.94
693.73	8166.4
694.077	8097.92
694.423	8173.85
694.769	8075.55
695.116	8084.82
695.462	8058.6
695.808	8043.69
696.155	8030.13
696.501	8020.41
696.847	7959.85
697.193	7943.12
697.539	8005.5
697.885	7902.9
698.231	7901.32
698.577	7834.43
698.923	7890.02
699.269	7856.12
699.614	7721.89
699.96	7726.86
700.306	7748.33
700.651	7732.06
700.997	7729.12
701.342	7671.04
701.688	7671.72
702.033	7623.13
702.379	7608.9
702.724	7579.52
703.069	7635.56
703.415	7548.56
703.76	7581.33
704.105	7507.43
704.45	7485.74
704.795	7445.06
705.14	7428.11
705.485	7456.58
705.83	7406.19
706.175	7414.78
706.52	7400.77
706.865	7341.33
707.209	7286.19
707.554	7265.4
707.899	7345.17
708.243	7323.48
708.588	7323.71
708.932	7256.36
709.277	7224.05
709.621	7238.51
709.966	7189.7
710.31	7195.35
710.654	7158.06
710.998	7157.16
711.342	7191.28
711.687	7144.05
712.031	7088.23
712.375	7100.21
712.719	7039.65
713.063	7024.73
713.407	7057.95
713.75	7015.69
714.094	7005.75
714.438	7074.9
714.782	6990.83
715.125	6985.86
715.469	6981.34
715.812	6988.57
716.156	6946.31
716.499	6963.72
716.843	6946.77
717.186	6969.59
717.53	6942.47
717.873	6923.49
718.216	6930.95
718.559	6880.33
718.902	6837.39
719.246	6883.04
719.589	6888.69
719.932	6820.89
720.275	6864.51
720.617	6838.07
720.96	6869.25
721.303	6828.8
721.646	6842.36
721.989	6817.28
722.331	6825.19
722.674	6835.58
723.016	6810.72
723.359	6848.69
723.701	6850.72
724.044	6808.01
724.386	6744.96
724.729	6819.54
725.071	6788.13
725.413	6810.5
725.755	6775.25
726.097	6783.38
726.439	6746.77
726.782	6729.82
727.124	6775.7
727.465	6762.59
727.807	6769.14
728.149	6717.17
728.491	6745.19
728.833	6751.97
729.175	6692.99
729.516	6706.77
729.858	6676.49
730.199	6690.5
730.541	6681.69
730.882	6689.15
731.224	6739.99
731.565	6693.67
731.906	6744.96
732.248	6705.87
732.589	6706.32
732.93	6632.2
733.271	6638.07
733.612	6693.89
733.953	6698.64
734.294	6644.63
734.635	6703.16
734.976	6736.15
735.317	6617.28
735.658	6648.24
735.999	6658.19
736.339	6624.97
736.68	6705.64
737.021	6622.26
737.361	6623.16
737.702	6668.58
738.042	6693.44
738.383	6624.06
738.723	6739.99
739.063	6628.36
739.404	6647.34
739.744	6619.32
740.084	6625.87
740.424	6625.64
740.764	6597.85
741.104	6674.46
741.444	6587
741.784	6649.15
742.124	6615.25
742.464	6642.59
742.804	6654.57
743.143	6631.52
743.483	6630.62
743.823	6613.67
744.162	6609.6
744.502	6659.09
744.841	6584.29
745.181	6579.32
745.52	6589.94
745.86	6602.82
746.199	6622.26
746.538	6649.83
746.877	6650.05
747.216	6595.14
747.556	6555.59
747.895	6610.05
748.234	6556.49
748.573	6552.88
748.911	6575.48
749.25	6584.06
749.589	6539.09
749.928	6560.34
750.267	6554.91
750.605	6634.01
750.944	6555.59
751.283	6498.19
751.621	6570.51
751.96	6536.83
752.298	6541.81
752.636	6496.16
752.975	6487.57
753.313	6520.56
753.651	6505.65
753.989	6460.68
754.327	6490.06
754.666	6487.12
755.004	6454.8
755.342	6495.93
755.679	6460.68
756.017	6405.76
756.355	6478.76
756.693	6400.79
757.031	6448.93
757.368	6412.77
757.706	6409.61
758.044	6390.4
758.381	6293
758.719	6316.05
759.056	6328.7
759.394	6341.36
759.731	6295.71
760.068	6331.87
760.405	6253
760.743	6267.91
761.08	6241.7
761.417	6207.58
761.754	6257.75
762.091	6265.2
762.428	6211.42
762.765	6179.78
763.102	6237.86
763.438	6180.46
763.775	6141.82
764.112	6167.8
764.449	6122.16
764.785	6117.86
765.122	6104.98
765.458	6085.55
765.795	6066.34
766.131	6058.65
766.467	5981.14
766.804	5997.64
767.14	6006.23
767.476	5987.7
767.812	5926.91
768.148	5916.96
768.485	5897.53
768.821	5940.92
769.157	5904.76
769.492	5859.79
769.828	5858.21
770.164	5837.42
770.5	5817.08
770.836	5835.61
771.171	5823.63
771.507	5784.31
771.842	5764.42
772.178	5663.64
772.513	5707.03
772.849	5762.16
773.184	5674.03
773.519	5672
773.855	5649.63
774.19	5622.96
774.525	5619.34
774.86	5657.99
775.195	5607.82
775.53	5564.88
775.865	5530.53
776.2	5544.77
776.535	5464.32
776.87	5526.01
777.205	5467.03
777.539	5446.69
777.874	5435.62
778.209	5412.8
778.543	5424.77
778.878	5361.5
779.212	5375.51
779.547	5302.97
779.881	5323.31
780.215	5295.74
780.55	5287.15
780.884	5290.09
781.218	5270.43
781.552	5251.9
781.886	5227.26
782.22	5204.21
782.554	5210.54
782.888	5123.76
783.222	5071.11
783.556	5112.46
783.889	5142.75
784.223	5069.3
784.557	5091
784.89	5083.31
785.224	5066.59
785.557	5009.19
785.891	4979.59
786.224	5008.74
786.558	5013.03
786.891	4972.36
787.224	4935.29
787.557	4881.96
787.891	4885.8
788.224	4909.98
788.557	4898.91
788.89	4883.09
789.223	4900.27
789.556	4854.84
789.888	4830.89
790.221	4825.69
790.554	4798.35
790.887	4821.17
791.219	4743.89
791.552	4794.96
791.884	4748.63
792.217	4680.39
792.549	4697.79
792.882	4668.86
793.214	4666.83
793.546	4670.67
793.879	4655.53
794.211	4633.16
794.543	4662.76
794.875	4635.41
795.207	4632.48
795.539	4601.07
795.871	4597.68
796.203	4581.63
796.535	4529.88
796.867	4546.6
797.198	4547.51
797.53	4525.59
797.862	4481.29
798.193	4533.5
798.525	4499.37
798.856	4476.1
799.188	4479.71
799.519	4420.05
799.85	4373.73
800.182	4380.73
800.513	4419.83
800.844	4358.81
801.175	4411.01
801.506	4414.18
801.837	4367.63
802.168	4343.67
802.499	4323.78
802.83	4303.45
803.161	4336.44
803.491	4329.66
803.822	4264.58
804.153	4291.92
804.483	4275.42
804.814	4225.71
805.145	4230.23
805.475	4250.79
805.805	4195.2
806.136	4192.71
806.466	4230.45
806.796	4212.15
807.126	4173.73
807.457	4137.35
807.787	4147.52
808.117	4134.64
808.447	4090.8
808.777	4137.57
809.107	4132.6
809.436	4088.99
809.766	4072.27
810.096	4065.49
810.426	4089.44
810.755	4064.13
811.085	4051.02
811.414	4053.96
811.744	4021.65
812.073	4024.81
812.403	4011.48
812.732	4046.73
813.061	4021.87
813.39	3974.64
813.719	3938.48
814.049	4021.87
814.378	3971.93
814.707	3925.83
815.036	3995.43
815.365	3923.8
815.693	3910.46
816.022	3910.01
816.351	3894.42
816.68	3874.76
817.008	3908.43
817.337	3890.8
817.665	3830.92
817.994	3856.23
818.322	3902.33
818.651	3850.12
818.979	3812.84
819.307	3872.5
819.636	3818.71
819.964	3785.49
820.292	3826.62
820.62	3846.96
820.948	3770.13
821.276	3807.87
821.604	3787.53
821.932	3791.6
822.259	3859.16
822.587	3831.59
822.915	3796.11
823.243	3752.27
823.57	3786.17
823.898	3788.88
824.225	3813.52
824.553	3772.61
824.88	3807.41
825.207	3782.33
825.535	3768.77
825.862	3777.36
826.189	3801.09
826.516	3816.91
826.843	3783.69
827.17	3794.08
827.497	3779.17
827.824	3813.97
828.151	3793.4
828.478	3739.85
828.805	3786.85
829.131	3792.73
829.458	3778.71
829.785	3756.57
830.111	3771.26
830.438	3839.28
830.764	3805.83
831.09	3793.4
831.417	3776.45
831.743	3771.71
832.069	3788.43
832.395	3719.73
832.722	3743.91
833.048	3752.95
833.374	3758.38
833.7	3739.85
834.026	3791.6
834.351	3749.79
834.677	3745.72
835.003	3766.29
835.329	3761.54
835.654	3707.98
835.98	3707.53
836.306	3737.13
836.631	3700.3
836.956	3721.99
837.282	3724.03
837.607	3718.38
837.932	3679.51
838.258	3710.24
838.583	3687.19
838.908	3676.57
839.233	3717.02
839.558	3688.77
839.883	3656.23
840.208	3663.46
840.533	3652.16
840.858	3632.5
841.182	3674.31
841.507	3720.64
841.832	3637.02
842.156	3639.28
842.481	3632.05
842.805	3608.78
843.13	3606.74
843.454	3599.51
843.778	3631.15
844.103	3595.89
844.427	3560.64
844.751	3584.6
845.075	3585.95
845.399	3523.35
845.723	3557.48
846.047	3528.78
846.371	3517.25
846.695	3521.55
847.019	3469.8
847.343	3496.69
847.666	3472.96
847.99	3470.93
848.313	3433.64
848.637	3426.18
848.96	3411.49
849.284	3428.44
849.607	3399.74
849.931	3375.11
850.254	3358.16
850.577	3338.27
850.9	3324.04
851.223	3345.05
851.546	3321.1
851.869	3297.14
852.192	3327.43
852.515	3296.92
852.838	3270.48
853.161	3288.33
853.483	3239.52
853.806	3247.65
854.129	3275.68
854.451	3232.74
854.774	3206.07
855.096	3202.91
855.419	3193.42
855.741	3184.83
856.063	3166.75
856.385	3159.52
856.708	3173.98
857.03	3164.49
857.352	3143.7
857.674	3145.28
857.996	3139.41
858.318	3141.22
858.64	3138.96
858.961	3107.09
859.283	3079.75
859.605	3105.74
859.926	3085.17
860.248	3084.04
860.57	3071.61
860.891	3058.28
861.212	3073.87
861.534	3038.62
861.855	3058.51
862.176	3077.04
862.498	3043.14
862.819	3035.46
863.14	3006.98
863.461	3020.99
863.782	3053.99
864.103	3025.51
864.424	3011.05
864.745	3011.28
865.065	3017.6
865.386	2999.07
865.707	2969.47
866.027	2966.98
866.348	2998.85
866.668	2985.51
866.989	2986.42
867.309	2992.29
867.63	2983.71
867.95	2976.93
868.27	2903.71
868.59	2937.83
868.91	2935.35
869.23	2958.62
869.55	2912.52
869.87	2951.84
870.19	2964.95
870.51	2933.76
870.83	2945.52
871.15	2907.1
871.469	2916.14
871.789	2925.86
872.109	2895.57
872.428	2884.73
872.748	2873.43
873.067	2900.32
873.386	2866.2
873.706	2894.67
874.025	2882.69
874.344	2870.26
874.663	2904.84
874.982	2828.91
875.301	2854.67
875.62	2866.65
875.939	2832.07
876.258	2853.54
876.577	2835.69
876.896	2829.59
877.214	2833.43
877.533	2840.66
877.852	2820.77
878.17	2857.38
878.489	2825.74
878.807	2821.45
879.125	2828.23
879.444	2833.2
879.762	2798.63
880.08	2798.85
880.398	2829.81
880.716	2817.61
881.034	2795.46
881.352	2766.54
881.67	2759.53
881.988	2767.44
882.306	2761.34
882.624	2782.58
882.941	2730.83
883.259	2731.06
883.577	2796.14
883.894	2727.44
884.212	2762.24
884.529	2770.61
884.846	2726.99
885.164	2710.49
885.481	2696.48
885.798	2709.36
886.115	2684.05
886.432	2745.97
886.75	2686.31
887.067	2686.09
887.383	2680.44
887.7	2673.43
888.017	2670.49
888.334	2675.24
888.651	2663.26
888.967	2675.24
889.284	2625.75
889.6	2654.9
889.917	2609.71
890.233	2612.87
890.55	2624.62
890.866	2626.2
891.182	2639.08
891.498	2600.89
891.815	2594.34
892.131	2581.91
892.447	2592.98
892.763	2557.73
893.079	2574.68
893.395	2594.11
893.71	2553.21
894.026	2571.97
894.342	2559.99
894.657	2556.15
894.973	2560.67
895.289	2512.76
895.604	2542.14
895.92	2487.45
896.235	2472.99
896.55	2465.3
896.865	2491.74
897.181	2515.92
897.496	2503.95
897.811	2449.48
898.126	2473.21
898.441	2433.21
898.756	2434.57
899.071	2452.65
899.386	2421.46
899.7	2388.24
900.015	2413.1
900.33	2414.68
900.644	2403.61
900.959	2395.02
901.273	2376.72
901.588	2398.86
901.902	2349.83
902.216	2381.69
902.531	2326.77
902.845	2370.62
903.159	2325.42
903.473	2338.53
903.787	2313.44
904.101	2327.68
904.415	2342.82
904.729	2303.05
905.042	2302.14
905.356	2290.39
905.67	2286.55
905.984	2270.51
906.297	2268.92
906.611	2265.53
906.924	2251.97
907.237	2234.12
907.551	2259.88
907.864	2256.27
908.177	2225.53
908.491	2235.7
908.804	2210.62
909.117	2171.75
909.43	2226.66
909.743	2184.86
910.056	2168.36
910.368	2171.75
910.681	2146.21
910.994	2152.77
911.307	2120
911.619	2112.09
911.932	2127.68
912.244	2131.07
912.557	2113.67
912.869	2105.31
913.181	2092.88
913.494	2117.29
913.806	2086.33
914.118	2074.13
914.43	2071.64
914.742	2065.76
915.054	2066.44
915.366	2035.94
915.678	2033.45
915.99	2028.48
916.302	2033.45
916.613	2020.34
916.925	2025.54
917.236	2004.3
917.548	1970.85
917.859	2033.68
918.171	1983.51
918.482	1977.18
918.794	2006.56
919.105	1982.6
919.416	1934.24
919.727	1963.17
920.038	1942.38
920.349	1941.25
920.66	1912.77
920.971	1948.71
921.282	1947.58
921.593	1921.14
921.903	1922.27
922.214	1920.01
922.525	1887.69
922.835	1894.7
923.146	1866.45
923.456	1850.4
923.767	1851.08
924.077	1863.28
924.387	1856.05
924.697	1848.14
925.008	1848.14
925.318	1822.38
925.628	1856.73
925.938	1834.13
926.248	1820.57
926.558	1831.42
926.867	1832.78
927.177	1814.02
927.487	1796.85
927.796	1786.68
928.106	1803.85
928.416	1791.87
928.725	1766.56
929.034	1755.49
929.344	1745.55
929.653	1751.87
929.962	1735.83
930.271	1737.19
930.581	1731.31
930.89	1708.03
931.199	1699.22
931.508	1725.43
931.817	1724.53
932.125	1708.26
932.434	1687.7
932.743	1667.36
933.051	1658.77
933.36	1673.68
933.669	1664.19
933.977	1677.98
934.286	1665.32
934.594	1657.41
934.902	1648.6
935.21	1630.3
935.519	1648.15
935.827	1637.53
936.135	1644.98
936.443	1619.67
936.751	1580.35
937.059	1598.88
937.367	1596.17
937.674	1579.9
937.982	1595.49
938.29	1576.51
938.597	1604.76
938.905	1551.65
939.213	1561.82
939.52	1557.3
939.827	1547.36
940.135	1562.5
940.442	1554.82
940.749	1563.63
941.056	1543.29
941.363	1506.91
941.67	1529.96
941.977	1524.31
942.284	1499.9
942.591	1494.48
942.898	1511.66
943.205	1503.29
943.511	1490.86
943.818	1496.97
944.125	1478.89
944.431	1478.89
944.738	1463.75
945.044	1448.83
945.35	1460.36
945.657	1444.09
945.963	1444.76
946.269	1439.11
946.575	1431.21
946.881	1416.74
947.187	1445.22
947.493	1421.04
947.799	1427.14
948.105	1422.84
948.41	1438.44
948.716	1412
949.022	1390.98
949.327	1410.41
949.633	1397.08
949.938	1391.88
950.244	1388.04
950.549	1338.1
950.854	1369.96
951.16	1357.99
951.465	1351.66
951.77	1367.48
952.075	1359.57
952.38	1340.81
952.685	1324.77
952.99	1354.6
953.294	1336.29
953.599	1343.3
953.904	1313.69
954.209	1321.38
954.513	1320.25
954.818	1316.41
955.122	1323.19
955.426	1296.52
955.731	1314.15
956.035	1310.76
956.339	1299.46
956.643	1292.68
956.948	1267.59
957.252	1290.64
957.556	1284.32
957.86	1264.88
958.163	1264.2
958.467	1271.66
958.771	1278.89
959.075	1257.88
959.378	1259.91
959.682	1284.09
959.985	1257.42
960.289	1222.17
960.592	1229.18
960.896	1224.88
961.199	1191.44
961.502	1220.82
961.805	1208.16
962.108	1199.35
962.411	1191.89
962.714	1202.51
963.017	1183.98
963.32	1193.92
963.623	1183.53
963.926	1193.92
964.228	1192.12
964.531	1181.49
964.833	1169.97
965.136	1159.8
965.438	1139.01
965.741	1180.59
966.043	1157.54
966.345	1145.56
966.648	1152.57
966.95	1138.33
967.252	1133.36
967.554	1129.97
967.856	1137.65
968.158	1124.77
968.46	1129.07
968.761	1150.53
969.063	1107.37
969.365	1103.53
969.666	1128.61
969.968	1131.55
970.269	1102.4
970.571	1111.44
970.872	1061.72
971.174	1104.43
971.475	1083.42
971.776	1086.81
972.077	1073.47
972.378	1067.83
972.679	1054.04
972.98	1067.83
973.281	1058.56
973.582	1052.46
973.883	1060.37
974.183	1062.18
974.484	1056.07
974.785	1037.77
975.085	1057.2
975.386	1083.19
975.686	1031.67
975.986	1030.76
976.287	1034.38
976.587	1000.48
976.887	1017.66
977.187	1015.17
977.487	1005.45
977.787	1019.92
978.087	988.05
978.387	1028.05
978.687	984.21
978.987	990.99
979.286	1004.55
979.586	1003.65
979.885	1003.19
980.185	989.63
980.484	990.99
980.784	998.45
981.083	957.32
981.382	983.99
981.682	1003.87
981.981	956.42
982.28	960.26
982.579	966.58
982.878	962.29
983.177	962.74
983.475	952.8
983.774	955.29
984.073	952.8
984.372	957.77
984.67	960.48
984.969	944.21
985.267	966.81
985.566	926.81
985.864	938.34
986.162	933.82
986.461	948.28
986.759	920.71
987.057	926.13
987.355	906.47
987.653	928.62
987.951	882.52
988.249	893.59
988.547	899.02
988.844	888.39
989.142	911.9
989.44	871.9
989.737	875.29
990.035	878.45
990.332	905.12
990.63	876.42
990.927	891.78
991.224	865.34
991.521	884.1
991.819	869.64
992.116	896.53
992.413	871.9
992.71	851.11
993.006	854.95
993.303	856.98
993.6	858.34
993.897	843.65
994.193	847.27
994.49	821.5
994.787	865.8
995.083	846.36
995.379	835.74
995.676	826.02
995.972	835.74
996.268	814.05
996.565	795.52
996.861	813.82
997.157	838.23
997.453	825.57
997.749	819.92
998.044	805.91
998.34	804.56
998.636	813.14
998.932	809.07
999.227	793.71
999.523	792.8
999.818	805.01
1000.114	801.84
1000.409	773.82
1000.704	774.05
1001	785.8
1001.295	765.69
1001.59	772.47
1001.885	761.39
1002.18	753.03
1002.475	761.39
1002.77	752.58
1003.065	772.24
1003.359	767.72
1003.654	739.25
1003.949	758.68
1004.243	760.04
1004.538	750.09
1004.832	753.71
1005.127	718.68
1005.421	743.54
1005.715	714.61
1006.009	714.16
1006.304	724.11
1006.598	743.09
1006.892	729.08
1007.186	728.4
1007.48	737.89
1007.773	724.56
1008.067	690.43
1008.361	698.8
1008.655	711
1008.948	707.16
1009.242	708.06
1009.535	676.42
1009.829	706.93
1010.122	695.86
1010.415	677.55
1010.708	701.06
1011.001	697.44
1011.295	679.36
1011.588	689.98
1011.881	673.71
1012.173	680.49
1012.466	687.04
1012.759	693.82
1013.052	668.97
1013.344	673.03
1013.637	639.36
1013.93	663.32
1014.222	672.58
1014.514	655.86
1014.807	662.86
1015.099	666.71
1015.391	658.57
1015.683	656.08
1015.976	649.3
1016.268	626.71
1016.56	650.89
1016.851	640.72
1017.143	644.56
1017.435	629.42
1017.727	636.88
1018.018	653.82
1018.31	628.51
1018.602	623.54
1018.893	628.06
1019.185	621.28
1019.476	612.24
1019.767	616.99
1020.058	597.33
1020.35	614.05
1020.641	603.43
1020.932	624.9
1021.223	606.59
1021.514	600.27
1021.804	574.05
1022.095	603.43
1022.386	574.28
1022.677	577.89
1022.967	582.87
1023.258	573.15
1023.548	579.7
1023.839	583.77
1024.129	585.13
1024.419	575.63
1024.709	580.83
1025	558.01
1025.29	566.37
1025.58	580.38
1025.87	538.35
1026.16	556.2
1026.449	563.66
1026.739	541.51
1027.029	568.18
1027.319	541.96
1027.608	542.19
1027.898	544.22
1028.187	560.27
1028.477	518.91
1028.766	545.8
1029.055	536.77
1029.344	530.44
1029.634	534.05
1029.923	516.65
1030.212	502.19
1030.501	536.77
1030.79	515.75
1031.078	506.48
1031.367	528.86
1031.656	537.67
1031.945	521.17
1032.233	529.99
1032.522	510.1
1032.81	494.51
1033.099	500.83
1033.387	515.07
1033.675	508.52
1033.963	524.56
1034.251	522.98
1034.54	492.47
1034.828	501.96
1035.116	500.16
1035.403	501.74
1035.691	496.54
1035.979	481.4
1036.267	473.04
1036.554	480.72
1036.842	500.83
1037.129	499.03
1037.417	482.08
1037.704	488.86
1037.992	499.7
1038.279	497.44
1038.566	466.71
1038.853	466.71
1039.14	466.71
