Data from No_light_on_white_reflection_standard_FLMS001491_003.txt Node
Date: Tue Feb 07 10:32:52 GMT 2017
User: dcchb
Spectrometer: FLMS00149
Trigger mode: 0
Integration Time (sec): 2.000000E-2
Scans to average: 10
Electric dark correction enabled: true
Nonlinearity correction enabled: false
Boxcar width: 0
XAxis mode: Wavelengths
Number of Pixels in Spectrum: 2048
>>>>>Begin Spectral Data<<<<<
341.393	-2.09
341.776	-2.09
342.16	-2.09
342.543	-40.96
342.927	-55.42
343.31	-62.2
343.693	-71.92
344.077	-59.49
344.46	-57.91
344.843	-65.37
345.226	-52.71
345.61	-17.46
345.993	-2.99
346.376	-12.03
346.759	26.38
347.142	4.92
347.525	29.55
347.908	56.21
348.291	74.52
348.674	102.09
349.057	108.42
349.44	135.76
349.823	117.91
350.206	152.48
350.588	166.94
350.971	174.63
351.354	191.58
351.737	201.07
352.119	230.45
352.502	233.38
352.884	235.42
353.267	247.17
353.65	279.03
354.032	265.25
354.414	247.39
354.797	284.46
355.179	288.07
355.562	292.37
355.944	301.18
356.326	320.16
356.709	312.48
357.091	322.65
357.473	311.35
357.855	308.64
358.238	322.42
358.62	328.07
359.002	308.86
359.384	312.25
359.766	314.96
360.148	301.86
360.53	297.79
360.912	316.32
361.294	286.26
361.676	289.88
362.057	285.36
362.439	289.43
362.821	286.04
363.203	292.59
363.584	290.56
363.966	278.35
364.348	288.52
364.729	293.04
365.111	288.3
365.493	286.49
365.874	262.54
366.256	297.79
366.637	290.56
367.019	280.84
367.4	287.39
367.781	262.08
368.163	264.12
368.544	268.86
368.925	287.62
369.306	253.72
369.688	277
370.069	270.22
370.45	245.81
370.831	286.72
371.212	272.48
371.593	278.58
371.974	239.94
372.355	257.34
372.736	251.46
373.117	276.09
373.498	276.32
373.879	272.03
374.26	258.92
374.641	284.46
375.021	293.95
375.402	288.75
375.783	279.94
376.163	261.86
376.544	283.55
376.925	270.44
377.305	290.11
377.686	281.74
378.066	271.8
378.447	270.67
378.827	286.04
379.208	288.3
379.588	267.28
379.968	289.65
380.349	300.5
380.729	283.78
381.109	297.11
381.489	276.32
381.87	284.91
382.25	276.55
382.63	295.75
383.01	312.03
383.39	294.17
383.77	297.56
384.15	290.33
384.53	298.92
384.91	296.88
385.29	281.74
385.67	273.38
386.049	298.01
386.429	290.78
386.809	293.04
387.189	300.05
387.568	285.59
387.948	280.16
388.328	267.28
388.707	301.63
389.087	279.26
389.466	289.2
389.846	291.91
390.225	287.85
390.605	293.72
390.984	319.71
391.363	299.82
391.743	291.24
392.122	278.13
392.501	288.98
392.881	309.99
393.26	300.95
393.639	308.86
394.018	303.21
394.397	294.63
394.776	305.25
395.155	305.02
395.534	316.32
395.913	285.59
396.292	296.88
396.671	298.24
397.05	305.47
397.429	294.4
397.808	290.56
398.186	288.3
398.565	305.25
398.944	282.2
399.323	300.05
399.701	319.03
400.08	288.3
400.458	277.22
400.837	284
401.215	319.03
401.594	290.11
401.972	279.03
402.351	305.7
402.729	308.41
403.107	302.99
403.486	302.08
403.864	269.54
404.242	310.9
404.62	294.4
404.999	297.56
405.377	300.27
405.755	305.47
406.133	295.3
406.511	300.27
406.889	321.97
407.267	299.6
407.645	307.05
408.023	311.35
408.401	292.37
408.779	293.72
409.156	300.5
409.534	302.08
409.912	305.47
410.29	294.85
410.667	309.99
411.045	295.08
411.422	314.29
411.8	304.79
412.178	302.53
412.555	296.88
412.933	300.27
413.31	301.18
413.687	305.02
414.065	298.69
414.442	290.78
414.819	292.14
415.197	304.57
415.574	314.06
415.951	311.12
416.328	317.22
416.705	312.03
417.082	302.76
417.46	310.22
417.837	306.83
418.214	319.71
418.591	295.53
418.967	292.37
419.344	288.98
419.721	307.51
420.098	304.12
420.475	313.16
420.852	306.38
421.228	324.23
421.605	313.38
421.982	334.17
422.358	311.8
422.735	293.5
423.111	309.99
423.488	295.75
423.864	307.28
424.241	325.58
424.617	294.85
424.994	304.57
425.37	300.5
425.746	317.22
426.123	288.3
426.499	297.34
426.875	287.39
427.251	305.7
427.627	305.25
428.003	309.09
428.379	317
428.756	327.62
429.132	323.55
429.507	309.54
429.883	323.1
430.259	330.33
430.635	316.77
431.011	317.45
431.387	321.74
431.763	321.74
432.138	328.97
432.514	333.95
432.89	303.44
433.265	334.17
433.641	319.03
434.016	306.38
434.392	324.68
434.767	322.42
435.143	311.57
435.518	326.26
435.894	307.73
436.269	311.57
436.644	327.84
437.02	336.66
437.395	304.34
437.77	323.55
438.145	316.55
438.52	309.77
438.895	333.27
439.271	320.39
439.646	326.49
440.021	307.05
440.395	351.12
440.77	338.24
441.145	327.17
441.52	347.5
441.895	330.1
442.27	337.56
442.645	339.6
443.019	344.34
443.394	342.99
443.769	336.21
444.143	334.85
444.518	328.75
444.892	348.86
445.267	340.5
445.641	348.63
446.016	366.04
446.39	353.83
446.764	341.86
447.139	351.57
447.513	334.85
447.887	347.28
448.262	377.56
448.636	364.91
449.01	360.84
449.384	345.7
449.758	359.03
450.132	348.63
450.506	368.07
450.88	348.41
451.254	352.02
451.628	339.14
452.002	369.2
452.376	345.47
452.75	381.4
453.123	359.48
453.497	361.52
453.871	367.62
454.244	361.74
454.618	350.67
454.992	359.93
455.365	364.91
455.739	354.06
456.112	374.4
456.486	370.56
456.859	380.5
457.232	354.96
457.606	355.64
457.979	358.13
458.352	334.17
458.725	347.5
459.099	368.3
459.472	375.98
459.845	369.88
460.218	335.53
460.591	361.06
460.964	361.52
461.337	358.8
461.71	346.6
462.083	348.86
462.456	353.61
462.829	354.06
463.201	371.23
463.574	358.13
463.947	358.35
464.32	345.92
464.692	341.63
465.065	347.96
465.438	381.18
465.81	352.25
466.183	371.01
466.555	341.86
466.928	361.29
467.3	372.36
467.672	347.5
468.045	347.05
468.417	364.68
468.789	348.18
469.161	358.8
469.534	329.88
469.906	344.12
470.278	351.35
470.65	331.69
471.022	329.88
471.394	357.9
471.766	344.12
472.138	369.65
472.51	351.8
472.882	356.54
473.253	362.65
473.625	339.14
473.997	350.22
474.369	368.07
474.74	364
475.112	353.61
475.484	351.8
475.855	345.25
476.227	362.87
476.598	333.72
476.97	347.5
477.341	342.76
477.713	345.47
478.084	324.23
478.455	339.37
478.827	357.67
479.198	326.71
479.569	349.76
479.94	359.71
480.311	342.76
480.682	360.16
481.053	365.13
481.424	348.41
481.795	330.1
482.166	376.66
482.537	356.77
482.908	367.62
483.279	343.44
483.65	359.03
484.021	355.19
484.391	352.93
484.762	350.44
485.133	343.21
485.503	371.01
485.874	360.39
486.244	359.71
486.615	352.93
486.985	352.7
487.356	368.75
487.726	364.91
488.097	365.13
488.467	355.64
488.837	353.15
489.207	368.97
489.578	359.71
489.948	358.35
490.318	364.68
490.688	369.2
491.058	346.83
491.428	373.72
491.798	349.99
492.168	367.84
492.538	377.56
492.908	373.49
493.278	386.37
493.648	388.86
494.017	391.12
494.387	377.33
494.757	371.69
495.126	388.86
495.496	394.74
495.866	397.22
496.235	393.15
496.605	383.44
496.974	395.19
497.344	403.55
497.713	373.04
498.082	396.32
498.452	394.06
498.821	400.61
499.19	400.84
499.559	391.12
499.928	399.48
500.298	384.57
500.667	413.94
501.036	378.92
501.405	394.28
501.774	394.28
502.143	387.96
502.512	413.27
502.88	407.84
503.249	394.74
503.618	410.78
503.987	423.44
504.356	425.24
504.724	412.36
505.093	404.9
505.462	428.18
505.83	411.46
506.199	402.19
506.567	402.42
506.936	420.05
507.304	415.07
507.672	413.04
508.041	427.05
508.409	424.57
508.777	393.15
509.145	390.89
509.514	405.36
509.882	429.31
510.25	436.77
510.618	428.63
510.986	428.63
511.354	420.05
511.722	428.86
512.09	421.63
512.458	449.2
512.826	448.75
513.193	421.85
513.561	444.23
513.929	410.1
514.297	430.89
514.664	429.54
515.032	458.46
515.4	451.01
515.767	446.03
516.135	454.62
516.502	444.9
516.869	443.55
517.237	462.53
517.604	452.36
517.972	468.41
518.339	456.88
518.706	448.29
519.073	450.1
519.44	451.68
519.808	442.42
520.175	446.94
520.542	447.39
520.909	458.46
521.276	439.25
521.643	472.93
522.009	478.12
522.376	469.31
522.743	454.62
523.11	479.25
523.477	457.78
523.843	466.37
524.21	473.6
524.577	460.95
524.943	471.34
525.31	465.02
525.676	453.26
526.043	481.96
526.409	467.28
526.776	468.41
527.142	465.02
527.508	489.87
527.874	496.88
528.241	472.93
528.607	484
528.973	474.51
529.339	489.65
529.705	507.05
530.071	470.44
530.437	475.86
530.803	493.94
531.169	506.14
531.535	484.9
531.901	491
532.267	463.21
532.632	502.76
532.998	483.32
533.364	495.98
533.73	476.99
534.095	484.9
534.461	468.41
534.826	472.7
535.192	494.85
535.557	483.77
535.923	483.77
536.288	488.07
536.653	482.42
537.019	503.43
537.384	505.01
537.749	492.36
538.114	510.44
538.479	497.11
538.845	514.51
539.21	491.91
539.575	518.57
539.94	517.44
540.305	514.51
540.67	502.98
541.034	488.74
541.399	498.01
541.764	494.62
542.129	504.79
542.494	509.08
542.858	533.71
543.223	511.79
543.587	506.37
543.952	498.46
544.316	514.51
544.681	509.08
545.045	516.09
545.41	526.94
545.774	519.93
546.138	512.47
546.503	508.4
546.867	487.39
547.231	518.57
547.595	510.66
547.959	508.4
548.324	538.01
548.688	523.32
549.052	530.1
549.416	527.39
549.779	498.91
550.143	531.91
550.507	520.16
550.871	505.24
551.235	496.2
551.599	523.09
551.962	513.15
552.326	517.22
552.689	530.78
553.053	518.57
553.417	514.28
553.78	525.35
554.143	515.86
554.507	541.62
554.87	533.94
555.234	519.7
555.597	512.7
555.96	512.92
556.323	520.38
556.686	546.14
557.05	546.14
557.413	524.68
557.776	544.34
558.139	533.04
558.502	520.83
558.865	505.01
559.228	533.04
559.59	527.84
559.953	554.96
560.316	560.83
560.679	549.76
561.041	549.76
561.404	536.88
561.767	571.91
562.129	539.36
562.492	540.04
562.854	542.53
563.217	552.7
563.579	545.24
563.941	551.79
564.304	532.81
564.666	535.75
565.028	565.8
565.39	556.77
565.753	552.02
566.115	539.36
566.477	538.23
566.839	552.02
567.201	570.1
567.563	550.89
567.925	577.1
568.287	573.49
568.648	570.32
569.01	548.63
569.372	567.39
569.734	550.21
570.095	572.36
570.457	584.11
570.819	571
571.18	572.58
571.542	579.82
571.903	558.12
572.265	548.4
572.626	585.46
572.987	572.36
573.349	574.62
573.71	559.7
574.071	567.61
574.432	566.03
574.794	591.34
575.155	577.33
575.516	568.74
575.877	584.79
576.238	579.82
576.599	599.48
576.96	579.14
577.32	573.49
577.681	585.24
578.042	572.58
578.403	587.27
578.763	585.01
579.124	578.01
579.485	578.91
579.845	572.58
580.206	602.41
580.566	579.36
580.927	567.16
581.287	571
581.648	574.62
582.008	554.51
582.368	565.58
582.728	567.84
583.089	590.21
583.449	580.04
583.809	577.1
584.169	558.12
584.529	589.98
584.889	587.5
585.249	566.03
585.609	571.68
585.969	596.09
586.329	577.56
586.688	570.32
587.048	588.18
587.408	587.5
587.768	553.6
588.127	575.07
588.487	564.22
588.846	578.23
589.206	570.32
589.565	587.05
589.925	560.61
590.284	561.96
590.643	551.12
591.003	556.99
591.362	576.88
591.721	599.25
592.08	582.75
592.44	583.21
592.799	584.11
593.158	579.36
593.517	603.77
593.876	580.04
594.235	582.08
594.593	559.7
594.952	575.75
595.311	564.67
595.67	595.41
596.029	563.32
596.387	573.49
596.746	568.06
597.104	546.82
597.463	579.82
597.822	552.92
598.18	573.04
598.538	579.82
598.897	551.57
599.255	568.29
599.613	558.57
599.972	552.47
600.33	589.98
600.688	562.64
601.046	587.5
601.404	567.16
601.762	585.92
602.12	548.86
602.478	553.6
602.836	559.02
603.194	548.18
603.552	578.69
603.91	568.06
604.268	572.13
604.625	553.15
604.983	550.44
605.341	561.96
605.698	559.48
606.056	566.93
606.413	541.17
606.771	538.91
607.128	557.67
607.485	556.09
607.843	560.15
608.2	559.7
608.557	565.13
608.914	558.57
609.272	545.01
609.629	533.71
609.986	538.69
610.343	551.57
610.7	549.99
611.057	560.83
611.414	554.05
611.771	565.13
612.127	539.36
612.484	539.14
612.841	545.24
613.198	517.44
613.554	538.91
613.911	538.69
614.267	560.15
614.624	532.81
614.98	526.94
615.337	558.35
615.693	557.89
616.05	549.53
616.406	522.19
616.762	531.45
617.118	527.84
617.475	523.32
617.831	538.46
618.187	545.47
618.543	531.23
618.899	547.5
619.255	534.17
619.611	531
619.967	529.65
620.323	516.31
620.678	533.04
621.034	526.48
621.39	499.37
621.746	511.12
622.101	514.28
622.457	502.98
622.812	500.5
623.168	506.37
623.523	531
623.879	514.51
624.234	518.57
624.589	519.25
624.945	505.92
625.3	525.13
625.655	525.58
626.01	500.04
626.365	507.5
626.72	502.76
627.075	508.63
627.43	506.14
627.785	514.28
628.14	488.97
628.495	509.76
628.85	486.03
629.205	486.71
629.559	500.72
629.914	491.46
630.269	486.03
630.623	515.18
630.978	478.12
631.332	487.39
631.687	484.68
632.041	492.36
632.396	491
632.75	470.21
633.104	477.22
633.459	478.35
633.813	462.53
634.167	475.64
634.521	472.7
634.875	471.57
635.229	480.61
635.583	488.07
635.937	474.51
636.291	475.64
636.645	459.14
636.999	478.35
637.352	468.86
637.706	481.96
638.06	466.82
638.413	459.37
638.767	462.3
639.121	467.05
639.474	459.59
639.828	464.11
640.181	444
640.534	462.08
640.888	464.56
641.241	456.2
641.594	456.2
641.947	435.64
642.301	462.3
642.654	486.94
643.007	443.1
643.36	446.71
643.713	466.82
644.066	467.95
644.419	455.3
644.771	454.62
645.124	457.11
645.477	431.12
645.83	447.39
646.182	436.32
646.535	430.21
646.888	443.77
647.24	412.14
647.593	427.73
647.945	437.67
648.298	419.37
648.65	430.89
649.002	432.7
649.355	440.38
649.707	447.62
650.059	406.26
650.411	441.29
650.763	446.49
651.115	437.9
651.467	443.32
651.819	435.86
652.171	436.32
652.523	424.11
652.875	436.32
653.227	431.57
653.578	419.14
653.93	411.91
654.282	423.21
654.633	406.49
654.985	415.3
655.337	433.38
655.688	404.45
656.039	408.75
656.391	403.77
656.742	406.03
657.094	430.67
657.445	420.5
657.796	442.42
658.147	409.2
658.498	412.59
658.849	409.65
659.2	413.04
659.551	404.9
659.902	402.19
660.253	406.26
660.604	386.15
660.955	406.26
661.306	385.7
661.656	408.29
662.007	423.44
662.358	395.19
662.708	410.78
663.059	386.37
663.409	403.1
663.76	396.77
664.11	380.5
664.461	400.38
664.811	397.67
665.161	407.84
665.511	403.1
665.862	414.85
666.212	398.13
666.562	391.8
666.912	369.2
667.262	378.01
667.612	380.5
667.962	409.65
668.312	401.29
668.662	378.46
669.011	379.59
669.361	378.01
669.711	365.36
670.06	407.39
670.41	395.87
670.76	406.49
671.109	394.51
671.459	396.09
671.808	390.22
672.157	402.87
672.507	388.41
672.856	383.21
673.205	375.75
673.554	382.08
673.904	385.02
674.253	375.3
674.602	394.74
674.951	393.61
675.3	395.19
675.649	384.11
675.998	383.66
676.346	383.21
676.695	381.85
677.044	366.49
677.393	375.3
677.741	378.24
678.09	381.4
678.438	391.57
678.787	373.72
679.135	371.91
679.484	371.23
679.832	366.04
680.181	356.77
680.529	376.43
680.877	393.38
681.225	372.59
681.573	357.67
681.922	374.4
682.27	360.39
682.618	365.36
682.966	358.13
683.314	366.49
683.661	365.81
684.009	375.53
684.357	382.08
684.705	368.52
685.053	379.59
685.4	362.65
685.748	347.73
686.095	370.78
686.443	382.53
686.79	357.22
687.138	367.17
687.485	362.65
687.832	345.25
688.18	357.45
688.527	352.48
688.874	345.02
689.221	361.52
689.568	377.11
689.915	355.41
690.262	361.74
690.609	346.83
690.956	372.82
691.303	357.67
691.65	351.57
691.997	364.23
692.344	364
692.69	366.71
693.037	347.28
693.383	364.91
693.73	337.11
694.077	355.87
694.423	370.78
694.769	354.06
695.116	338.24
695.462	352.93
695.808	341.63
696.155	362.42
696.501	342.08
696.847	356.32
697.193	330.33
697.539	340.95
697.885	359.26
698.231	354.51
698.577	356.54
698.923	340.95
699.269	355.19
699.614	349.09
699.96	350.44
700.306	335.75
700.651	343.89
700.997	348.18
701.342	334.4
701.688	343.66
702.033	343.66
702.379	353.83
702.724	343.66
703.069	355.64
703.415	322.19
703.76	340.27
704.105	345.47
704.45	333.49
704.795	336.43
705.14	352.48
705.485	373.27
705.83	341.18
706.175	332.59
706.52	335.75
706.865	366.04
707.209	350.22
707.554	325.58
707.899	351.8
708.243	318.13
708.588	319.26
708.932	360.39
709.277	346.6
709.621	359.48
709.966	353.15
710.31	342.31
710.654	336.66
710.998	340.95
711.342	344.34
711.687	346.6
712.031	347.28
712.375	346.15
712.719	340.73
713.063	346.38
713.407	349.76
713.75	354.96
714.094	323.32
714.438	336.88
714.782	338.69
715.125	333.49
715.469	338.47
715.812	342.76
716.156	353.15
716.499	338.24
716.843	350.44
717.186	342.76
717.53	339.6
717.873	329.43
718.216	331.69
718.559	330.1
718.902	357
719.246	313.83
719.589	341.86
719.932	342.31
720.275	343.66
720.617	343.66
720.96	325.58
721.303	332.14
721.646	330.1
721.989	326.71
722.331	346.83
722.674	352.93
723.016	332.14
723.359	317.45
723.701	347.96
724.044	331.23
724.386	325.13
724.729	338.24
725.071	319.71
725.413	347.96
725.755	329.88
726.097	332.82
726.439	343.21
726.782	334.4
727.124	341.86
727.465	329.43
727.807	335.98
728.149	351.35
728.491	348.18
728.833	345.25
729.175	335.08
729.516	348.41
729.858	329.88
730.199	338.47
730.541	331.46
730.882	336.43
731.224	333.72
731.565	326.49
731.906	352.7
732.248	317.22
732.589	335.3
732.93	333.49
733.271	333.95
733.612	331.01
733.953	329.43
734.294	333.27
734.635	321.07
734.976	325.81
735.317	337.56
735.658	368.97
735.999	338.01
736.339	324.91
736.68	317.9
737.021	342.08
737.361	340.95
737.702	332.59
738.042	332.14
738.383	326.26
738.723	323.55
739.063	325.13
739.404	330.56
739.744	362.42
740.084	333.04
740.424	348.41
740.764	331.01
741.104	357
741.444	320.61
741.784	333.49
742.124	333.72
742.464	332.36
742.804	333.04
743.143	334.17
743.483	337.34
743.823	327.39
744.162	316.09
744.502	323.32
744.841	317.68
745.181	327.62
745.52	320.16
745.86	333.04
746.199	345.47
746.538	320.84
746.877	317.68
747.216	340.95
747.556	330.33
747.895	326.71
748.234	320.39
748.573	344.12
748.911	317.68
749.25	328.97
749.589	300.95
749.928	330.1
750.267	316.09
750.605	322.42
750.944	329.65
751.283	336.21
751.621	318.81
751.96	320.61
752.298	311.8
752.636	335.75
752.975	339.6
753.313	322.42
753.651	323.55
753.989	328.07
754.327	327.84
754.666	314.74
755.004	334.62
755.342	340.95
755.679	340.27
756.017	344.79
756.355	330.1
756.693	339.6
757.031	335.3
757.368	319.94
757.706	333.04
758.044	309.99
758.381	345.92
758.719	339.37
759.056	327.84
759.394	326.49
759.731	343.66
760.068	317.68
760.405	327.84
760.743	321.74
761.08	330.56
761.417	327.17
761.754	336.43
762.091	305.92
762.428	322.19
762.765	319.26
763.102	324.45
763.438	337.56
763.775	324.23
764.112	355.64
764.449	340.95
764.785	312.25
765.122	329.43
765.458	329.2
765.795	337.11
766.131	335.98
766.467	314.96
766.804	305.7
767.14	334.4
767.476	333.04
767.812	333.27
768.148	320.84
768.485	339.37
768.821	328.07
769.157	321.29
769.492	316.32
769.828	350.44
770.164	347.28
770.5	329.2
770.836	300.73
771.171	335.08
771.507	335.08
771.842	350.22
772.178	335.3
772.513	332.36
772.849	357.22
773.184	325.58
773.519	312.25
773.855	339.82
774.19	321.74
774.525	334.85
774.86	316.55
775.195	326.04
775.53	306.15
775.865	337.79
776.2	321.29
776.535	331.91
776.87	319.71
777.205	331.69
777.539	334.85
777.874	316.77
778.209	328.75
778.543	328.75
778.878	329.65
779.212	337.56
779.547	334.4
779.881	337.34
780.215	329.88
780.55	309.54
780.884	326.26
781.218	324.91
781.552	338.92
781.886	315.19
782.22	318.13
782.554	313.16
782.888	328.52
783.222	300.27
783.556	330.33
783.889	316.55
784.223	324.23
784.557	310.67
784.89	322.65
785.224	346.15
785.557	324.91
785.891	324.45
786.224	319.03
786.558	319.03
786.891	329.88
787.224	310.67
787.557	321.97
787.891	320.16
788.224	349.76
788.557	315.19
788.89	328.75
789.223	328.97
789.556	359.93
789.888	332.36
790.221	316.77
790.554	334.4
790.887	324.68
791.219	334.85
791.552	328.75
791.884	320.39
792.217	313.16
792.549	319.48
792.882	323.55
793.214	341.86
793.546	315.64
793.879	314.29
794.211	346.83
794.543	300.5
794.875	305.02
795.207	297.34
795.539	324
795.871	316.55
796.203	316.09
796.535	346.38
796.867	328.75
797.198	340.5
797.53	318.81
797.862	316.77
798.193	331.01
798.525	302.08
798.856	327.62
799.188	327.17
799.519	311.57
799.85	305.02
800.182	308.41
800.513	327.62
800.844	313.16
801.175	342.99
801.506	324.23
801.837	340.73
802.168	318.13
802.499	327.17
802.83	323.78
803.161	321.29
803.491	321.74
803.822	315.42
804.153	306.15
804.483	315.64
804.814	323.32
805.145	315.42
805.475	335.53
805.805	334.62
806.136	344.12
806.466	310.44
806.796	322.87
807.126	342.76
807.457	314.96
807.787	317.68
808.117	321.97
808.447	320.84
808.777	321.74
809.107	327.39
809.436	316.55
809.766	324
810.096	307.28
810.426	335.08
810.755	326.94
811.085	319.48
811.414	326.26
811.744	335.3
812.073	316.32
812.403	322.65
812.732	313.38
813.061	333.72
813.39	332.59
813.719	320.84
814.049	330.56
814.378	315.19
814.707	301.63
815.036	324
815.365	320.61
815.693	327.84
816.022	337.79
816.351	349.54
816.68	312.7
817.008	314.29
817.337	311.35
817.665	313.83
817.994	302.76
818.322	314.74
818.651	313.61
818.979	328.97
819.307	305.25
819.636	322.42
819.964	333.95
820.292	314.06
820.62	297.56
820.948	317.22
821.276	335.08
821.604	313.61
821.932	316.77
822.259	304.12
822.587	312.03
822.915	314.29
823.243	345.25
823.57	326.94
823.898	308.18
824.225	328.75
824.553	314.06
824.88	325.36
825.207	317.68
825.535	317.68
825.862	304.57
826.189	319.71
826.516	329.65
826.843	329.88
827.17	321.52
827.497	331.69
827.824	312.48
828.151	310.22
828.478	314.06
828.805	324
829.131	313.38
829.458	314.06
829.785	315.87
830.111	306.38
830.438	317
830.764	317
831.09	328.07
831.417	314.06
831.743	328.52
832.069	313.83
832.395	334.4
832.722	322.87
833.048	319.26
833.374	329.88
833.7	314.06
834.026	317
834.351	312.93
834.677	298.69
835.003	299.14
835.329	296.21
835.654	317.45
835.98	299.14
836.306	316.09
836.631	313.83
836.956	324.68
837.282	322.65
837.607	335.75
837.932	328.07
838.258	318.81
838.583	316.32
838.908	320.39
839.233	330.78
839.558	320.16
839.883	329.43
840.208	349.09
840.533	325.58
840.858	318.13
841.182	341.86
841.507	314.06
841.832	314.29
842.156	341.18
842.481	324.23
842.805	328.07
843.13	336.43
843.454	315.64
843.778	332.82
844.103	305.47
844.427	323.55
844.751	322.65
845.075	330.78
845.399	327.17
845.723	337.34
846.047	326.49
846.371	328.52
846.695	333.95
847.019	314.74
847.343	349.31
847.666	326.49
847.99	327.39
848.313	313.83
848.637	313.16
848.96	305.92
849.284	312.7
849.607	340.73
849.931	324.45
850.254	330.78
850.577	333.27
850.9	301.86
851.223	324
851.546	328.07
851.869	331.69
852.192	313.38
852.515	323.32
852.838	324.45
853.161	321.74
853.483	302.08
853.806	319.03
854.129	325.13
854.451	323.32
854.774	307.73
855.096	320.16
855.419	324.91
855.741	327.17
856.063	304.12
856.385	325.36
856.708	295.3
857.03	321.52
857.352	335.53
857.674	332.59
857.996	300.27
858.318	307.96
858.64	317.68
858.961	312.48
859.283	306.38
859.605	336.66
859.926	315.19
860.248	299.14
860.57	332.82
860.891	324.68
861.212	310.9
861.534	320.16
861.855	327.39
862.176	311.12
862.498	319.48
862.819	307.96
863.14	329.88
863.461	307.51
863.782	317.68
864.103	292.37
864.424	322.65
864.745	326.71
865.065	317.9
865.386	326.04
865.707	336.88
866.027	318.35
866.348	327.62
866.668	318.81
866.989	312.93
867.309	326.04
867.63	320.84
867.95	307.51
868.27	307.96
868.59	324.68
868.91	317.45
869.23	318.58
869.55	328.97
869.87	312.93
870.19	314.06
870.51	318.58
870.83	333.04
871.15	329.65
871.469	318.13
871.789	310.22
872.109	320.39
872.428	309.54
872.748	330.78
873.067	340.05
873.386	342.53
873.706	326.04
874.025	309.77
874.344	323.1
874.663	309.09
874.982	321.07
875.301	303.89
875.62	311.8
875.939	296.66
876.258	330.33
876.577	305.02
876.896	293.04
877.214	320.61
877.533	320.61
877.852	337.56
878.17	330.33
878.489	324.23
878.807	332.59
879.125	318.58
879.444	292.14
879.762	299.14
880.08	335.3
880.398	312.48
880.716	305.02
881.034	326.49
881.352	306.15
881.67	330.33
881.988	331.01
882.306	316.77
882.624	321.97
882.941	322.87
883.259	310.44
883.577	318.35
883.894	319.71
884.212	299.14
884.529	327.17
884.846	301.86
885.164	296.88
885.481	320.61
885.798	324.68
886.115	315.64
886.432	331.91
886.75	303.89
887.067	285.36
887.383	312.93
887.7	310.22
888.017	309.99
888.334	331.46
888.651	332.36
888.967	317.9
889.284	321.74
889.6	303.21
889.917	315.19
890.233	321.07
890.55	310.22
890.866	338.69
891.182	327.39
891.498	304.57
891.815	333.95
892.131	328.3
892.447	309.54
892.763	319.48
893.079	327.62
893.395	315.64
893.71	302.53
894.026	324.68
894.342	307.51
894.657	312.03
894.973	320.39
895.289	307.51
895.604	327.84
895.92	325.81
896.235	309.99
896.55	318.13
896.865	316.55
897.181	305.92
897.496	317.68
897.811	317.9
898.126	317.9
898.441	317.68
898.756	314.51
899.071	311.57
899.386	320.61
899.7	324.23
900.015	332.14
900.33	327.62
900.644	326.71
900.959	318.13
901.273	310.22
901.588	328.3
901.902	338.92
902.216	318.35
902.531	304.34
902.845	329.65
903.159	319.94
903.473	324.45
903.787	318.13
904.101	304.79
904.415	305.25
904.729	311.57
905.042	313.61
905.356	301.63
905.67	317.68
905.984	328.3
906.297	313.16
906.611	319.03
906.924	312.25
907.237	298.24
907.551	308.18
907.864	313.83
908.177	313.16
908.491	334.85
908.804	322.87
909.117	338.24
909.43	327.84
909.743	323.1
910.056	338.01
910.368	312.7
910.681	324.45
910.994	323.1
911.307	306.38
911.619	313.16
911.932	319.94
912.244	319.26
912.557	313.61
912.869	307.73
913.181	330.33
913.494	318.35
913.806	293.27
914.118	321.52
914.43	323.32
914.742	314.06
915.054	307.96
915.366	321.97
915.678	307.96
915.99	333.95
916.302	332.14
916.613	321.29
916.925	316.32
917.236	317.22
917.548	335.98
917.859	329.2
918.171	312.93
918.482	331.46
918.794	303.44
919.105	328.52
919.416	313.38
919.727	328.3
920.038	325.36
920.349	303.66
920.66	314.29
920.971	312.25
921.282	312.03
921.593	322.42
921.903	319.26
922.214	309.77
922.525	348.86
922.835	320.84
923.146	322.19
923.456	308.64
923.767	320.16
924.077	337.34
924.387	308.64
924.697	339.37
925.008	317.68
925.318	319.26
925.628	305.25
925.938	302.76
926.248	293.04
926.558	316.09
926.867	309.77
927.177	315.42
927.487	318.35
927.796	323.78
928.106	326.71
928.416	302.99
928.725	331.23
929.034	323.32
929.344	304.12
929.653	328.52
929.962	317.68
930.271	333.27
930.581	318.13
930.89	310.9
931.199	323.32
931.508	324.91
931.817	325.81
932.125	328.97
932.434	303.21
932.743	305.7
933.051	295.75
933.36	292.59
933.669	291.46
933.977	309.54
934.286	313.38
934.594	321.97
934.902	308.41
935.21	304.34
935.519	312.7
935.827	330.33
936.135	300.95
936.443	318.81
936.751	318.13
937.059	315.42
937.367	315.19
937.674	319.26
937.982	323.78
938.29	308.41
938.597	318.81
938.905	329.88
939.213	327.39
939.52	328.52
939.827	331.23
940.135	318.58
940.442	293.27
940.749	331.23
941.056	334.62
941.363	305.02
941.67	329.88
941.977	309.31
942.284	317.22
942.591	323.55
942.898	327.17
943.205	319.94
943.511	295.3
943.818	305.25
944.125	316.09
944.431	312.25
944.738	292.82
945.044	307.05
945.35	303.89
945.657	336.66
945.963	305.7
946.269	317.68
946.575	331.91
946.881	319.03
947.187	324.23
947.493	328.75
947.799	326.26
948.105	352.25
948.41	313.38
948.716	308.86
949.022	330.56
949.327	322.87
949.633	329.43
949.938	321.52
950.244	315.42
950.549	315.87
950.854	294.17
951.16	313.16
951.465	314.96
951.77	305.25
952.075	307.28
952.38	337.34
952.685	325.13
952.99	325.81
953.294	324.91
953.599	312.7
953.904	323.1
954.209	331.01
954.513	298.92
954.818	318.81
955.122	311.57
955.426	338.01
955.731	307.05
956.035	315.19
956.339	342.08
956.643	321.07
956.948	323.1
957.252	319.71
957.556	322.19
957.86	297.11
958.163	318.81
958.467	320.39
958.771	325.13
959.075	323.55
959.378	338.69
959.682	328.75
959.985	304.12
960.289	317.68
960.592	322.42
960.896	319.48
961.199	297.79
961.502	310.9
961.805	322.42
962.108	311.35
962.411	319.71
962.714	312.48
963.017	322.42
963.32	282.65
963.623	329.88
963.926	318.13
964.228	312.7
964.531	312.25
964.833	319.71
965.136	321.07
965.438	328.75
965.741	309.99
966.043	303.21
966.345	293.95
966.648	333.72
966.95	307.73
967.252	312.93
967.554	305.25
967.856	314.29
968.158	337.11
968.46	315.42
968.761	307.51
969.063	324.45
969.365	321.97
969.666	316.32
969.968	319.26
970.269	324.45
970.571	302.76
970.872	318.13
971.174	318.35
971.475	317.22
971.776	309.09
972.077	321.74
972.378	300.5
972.679	336.21
972.98	303.89
973.281	326.71
973.582	329.2
973.883	310.67
974.183	330.1
974.484	320.84
974.785	325.81
975.085	312.7
975.386	302.99
975.686	302.08
975.986	337.56
976.287	312.25
976.587	309.09
976.887	303.66
977.187	321.97
977.487	324.91
977.787	328.97
978.087	315.64
978.387	311.12
978.687	310.9
978.987	321.52
979.286	308.86
979.586	326.26
979.885	324.23
980.185	297.79
980.484	329.65
980.784	318.58
981.083	330.33
981.382	328.52
981.682	308.64
981.981	295.98
982.28	313.16
982.579	331.01
982.878	295.53
983.177	324.45
983.475	329.2
983.774	328.07
984.073	316.55
984.372	312.93
984.67	326.04
984.969	313.16
985.267	332.36
985.566	325.13
985.864	303.44
986.162	321.97
986.461	297.11
986.759	309.09
987.057	316.32
987.355	317.68
987.653	299.82
987.951	299.14
988.249	328.3
988.547	319.71
988.844	301.63
989.142	328.52
989.44	331.46
989.737	314.29
990.035	314.29
990.332	321.97
990.63	315.87
990.927	314.74
991.224	321.74
991.521	324.91
991.819	321.07
992.116	304.79
992.413	301.4
992.71	303.44
993.006	304.34
993.303	328.52
993.6	317.68
993.897	314.06
994.193	312.7
994.49	317.9
994.787	307.73
995.083	320.61
995.379	309.99
995.676	342.08
995.972	318.35
996.268	330.56
996.565	324.91
996.861	310.67
997.157	339.37
997.453	328.3
997.749	337.11
998.044	321.52
998.34	317
998.636	323.55
998.932	318.81
999.227	298.47
999.523	317.45
999.818	333.72
1000.114	310.44
1000.409	309.54
1000.704	329.65
1001	311.8
1001.295	313.38
1001.59	304.57
1001.885	338.47
1002.18	308.86
1002.475	304.34
1002.77	305.02
1003.065	337.34
1003.359	315.19
1003.654	319.94
1003.949	324
1004.243	325.36
1004.538	302.31
1004.832	318.81
1005.127	307.05
1005.421	319.71
1005.715	300.73
1006.009	332.59
1006.304	301.18
1006.598	323.55
1006.892	311.8
1007.186	321.07
1007.48	313.83
1007.773	304.57
1008.067	316.32
1008.361	312.03
1008.655	322.42
1008.948	312.7
1009.242	320.16
1009.535	318.35
1009.829	324.23
1010.122	316.09
1010.415	293.72
1010.708	319.94
1011.001	317
1011.295	319.48
1011.588	325.81
1011.881	331.69
1012.173	301.18
1012.466	307.73
1012.759	314.74
1013.052	297.34
1013.344	318.35
1013.637	328.75
1013.93	327.17
1014.222	302.08
1014.514	310.9
1014.807	314.29
1015.099	319.94
1015.391	316.09
1015.683	293.5
1015.976	335.08
1016.268	308.64
1016.56	316.09
1016.851	327.17
1017.143	307.73
1017.435	334.17
1017.727	310.22
1018.018	331.91
1018.31	324.91
1018.602	308.64
1018.893	324.23
1019.185	298.24
1019.476	295.98
1019.767	317.22
1020.058	323.78
1020.35	317.9
1020.641	300.73
1020.932	292.37
1021.223	319.03
1021.514	302.76
1021.804	311.8
1022.095	308.41
1022.386	321.74
1022.677	316.32
1022.967	302.08
1023.258	313.16
1023.548	320.61
1023.839	323.32
1024.129	333.49
1024.419	300.05
1024.709	312.25
1025	336.21
1025.29	307.05
1025.58	311.12
1025.87	310.22
1026.16	303.66
1026.449	321.29
1026.739	295.98
1027.029	305.92
1027.319	333.49
1027.608	320.39
1027.898	291.46
1028.187	306.15
1028.477	322.19
1028.766	310.67
1029.055	314.74
1029.344	297.56
1029.634	309.31
1029.923	297.79
1030.212	310.22
1030.501	323.32
1030.79	307.28
1031.078	302.31
1031.367	312.48
1031.656	307.73
1031.945	317.22
1032.233	310.9
1032.522	327.17
1032.81	319.03
1033.099	295.98
1033.387	311.12
1033.675	320.61
1033.963	300.73
1034.251	306.15
1034.54	294.63
1034.828	314.74
1035.116	342.08
1035.403	306.15
1035.691	309.54
1035.979	324.68
1036.267	315.42
1036.554	309.77
1036.842	294.4
1037.129	304.34
1037.417	305.02
1037.704	321.52
1037.992	311.57
1038.279	307.96
1038.566	309.99
1038.853	309.99
1039.14	309.99
