Data from No_light_on_white_reflection_standard_FLMS001491_053.txt Node
Date: Tue Feb 07 10:33:02 GMT 2017
User: dcchb
Spectrometer: FLMS00149
Trigger mode: 0
Integration Time (sec): 2.000000E-2
Scans to average: 10
Electric dark correction enabled: true
Nonlinearity correction enabled: false
Boxcar width: 0
XAxis mode: Wavelengths
Number of Pixels in Spectrum: 2048
>>>>>Begin Spectral Data<<<<<
341.393	-10.1
341.776	-10.1
342.16	-10.1
342.543	-74.73
342.927	-48.29
343.31	-55.07
343.693	-71.79
344.077	-54.62
344.46	-64.56
344.843	-70.89
345.226	-11.45
345.61	-50.32
345.993	-27.95
346.376	5.04
346.759	10.47
347.142	29.67
347.525	35.78
347.908	72.61
348.291	73.52
348.674	91.14
349.057	88.43
349.44	127.75
349.823	147.64
350.206	163.23
350.588	184.02
350.971	203.46
351.354	196.22
351.737	210.23
352.119	233.96
352.502	232.83
352.884	245.49
353.267	252.27
353.65	259.72
354.032	274.19
354.414	277.58
354.797	281.87
355.179	312.15
355.562	293.62
355.944	298.37
356.326	307.63
356.709	304.7
357.091	305.37
357.473	315.09
357.855	298.37
358.238	307.86
358.62	309.44
359.002	293.62
359.384	313.06
359.766	321.87
360.148	294.75
360.53	304.47
360.912	299.72
361.294	288.88
361.676	280.97
362.057	295.88
362.439	295.43
362.821	277.58
363.203	286.16
363.584	284.36
363.966	282.78
364.348	284.58
364.729	293.4
365.111	278.26
365.493	294.98
365.874	267.41
366.256	277.13
366.637	294.53
367.019	269.22
367.4	274.19
367.781	257.92
368.163	276.45
368.544	264.7
368.925	276.67
369.306	271.25
369.688	265.83
370.069	264.47
370.45	275.54
370.831	276
371.212	265.6
371.593	271.48
371.974	280.97
372.355	287.29
372.736	259.27
373.117	269.44
373.498	280.29
373.879	280.29
374.26	287.29
374.641	259.27
375.021	287.97
375.402	294.75
375.783	293.62
376.163	280.29
376.544	281.19
376.925	278.93
377.305	265.6
377.686	278.26
378.066	276.9
378.447	275.77
378.827	266.05
379.208	282.32
379.588	300.85
379.968	290.23
380.349	292.49
380.729	280.74
381.109	278.48
381.489	271.93
381.87	280.52
382.25	283.68
382.63	265.6
383.01	286.84
383.39	273.51
383.77	274.64
384.15	284.36
384.53	295.66
384.91	296.11
385.29	292.72
385.67	285.49
386.049	295.88
386.429	305.37
386.809	291.36
387.189	316.9
387.568	287.97
387.948	290.91
388.328	301.31
388.707	267.86
389.087	274.19
389.466	289.78
389.846	293.17
390.225	307.18
390.605	299.5
390.984	304.7
391.363	315.54
391.743	303.57
392.122	296.56
392.501	293.62
392.881	299.27
393.26	299.5
393.639	304.47
394.018	294.98
394.397	286.39
394.776	284.81
395.155	292.49
395.534	313.96
395.913	282.32
396.292	293.4
396.671	299.05
397.05	289.55
397.429	273.06
397.808	309.44
398.186	282.1
398.565	298.37
398.944	301.31
399.323	296.33
399.701	298.59
400.08	306.96
400.458	317.35
400.837	297.69
401.215	298.59
401.594	313.51
401.972	285.26
402.351	288.65
402.729	319.61
403.107	296.79
403.486	298.59
403.864	287.07
404.242	294.07
404.62	307.86
404.999	288.88
405.377	308.31
405.755	292.94
406.133	311.02
406.511	300.4
406.889	301.98
407.267	293.85
407.645	312.15
408.023	304.92
408.401	268.76
408.779	290.46
409.156	299.27
409.534	326.62
409.912	327.07
410.29	308.54
410.667	277.58
411.045	299.95
411.422	292.72
411.8	309.67
412.178	316.45
412.555	308.31
412.933	313.51
413.31	276.67
413.687	312.15
414.065	288.42
414.442	295.2
414.819	301.31
415.197	300.18
415.574	314.19
415.951	315.09
416.328	296.33
416.705	304.47
417.082	311.47
417.46	290.01
417.837	287.97
418.214	311.93
418.591	308.54
418.967	318.03
419.344	310.57
419.721	300.63
420.098	300.63
420.475	305.83
420.852	294.98
421.228	314.86
421.605	303.34
421.982	318.48
422.358	317.58
422.735	300.18
423.111	297.01
423.488	305.15
423.864	321.42
424.241	287.29
424.617	316.22
424.994	307.18
425.37	309.22
425.746	300.18
426.123	324.36
426.499	308.31
426.875	304.7
427.251	284.58
427.627	314.64
428.003	315.77
428.379	329.33
428.756	325.26
429.132	311.25
429.507	328.88
429.883	336.56
430.259	313.28
430.635	304.7
431.011	309.22
431.387	324.81
431.763	299.05
432.138	315.54
432.514	304.47
432.89	318.03
433.265	322.1
433.641	303.57
434.016	325.26
434.392	322.77
434.767	325.03
435.143	309.67
435.518	316.45
435.894	332.72
436.269	343.34
436.644	314.19
437.02	320.29
437.395	350.34
437.77	339.95
438.145	323.23
438.52	327.52
438.895	341.08
439.271	335.2
439.646	339.27
440.021	332.49
440.395	327.75
440.77	343.56
441.145	334.53
441.52	326.16
441.895	338.59
442.27	330.46
442.645	350.57
443.019	347.41
443.394	342.43
443.769	325.49
444.143	340.4
444.518	374.52
444.892	356.67
445.267	338.82
445.641	346.05
446.016	344.02
446.39	364.58
446.764	362.32
447.139	360.97
447.513	354.19
447.887	357.58
448.262	360.29
448.636	359.16
449.01	355.54
449.384	369.55
449.758	367.29
450.132	382.89
450.506	368.42
450.88	386.05
451.254	355.09
451.628	362.32
452.002	374.07
452.376	372.72
452.75	368.42
453.123	376.56
453.497	381.76
453.871	376.56
454.244	366.61
454.618	371.59
454.992	378.82
455.365	374.07
455.739	379.27
456.112	370
456.486	381.3
456.859	359.38
457.232	381.3
457.606	380.4
457.979	381.53
458.352	366.84
458.725	351.47
459.099	383.56
459.472	366.39
459.845	364.58
460.218	355.54
460.591	358.48
460.964	366.39
461.337	360.97
461.71	366.61
462.083	362.55
462.456	353.51
462.829	350.57
463.201	361.19
463.574	357.35
463.947	370.68
464.32	355.54
464.692	350.8
465.065	353.06
465.438	358.03
465.81	363.9
466.183	347.63
466.555	364.35
466.928	356.67
467.3	361.42
467.672	363.9
468.045	353.51
468.417	372.94
468.789	360.06
469.161	366.16
469.534	361.64
469.906	363.9
470.278	351.47
470.65	340.63
471.022	359.61
471.394	360.74
471.766	356.45
472.138	349.21
472.51	366.84
472.882	363.68
473.253	360.74
473.625	349.67
473.997	349.44
474.369	337.69
474.74	339.95
475.112	352.15
475.484	349.21
475.855	360.74
476.227	358.03
476.598	339.27
476.97	358.25
477.341	345.82
477.713	334.53
478.084	353.28
478.455	333.85
478.827	351.93
479.198	355.99
479.569	351.47
479.94	358.03
480.311	362.09
480.682	348.31
481.053	356.67
481.424	363.22
481.795	347.63
482.166	355.54
482.537	368.42
482.908	363.22
483.279	351.25
483.65	358.25
484.021	349.89
484.391	360.74
484.762	360.29
485.133	385.82
485.503	354.86
485.874	374.07
486.244	379.72
486.615	358.25
486.985	359.61
487.356	346.28
487.726	374.75
488.097	364.13
488.467	362.32
488.837	357.12
489.207	357.12
489.578	355.09
489.948	376.78
490.318	378.59
490.688	384.47
491.058	380.85
491.428	370
491.798	366.39
492.168	367.74
492.538	377.01
492.908	370.46
493.278	389.44
493.648	373.85
494.017	371.81
494.387	360.06
494.757	383.56
495.126	389.66
495.496	399.61
495.866	390.79
496.235	381.53
496.605	418.82
496.974	391.02
497.344	395.77
497.713	385.15
498.082	396.22
498.452	402.55
498.821	398.25
499.19	393.73
499.559	403.22
499.928	399.61
500.298	394.18
500.667	391.25
501.036	391.92
501.405	402.77
501.774	398.7
502.143	421.75
502.512	404.13
502.88	419.27
503.249	405.71
503.618	402.09
503.987	429.89
504.356	417.69
504.724	395.31
505.093	393.05
505.462	406.16
505.83	409.78
506.199	427.4
506.567	429.44
506.936	414.97
507.304	422.43
507.672	425.14
508.041	443.9
508.409	438.48
508.777	433.73
509.145	415.88
509.514	438.93
509.882	424.69
510.25	445.26
510.618	426.73
510.986	434.18
511.354	427.4
511.722	412.94
512.09	421.53
512.458	419.27
512.826	443.9
513.193	434.18
513.561	448.65
513.929	450.68
514.297	418.14
514.664	450
515.032	431.92
515.4	438.48
515.767	433.28
516.135	452.49
516.502	448.65
516.869	456.56
517.237	453.39
517.604	445.71
517.972	431.7
518.339	458.82
518.706	453.39
519.073	477.8
519.44	461.3
519.808	454.07
520.175	468.31
520.542	501.3
520.909	445.03
521.276	453.84
521.643	477.35
522.009	482.32
522.376	469.89
522.743	466.95
523.11	480.74
523.477	475.54
523.843	470.11
524.21	478.93
524.577	477.57
524.943	490.23
525.31	466.95
525.676	488.42
526.043	506.27
526.409	486.84
526.776	497.68
527.142	493.16
527.508	476.22
527.874	510.11
528.241	490.91
528.607	488.42
528.973	486.84
529.339	476.89
529.705	492.26
530.071	481.64
530.437	490.68
530.803	497.68
531.169	497.01
531.535	487.06
531.901	477.35
532.267	491.36
532.632	487.52
532.998	513.28
533.364	499.27
533.73	514.86
534.095	492.04
534.461	499.94
534.826	504.24
535.192	493.62
535.557	494.75
535.923	495.2
536.288	497.68
536.653	508.53
537.019	513.28
537.384	504.46
537.749	494.75
538.114	514.18
538.479	519.6
538.845	533.39
539.21	517.57
539.575	518.93
539.94	500.85
540.305	530.9
540.67	516.22
541.034	520.06
541.399	511.02
541.764	509.66
542.129	524.8
542.494	511.92
542.858	517.8
543.223	537.68
543.587	511.02
543.952	516.22
544.316	523.45
544.681	520.96
545.045	519.38
545.41	522.09
545.774	539.94
546.138	530.23
546.503	527.29
546.867	540.4
547.231	528.19
547.595	546.72
547.959	515.76
548.324	540.85
548.688	541.53
549.052	545.37
549.416	528.42
549.779	515.09
550.143	529.55
550.507	535.2
550.871	534.75
551.235	526.84
551.599	526.61
551.962	530.45
552.326	551.24
552.689	542.88
553.053	552.37
553.417	546.5
553.78	556.44
554.143	519.38
554.507	525.93
554.87	560.96
555.234	525.03
555.597	542.43
555.96	544.46
556.323	546.5
556.686	546.72
557.05	536.78
557.413	548.98
557.776	524.58
558.139	541.53
558.502	543.79
558.865	567.51
559.228	540.62
559.59	541.07
559.953	538.59
560.316	547.4
560.679	545.14
561.041	572.48
561.404	541.3
561.767	547.85
562.129	576.78
562.492	562.99
562.854	553.28
563.217	558.93
563.579	567.06
563.941	562.09
564.304	566.61
564.666	548.08
565.028	568.64
565.39	553.5
565.753	556.44
566.115	562.99
566.477	567.06
566.839	566.38
567.201	570.45
567.563	588.08
567.925	561.41
568.287	547.4
568.648	570
569.01	565.48
569.372	574.29
569.734	593.95
570.095	581.52
570.457	557.34
570.819	595.31
571.18	585.59
571.542	589.89
571.903	576.55
572.265	588.53
572.626	584.01
572.987	589.66
573.349	580.39
573.71	572.94
574.071	595.99
574.432	566.38
574.794	581.3
575.155	598.25
575.516	584.69
575.877	611.13
576.238	598.92
576.599	581.75
576.96	568.64
577.32	606.83
577.681	569.55
578.042	557.57
578.403	589.66
578.763	579.04
579.124	591.24
579.485	572.26
579.845	571.58
580.206	595.99
580.566	593.95
580.927	602.09
581.287	589.89
581.648	606.83
582.008	586.27
582.368	577.23
582.728	580.62
583.089	579.49
583.449	595.08
583.809	598.02
584.169	615.87
584.529	587.85
584.889	605.7
585.249	594.18
585.609	596.21
585.969	592.82
586.329	612.03
586.688	600.73
587.048	572.94
587.408	577.91
587.768	577
588.127	589.66
588.487	572.26
588.846	591.02
589.206	577.91
589.565	593.73
589.925	593.95
590.284	567.29
590.643	600.73
591.003	576.33
591.362	588.76
591.721	597.34
592.08	585.14
592.44	588.98
592.799	582.65
593.158	576.78
593.517	584.69
593.876	577.46
594.235	558.02
594.593	582.65
594.952	584.01
595.311	577
595.67	586.5
596.029	599.83
596.387	562.54
596.746	584.46
597.104	585.37
597.463	578.81
597.822	576.55
598.18	580.17
598.538	547.63
598.897	574.07
599.255	594.63
599.613	567.06
599.972	567.51
600.33	588.76
600.688	565.25
601.046	581.98
601.404	564.35
601.762	567.06
602.12	568.87
602.478	565.25
602.836	569.32
603.194	579.04
603.552	564.35
603.91	570
604.268	583.56
604.625	572.48
604.983	567.74
605.341	539.27
605.698	561.19
606.056	572.94
606.413	553.73
606.771	544.92
607.128	558.25
607.485	578.13
607.843	586.95
608.2	560.96
608.557	552.82
608.914	575.42
609.272	557.8
609.629	561.41
609.986	552.37
610.343	562.32
610.7	561.41
611.057	547.63
611.414	541.07
611.771	548.08
612.127	561.86
612.484	569.55
612.841	553.28
613.198	555.08
613.554	558.7
613.911	569.32
614.267	543.33
614.624	548.76
614.98	530.9
615.337	544.69
615.693	551.92
616.05	551.92
616.406	562.77
616.762	539.04
617.118	534.75
617.475	529.32
617.831	521.19
618.187	531.13
618.543	540.17
618.899	551.69
619.255	546.04
619.611	526.38
619.967	535.88
620.323	531.13
620.678	556.67
621.034	504.01
621.39	526.16
621.746	518.25
622.101	548.3
622.457	545.59
622.812	504.92
623.168	527.06
623.523	531.58
623.879	529.55
624.234	519.38
624.589	492.49
624.945	521.19
625.3	512.15
625.655	510.11
626.01	521.64
626.365	526.61
626.72	514.18
627.075	517.12
627.43	506.05
627.785	508.08
628.14	504.01
628.495	502.66
628.85	506.95
629.205	499.94
629.559	515.76
629.914	516.67
630.269	496.78
630.623	484.8
630.978	506.27
631.332	510.79
631.687	512.37
632.041	504.46
632.396	489.78
632.75	497.01
633.104	476.44
633.459	509.89
633.813	493.62
634.167	487.74
634.521	499.49
634.875	486.39
635.229	464.47
635.583	487.06
635.937	470.57
636.291	473.05
636.645	486.16
636.999	476.89
637.352	472.83
637.706	490.23
638.06	461.08
638.413	487.97
638.767	490
639.121	471.47
639.474	456.56
639.828	449.32
640.181	457.69
640.534	463.34
640.888	480.96
641.241	472.6
641.594	459.49
641.947	461.53
642.301	456.56
642.654	465.14
643.007	470.34
643.36	460.85
643.713	460.62
644.066	462.43
644.419	460.17
644.771	445.26
645.124	438.7
645.477	432.6
645.83	457.91
646.182	428.76
646.535	446.39
646.888	455.2
647.24	440.51
647.593	458.36
647.945	428.31
648.298	424.92
648.65	452.49
649.002	456.56
649.355	439.61
649.707	415.88
650.059	429.66
650.411	435.09
650.763	437.8
651.115	421.98
651.467	423.11
651.819	433.73
652.171	423.34
652.523	428.08
652.875	423.79
653.227	431.25
653.578	443.45
653.93	420.85
654.282	402.09
654.633	419.04
654.985	402.32
655.337	430.57
655.688	429.21
656.039	422.88
656.391	413.62
656.742	421.08
657.094	427.4
657.445	431.25
657.796	421.53
658.147	434.86
658.498	413.39
658.849	402.77
659.2	383.11
659.551	424.47
659.902	414.97
660.253	412.26
660.604	405.03
660.955	417.01
661.306	373.39
661.656	405.71
662.007	395.31
662.358	412.72
662.708	410.91
663.059	413.17
663.409	403.9
663.76	404.81
664.11	403.45
664.461	408.2
664.811	411.36
665.161	400.51
665.511	405.94
665.862	407.52
666.212	395.77
666.562	398.93
666.912	398.93
667.262	400.29
667.612	407.74
667.962	384.02
668.312	383.79
668.662	389.44
669.011	386.95
669.361	381.3
669.711	398.7
670.06	396.9
670.41	398.48
670.76	407.07
671.109	378.59
671.459	376.33
671.808	396.67
672.157	393.05
672.507	394.41
672.856	379.5
673.205	385.6
673.554	388.99
673.904	390.79
674.253	392.6
674.602	371.13
674.951	382.89
675.3	378.59
675.649	383.34
675.998	387.18
676.346	373.17
676.695	389.44
677.044	369.1
677.393	374.98
677.741	376.56
678.09	376.11
678.438	382.66
678.787	381.76
679.135	364.35
679.484	378.37
679.832	365.71
680.181	373.39
680.529	363.9
680.877	381.3
681.225	351.7
681.573	363.9
681.922	381.3
682.27	371.81
682.618	385.82
682.966	367.52
683.314	380.63
683.661	376.33
684.009	375.65
684.357	346.05
684.705	362.55
685.053	369.33
685.4	373.17
685.748	377.24
686.095	374.3
686.443	366.39
686.79	379.72
687.138	355.09
687.485	366.39
687.832	342.66
688.18	364.81
688.527	346.5
688.874	357.58
689.221	353.96
689.568	363.9
689.915	336.11
690.262	364.13
690.609	358.71
690.956	360.51
691.303	359.84
691.65	372.49
691.997	351.93
692.344	360.97
692.69	364.35
693.037	370.68
693.383	335.2
693.73	355.32
694.077	361.19
694.423	351.02
694.769	348.31
695.116	353.51
695.462	369.78
695.808	342.43
696.155	366.61
696.501	386.05
696.847	347.63
697.193	351.02
697.539	361.42
697.885	333.85
698.231	350.12
698.577	359.38
698.923	375.88
699.269	344.69
699.614	354.86
699.96	354.64
700.306	324.58
700.651	343.79
700.997	349.89
701.342	353.06
701.688	357.58
702.033	340.85
702.379	347.41
702.724	353.06
703.069	327.07
703.415	343.11
703.76	344.92
704.105	352.6
704.45	349.21
704.795	332.49
705.14	338.37
705.485	336.11
705.83	353.51
706.175	343.79
706.52	353.51
706.865	359.84
707.209	337.69
707.554	357.58
707.899	346.95
708.243	340.17
708.588	336.56
708.932	344.47
709.277	339.72
709.621	363
709.966	343.34
710.31	363.45
710.654	334.75
710.998	342.89
711.342	349.44
711.687	351.47
712.031	346.95
712.375	357.8
712.719	350.57
713.063	353.06
713.407	353.73
713.75	355.77
714.094	360.06
714.438	330.46
714.782	342.89
715.125	352.15
715.469	335.2
715.812	351.02
716.156	355.54
716.499	352.83
716.843	353.06
717.186	360.97
717.53	352.83
717.873	325.71
718.216	327.97
718.559	329.55
718.902	358.48
719.246	338.14
719.589	345.82
719.932	335.66
720.275	348.08
720.617	333.4
720.96	348.54
721.303	364.13
721.646	356.9
721.989	341.53
722.331	340.17
722.674	333.85
723.016	337.91
723.359	330.91
723.701	332.04
724.044	331.36
724.386	335.66
724.729	346.73
725.071	349.44
725.413	351.47
725.755	354.86
726.097	314.86
726.439	331.14
726.782	343.34
727.124	323.23
727.465	345.15
727.807	328.2
728.149	349.21
728.491	354.19
728.833	327.52
729.175	337.69
729.516	346.05
729.858	332.27
730.199	331.81
730.541	346.28
730.882	326.16
731.224	323.23
731.565	344.24
731.906	351.93
732.248	342.89
732.589	335.43
732.93	334.53
733.271	342.66
733.612	321.64
733.953	326.39
734.294	335.66
734.635	333.4
734.976	346.73
735.317	327.97
735.658	351.02
735.999	336.78
736.339	341.08
736.68	341.98
737.021	316.9
737.361	332.04
737.702	358.93
738.042	334.3
738.383	356.45
738.723	319.16
739.063	347.86
739.404	353.96
739.744	330.23
740.084	358.25
740.424	328.42
740.764	320.29
741.104	331.59
741.444	327.29
741.784	336.56
742.124	332.72
742.464	330.46
742.804	330.01
743.143	335.43
743.483	321.87
743.823	336.33
744.162	318.25
744.502	333.17
744.841	333.17
745.181	333.4
745.52	354.64
745.86	340.4
746.199	339.5
746.538	325.03
746.877	332.04
747.216	327.07
747.556	322.32
747.895	324.36
748.234	322.32
748.573	330.46
748.911	327.52
749.25	347.63
749.589	358.71
749.928	334.53
750.267	325.71
750.605	344.47
750.944	340.85
751.283	340.85
751.621	326.84
751.96	335.88
752.298	339.5
752.636	365.48
752.975	332.94
753.313	318.71
753.651	340.17
753.989	337.91
754.327	325.71
754.666	337.46
755.004	315.99
755.342	323.23
755.679	328.88
756.017	351.25
756.355	330.91
756.693	334.53
757.031	322.55
757.368	317.12
757.706	346.05
758.044	323.9
758.381	338.14
758.719	331.59
759.056	328.2
759.394	329.1
759.731	326.84
760.068	337.91
760.405	327.97
760.743	325.03
761.08	319.61
761.417	339.95
761.754	310.34
762.091	306.05
762.428	324.81
762.765	350.57
763.102	339.95
763.438	344.47
763.775	314.64
764.112	351.47
764.449	310.8
764.785	322.55
765.122	311.25
765.458	327.29
765.795	330.68
766.131	321.87
766.467	337.46
766.804	320.97
767.14	359.61
767.476	335.66
767.812	328.88
768.148	314.64
768.485	308.99
768.821	334.75
769.157	317.58
769.492	321.42
769.828	331.59
770.164	313.28
770.5	330.91
770.836	320.74
771.171	322.1
771.507	305.83
771.842	345.15
772.178	357.35
772.513	328.65
772.849	336.56
773.184	310.57
773.519	336.11
773.855	344.24
774.19	342.43
774.525	320.29
774.86	316.45
775.195	328.88
775.53	327.07
775.865	339.95
776.2	331.81
776.535	331.59
776.87	338.37
777.205	347.18
777.539	333.4
777.874	313.73
778.209	330.01
778.543	323.45
778.878	347.86
779.212	311.47
779.547	322.32
779.881	322.55
780.215	318.71
780.55	334.75
780.884	318.93
781.218	330.91
781.552	345.15
781.886	316.45
782.22	327.97
782.554	346.28
782.888	346.73
783.222	339.5
783.556	311.25
783.889	333.17
784.223	325.26
784.557	325.03
784.89	305.15
785.224	332.94
785.557	315.09
785.891	331.81
786.224	292.72
786.558	335.43
786.891	320.74
787.224	301.08
787.557	346.73
787.891	331.14
788.224	318.25
788.557	307.41
788.89	322.77
789.223	319.38
789.556	327.52
789.888	305.83
790.221	334.07
790.554	331.14
790.887	340.17
791.219	307.41
791.552	326.62
791.884	314.86
792.217	311.93
792.549	308.76
792.882	313.73
793.214	331.81
793.546	316.45
793.879	313.73
794.211	330.23
794.543	333.4
794.875	331.36
795.207	342.21
795.539	333.62
795.871	330.46
796.203	319.38
796.535	323.9
796.867	331.59
797.198	339.72
797.53	330.68
797.862	323.68
798.193	327.29
798.525	339.04
798.856	331.81
799.188	342.66
799.519	345.37
799.85	304.92
800.182	322.1
800.513	318.25
800.844	339.95
801.175	320.97
801.506	313.06
801.837	319.38
802.168	311.02
802.499	307.63
802.83	320.74
803.161	314.19
803.491	324.81
803.822	335.2
804.153	332.94
804.483	330.01
804.814	338.59
805.145	332.94
805.475	314.86
805.805	327.52
806.136	301.98
806.466	330.91
806.796	319.61
807.126	343.34
807.457	332.94
807.787	337.24
808.117	332.04
808.447	325.26
808.777	307.63
809.107	323.45
809.436	320.06
809.766	333.62
810.096	314.19
810.426	336.78
810.755	316.9
811.085	326.84
811.414	311.25
811.744	314.86
812.073	346.05
812.403	331.36
812.732	311.7
813.061	336.11
813.39	320.29
813.719	324.36
814.049	331.14
814.378	345.15
814.707	313.51
815.036	330.91
815.365	331.81
815.693	316.45
816.022	329.33
816.351	316.45
816.68	310.8
817.008	333.4
817.337	327.07
817.665	340.85
817.994	326.84
818.322	302.89
818.651	344.69
818.979	316.22
819.307	327.52
819.636	320.29
819.964	304.7
820.292	326.84
820.62	334.3
820.948	333.17
821.276	335.43
821.604	320.51
821.932	320.97
822.259	339.27
822.587	322.1
822.915	323
823.243	330.23
823.57	322.32
823.898	313.51
824.225	320.06
824.553	327.07
824.88	315.32
825.207	321.19
825.535	323.9
825.862	323
826.189	339.27
826.516	331.59
826.843	316.9
827.17	322.55
827.497	343.79
827.824	309.22
828.151	326.84
828.478	325.03
828.805	322.1
829.131	326.84
829.458	330.68
829.785	326.62
830.111	325.71
830.438	336.78
830.764	335.66
831.09	328.2
831.417	313.96
831.743	312.15
832.069	325.49
832.395	319.84
832.722	321.87
833.048	331.81
833.374	325.49
833.7	317.35
834.026	338.37
834.351	340.85
834.677	312.83
835.003	307.41
835.329	299.05
835.654	337.91
835.98	352.83
836.306	318.25
836.631	341.53
836.956	309.22
837.282	334.75
837.607	323
837.932	325.94
838.258	337.46
838.583	315.32
838.908	328.2
839.233	325.49
839.558	338.59
839.883	314.86
840.208	311.47
840.533	336.11
840.858	334.07
841.182	332.49
841.507	334.98
841.832	321.42
842.156	346.5
842.481	326.16
842.805	317.58
843.13	331.14
843.454	315.77
843.778	311.02
844.103	311.25
844.427	316.22
844.751	337.24
845.075	329.1
845.399	306.05
845.723	306.05
846.047	325.94
846.371	325.71
846.695	309.44
847.019	327.07
847.343	312.83
847.666	306.73
847.99	307.18
848.313	323
848.637	327.52
848.96	334.53
849.284	309.22
849.607	317.58
849.931	343.34
850.254	317.35
850.577	315.54
850.9	324.81
851.223	317.8
851.546	334.07
851.869	308.31
852.192	305.37
852.515	299.5
852.838	346.73
853.161	314.19
853.483	332.49
853.806	322.1
854.129	328.88
854.451	333.85
854.774	308.31
855.096	311.93
855.419	323.45
855.741	341.3
856.063	308.99
856.385	317.58
856.708	315.54
857.03	320.74
857.352	331.81
857.674	316.22
857.996	319.61
858.318	318.71
858.64	322.32
858.961	321.19
859.283	322.1
859.605	334.75
859.926	322.77
860.248	318.03
860.57	321.42
860.891	303.11
861.212	320.29
861.534	320.06
861.855	327.52
862.176	319.38
862.498	329.1
862.819	300.18
863.14	320.74
863.461	329.1
863.782	322.77
864.103	331.81
864.424	313.06
864.745	315.32
865.065	323.9
865.386	292.04
865.707	339.27
866.027	318.03
866.348	327.07
866.668	316.22
866.989	318.48
867.309	313.73
867.63	334.3
867.95	326.16
868.27	307.86
868.59	291.14
868.91	312.38
869.23	314.19
869.55	329.1
869.87	302.66
870.19	324.13
870.51	319.16
870.83	314.19
871.15	333.4
871.469	309.44
871.789	321.19
872.109	328.88
872.428	317.58
872.748	313.28
873.067	353.06
873.386	306.28
873.706	326.84
874.025	311.02
874.344	318.93
874.663	302.89
874.982	321.87
875.301	324.58
875.62	314.41
875.939	309.89
876.258	342.21
876.577	344.92
876.896	327.97
877.214	336.33
877.533	317.35
877.852	309.89
878.17	312.6
878.489	337.01
878.807	324.36
879.125	334.98
879.444	316.9
879.762	310.34
880.08	314.86
880.398	330.46
880.716	311.93
881.034	317.35
881.352	335.43
881.67	314.64
881.988	331.81
882.306	309.89
882.624	307.18
882.941	321.64
883.259	327.75
883.577	332.49
883.894	325.49
884.212	302.44
884.529	304.24
884.846	310.57
885.164	323.45
885.481	311.25
885.798	296.56
886.115	332.04
886.432	295.88
886.75	325.03
887.067	309.44
887.383	321.87
887.7	309.89
888.017	327.97
888.334	339.04
888.651	328.65
888.967	323.68
889.284	333.4
889.6	303.11
889.917	325.71
890.233	313.51
890.55	319.16
890.866	325.71
891.182	316.45
891.498	322.55
891.815	315.09
892.131	304.02
892.447	331.14
892.763	328.65
893.079	313.73
893.395	334.53
893.71	305.6
894.026	325.94
894.342	304.47
894.657	321.19
894.973	324.13
895.289	331.36
895.604	323.9
895.92	313.96
896.235	346.05
896.55	339.72
896.865	305.83
897.181	311.93
897.496	313.96
897.811	310.12
898.126	327.52
898.441	310.8
898.756	307.63
899.071	318.03
899.386	315.54
899.7	317.35
900.015	323
900.33	313.96
900.644	317.8
900.959	306.05
901.273	323.45
901.588	333.4
901.902	336.78
902.216	308.09
902.531	330.46
902.845	324.81
903.159	311.7
903.473	325.49
903.787	324.58
904.101	346.05
904.415	326.39
904.729	327.52
905.042	318.03
905.356	332.72
905.67	336.56
905.984	314.19
906.297	318.48
906.611	301.76
906.924	319.61
907.237	318.93
907.551	329.1
907.864	304.92
908.177	320.97
908.491	337.91
908.804	331.81
909.117	320.51
909.43	323.45
909.743	321.19
910.056	320.06
910.368	311.47
910.681	329.78
910.994	311.02
911.307	322.77
911.619	293.17
911.932	317.8
912.244	313.73
912.557	334.98
912.869	325.26
913.181	316.22
913.494	304.7
913.806	308.31
914.118	309.22
914.43	305.83
914.742	316.67
915.054	324.36
915.366	333.4
915.678	320.29
915.99	336.33
916.302	332.27
916.613	323.9
916.925	310.12
917.236	324.36
917.548	334.98
917.859	312.38
918.171	310.57
918.482	308.31
918.794	328.65
919.105	316.9
919.416	317.12
919.727	316.22
920.038	306.73
920.349	332.72
920.66	334.75
920.971	311.7
921.282	315.77
921.593	304.47
921.903	332.04
922.214	325.49
922.525	340.4
922.835	323
923.146	301.76
923.456	322.77
923.767	320.51
924.077	304.92
924.387	339.27
924.697	297.01
925.008	323
925.318	303.34
925.628	296.11
925.938	306.96
926.248	324.81
926.558	316.67
926.867	339.27
927.177	328.88
927.487	308.76
927.796	314.64
928.106	321.19
928.416	305.6
928.725	327.75
929.034	312.15
929.344	308.99
929.653	317.35
929.962	324.36
930.271	315.09
930.581	301.76
930.89	313.28
931.199	324.36
931.508	324.58
931.817	321.87
932.125	303.57
932.434	317.35
932.743	312.15
933.051	321.64
933.36	300.4
933.669	309.44
933.977	304.7
934.286	331.14
934.594	318.93
934.902	322.32
935.21	311.93
935.519	310.57
935.827	313.28
936.135	315.32
936.443	308.31
936.751	332.72
937.059	322.1
937.367	317.12
937.674	327.97
937.982	310.34
938.29	310.8
938.597	336.78
938.905	304.24
939.213	309.22
939.52	321.19
939.827	316.45
940.135	328.42
940.442	299.72
940.749	332.94
941.056	316.45
941.363	308.76
941.67	334.98
941.977	297.69
942.284	315.32
942.591	325.49
942.898	306.73
943.205	287.97
943.511	321.87
943.818	325.94
944.125	319.84
944.431	322.1
944.738	330.46
945.044	329.55
945.35	319.38
945.657	329.78
945.963	328.42
946.269	301.76
946.575	326.84
946.881	302.21
947.187	307.18
947.493	330.23
947.799	308.99
948.105	302.44
948.41	324.81
948.716	318.03
949.022	295.88
949.327	292.94
949.633	331.36
949.938	332.49
950.244	320.97
950.549	328.88
950.854	317.12
951.16	316.67
951.465	325.49
951.77	324.81
952.075	319.61
952.38	307.18
952.685	318.93
952.99	297.92
953.294	324.36
953.599	327.29
953.904	316.9
954.209	311.7
954.513	319.16
954.818	318.48
955.122	317.35
955.426	309.67
955.731	314.86
956.035	304.47
956.339	310.34
956.643	333.62
956.948	314.19
957.252	327.07
957.556	307.86
957.86	310.8
958.163	320.29
958.467	344.47
958.771	309.89
959.075	294.07
959.378	336.78
959.682	300.63
959.985	323.23
960.289	318.03
960.592	315.54
960.896	334.98
961.199	332.72
961.502	303.11
961.805	304.92
962.108	317.35
962.411	295.2
962.714	333.85
963.017	320.29
963.32	321.64
963.623	318.93
963.926	323.68
964.228	323.23
964.531	311.25
964.833	326.39
965.136	322.32
965.438	318.71
965.741	307.41
966.043	313.73
966.345	319.84
966.648	291.81
966.95	321.19
967.252	314.64
967.554	307.41
967.856	336.56
968.158	315.32
968.46	309.44
968.761	344.92
969.063	317.12
969.365	307.41
969.666	312.6
969.968	337.91
970.269	301.98
970.571	302.66
970.872	303.57
971.174	306.96
971.475	320.06
971.776	322.32
972.077	312.6
972.378	328.65
972.679	331.81
972.98	314.86
973.281	310.34
973.582	312.15
973.883	312.6
974.183	321.19
974.484	327.29
974.785	320.74
975.085	330.23
975.386	301.31
975.686	333.17
975.986	308.99
976.287	318.48
976.587	320.51
976.887	322.32
977.187	309.67
977.487	308.31
977.787	312.83
978.087	327.07
978.387	315.32
978.687	315.32
978.987	318.25
979.286	336.78
979.586	327.75
979.885	330.68
980.185	330.23
980.484	337.24
980.784	314.64
981.083	313.06
981.382	330.01
981.682	306.96
981.981	308.54
982.28	318.48
982.579	315.99
982.878	320.06
983.177	324.13
983.475	338.37
983.774	301.76
984.073	311.02
984.372	326.39
984.67	321.19
984.969	313.51
985.267	319.84
985.566	325.71
985.864	324.81
986.162	320.74
986.461	300.85
986.759	302.21
987.057	325.03
987.355	336.11
987.653	300.18
987.951	293.4
988.249	334.53
988.547	315.09
988.844	325.71
989.142	321.87
989.44	306.28
989.737	322.55
990.035	315.77
990.332	325.71
990.63	314.64
990.927	324.81
991.224	297.46
991.521	305.37
991.819	311.25
992.116	318.71
992.413	316.9
992.71	320.97
993.006	306.96
993.303	317.35
993.6	297.69
993.897	306.96
994.193	337.91
994.49	325.49
994.787	327.07
995.083	323.68
995.379	311.7
995.676	315.99
995.972	319.38
996.268	320.06
996.565	299.05
996.861	312.83
997.157	313.96
997.453	323.23
997.749	304.47
998.044	295.88
998.34	309.22
998.636	322.32
998.932	294.53
999.227	308.99
999.523	301.53
999.818	324.58
1000.114	307.18
1000.409	332.27
1000.704	323
1001	314.41
1001.295	318.93
1001.59	306.28
1001.885	318.03
1002.18	329.33
1002.475	320.29
1002.77	320.74
1003.065	313.96
1003.359	325.26
1003.654	320.74
1003.949	296.79
1004.243	325.71
1004.538	321.42
1004.832	317.8
1005.127	315.77
1005.421	301.53
1005.715	313.51
1006.009	311.02
1006.304	313.51
1006.598	322.77
1006.892	298.82
1007.186	296.33
1007.48	319.16
1007.773	320.29
1008.067	317.8
1008.361	321.42
1008.655	328.65
1008.948	289.33
1009.242	347.18
1009.535	315.09
1009.829	284.36
1010.122	311.93
1010.415	308.76
1010.708	314.64
1011.001	303.57
1011.295	332.94
1011.588	306.5
1011.881	309.67
1012.173	317.58
1012.466	294.98
1012.759	313.51
1013.052	332.04
1013.344	318.25
1013.637	305.6
1013.93	327.75
1014.222	327.52
1014.514	307.63
1014.807	317.35
1015.099	314.86
1015.391	329.55
1015.683	298.82
1015.976	306.96
1016.268	331.36
1016.56	330.01
1016.851	333.62
1017.143	309.22
1017.435	318.48
1017.727	339.72
1018.018	318.25
1018.31	310.8
1018.602	316.45
1018.893	317.12
1019.185	304.02
1019.476	320.06
1019.767	332.94
1020.058	317.12
1020.35	306.28
1020.641	341.53
1020.932	316.67
1021.223	298.82
1021.514	319.16
1021.804	315.32
1022.095	312.38
1022.386	308.09
1022.677	322.32
1022.967	319.61
1023.258	308.31
1023.548	322.32
1023.839	309.44
1024.129	295.88
1024.419	312.38
1024.709	324.13
1025	312.15
1025.29	312.15
1025.58	308.31
1025.87	330.01
1026.16	333.62
1026.449	319.61
1026.739	321.19
1027.029	300.18
1027.319	321.42
1027.608	324.36
1027.898	321.64
1028.187	315.09
1028.477	301.53
1028.766	310.34
1029.055	314.41
1029.344	310.12
1029.634	309.89
1029.923	311.93
1030.212	310.34
1030.501	308.99
1030.79	315.99
1031.078	308.99
1031.367	314.19
1031.656	329.78
1031.945	311.02
1032.233	322.1
1032.522	309.89
1032.81	300.63
1033.099	297.24
1033.387	321.87
1033.675	314.19
1033.963	323.23
1034.251	310.34
1034.54	300.18
1034.828	304.47
1035.116	315.09
1035.403	316.22
1035.691	324.13
1035.979	307.86
1036.267	297.69
1036.554	320.74
1036.842	329.1
1037.129	316.9
1037.417	316.45
1037.704	318.48
1037.992	329.78
1038.279	328.88
1038.566	308.99
1038.853	308.99
1039.14	308.99
