Data from No_light_on_white_reflection_standard_FLMS001491_029.txt Node
Date: Tue Feb 07 10:32:58 GMT 2017
User: dcchb
Spectrometer: FLMS00149
Trigger mode: 0
Integration Time (sec): 2.000000E-2
Scans to average: 10
Electric dark correction enabled: true
Nonlinearity correction enabled: false
Boxcar width: 0
XAxis mode: Wavelengths
Number of Pixels in Spectrum: 2048
>>>>>Begin Spectral Data<<<<<
341.393	-11.47
341.776	-11.47
342.16	-11.47
342.543	-50.79
342.927	-53.73
343.31	-90.34
343.693	-62.31
344.077	-51.24
344.46	-61.64
344.843	-42.2
345.226	-33.84
345.61	-22.99
345.993	-27.97
346.376	-4.92
346.759	-9.43
347.142	26.04
347.525	51.81
347.908	54.74
348.291	92.94
348.674	89.09
349.057	92.26
349.44	108.53
349.823	135.42
350.206	130.67
350.588	157.11
350.971	180.16
351.354	173.39
351.737	197.57
352.119	219.26
352.502	215.19
352.884	251.8
353.267	255.87
353.65	258.13
354.032	262.2
354.414	278.02
354.797	285.47
355.179	294.96
355.562	272.14
355.944	281.63
356.326	273.27
356.709	280.05
357.091	286.15
357.473	288.64
357.855	305.13
358.238	301.52
358.62	313.04
359.002	306.94
359.384	299.94
359.766	307.85
360.148	301.97
360.53	288.41
360.912	307.85
361.294	290.9
361.676	289.54
362.057	285.92
362.439	303.55
362.821	267.39
363.203	289.77
363.584	294.74
363.966	300.39
364.348	288.41
364.729	286.38
365.111	293.38
365.493	268.3
365.874	293.61
366.256	283.44
366.637	291.8
367.019	277.34
367.4	283.66
367.781	267.17
368.163	268.98
368.544	275.08
368.925	279.82
369.306	275.08
369.688	247.28
370.069	266.72
370.45	266.72
370.831	261.97
371.212	267.39
371.593	261.74
371.974	251.8
372.355	273.72
372.736	267.39
373.117	256.32
373.498	262.2
373.879	267.17
374.26	274.63
374.641	272.82
375.021	272.37
375.402	268.75
375.783	281.18
376.163	278.47
376.544	268.07
376.925	284.12
377.305	282.31
377.686	269.88
378.066	294.29
378.447	284.12
378.827	284.34
379.208	272.14
379.588	293.38
379.968	288.18
380.349	290.22
380.729	266.04
381.109	279.82
381.489	285.47
381.87	258.13
382.25	279.82
382.63	267.62
383.01	276.66
383.39	279.37
383.77	272.37
384.15	274.85
384.53	275.3
384.91	284.79
385.29	278.92
385.67	290.22
386.049	286.83
386.429	273.5
386.809	266.94
387.189	278.24
387.568	274.63
387.948	297
388.328	287.05
388.707	291.35
389.087	286.15
389.466	281.18
389.846	278.47
390.225	282.08
390.605	270.56
390.984	269.88
391.363	279.15
391.743	304
392.122	269.43
392.501	276.43
392.881	284.57
393.26	288.41
393.639	302.2
394.018	289.99
394.397	286.15
394.776	275.08
395.155	289.77
395.534	273.27
395.913	292.93
396.292	306.49
396.671	281.18
397.05	292.25
397.429	277.79
397.808	302.65
398.186	292.93
398.565	299.94
398.944	301.52
399.323	289.09
399.701	271.69
400.08	290.9
400.458	300.84
400.837	280.05
401.215	291.8
401.594	288.64
401.972	295.42
402.351	272.37
402.729	281.86
403.107	272.82
403.486	303.33
403.864	306.49
404.242	287.05
404.62	295.87
404.999	320.5
405.377	289.31
405.755	289.31
406.133	301.07
406.511	291.57
406.889	284.12
407.267	288.86
407.645	299.71
408.023	317.79
408.401	304.23
408.779	304
409.156	317.34
409.534	298.13
409.912	293.61
410.29	291.8
410.667	296.77
411.045	298.58
411.422	285.92
411.8	313.27
412.178	301.97
412.555	295.19
412.933	301.07
413.31	289.54
413.687	299.03
414.065	287.51
414.442	301.74
414.819	317.11
415.197	285.25
415.574	291.8
415.951	303.1
416.328	299.26
416.705	295.42
417.082	310.1
417.46	295.42
417.837	306.49
418.214	302.2
418.591	288.86
418.967	291.8
419.344	281.86
419.721	291.8
420.098	292.03
420.475	285.7
420.852	308.3
421.228	297.22
421.605	309.65
421.982	317.34
422.358	308.52
422.735	303.1
423.111	304
423.488	290.9
423.864	315.3
424.241	301.74
424.617	301.29
424.994	314.85
425.37	311.01
425.746	296.55
426.123	309.2
426.499	313.27
426.875	317.34
427.251	321.86
427.627	323.89
428.003	308.75
428.379	318.69
428.756	320.05
429.132	309.65
429.507	309.2
429.883	328.41
430.259	338.35
430.635	327.05
431.011	309.65
431.387	317.34
431.763	323.44
432.138	325.7
432.514	327.05
432.89	328.86
433.265	354.62
433.641	311.01
434.016	301.52
434.392	316.88
434.767	325.25
435.143	309.88
435.518	318.01
435.894	315.98
436.269	330.22
436.644	306.26
437.02	317.34
437.395	326.6
437.77	321.63
438.145	330.9
438.52	312.36
438.895	338.58
439.271	317.34
439.646	315.53
440.021	329.31
440.395	346.71
440.77	327.73
441.145	339.26
441.52	346.94
441.895	321.86
442.27	330.9
442.645	332.7
443.019	347.17
443.394	361.18
443.769	325.47
444.143	355.3
444.518	349.65
444.892	328.86
445.267	346.94
445.641	369.54
446.016	327.51
446.39	347.39
446.764	325.02
447.139	344
447.513	339.26
447.887	363.66
448.262	381.97
448.636	366.37
449.01	351.91
449.384	360.5
449.758	353.04
450.132	356.88
450.506	345.81
450.88	381.06
451.254	356.43
451.628	382.65
452.002	368.18
452.376	367.73
452.75	378.8
453.123	364.79
453.497	365.7
453.871	348.3
454.244	367.28
454.618	376.77
454.992	349.88
455.365	365.24
455.739	355.98
456.112	368.41
456.486	335.64
456.859	359.14
457.232	342.87
457.606	362.98
457.979	360.72
458.352	351.91
458.725	341.29
459.099	346.49
459.472	360.05
459.845	370.22
460.218	372.02
460.591	351.46
460.964	346.71
461.337	339.93
461.71	359.82
462.083	351.23
462.456	358.92
462.829	348.52
463.201	367.5
463.574	358.92
463.947	355.98
464.32	366.83
464.692	360.72
465.065	347.84
465.438	342.19
465.81	379.26
466.183	361.63
466.555	357.34
466.928	365.92
467.3	350.33
467.672	344.23
468.045	337.45
468.417	360.72
468.789	375.41
469.161	343.32
469.534	355.08
469.906	364.79
470.278	349.65
470.65	352.36
471.022	358.69
471.394	346.49
471.766	351.46
472.138	344
472.51	337.67
472.882	355.98
473.253	333.83
473.625	353.95
473.997	347.84
474.369	376.09
474.74	339.93
475.112	340.39
475.484	347.39
475.855	318.01
476.227	354.62
476.598	345.13
476.97	336.09
477.341	364.11
477.713	347.17
478.084	347.17
478.455	338.35
478.827	357.34
479.198	335.41
479.569	351.91
479.94	346.94
480.311	354.85
480.682	354.85
481.053	361.85
481.424	348.97
481.795	351.46
482.166	363.66
482.537	350.33
482.908	371.8
483.279	338.13
483.65	360.27
484.021	345.81
484.391	363.44
484.762	363.21
485.133	360.95
485.503	353.72
485.874	363.89
486.244	357.11
486.615	355.98
486.985	373.83
487.356	365.47
487.726	364.11
488.097	368.63
488.467	364.11
488.837	361.63
489.207	353.72
489.578	373.61
489.948	360.72
490.318	350.56
490.688	363.21
491.058	373.15
491.428	372.93
491.798	385.36
492.168	396.43
492.538	369.54
492.908	390.55
493.278	372.48
493.648	376.09
494.017	377.45
494.387	390.1
494.757	367.28
495.126	389.88
495.496	395.53
495.866	393.94
496.235	367.05
496.605	388.07
496.974	412.7
497.344	413.38
497.713	394.85
498.082	381.29
498.452	386.71
498.821	393.49
499.19	377.45
499.559	386.94
499.928	401.18
500.298	406.37
500.667	383.32
501.036	397.33
501.405	409.31
501.774	394.62
502.143	397.56
502.512	402.98
502.88	408.18
503.249	416.77
503.618	410.22
503.987	398.46
504.356	424
504.724	405.47
505.093	403.21
505.462	414.51
505.83	402.53
506.199	414.96
506.567	418.8
506.936	400.72
507.304	416.32
507.672	409.99
508.041	439.14
508.409	421.06
508.777	428.29
509.145	439.37
509.514	386.04
509.882	422.42
510.25	424
510.618	424.23
510.986	440.04
511.354	433.94
511.722	430.1
512.09	427.62
512.458	431.01
512.826	444.79
513.193	429.42
513.561	440.04
513.929	440.27
514.297	453.15
514.664	459.25
515.032	449.08
515.4	430.1
515.767	447.5
516.135	448.63
516.502	437.11
516.869	444.79
517.237	446.15
517.604	427.62
517.972	448.18
518.339	442.76
518.706	437.56
519.073	451.8
519.44	429.65
519.808	461.74
520.175	441.63
520.542	451.12
520.909	454.28
521.276	486.6
521.643	461.74
522.009	464
522.376	456.54
522.743	466.48
523.11	471
523.477	468.52
523.843	451.34
524.21	464.45
524.577	456.99
524.943	460.38
525.31	450.21
525.676	479.82
526.043	464.23
526.409	495.86
526.776	469.42
527.142	477.56
527.508	481.63
527.874	475.07
528.241	492.7
528.607	488.63
528.973	476.43
529.339	485.47
529.705	472.36
530.071	465.58
530.437	492.25
530.803	471.91
531.169	460.16
531.535	503.09
531.901	520.72
532.267	490.44
532.632	485.47
532.998	506.03
533.364	493.15
533.73	489.08
534.095	480.5
534.461	489.31
534.826	493.38
535.192	474.17
535.557	513.94
535.923	512.59
536.288	506.26
536.653	485.92
537.019	486.6
537.384	514.62
537.749	505.58
538.114	499.7
538.479	494.73
538.845	504.22
539.21	491.12
539.575	516.43
539.94	492.02
540.305	491.57
540.67	510.1
541.034	522.08
541.399	516.43
541.764	490.67
542.129	503.09
542.494	484.56
542.858	507.61
543.223	512.81
543.587	512.13
543.952	499.48
544.316	508.29
544.681	520.04
545.045	507.61
545.41	504.45
545.774	521.62
546.138	514.62
546.503	497.44
546.867	512.36
547.231	519.14
547.595	515.07
547.959	511.46
548.324	507.39
548.688	526.37
549.052	525.69
549.416	513.72
549.779	524.11
550.143	520.04
550.507	514.39
550.871	534.28
551.235	533.83
551.599	499.7
551.962	516.43
552.326	523.21
552.689	523.43
553.053	518.23
553.417	522.98
553.78	531.57
554.143	519.82
554.507	521.62
554.87	527.5
555.234	521.85
555.597	532.25
555.96	518.23
556.323	539.93
556.686	525.47
557.05	525.24
557.413	538.12
557.776	520.95
558.139	533.38
558.502	539.7
558.865	527.95
559.228	540.61
559.59	530.21
559.953	555.97
560.316	536.54
560.679	529.76
561.041	548.06
561.404	560.95
561.767	552.13
562.129	560.95
562.492	533.15
562.854	557.1
563.217	540.16
563.579	539.7
563.941	562.3
564.304	553.94
564.666	553.94
565.028	557.33
565.39	543.09
565.753	512.81
566.115	539.93
566.477	562.3
566.839	555.97
567.201	555.3
567.563	554.84
567.925	550.78
568.287	558.01
568.648	562.98
569.01	540.16
569.372	577.44
569.734	570.44
570.095	574.96
570.457	566.82
570.819	582.87
571.18	558.01
571.542	587.16
571.903	573.6
572.265	573.15
572.626	575.41
572.987	574.73
573.349	545.8
573.71	581.51
574.071	569.08
574.432	581.28
574.794	556.43
575.155	577.89
575.516	560.95
575.877	571.79
576.238	577.89
576.599	572.47
576.96	562.75
577.32	577.44
577.681	555.07
578.042	558.46
578.403	568.63
578.763	579.02
579.124	586.71
579.485	577.89
579.845	569.99
580.206	579.02
580.566	554.39
580.927	591.23
581.287	588.97
581.648	559.14
582.008	585.35
582.368	576.76
582.728	576.31
583.089	583.09
583.449	567.05
583.809	588.29
584.169	574.28
584.529	554.17
584.889	583.32
585.249	591.45
585.609	563.21
585.969	594.39
586.329	576.76
586.688	581.51
587.048	576.31
587.408	573.15
587.768	577.89
588.127	562.53
588.487	581.96
588.846	589.65
589.206	561.62
589.565	588.52
589.925	594.17
590.284	568.86
590.643	554.84
591.003	559.82
591.362	558.69
591.721	572.7
592.08	569.08
592.44	581.74
592.799	581.06
593.158	538.12
593.517	579.25
593.876	588.52
594.235	572.7
594.593	574.05
594.952	558.91
595.311	575.18
595.67	562.53
596.029	566.37
596.387	573.6
596.746	589.65
597.104	567.95
597.463	574.5
597.822	561.17
598.18	567.95
598.538	571.34
598.897	571.57
599.255	541.06
599.613	582.19
599.972	568.63
600.33	552.58
600.688	554.17
601.046	573.6
601.404	555.07
601.762	560.49
602.12	555.97
602.478	551.91
602.836	557.78
603.194	564.56
603.552	561.85
603.91	552.81
604.268	557.33
604.625	572.92
604.983	539.7
605.341	550.78
605.698	544
606.056	561.17
606.413	552.58
606.771	567.95
607.128	561.4
607.485	532.25
607.843	564.56
608.2	527.05
608.557	548.97
608.914	558.46
609.272	537.9
609.629	548.52
609.986	565.24
610.343	536.77
610.7	549.42
611.057	559.82
611.414	538.12
611.771	550.78
612.127	528.63
612.484	547.39
612.841	548.97
613.198	532.02
613.554	527.27
613.911	559.14
614.267	535.41
614.624	520.95
614.98	543.32
615.337	519.59
615.693	542.87
616.05	530.44
616.406	540.83
616.762	536.54
617.118	538.12
617.475	553.04
617.831	528.18
618.187	532.02
618.543	514.17
618.899	526.82
619.255	512.36
619.611	517.78
619.967	510.55
620.323	512.13
620.678	523.21
621.034	521.17
621.39	516.2
621.746	515.3
622.101	516.65
622.457	517.78
622.812	511.91
623.168	520.49
623.523	488.63
623.879	502.64
624.234	504.22
624.589	523.21
624.945	498.8
625.3	494.28
625.655	502.64
626.01	497.67
626.365	503.77
626.72	513.26
627.075	501.29
627.43	529.53
627.785	520.95
628.14	473.72
628.495	496.09
628.85	490.89
629.205	499.7
629.559	499.93
629.914	500.61
630.269	487.28
630.623	489.99
630.978	493.6
631.332	498.57
631.687	491.79
632.041	498.35
632.396	497.67
632.75	481.85
633.104	476.2
633.459	490.89
633.813	477.33
634.167	480.27
634.521	471.46
634.875	481.17
635.229	474.39
635.583	473.04
635.937	473.04
636.291	465.35
636.645	477.33
636.999	471.46
637.352	469.2
637.706	474.17
638.06	454.73
638.413	447.28
638.767	454.28
639.121	455.41
639.474	458.12
639.828	458.35
640.181	455.41
640.534	463.55
640.888	460.84
641.241	458.12
641.594	453.6
641.947	464
642.301	482.08
642.654	446.15
643.007	452.7
643.36	442.53
643.713	426.03
644.066	447.73
644.419	434.85
644.771	414.96
645.124	425.81
645.477	460.84
645.83	434.17
646.182	453.38
646.535	426.49
646.888	431.68
647.24	438.24
647.593	432.81
647.945	421.97
648.298	448.18
648.65	439.82
649.002	425.58
649.355	430.55
649.707	419.71
650.059	421.51
650.411	438.46
650.763	431.91
651.115	427.16
651.467	431.23
651.819	423.32
652.171	435.53
652.523	428.52
652.875	429.42
653.227	423.55
653.578	427.16
653.93	418.8
654.282	433.72
654.633	424.9
654.985	424.45
655.337	415.19
655.688	423.1
656.039	417.9
656.391	439.82
656.742	412.48
657.094	414.28
657.445	416.32
657.796	404.79
658.147	416.77
658.498	396.66
658.849	385.13
659.2	387.62
659.551	396.66
659.902	419.48
660.253	407.96
660.604	403.66
660.955	405.92
661.306	414.28
661.656	384.68
662.007	412.25
662.358	428.29
662.708	414.51
663.059	393.04
663.409	396.2
663.76	396.88
664.11	397.33
664.461	394.62
664.811	390.78
665.161	402.98
665.511	386.26
665.862	375.64
666.212	425.81
666.562	405.92
666.912	400.5
667.262	409.31
667.612	383.1
667.962	395.75
668.312	365.24
668.662	389.88
669.011	391.23
669.361	390.33
669.711	375.41
670.06	377.67
670.41	371.8
670.76	385.13
671.109	370.89
671.459	387.16
671.808	365.7
672.157	391.91
672.507	400.95
672.856	369.76
673.205	366.6
673.554	388.75
673.904	379.71
674.253	379.71
674.602	369.54
674.951	376.54
675.3	377.9
675.649	376.54
675.998	330.9
676.346	376.77
676.695	374.96
677.044	395.53
677.393	395.75
677.741	369.99
678.09	376.77
678.438	376.54
678.787	363.21
679.135	363.21
679.484	360.5
679.832	369.31
680.181	363.89
680.529	367.28
680.877	379.93
681.225	358.69
681.573	368.18
681.922	371.35
682.27	362.08
682.618	384.91
682.966	373.15
683.314	381.97
683.661	371.35
684.009	372.93
684.357	371.57
684.705	357.79
685.053	382.19
685.4	374.51
685.748	371.57
686.095	366.6
686.443	369.54
686.79	342.87
687.138	361.63
687.485	362.98
687.832	367.96
688.18	350.1
688.527	363.44
688.874	343.55
689.221	348.3
689.568	369.54
689.915	363.44
690.262	379.93
690.609	369.99
690.956	363.21
691.303	362.31
691.65	343.1
691.997	346.49
692.344	346.49
692.69	357.11
693.037	372.02
693.383	336.77
693.73	357.56
694.077	347.84
694.423	378.8
694.769	336.54
695.116	350.78
695.462	349.88
695.808	348.52
696.155	351.91
696.501	355.08
696.847	373.15
697.193	354.85
697.539	369.54
697.885	342.42
698.231	360.05
698.577	351.23
698.923	361.85
699.269	356.66
699.614	369.99
699.96	351.46
700.306	351.01
700.651	349.43
700.997	341.74
701.342	345.13
701.688	328.64
702.033	331.57
702.379	347.17
702.724	350.78
703.069	361.85
703.415	358.01
703.76	341.74
704.105	358.01
704.45	341.74
704.795	346.71
705.14	326.15
705.485	338.35
705.83	338.13
706.175	349.43
706.52	341.97
706.865	328.64
707.209	355.3
707.554	351.01
707.899	341.29
708.243	352.59
708.588	347.62
708.932	333.38
709.277	335.64
709.621	332.25
709.966	316.88
710.31	326.6
710.654	340.61
710.998	351.91
711.342	338.35
711.687	327.28
712.031	340.16
712.375	334.74
712.719	349.88
713.063	344
713.407	341.52
713.75	344.45
714.094	324.34
714.438	334.74
714.782	338.8
715.125	341.97
715.469	351.46
715.812	332.48
716.156	341.74
716.499	325.47
716.843	355.75
717.186	308.97
717.53	330.44
717.873	354.17
718.216	337.22
718.559	336.77
718.902	323.44
719.246	360.27
719.589	322.99
719.932	317.11
720.275	349.2
720.617	330.44
720.96	347.39
721.303	335.64
721.646	341.74
721.989	334.74
722.331	324.12
722.674	334.74
723.016	330.22
723.359	333.83
723.701	327.73
724.044	321.86
724.386	350.78
724.729	345.36
725.071	337.45
725.413	344
725.755	328.64
726.097	329.77
726.439	325.7
726.782	344.23
727.124	331.35
727.465	357.34
727.807	350.78
728.149	338.58
728.491	332.48
728.833	327.96
729.175	346.49
729.516	323.89
729.858	318.24
730.199	331.35
730.541	312.59
730.882	312.82
731.224	330.9
731.565	324.12
731.906	314.17
732.248	338.35
732.589	344.91
732.93	316.21
733.271	332.93
733.612	327.51
733.953	340.39
734.294	332.7
734.635	332.7
734.976	348.3
735.317	334.51
735.658	327.51
735.999	330.22
736.339	329.09
736.68	332.25
737.021	312.59
737.361	342.19
737.702	347.17
738.042	323.44
738.383	328.86
738.723	336.54
739.063	329.99
739.404	337.9
739.744	343.55
740.084	311.69
740.424	338.13
740.764	320.27
741.104	339.03
741.444	344.91
741.784	319.14
742.124	332.25
742.464	337.67
742.804	327.05
743.143	344
743.483	327.96
743.823	338.35
744.162	329.54
744.502	323.89
744.841	341.52
745.181	318.01
745.52	311.69
745.86	317.79
746.199	339.93
746.538	325.92
746.877	337.45
747.216	307.39
747.556	353.49
747.895	326.38
748.234	327.73
748.573	341.74
748.911	324.34
749.25	315.98
749.589	327.96
749.928	324.79
750.267	328.64
750.605	327.51
750.944	329.99
751.283	319.37
751.621	329.31
751.96	345.58
752.298	317.56
752.636	324.57
752.975	331.57
753.313	346.26
753.651	323.66
753.989	322.76
754.327	317.34
754.666	335.19
755.004	322.53
755.342	332.7
755.679	336.09
756.017	324.79
756.355	327.28
756.693	338.8
757.031	319.14
757.368	331.57
757.706	332.03
758.044	332.93
758.381	334.06
758.719	333.16
759.056	328.86
759.394	342.65
759.731	322.99
760.068	339.48
760.405	311.23
760.743	347.17
761.08	323.44
761.417	318.24
761.754	340.61
762.091	335.87
762.428	317.34
762.765	329.31
763.102	338.35
763.438	322.08
763.775	308.52
764.112	330.22
764.449	333.61
764.785	324.12
765.122	312.59
765.458	312.82
765.795	317.34
766.131	329.54
766.467	322.99
766.804	319.82
767.14	313.27
767.476	332.25
767.812	345.36
768.148	334.96
768.485	314.17
768.821	322.31
769.157	360.27
769.492	316.88
769.828	334.74
770.164	314.85
770.5	320.5
770.836	332.25
771.171	338.8
771.507	354.62
771.842	330.9
772.178	317.34
772.513	319.37
772.849	324.34
773.184	298.13
773.519	324.57
773.855	331.8
774.19	308.3
774.525	310.33
774.86	336.32
775.195	323.66
775.53	341.97
775.865	326.6
776.2	329.31
776.535	344.23
776.87	318.01
777.205	311.91
777.539	322.76
777.874	323.44
778.209	344
778.543	314.85
778.878	324.57
779.212	319.82
779.547	320.95
779.881	307.62
780.215	306.49
780.55	321.4
780.884	305.13
781.218	338.13
781.552	318.24
781.886	324.12
782.22	320.73
782.554	340.16
782.888	338.8
783.222	333.16
783.556	323.66
783.889	328.86
784.223	294.06
784.557	334.96
784.89	326.38
785.224	339.71
785.557	292.7
785.891	330.9
786.224	333.61
786.558	308.75
786.891	318.24
787.224	329.54
787.557	322.31
787.891	330.67
788.224	312.36
788.557	300.39
788.89	327.96
789.223	313.49
789.556	325.47
789.888	314.62
790.221	322.76
790.554	335.41
790.887	315.53
791.219	326.6
791.552	330.9
791.884	326.6
792.217	297.9
792.549	323.89
792.882	331.35
793.214	326.6
793.546	320.05
793.879	314.62
794.211	332.48
794.543	312.59
794.875	318.92
795.207	319.14
795.539	310.33
795.871	322.76
796.203	307.62
796.535	316.88
796.867	337.67
797.198	337.22
797.53	340.39
797.862	314.4
798.193	314.4
798.525	325.02
798.856	321.18
799.188	310.1
799.519	318.24
799.85	317.34
800.182	324.12
800.513	306.94
800.844	319.6
801.175	317.56
801.506	327.96
801.837	326.83
802.168	325.47
802.499	309.2
802.83	322.53
803.161	310.1
803.491	324.57
803.822	313.27
804.153	341.06
804.483	309.65
804.814	310.78
805.145	328.18
805.475	322.31
805.805	339.71
806.136	308.97
806.466	317.79
806.796	317.11
807.126	325.92
807.457	334.28
807.787	329.77
808.117	316.21
808.447	322.76
808.777	333.61
809.107	307.17
809.436	325.47
809.766	329.54
810.096	320.95
810.426	312.59
810.755	311.23
811.085	295.64
811.414	308.75
811.744	319.37
812.073	321.86
812.403	311.46
812.732	325.7
813.061	324.79
813.39	322.76
813.719	310.78
814.049	323.89
814.378	304.23
814.707	331.35
815.036	327.51
815.365	315.53
815.693	314.62
816.022	319.14
816.351	312.59
816.68	323.89
817.008	321.18
817.337	295.19
817.665	322.76
817.994	322.76
818.322	330.67
818.651	330.44
818.979	310.33
819.307	323.44
819.636	328.41
819.964	320.73
820.292	309.2
820.62	317.56
820.948	328.41
821.276	320.27
821.604	315.3
821.932	316.88
822.259	332.48
822.587	313.95
822.915	315.3
823.243	297.9
823.57	324.12
823.898	322.31
824.225	311.91
824.553	320.05
824.88	326.83
825.207	312.36
825.535	322.31
825.862	324.34
826.189	323.66
826.516	318.47
826.843	320.5
827.17	328.41
827.497	319.6
827.824	333.38
828.151	339.71
828.478	323.21
828.805	351.01
829.131	333.61
829.458	316.66
829.785	325.25
830.111	305.13
830.438	299.26
830.764	313.72
831.09	300.61
831.417	299.94
831.743	316.21
832.069	337
832.395	323.44
832.722	313.49
833.048	337.22
833.374	322.99
833.7	320.05
834.026	320.5
834.351	306.94
834.677	324.12
835.003	309.2
835.329	304.46
835.654	308.52
835.98	316.21
836.306	315.53
836.631	296.55
836.956	328.41
837.282	325.7
837.607	322.31
837.932	325.92
838.258	317.56
838.583	324.12
838.908	323.66
839.233	316.43
839.558	334.74
839.883	327.96
840.208	329.54
840.533	340.61
840.858	331.8
841.182	293.61
841.507	310.56
841.832	326.6
842.156	319.37
842.481	336.32
842.805	316.88
843.13	322.76
843.454	322.76
843.778	332.25
844.103	322.08
844.427	315.08
844.751	306.72
845.075	309.65
845.399	307.62
845.723	315.75
846.047	327.96
846.371	328.64
846.695	327.28
847.019	316.43
847.343	319.82
847.666	337.9
847.99	319.6
848.313	330.9
848.637	319.6
848.96	320.5
849.284	301.29
849.607	338.35
849.931	316.43
850.254	323.66
850.577	318.92
850.9	320.73
851.223	319.6
851.546	328.41
851.869	317.34
852.192	317.34
852.515	329.99
852.838	316.66
853.161	314.62
853.483	334.06
853.806	324.12
854.129	303.78
854.451	307.85
854.774	343.55
855.096	328.86
855.419	320.5
855.741	283.89
856.063	325.7
856.385	325.02
856.708	321.86
857.03	310.33
857.352	332.7
857.674	327.51
857.996	309.65
858.318	318.92
858.64	339.71
858.961	309.2
859.283	330.22
859.605	314.17
859.926	320.05
860.248	324.79
860.57	319.37
860.891	340.39
861.212	323.89
861.534	313.49
861.855	326.15
862.176	339.48
862.498	311.23
862.819	321.18
863.14	317.56
863.461	298.58
863.782	335.64
864.103	313.95
864.424	331.12
864.745	287.51
865.065	321.86
865.386	325.47
865.707	321.18
866.027	318.01
866.348	309.88
866.668	325.92
866.989	335.19
867.309	321.63
867.63	306.94
867.95	324.79
868.27	321.18
868.59	325.7
868.91	320.95
869.23	297.9
869.55	320.27
869.87	314.4
870.19	321.86
870.51	333.83
870.83	311.23
871.15	316.21
871.469	336.54
871.789	322.76
872.109	334.51
872.428	305.59
872.748	311.91
873.067	323.21
873.386	324.12
873.706	297
874.025	313.95
874.344	307.62
874.663	324.79
874.982	318.01
875.301	308.97
875.62	331.8
875.939	312.36
876.258	314.17
876.577	314.4
876.896	320.95
877.214	322.53
877.533	331.12
877.852	339.71
878.17	311.91
878.489	309.43
878.807	321.4
879.125	325.47
879.444	332.25
879.762	310.33
880.08	285.92
880.398	328.41
880.716	324.79
881.034	335.41
881.352	339.03
881.67	334.96
881.988	315.3
882.306	311.23
882.624	319.14
882.941	329.09
883.259	326.38
883.577	318.24
883.894	325.7
884.212	309.2
884.529	310.78
884.846	316.43
885.164	321.86
885.481	311.23
885.798	279.37
886.115	310.78
886.432	317.34
886.75	305.13
887.067	315.08
887.383	309.65
887.7	313.95
888.017	329.99
888.334	329.54
888.651	325.92
888.967	320.5
889.284	332.25
889.6	337
889.917	339.93
890.233	336.77
890.55	307.62
890.866	310.1
891.182	319.82
891.498	317.79
891.815	308.75
892.131	323.89
892.447	326.6
892.763	340.16
893.079	321.86
893.395	320.5
893.71	302.65
894.026	324.12
894.342	325.7
894.657	333.61
894.973	322.53
895.289	313.49
895.604	294.74
895.92	326.15
896.235	323.44
896.55	305.59
896.865	343.78
897.181	315.75
897.496	319.37
897.811	310.78
898.126	316.43
898.441	332.25
898.756	313.49
899.071	322.99
899.386	308.3
899.7	303.78
900.015	297
900.33	328.64
900.644	315.75
900.959	316.66
901.273	309.65
901.588	326.38
901.902	339.03
902.216	310.78
902.531	300.39
902.845	304.46
903.159	305.81
903.473	312.14
903.787	318.47
904.101	310.78
904.415	308.3
904.729	341.06
905.042	297
905.356	282.53
905.67	326.6
905.984	329.54
906.297	308.52
906.611	294.74
906.924	307.85
907.237	311.23
907.551	321.86
907.864	317.34
908.177	302.65
908.491	318.69
908.804	325.02
909.117	328.18
909.43	325.47
909.743	311.91
910.056	306.26
910.368	308.07
910.681	322.99
910.994	327.96
911.307	329.54
911.619	336.54
911.932	319.14
912.244	332.93
912.557	320.73
912.869	322.99
913.181	319.6
913.494	318.69
913.806	304.46
914.118	306.72
914.43	304
914.742	301.29
915.054	313.95
915.366	307.17
915.678	339.71
915.99	316.88
916.302	317.11
916.613	311.69
916.925	305.59
917.236	318.69
917.548	309.65
917.859	298.13
918.171	320.95
918.482	332.48
918.794	314.62
919.105	295.64
919.416	318.01
919.727	321.4
920.038	329.54
920.349	335.41
920.66	307.62
920.971	322.31
921.282	304.23
921.593	313.49
921.903	292.25
922.214	308.07
922.525	314.4
922.835	327.73
923.146	304
923.456	304.46
923.767	331.57
924.077	302.87
924.387	297
924.697	312.82
925.008	308.97
925.318	316.43
925.628	300.16
925.938	327.96
926.248	315.3
926.558	324.34
926.867	302.2
927.177	310.56
927.487	316.88
927.796	310.78
928.106	306.72
928.416	314.4
928.725	318.24
929.034	305.13
929.344	304.91
929.653	330.44
929.962	328.86
930.271	285.02
930.581	312.82
930.89	315.53
931.199	306.04
931.508	309.2
931.817	298.81
932.125	308.52
932.434	332.03
932.743	324.79
933.051	329.09
933.36	310.1
933.669	304.91
933.977	321.4
934.286	334.06
934.594	301.74
934.902	317.79
935.21	320.05
935.519	307.39
935.827	320.5
936.135	322.08
936.443	320.27
936.751	327.73
937.059	321.18
937.367	305.36
937.674	304.23
937.982	326.83
938.29	337
938.597	329.31
938.905	295.64
939.213	302.42
939.52	314.62
939.827	309.65
940.135	330.9
940.442	346.04
940.749	318.01
941.056	322.99
941.363	328.86
941.67	301.74
941.977	320.73
942.284	297.9
942.591	319.37
942.898	312.82
943.205	306.04
943.511	302.65
943.818	306.72
944.125	315.3
944.431	307.17
944.738	298.81
945.044	300.84
945.35	311.46
945.657	310.33
945.963	317.79
946.269	303.33
946.575	312.14
946.881	320.27
947.187	329.99
947.493	305.13
947.799	297.45
948.105	330.22
948.41	293.16
948.716	320.73
949.022	295.64
949.327	310.78
949.633	315.98
949.938	309.88
950.244	321.63
950.549	332.7
950.854	323.21
951.16	321.18
951.465	323.66
951.77	308.07
952.075	316.43
952.38	321.86
952.685	318.69
952.99	321.18
953.294	322.08
953.599	320.5
953.904	298.13
954.209	309.2
954.513	315.98
954.818	312.36
955.122	322.76
955.426	335.41
955.731	342.19
956.035	302.65
956.339	308.3
956.643	332.7
956.948	323.89
957.252	307.62
957.556	311.46
957.86	312.14
958.163	317.11
958.467	313.72
958.771	302.42
959.075	310.33
959.378	323.21
959.682	333.16
959.985	326.38
960.289	320.73
960.592	323.44
960.896	328.64
961.199	318.47
961.502	315.98
961.805	311.69
962.108	308.52
962.411	305.81
962.714	298.35
963.017	302.65
963.32	314.4
963.623	324.34
963.926	297.9
964.228	327.51
964.531	317.56
964.833	323.44
965.136	316.66
965.438	324.12
965.741	328.86
966.043	320.73
966.345	299.94
966.648	299.26
966.95	322.76
967.252	299.26
967.554	304.91
967.856	298.58
968.158	301.07
968.46	317.79
968.761	304.91
969.063	323.21
969.365	302.87
969.666	307.62
969.968	316.66
970.269	318.24
970.571	310.1
970.872	310.78
971.174	318.47
971.475	306.94
971.776	321.18
972.077	291.57
972.378	318.47
972.679	318.01
972.98	299.71
973.281	306.94
973.582	308.3
973.883	310.1
974.183	318.24
974.484	324.12
974.785	299.48
975.085	309.2
975.386	310.78
975.686	306.72
975.986	311.69
976.287	316.21
976.587	315.08
976.887	339.26
977.187	318.69
977.487	296.77
977.787	316.88
978.087	310.33
978.387	319.37
978.687	325.47
978.987	306.49
979.286	300.39
979.586	309.43
979.885	309.2
980.185	306.04
980.484	306.72
980.784	313.49
981.083	308.07
981.382	311.91
981.682	312.14
981.981	328.64
982.28	299.94
982.579	325.92
982.878	317.11
983.177	303.33
983.475	342.87
983.774	310.56
984.073	309.2
984.372	321.86
984.67	307.39
984.969	296.77
985.267	338.8
985.566	328.64
985.864	330.67
986.162	314.17
986.461	318.92
986.759	318.69
987.057	302.65
987.355	316.88
987.653	327.28
987.951	306.04
988.249	303.55
988.547	334.06
988.844	300.16
989.142	285.25
989.44	313.27
989.737	309.2
990.035	328.64
990.332	312.82
990.63	309.88
990.927	322.76
991.224	303.1
991.521	330.44
991.819	325.02
992.116	315.75
992.413	309.88
992.71	320.05
993.006	331.35
993.303	308.75
993.6	305.59
993.897	311.91
994.193	295.42
994.49	314.62
994.787	317.79
995.083	301.74
995.379	309.43
995.676	295.64
995.972	306.26
996.268	291.35
996.565	289.09
996.861	316.66
997.157	312.36
997.453	311.23
997.749	327.28
998.044	284.34
998.34	289.54
998.636	299.94
998.932	309.65
999.227	314.4
999.523	313.27
999.818	306.04
1000.114	315.3
1000.409	321.18
1000.704	314.62
1001	298.58
1001.295	315.3
1001.59	303.1
1001.885	325.92
1002.18	308.52
1002.475	318.47
1002.77	299.94
1003.065	295.19
1003.359	291.8
1003.654	305.13
1003.949	305.36
1004.243	310.56
1004.538	324.79
1004.832	319.37
1005.127	325.02
1005.421	316.66
1005.715	336.09
1006.009	309.65
1006.304	313.04
1006.598	297.22
1006.892	311.46
1007.186	308.97
1007.48	309.88
1007.773	308.97
1008.067	303.33
1008.361	313.72
1008.655	328.41
1008.948	321.63
1009.242	305.13
1009.535	320.5
1009.829	300.39
1010.122	324.12
1010.415	293.38
1010.708	310.1
1011.001	321.4
1011.295	337
1011.588	315.3
1011.881	328.86
1012.173	281.41
1012.466	322.99
1012.759	305.81
1013.052	325.7
1013.344	335.19
1013.637	308.07
1013.93	314.4
1014.222	310.1
1014.514	304.23
1014.807	309.65
1015.099	307.17
1015.391	318.24
1015.683	307.62
1015.976	309.65
1016.268	324.34
1016.56	321.18
1016.851	312.59
1017.143	324.12
1017.435	327.51
1017.727	329.09
1018.018	320.05
1018.31	314.62
1018.602	304
1018.893	326.6
1019.185	330.67
1019.476	312.59
1019.767	323.44
1020.058	310.33
1020.35	305.36
1020.641	320.95
1020.932	321.4
1021.223	312.82
1021.514	315.98
1021.804	299.03
1022.095	322.31
1022.386	296.55
1022.677	299.71
1022.967	318.01
1023.258	315.98
1023.548	312.82
1023.839	311.23
1024.129	309.65
1024.419	306.72
1024.709	328.18
1025	301.97
1025.29	311.91
1025.58	340.84
1025.87	320.27
1026.16	313.49
1026.449	311.23
1026.739	296.32
1027.029	323.66
1027.319	306.94
1027.608	317.79
1027.898	320.27
1028.187	314.62
1028.477	298.13
1028.766	325.7
1029.055	305.59
1029.344	316.43
1029.634	301.74
1029.923	313.49
1030.212	308.07
1030.501	326.15
1030.79	304.68
1031.078	313.27
1031.367	315.75
1031.656	308.3
1031.945	332.03
1032.233	309.65
1032.522	310.56
1032.81	312.82
1033.099	314.4
1033.387	310.1
1033.675	313.27
1033.963	319.6
1034.251	300.61
1034.54	304.46
1034.828	311.91
1035.116	307.62
1035.403	311.69
1035.691	306.94
1035.979	315.75
1036.267	339.93
1036.554	309.65
1036.842	300.84
1037.129	306.04
1037.417	312.82
1037.704	308.52
1037.992	316.66
1038.279	312.36
1038.566	321.86
1038.853	321.86
1039.14	321.86
