Data from No_light_on_white_reflection_standard_FLMS001491_088.txt Node
Date: Tue Feb 07 10:33:09 GMT 2017
User: dcchb
Spectrometer: FLMS00149
Trigger mode: 0
Integration Time (sec): 2.000000E-2
Scans to average: 10
Electric dark correction enabled: true
Nonlinearity correction enabled: false
Boxcar width: 0
XAxis mode: Wavelengths
Number of Pixels in Spectrum: 2048
>>>>>Begin Spectral Data<<<<<
341.393	-14.69
341.776	-14.69
342.16	-14.69
342.543	-68.92
342.927	-71.18
343.31	-76.38
343.693	-73.22
344.077	-64.86
344.46	-59.66
344.843	-52.88
345.226	-52.65
345.61	-31.19
345.993	-15.14
346.376	-4.29
346.759	12.88
347.142	52.2
347.525	43.61
347.908	62.6
348.291	77.06
348.674	81.58
349.057	100.34
349.44	117.74
349.823	109.83
350.206	157.28
350.588	163.39
350.971	199.09
351.354	214.23
351.737	186.89
352.119	203.84
352.502	240.22
352.884	237.51
353.267	242.48
353.65	248.81
354.032	262.37
354.414	254.91
354.797	251.07
355.179	272.54
355.562	283.16
355.944	287.22
356.326	276.83
356.709	291.29
357.091	309.37
357.473	311.4
357.855	275.02
358.238	295.13
358.62	284.96
359.002	300.33
359.384	301.01
359.766	289.94
360.148	317.96
360.53	301.91
360.912	312.31
361.294	285.42
361.676	295.59
362.057	279.99
362.439	297.17
362.821	291.52
363.203	294
363.584	296.49
363.966	290.16
364.348	272.31
364.729	286.55
365.111	266.43
365.493	270.95
365.874	269.82
366.256	259.2
366.637	290.16
367.019	272.54
367.4	263.27
367.781	274.57
368.163	255.59
368.544	265.08
368.925	282.7
369.306	264.85
369.688	281.8
370.069	273.21
370.45	284.29
370.831	289.94
371.212	280.44
371.593	283.61
371.974	281.12
372.355	270.05
372.736	280.44
373.117	280.9
373.498	263.95
373.879	258.3
374.26	253.78
374.641	270.95
375.021	275.25
375.402	264.17
375.783	290.84
376.163	269.37
376.544	284.29
376.925	284.96
377.305	270.05
377.686	289.71
378.066	272.31
378.447	267.34
378.827	255.13
379.208	277.28
379.588	264.63
379.968	277.51
380.349	292.42
380.729	295.36
381.109	315.25
381.489	277.51
381.87	291.07
382.25	270.95
382.63	284.06
383.01	294.23
383.39	277.05
383.77	317.05
384.15	279.99
384.53	273.21
384.91	271.18
385.29	288.13
385.67	282.93
386.049	308.01
386.429	298.52
386.809	275.92
387.189	291.52
387.568	283.61
387.948	304.85
388.328	297.85
388.707	285.19
389.087	288.13
389.466	277.96
389.846	285.87
390.225	284.74
390.605	280.44
390.984	292.42
391.363	282.7
391.743	283.38
392.122	282.25
392.501	290.61
392.881	315.47
393.26	288.35
393.639	288.58
394.018	290.61
394.397	291.97
394.776	301.24
395.155	284.29
395.534	281.12
395.913	296.72
396.292	301.24
396.671	298.07
397.05	288.35
397.429	310.27
397.808	291.29
398.186	276.6
398.565	268.47
398.944	289.26
399.323	288.81
399.701	310.95
400.08	304.17
400.458	299.2
400.837	272.08
401.215	290.84
401.594	315.47
401.972	295.59
402.351	314.34
402.729	275.47
403.107	298.07
403.486	302.59
403.864	293.1
404.242	308.92
404.62	298.75
404.999	299.2
405.377	287
405.755	306.21
406.133	294
406.511	311.18
406.889	296.04
407.267	311.4
407.645	304.4
408.023	293.1
408.401	306.21
408.779	271.86
409.156	295.36
409.534	283.83
409.912	317.51
410.29	327.45
410.667	318.41
411.045	311.4
411.422	321.8
411.8	300.78
412.178	303.04
412.555	291.29
412.933	289.26
413.31	312.76
413.687	304.62
414.065	310.5
414.442	296.49
414.819	284.74
415.197	306.88
415.574	284.74
415.951	289.48
416.328	311.4
416.705	325.87
417.082	313.89
417.46	298.07
417.837	303.72
418.214	321.12
418.591	316.15
418.967	308.24
419.344	303.27
419.721	288.81
420.098	296.72
420.475	300.56
420.852	303.72
421.228	311.4
421.605	301.46
421.982	298.3
422.358	293.55
422.735	314.79
423.111	304.4
423.488	291.74
423.864	299.88
424.241	307.34
424.617	298.52
424.994	316.6
425.37	314.79
425.746	304.17
426.123	312.99
426.499	309.37
426.875	303.04
427.251	328.35
427.627	311.86
428.003	327.67
428.379	310.5
428.756	313.44
429.132	295.81
429.507	301.46
429.883	311.18
430.259	322.03
430.635	309.14
431.011	311.4
431.387	327.22
431.763	324.74
432.138	310.73
432.514	325.42
432.89	331.06
433.265	334.68
433.641	317.28
434.016	316.83
434.392	322.48
434.767	327.45
435.143	305.53
435.518	320.22
435.894	336.26
436.269	328.13
436.644	329.48
437.02	334.45
437.395	322.7
437.77	331.52
438.145	314.34
438.52	314.34
438.895	329.26
439.271	333.1
439.646	315.92
440.021	324.51
440.395	342.59
440.77	319.77
441.145	316.6
441.52	328.8
441.895	339.65
442.27	332.19
442.645	342.36
443.019	334.91
443.394	345.08
443.769	334.23
444.143	334.91
444.518	349.14
444.892	327.22
445.267	328.8
445.641	348.24
446.016	349.37
446.39	338.07
446.764	367.9
447.139	342.82
447.513	357.05
447.887	364.74
448.262	358.86
448.636	359.09
449.01	342.14
449.384	336.26
449.758	360.67
450.132	368.58
450.506	353.44
450.88	360.89
451.254	357.96
451.628	357.96
452.002	375.81
452.376	363.61
452.75	339.2
453.123	365.64
453.497	358.41
453.871	355.47
454.244	376.26
454.618	350.73
454.992	350.73
455.365	366.54
455.739	373.1
456.112	366.77
456.486	346.66
456.859	374.68
457.232	359.09
457.606	363.15
457.979	360.22
458.352	357.05
458.725	373.1
459.099	368.35
459.472	354.79
459.845	375.81
460.218	356.83
460.591	362.93
460.964	355.7
461.337	364.74
461.71	353.44
462.083	342.36
462.456	364.74
462.829	365.41
463.201	351.18
463.574	354.34
463.947	375.13
464.32	350.73
464.692	372.19
465.065	355.24
465.438	365.41
465.81	348.01
466.183	331.52
466.555	343.04
466.928	359.99
467.3	345.08
467.672	350.95
468.045	325.64
468.417	357.05
468.789	350.95
469.161	362.02
469.534	343.49
469.906	343.72
470.278	367.9
470.65	350.05
471.022	365.64
471.394	362.48
471.766	355.02
472.138	338.97
472.51	325.64
472.882	348.92
473.253	324.74
473.625	348.92
473.997	370.61
474.369	369.71
474.74	362.48
475.112	349.82
475.484	351.86
475.855	355.24
476.227	325.64
476.598	322.7
476.97	336.04
477.341	343.95
477.713	344.17
478.084	364.96
478.455	366.77
478.827	361.12
479.198	331.74
479.569	323.38
479.94	319.77
480.311	352.31
480.682	357.05
481.053	363.38
481.424	349.37
481.795	371.97
482.166	349.14
482.537	359.76
482.908	363.15
483.279	355.92
483.65	353.44
484.021	349.6
484.391	354.79
484.762	358.86
485.133	365.19
485.503	355.7
485.874	353.89
486.244	343.72
486.615	368.35
486.985	352.08
487.356	376.04
487.726	349.14
488.097	377.39
488.467	372.87
488.837	355.24
489.207	356.15
489.578	348.92
489.948	388.01
490.318	352.99
490.688	383.49
491.058	377.39
491.428	380.78
491.798	381.68
492.168	363.15
492.538	371.52
492.908	374.45
493.278	376.49
493.648	383.04
494.017	385.75
494.387	389.59
494.757	373.55
495.126	374.91
495.496	388.24
495.866	378.75
496.235	371.74
496.605	386.66
496.974	382.81
497.344	377.17
497.713	395.24
498.082	403.15
498.452	411.97
498.821	373.78
499.19	399.99
499.559	394.57
499.928	410.61
500.298	395.92
500.667	399.99
501.036	374
501.405	391.85
501.774	390.5
502.143	392.08
502.512	395.7
502.88	395.7
503.249	401.12
503.618	393.44
503.987	387.79
504.356	409.25
504.724	403.61
505.093	389.82
505.462	397.5
505.83	404.74
506.199	405.64
506.567	408.8
506.936	401.35
507.304	422.36
507.672	419.42
508.041	407.67
508.409	429.14
508.777	425.07
509.145	416.03
509.514	424.17
509.882	419.2
510.25	441.8
510.618	432.08
510.986	427.56
511.354	420.55
511.722	424.62
512.09	417.16
512.458	439.99
512.826	421.68
513.193	430.72
513.561	433.66
513.929	443.38
514.297	450.84
514.664	434.11
515.032	454.23
515.4	444.06
515.767	439.31
516.135	432.31
516.502	457.62
516.869	457.84
517.237	454.23
517.604	467.11
517.972	445.86
518.339	462.13
518.706	452.87
519.073	472.76
519.44	457.62
519.808	470.5
520.175	460.78
520.542	454.9
520.909	474.11
521.276	472.98
521.643	458.07
522.009	471.17
522.376	457.84
522.743	470.27
523.11	470.72
523.477	490.16
523.843	463.26
524.21	472.76
524.577	465.75
524.943	475.24
525.31	473.21
525.676	477.5
526.043	473.21
526.409	478.18
526.776	477.28
527.142	479.99
527.508	499.2
527.874	478.41
528.241	507.56
528.607	472.53
528.973	479.76
529.339	493.77
529.705	486.09
530.071	481.8
530.437	486.31
530.803	497.84
531.169	477.95
531.535	492.19
531.901	504.85
532.267	498.52
532.632	523.15
532.998	500.33
533.364	495.58
533.73	484.73
534.095	481.8
534.461	495.58
534.826	512.98
535.192	497.84
535.557	499.42
535.923	508.91
536.288	507.33
536.653	518.18
537.019	500.55
537.384	501.68
537.749	514.56
538.114	486.31
538.479	493.55
538.845	513.66
539.21	506.65
539.575	508.69
539.94	507.56
540.305	512.08
540.67	500.78
541.034	514.11
541.399	506.2
541.764	508.24
542.129	530.38
542.494	507.33
542.858	509.82
543.223	512.98
543.587	518.4
543.952	505.07
544.316	525.41
544.681	512.08
545.045	509.82
545.41	521.12
545.774	519.08
546.138	520.66
546.503	503.72
546.867	528.57
547.231	533.55
547.595	504.85
547.959	502.13
548.324	507.78
548.688	515.24
549.052	534.22
549.416	516.82
549.779	528.8
550.143	524.05
550.507	518.86
550.871	506.2
551.235	543.71
551.599	536.03
551.962	538.29
552.326	531.96
552.689	546.2
553.053	533.32
553.417	536.94
553.78	544.62
554.143	540.78
554.507	536.48
554.87	536.26
555.234	554.11
555.597	540.55
555.96	524.28
556.323	533.09
556.686	546.65
557.05	537.16
557.413	548.01
557.776	565.63
558.139	554.11
558.502	562.7
558.865	543.94
559.228	532.87
559.59	543.94
559.953	553.43
560.316	564.28
560.679	531.06
561.041	554.34
561.404	571.06
561.767	542.81
562.129	573.09
562.492	553.43
562.854	550.95
563.217	566.76
563.579	571.51
563.941	554.11
564.304	564.05
564.666	546.88
565.028	565.41
565.39	558.86
565.753	574.67
566.115	569.93
566.477	564.05
566.839	548.01
567.201	543.94
567.563	583.49
567.925	581
568.287	567.67
568.648	589.81
569.01	565.63
569.372	550.27
569.734	581
570.095	564.5
570.457	577.39
570.819	572.87
571.18	584.17
571.542	584.17
571.903	579.65
572.265	580.55
572.626	591.17
572.987	587.33
573.349	575.35
573.71	577.61
574.071	584.62
574.432	583.94
574.794	579.65
575.155	589.82
575.516	601.79
575.877	602.24
576.238	593.88
576.599	611.74
576.96	581.91
577.32	576.71
577.681	577.16
578.042	571.28
578.403	597.27
578.763	594.56
579.124	602.47
579.485	565.63
579.845	592.3
580.206	584.62
580.566	583.04
580.927	585.07
581.287	580.32
581.648	591.85
582.008	604.96
582.368	586.43
582.728	580.78
583.089	593.43
583.449	602.47
583.809	552.08
584.169	600.89
584.529	600.44
584.889	585.07
585.249	576.03
585.609	582.58
585.969	588.46
586.329	584.84
586.688	582.13
587.048	582.81
587.408	574.22
587.768	577.39
588.127	581.23
588.487	580.32
588.846	573.32
589.206	594.33
589.565	580.32
589.925	586.43
590.284	577.16
590.643	587.1
591.003	607.89
591.362	568.57
591.721	592.53
592.08	574.45
592.44	572.19
592.799	564.28
593.158	557.05
593.517	571.28
593.876	573.54
594.235	584.39
594.593	567.44
594.952	581.68
595.311	582.58
595.67	578.52
596.029	580.78
596.387	576.26
596.746	568.35
597.104	571.96
597.463	577.84
597.822	566.09
598.18	571.96
598.538	573.77
598.897	589.81
599.255	573.77
599.613	562.47
599.972	583.71
600.33	582.36
600.688	547.78
601.046	567.22
601.404	579.65
601.762	557.27
602.12	572.19
602.478	595.24
602.836	563.38
603.194	567.89
603.552	561.79
603.91	561.12
604.268	566.54
604.625	556.82
604.983	581.23
605.341	557.27
605.698	570.61
606.056	577.39
606.413	578.29
606.771	550.04
607.128	574.22
607.485	529.03
607.843	535.58
608.2	553.88
608.557	549.14
608.914	566.76
609.272	560.66
609.629	558.86
609.986	563.83
610.343	572.19
610.7	565.86
611.057	556.37
611.414	547.56
611.771	541.68
612.127	554.79
612.484	570.61
612.841	550.95
613.198	536.94
613.554	547.33
613.911	545.52
614.267	537.39
614.624	525.18
614.98	562.47
615.337	551.17
615.693	549.82
616.05	536.26
616.406	545.07
616.762	543.94
617.118	549.82
617.475	532.42
617.831	535.13
618.187	540.55
618.543	543.26
618.899	562.7
619.255	527.9
619.611	528.8
619.967	518.4
620.323	540.78
620.678	531.96
621.034	541.45
621.39	538.29
621.746	517.73
622.101	510.04
622.457	534.45
622.812	529.7
623.168	504.85
623.523	513.88
623.879	533.09
624.234	499.87
624.589	516.82
624.945	511.4
625.3	511.4
625.655	509.37
626.01	502.13
626.365	523.15
626.72	504.17
627.075	511.4
627.43	486.09
627.785	520.89
628.14	511.17
628.495	494.22
628.85	480.67
629.205	503.49
629.559	515.69
629.914	497.61
630.269	500.78
630.623	502.59
630.978	503.04
631.332	503.04
631.687	492.19
632.041	498.74
632.396	497.16
632.75	488.8
633.104	500.78
633.459	485.86
633.813	493.55
634.167	459.42
634.521	500.33
634.875	474.56
635.229	476.15
635.583	460.33
635.937	474.56
636.291	468.91
636.645	463.49
636.999	479.76
637.352	486.31
637.706	477.73
638.06	489.7
638.413	476.6
638.767	477.05
639.121	486.99
639.474	472.98
639.828	453.77
640.181	476.15
640.534	475.47
640.888	476.37
641.241	463.49
641.594	444.28
641.947	450.16
642.301	460.78
642.654	432.31
643.007	460.78
643.36	451.06
643.713	462.59
644.066	472.08
644.419	440.89
644.771	462.81
645.124	459.2
645.477	463.72
645.83	455.81
646.182	442.02
646.535	451.06
646.888	443.6
647.24	463.49
647.593	417.16
647.945	430.95
648.298	435.69
648.65	433.66
649.002	454.9
649.355	434.11
649.707	427.33
650.059	432.31
650.411	445.64
650.763	420.33
651.115	448.35
651.467	429.59
651.819	415.58
652.171	464.17
652.523	420.33
652.875	418.97
653.227	422.59
653.578	451.97
653.93	451.29
654.282	432.76
654.633	430.5
654.985	415.36
655.337	428.69
655.688	421.01
656.039	405.87
656.391	414.45
656.742	411.51
657.094	414
657.445	402.02
657.796	401.57
658.147	401.8
658.498	431.18
658.849	403.15
659.2	410.38
659.551	418.97
659.902	410.16
660.253	430.27
660.604	399.99
660.955	402.02
661.306	402.02
661.656	410.84
662.007	407.67
662.358	420.33
662.708	417.62
663.059	388.92
663.409	394.79
663.76	400.22
664.11	417.62
664.461	395.24
664.811	389.82
665.161	397.28
665.511	415.13
665.862	378.07
666.212	394.11
666.562	407.67
666.912	384.4
667.262	379.43
667.612	398.18
667.962	383.04
668.312	407.9
668.662	395.24
669.011	389.14
669.361	368.58
669.711	394.57
670.06	403.61
670.41	411.97
670.76	384.62
671.109	391.85
671.459	394.57
671.808	381.01
672.157	378.97
672.507	368.13
672.856	394.34
673.205	392.98
673.554	371.29
673.904	389.82
674.253	377.39
674.602	398.86
674.951	376.04
675.3	377.62
675.649	391.18
675.998	369.03
676.346	366.54
676.695	415.36
677.044	362.25
677.393	376.94
677.741	392.08
678.09	383.04
678.438	408.35
678.787	360.89
679.135	385.07
679.484	383.49
679.832	371.06
680.181	376.49
680.529	383.72
680.877	383.94
681.225	360.89
681.573	362.7
681.922	379.2
682.27	363.15
682.618	352.08
682.966	385.98
683.314	392.98
683.661	373.78
684.009	365.19
684.357	376.94
684.705	346.43
685.053	358.63
685.4	360.67
685.748	366.32
686.095	371.06
686.443	367.22
686.79	373.32
687.138	353.21
687.485	378.75
687.832	346.88
688.18	349.37
688.527	334
688.874	357.96
689.221	362.02
689.568	353.44
689.915	365.87
690.262	360.67
690.609	334.23
690.956	357.73
691.303	358.18
691.65	352.76
691.997	371.06
692.344	351.18
692.69	379.65
693.037	362.25
693.383	358.18
693.73	349.82
694.077	353.89
694.423	366.54
694.769	371.97
695.116	364.28
695.462	357.96
695.808	346.21
696.155	355.47
696.501	363.83
696.847	342.82
697.193	357.28
697.539	362.02
697.885	362.25
698.231	357.96
698.577	359.09
698.923	359.76
699.269	364.96
699.614	372.42
699.96	364.74
700.306	352.99
700.651	354.34
700.997	352.08
701.342	350.05
701.688	355.24
702.033	334.91
702.379	320.22
702.724	345.98
703.069	348.69
703.415	348.69
703.76	351.63
704.105	333.78
704.45	338.52
704.795	355.92
705.14	358.18
705.485	341.46
705.83	357.96
706.175	335.36
706.52	343.04
706.865	352.08
707.209	351.18
707.554	347.34
707.899	346.21
708.243	362.25
708.588	343.72
708.932	340.78
709.277	347.34
709.621	350.05
709.966	341.46
710.31	348.92
710.654	330.84
710.998	348.24
711.342	357.96
711.687	342.82
712.031	338.52
712.375	331.74
712.719	338.75
713.063	338.07
713.407	342.59
713.75	348.47
714.094	353.89
714.438	345.53
714.782	341.91
715.125	337.17
715.469	348.24
715.812	338.07
716.156	335.13
716.499	346.88
716.843	334.68
717.186	328.35
717.53	322.7
717.873	343.04
718.216	337.17
718.559	345.08
718.902	331.06
719.246	307.79
719.589	314.12
719.932	333.32
720.275	333.78
720.617	334.68
720.96	342.36
721.303	329.03
721.646	326.55
721.989	321.8
722.331	335.81
722.674	322.93
723.016	352.76
723.359	295.13
723.701	319.99
724.044	337.39
724.386	319.54
724.729	336.04
725.071	333.1
725.413	337.17
725.755	337.62
726.097	344.4
726.439	313.21
726.782	329.26
727.124	348.01
727.465	345.98
727.807	342.14
728.149	325.87
728.491	331.06
728.833	319.99
729.175	309.37
729.516	324.96
729.858	340.56
730.199	335.58
730.541	325.87
730.882	336.94
731.224	345.3
731.565	341.91
731.906	335.58
732.248	324.06
732.589	328.13
732.93	335.13
733.271	330.84
733.612	324.29
733.953	332.42
734.294	338.97
734.635	323.38
734.976	354.34
735.317	337.62
735.658	350.5
735.999	334.68
736.339	317.05
736.68	333.55
737.021	332.65
737.361	322.7
737.702	337.39
738.042	323.83
738.383	322.93
738.723	319.99
739.063	323.16
739.404	316.6
739.744	354.57
740.084	333.55
740.424	324.74
740.764	347.79
741.104	350.27
741.444	338.75
741.784	352.31
742.124	338.3
742.464	348.47
742.804	333.78
743.143	321.12
743.483	345.75
743.823	329.93
744.162	335.81
744.502	327.22
744.841	338.52
745.181	340.78
745.52	333.55
745.86	354.79
746.199	328.58
746.538	336.71
746.877	345.08
747.216	329.93
747.556	333.78
747.895	325.64
748.234	327.45
748.573	342.36
748.911	347.34
749.25	325.64
749.589	336.71
749.928	310.95
750.267	363.15
750.605	329.71
750.944	319.77
751.283	318.64
751.621	335.36
751.96	341.46
752.298	340.1
752.636	326.55
752.975	342.36
753.313	343.72
753.651	341.01
753.989	316.6
754.327	344.4
754.666	333.32
755.004	330.39
755.342	345.08
755.679	316.83
756.017	328.8
756.355	339.2
756.693	332.87
757.031	315.92
757.368	333.1
757.706	346.43
758.044	324.96
758.381	356.15
758.719	348.92
759.056	334.91
759.394	320.22
759.731	338.97
760.068	323.61
760.405	298.07
760.743	325.64
761.08	306.66
761.417	315.25
761.754	338.97
762.091	335.13
762.428	310.05
762.765	335.36
763.102	321.8
763.438	326.32
763.775	323.38
764.112	323.61
764.449	330.39
764.785	334.91
765.122	309.82
765.458	338.75
765.795	325.64
766.131	300.56
766.467	309.37
766.804	304.62
767.14	341.91
767.476	330.16
767.812	323.38
768.148	340.33
768.485	339.88
768.821	319.31
769.157	337.17
769.492	308.01
769.828	318.18
770.164	305.3
770.5	347.56
770.836	346.88
771.171	312.76
771.507	328.35
771.842	335.13
772.178	296.04
772.513	308.24
772.849	324.51
773.184	319.09
773.519	321.8
773.855	329.71
774.19	316.38
774.525	324.96
774.86	319.31
775.195	329.03
775.53	324.51
775.865	341.23
776.2	324.29
776.535	312.53
776.87	331.74
777.205	348.47
777.539	327.22
777.874	346.21
778.209	310.95
778.543	330.84
778.878	307.34
779.212	326.55
779.547	331.97
779.881	318.64
780.215	329.93
780.55	317.05
780.884	349.14
781.218	317.28
781.552	343.72
781.886	312.99
782.22	334.68
782.554	319.31
782.888	322.48
783.222	322.25
783.556	317.28
783.889	309.6
784.223	335.58
784.557	319.09
784.89	340.78
785.224	334.68
785.557	314.34
785.891	322.93
786.224	316.15
786.558	325.87
786.891	330.84
787.224	341.91
787.557	333.1
787.891	299.88
788.224	324.96
788.557	310.27
788.89	310.27
789.223	332.42
789.556	332.19
789.888	318.86
790.221	314.34
790.554	318.64
790.887	329.03
791.219	324.06
791.552	322.25
791.884	318.41
792.217	317.05
792.549	337.39
792.882	324.06
793.214	333.55
793.546	327
793.879	319.54
794.211	331.29
794.543	326.09
794.875	334.68
795.207	323.61
795.539	328.13
795.871	324.06
796.203	341.91
796.535	319.09
796.867	319.99
797.198	325.64
797.53	322.03
797.862	328.8
798.193	331.29
798.525	333.1
798.856	298.52
799.188	314.57
799.519	315.92
799.85	300.11
800.182	331.29
800.513	308.69
800.844	323.83
801.175	338.3
801.506	335.13
801.837	312.08
802.168	320.44
802.499	336.49
802.83	316.38
803.161	297.39
803.491	314.12
803.822	327.45
804.153	317.96
804.483	308.01
804.814	310.95
805.145	324.06
805.475	327.22
805.805	316.38
806.136	329.71
806.466	308.92
806.796	341.91
807.126	325.87
807.457	312.08
807.787	315.25
808.117	310.05
808.447	331.29
808.777	319.54
809.107	298.07
809.436	324.06
809.766	316.15
810.096	336.26
810.426	333.78
810.755	352.08
811.085	333.55
811.414	296.04
811.744	309.14
812.073	316.38
812.403	325.87
812.732	319.99
813.061	321.57
813.39	325.42
813.719	319.54
814.049	319.99
814.378	329.93
814.707	320.67
815.036	326.55
815.365	304.85
815.693	306.88
816.022	298.3
816.351	322.25
816.68	321.12
817.008	298.75
817.337	345.75
817.665	343.04
817.994	311.86
818.322	320.67
818.651	335.81
818.979	314.79
819.307	305.3
819.636	314.79
819.964	329.26
820.292	301.01
820.62	314.79
820.948	335.58
821.276	320.9
821.604	319.77
821.932	310.5
822.259	334.91
822.587	325.42
822.915	319.09
823.243	327.22
823.57	304.17
823.898	326.32
824.225	300.78
824.553	311.18
824.88	326.77
825.207	332.42
825.535	315.92
825.862	322.03
826.189	325.87
826.516	333.32
826.843	326.32
827.17	332.87
827.497	329.93
827.824	317.51
828.151	330.16
828.478	345.53
828.805	315.7
829.131	316.83
829.458	320.22
829.785	310.95
830.111	333.32
830.438	316.6
830.764	302.14
831.09	331.52
831.417	319.54
831.743	321.8
832.069	348.24
832.395	316.6
832.722	327.68
833.048	331.29
833.374	328.58
833.7	318.64
834.026	320.9
834.351	317.28
834.677	317.28
835.003	325.42
835.329	312.08
835.654	339.88
835.98	336.94
836.306	315.92
836.631	328.8
836.956	324.06
837.282	324.96
837.607	316.6
837.932	305.53
838.258	309.82
838.583	320.9
838.908	315.47
839.233	314.34
839.558	308.69
839.883	296.72
840.208	330.39
840.533	315.02
840.858	332.87
841.182	324.29
841.507	302.59
841.832	314.34
842.156	331.52
842.481	313.66
842.805	319.31
843.13	321.35
843.454	321.8
843.778	297.85
844.103	314.12
844.427	326.09
844.751	307.11
845.075	322.93
845.399	318.18
845.723	328.13
846.047	315.25
846.371	313.89
846.695	307.56
847.019	327.67
847.343	310.05
847.666	308.47
847.99	316.6
848.313	319.54
848.637	321.8
848.96	314.34
849.284	323.38
849.607	318.18
849.931	313.44
850.254	315.02
850.577	328.8
850.9	326.32
851.223	311.18
851.546	316.38
851.869	310.05
852.192	320.44
852.515	323.61
852.838	325.42
853.161	327.45
853.483	324.06
853.806	329.03
854.129	335.36
854.451	311.4
854.774	316.6
855.096	316.83
855.419	315.25
855.741	313.66
856.063	331.97
856.385	315.47
856.708	329.71
857.03	311.63
857.352	310.5
857.674	316.38
857.996	320.44
858.318	333.55
858.64	324.06
858.961	322.48
859.283	321.8
859.605	314.34
859.926	299.43
860.248	315.02
860.57	312.99
860.891	338.3
861.212	319.54
861.534	331.06
861.855	319.54
862.176	326.09
862.498	322.7
862.819	288.35
863.14	310.5
863.461	314.12
863.782	317.73
864.103	331.06
864.424	323.83
864.745	317.73
865.065	321.8
865.386	319.77
865.707	313.89
866.027	320.44
866.348	334.68
866.668	323.16
866.989	313.89
867.309	323.38
867.63	322.03
867.95	317.96
868.27	322.93
868.59	334.68
868.91	321.35
869.23	312.31
869.55	301.46
869.87	317.05
870.19	322.7
870.51	332.87
870.83	339.65
871.15	319.54
871.469	324.96
871.789	317.96
872.109	308.24
872.428	325.64
872.748	323.61
873.067	325.64
873.386	303.95
873.706	324.96
874.025	316.83
874.344	303.95
874.663	313.66
874.982	319.77
875.301	290.84
875.62	320.67
875.939	329.93
876.258	336.71
876.577	313.21
876.896	318.64
877.214	321.57
877.533	300.11
877.852	320.22
878.17	320.22
878.489	338.07
878.807	319.77
879.125	304.4
879.444	318.64
879.762	318.64
880.08	317.73
880.398	334.68
880.716	321.12
881.034	334
881.352	308.01
881.67	322.48
881.988	310.95
882.306	321.57
882.624	336.26
882.941	336.26
883.259	330.39
883.577	324.96
883.894	328.35
884.212	344.85
884.529	331.06
884.846	321.8
885.164	320.22
885.481	326.09
885.798	324.29
886.115	317.96
886.432	306.21
886.75	329.03
887.067	322.25
887.383	336.71
887.7	319.09
888.017	330.16
888.334	319.77
888.651	298.07
888.967	303.95
889.284	321.12
889.6	315.47
889.917	313.44
890.233	326.32
890.55	309.82
890.866	329.93
891.182	316.6
891.498	319.09
891.815	328.58
892.131	312.76
892.447	315.7
892.763	315.47
893.079	333.32
893.395	307.56
893.71	315.92
894.026	313.66
894.342	315.47
894.657	297.17
894.973	323.16
895.289	303.27
895.604	311.86
895.92	330.61
896.235	322.93
896.55	312.76
896.865	321.57
897.181	327.22
897.496	317.73
897.811	315.47
898.126	321.8
898.441	334.91
898.756	305.75
899.071	315.47
899.386	320.44
899.7	291.74
900.015	325.87
900.33	312.08
900.644	347.79
900.959	309.6
901.273	308.24
901.588	310.05
901.902	332.42
902.216	327
902.531	326.32
902.845	322.25
903.159	315.02
903.473	324.74
903.787	328.35
904.101	298.3
904.415	312.53
904.729	317.28
905.042	317.96
905.356	325.64
905.67	325.42
905.984	328.8
906.297	321.57
906.611	319.31
906.924	282.7
907.237	316.83
907.551	330.16
907.864	313.89
908.177	309.6
908.491	310.05
908.804	326.32
909.117	307.34
909.43	314.34
909.743	325.42
910.056	331.74
910.368	340.78
910.681	313.21
910.994	320.22
911.307	302.59
911.619	302.36
911.932	334
912.244	333.32
912.557	321.12
912.869	339.65
913.181	323.38
913.494	322.7
913.806	289.48
914.118	300.11
914.43	316.15
914.742	334.68
915.054	319.77
915.366	308.69
915.678	315.47
915.99	309.37
916.302	320.9
916.613	332.42
916.925	308.92
917.236	316.83
917.548	301.69
917.859	319.54
918.171	303.72
918.482	327.45
918.794	319.99
919.105	317.51
919.416	296.04
919.727	319.99
920.038	317.51
920.349	314.57
920.66	325.19
920.971	326.77
921.282	319.99
921.593	301.24
921.903	304.62
922.214	315.92
922.525	322.25
922.835	341.46
923.146	331.06
923.456	331.29
923.767	326.09
924.077	331.97
924.387	322.93
924.697	315.47
925.008	324.29
925.318	311.63
925.628	319.77
925.938	337.62
926.248	338.07
926.558	315.7
926.867	327.9
927.177	329.26
927.487	326.77
927.796	320.9
928.106	322.03
928.416	299.43
928.725	327.9
929.034	330.61
929.344	310.05
929.653	318.64
929.962	314.57
930.271	332.87
930.581	311.18
930.89	339.65
931.199	307.34
931.508	329.48
931.817	319.77
932.125	319.31
932.434	331.74
932.743	306.88
933.051	316.38
933.36	331.97
933.669	296.04
933.977	315.47
934.286	299.2
934.594	310.05
934.902	331.06
935.21	324.51
935.519	311.86
935.827	334.23
936.135	306.88
936.443	316.83
936.751	313.21
937.059	320.44
937.367	320.44
937.674	305.53
937.982	300.56
938.29	316.38
938.597	327
938.905	321.35
939.213	307.11
939.52	305.53
939.827	315.02
940.135	310.05
940.442	318.86
940.749	309.37
941.056	319.54
941.363	312.53
941.67	319.54
941.977	294.91
942.284	311.18
942.591	296.72
942.898	325.64
943.205	303.49
943.511	319.09
943.818	326.09
944.125	321.57
944.431	333.32
944.738	313.44
945.044	306.66
945.35	320.44
945.657	335.58
945.963	316.38
946.269	307.34
946.575	324.74
946.881	326.77
947.187	316.38
947.493	313.21
947.799	325.19
948.105	313.89
948.41	305.53
948.716	331.74
949.022	289.03
949.327	311.86
949.633	333.78
949.938	312.53
950.244	328.13
950.549	305.3
950.854	319.31
951.16	320.44
951.465	289.03
951.77	298.98
952.075	299.65
952.38	308.01
952.685	321.35
952.99	321.12
953.294	307.56
953.599	321.12
953.904	340.1
954.209	311.86
954.513	294.68
954.818	305.53
955.122	320.67
955.426	319.09
955.731	318.86
956.035	308.47
956.339	312.31
956.643	322.03
956.948	308.47
957.252	317.51
957.556	310.73
957.86	308.47
958.163	315.7
958.467	325.19
958.771	309.37
959.075	306.21
959.378	311.4
959.682	311.4
959.985	317.96
960.289	320.9
960.592	317.51
960.896	318.18
961.199	323.16
961.502	335.36
961.805	312.31
962.108	305.3
962.411	294.68
962.714	309.37
963.017	334.23
963.32	317.51
963.623	306.21
963.926	313.21
964.228	306.66
964.531	333.78
964.833	297.62
965.136	296.26
965.438	314.79
965.741	308.01
966.043	308.69
966.345	323.61
966.648	308.01
966.95	317.05
967.252	301.46
967.554	290.61
967.856	326.55
968.158	301.01
968.46	319.31
968.761	326.32
969.063	309.37
969.365	305.53
969.666	306.21
969.968	329.48
970.269	317.51
970.571	311.4
970.872	311.18
971.174	298.07
971.475	330.39
971.776	313.89
972.077	324.29
972.378	328.8
972.679	322.25
972.98	322.25
973.281	325.19
973.582	296.49
973.883	323.83
974.183	315.92
974.484	328.8
974.785	323.38
975.085	330.39
975.386	309.6
975.686	329.93
975.986	308.24
976.287	319.09
976.587	317.28
976.887	321.35
977.187	320.9
977.487	298.3
977.787	314.34
978.087	314.34
978.387	313.44
978.687	317.05
978.987	300.11
979.286	307.34
979.586	315.92
979.885	300.78
980.185	316.15
980.484	295.13
980.784	332.65
981.083	313.66
981.382	320.67
981.682	312.08
981.981	319.09
982.28	340.78
982.579	295.36
982.878	335.13
983.177	318.86
983.475	320.22
983.774	298.98
984.073	303.04
984.372	287
984.67	325.42
984.969	333.1
985.267	312.99
985.566	307.34
985.864	315.02
986.162	316.83
986.461	312.31
986.759	310.95
987.057	307.11
987.355	329.03
987.653	315.47
987.951	307.34
988.249	312.31
988.547	330.61
988.844	316.38
989.142	303.49
989.44	329.03
989.737	317.28
990.035	319.31
990.332	329.71
990.63	312.08
990.927	298.3
991.224	317.73
991.521	315.92
991.819	302.36
992.116	306.66
992.413	301.24
992.71	315.02
993.006	312.99
993.303	322.93
993.6	313.66
993.897	328.8
994.193	329.26
994.49	338.52
994.787	313.89
995.083	299.2
995.379	310.27
995.676	313.66
995.972	317.73
996.268	321.57
996.565	317.96
996.861	297.39
997.157	320.44
997.453	327.68
997.749	322.7
998.044	323.16
998.34	301.24
998.636	314.57
998.932	304.62
999.227	319.77
999.523	337.84
999.818	319.77
1000.114	329.71
1000.409	308.47
1000.704	314.79
1001	334.23
1001.295	329.71
1001.59	309.14
1001.885	301.91
1002.18	324.96
1002.475	298.07
1002.77	298.07
1003.065	291.97
1003.359	312.08
1003.654	314.12
1003.949	317.28
1004.243	333.32
1004.538	304.85
1004.832	305.98
1005.127	314.79
1005.421	315.25
1005.715	317.05
1006.009	318.64
1006.304	303.27
1006.598	311.18
1006.892	316.15
1007.186	302.14
1007.48	321.57
1007.773	325.64
1008.067	304.17
1008.361	303.27
1008.655	319.54
1008.948	315.92
1009.242	311.4
1009.535	303.95
1009.829	315.25
1010.122	305.98
1010.415	303.49
1010.708	296.72
1011.001	312.31
1011.295	323.38
1011.588	308.92
1011.881	317.05
1012.173	305.08
1012.466	321.8
1012.759	322.7
1013.052	312.99
1013.344	282.03
1013.637	319.54
1013.93	301.69
1014.222	303.49
1014.514	311.86
1014.807	320.9
1015.099	309.14
1015.391	312.08
1015.683	298.07
1015.976	315.47
1016.268	325.87
1016.56	296.72
1016.851	317.51
1017.143	320.22
1017.435	307.56
1017.727	319.31
1018.018	329.26
1018.31	309.6
1018.602	307.34
1018.893	316.38
1019.185	313.66
1019.476	301.91
1019.767	329.26
1020.058	322.03
1020.35	305.3
1020.641	315.47
1020.932	324.74
1021.223	320.9
1021.514	295.13
1021.804	308.24
1022.095	327.22
1022.386	322.48
1022.677	322.7
1022.967	308.47
1023.258	322.25
1023.548	311.86
1023.839	294.46
1024.129	313.89
1024.419	322.48
1024.709	294.68
1025	306.88
1025.29	314.57
1025.58	315.25
1025.87	309.82
1026.16	331.74
1026.449	309.6
1026.739	322.25
1027.029	313.21
1027.319	303.95
1027.608	298.3
1027.898	318.86
1028.187	310.05
1028.477	304.85
1028.766	306.43
1029.055	316.15
1029.344	299.65
1029.634	306.43
1029.923	313.44
1030.212	318.86
1030.501	299.65
1030.79	315.47
1031.078	291.97
1031.367	308.69
1031.656	316.38
1031.945	287.9
1032.233	281.12
1032.522	327.45
1032.81	301.01
1033.099	337.17
1033.387	325.64
1033.675	305.98
1033.963	295.81
1034.251	307.79
1034.54	313.21
1034.828	292.42
1035.116	299.65
1035.403	305.08
1035.691	301.01
1035.979	310.27
1036.267	312.53
1036.554	309.6
1036.842	312.99
1037.129	291.97
1037.417	306.88
1037.704	316.15
1037.992	302.14
1038.279	312.53
1038.566	308.47
1038.853	308.47
1039.14	308.47
