Data from No_light_on_white_reflection_standard_FLMS001491_094.txt Node
Date: Tue Feb 07 10:33:11 GMT 2017
User: dcchb
Spectrometer: FLMS00149
Trigger mode: 0
Integration Time (sec): 2.000000E-2
Scans to average: 10
Electric dark correction enabled: true
Nonlinearity correction enabled: false
Boxcar width: 0
XAxis mode: Wavelengths
Number of Pixels in Spectrum: 2048
>>>>>Begin Spectral Data<<<<<
341.393	-5.89
341.776	-5.89
342.16	-5.89
342.543	-61.48
342.927	-71.65
343.31	-82.95
343.693	-73.46
344.077	-80.01
344.46	-65.32
344.843	-35.49
345.226	-26
345.61	-47.24
345.993	-14.25
346.376	-6.12
346.759	12.64
347.142	16.93
347.525	48.57
347.908	52.19
348.291	87.44
348.674	93.99
349.057	119.08
349.44	134.45
349.823	135.58
350.206	152.75
350.588	154.56
350.971	184.16
351.354	210.38
351.737	225.52
352.119	225.97
352.502	235.46
352.884	246.08
353.267	247.44
353.65	258.06
354.032	260.54
354.414	281.79
354.797	284.05
355.179	289.7
355.562	283.14
355.944	294.44
356.326	286.98
356.709	301.67
357.091	307.77
357.473	314.78
357.855	297.15
358.238	320.66
358.62	305.51
359.002	299.64
359.384	306.87
359.766	316.81
360.148	293.99
360.53	312.29
360.912	302.35
361.294	316.36
361.676	298.28
362.057	302.12
362.439	306.64
362.821	302.58
363.203	289.7
363.584	274.78
363.966	280.88
364.348	310.26
364.729	298.51
365.111	283.59
365.493	279.3
365.874	272.97
366.256	265.97
366.637	282.92
367.019	281.11
367.4	296.48
367.781	296.48
368.163	265.06
368.544	286.53
368.925	261
369.306	269.58
369.688	294.22
370.069	265.97
370.45	271.17
370.831	251.73
371.212	270.26
371.593	285.63
371.974	270.71
372.355	273.2
372.736	256.7
373.117	272.97
373.498	265.52
373.879	292.41
374.26	260.77
374.641	275.01
375.021	266.42
375.402	282.69
375.783	275.23
376.163	269.13
376.544	282.46
376.925	273.65
377.305	262.58
377.686	286.76
378.066	281.79
378.447	289.02
378.827	308.23
379.208	280.43
379.588	276.14
379.968	290.37
380.349	284.95
380.729	278.85
381.109	292.18
381.489	301.22
381.87	298.51
382.25	267.78
382.63	279.98
383.01	273.2
383.39	290.15
383.77	290.15
384.15	282.46
384.53	283.14
384.91	282.46
385.29	275.68
385.67	279.75
386.049	279.75
386.429	276.36
386.809	266.65
387.189	295.57
387.568	285.4
387.948	306.42
388.328	294.22
388.707	275.91
389.087	285.4
389.466	303.48
389.846	279.53
390.225	303.25
390.605	290.83
390.984	301.67
391.363	292.18
391.743	293.76
392.122	299.19
392.501	284.27
392.881	286.53
393.26	294.44
393.639	286.31
394.018	297.83
394.397	288.57
394.776	290.6
395.155	291.28
395.534	279.98
395.913	297.15
396.292	288.11
396.671	308.45
397.05	292.63
397.429	298.28
397.808	298.28
398.186	284.5
398.565	280.2
398.944	299.41
399.323	302.12
399.701	299.64
400.08	296.93
400.458	297.38
400.837	303.25
401.215	293.99
401.594	290.15
401.972	292.41
402.351	294.44
402.729	300.32
403.107	287.89
403.486	279.3
403.864	294.44
404.242	333.08
404.62	306.19
404.999	313.42
405.377	286.76
405.755	297.83
406.133	286.08
406.511	304.38
406.889	300.32
407.267	282.01
407.645	299.41
408.023	289.92
408.401	296.02
408.779	282.92
409.156	293.54
409.534	301.45
409.912	306.64
410.29	292.63
410.667	293.54
411.045	329.47
411.422	294.89
411.8	285.18
412.178	295.8
412.555	319.75
412.933	302.8
413.31	286.76
413.687	306.87
414.065	318.62
414.442	319.07
414.819	306.64
415.197	304.61
415.574	327.43
415.951	312.97
416.328	301.67
416.705	303.03
417.082	323.59
417.46	312.52
417.837	313.88
418.214	311.39
418.591	299.86
418.967	299.64
419.344	307.32
419.721	323.37
420.098	307.32
420.475	320.88
420.852	290.83
421.228	308.9
421.605	294.89
421.982	309.13
422.358	303.48
422.735	308.68
423.111	330.82
423.488	298.96
423.864	315.91
424.241	321.56
424.617	310.49
424.994	302.12
425.37	310.49
425.746	300.77
426.123	321.11
426.499	309.36
426.875	327.89
427.251	309.13
427.627	319.3
428.003	311.16
428.379	308.45
428.756	314.78
429.132	308.45
429.507	300.54
429.883	315.46
430.259	317.27
430.635	313.88
431.011	304.16
431.387	323.82
431.763	309.36
432.138	312.52
432.514	326.76
432.89	330.82
433.265	306.42
433.641	336.7
434.016	302.8
434.392	333.31
434.767	333.99
435.143	318.4
435.518	326.76
435.894	339.19
436.269	328.34
436.644	331.73
437.02	325.63
437.395	336.47
437.77	333.54
438.145	311.39
438.52	314.55
438.895	304.61
439.271	335.12
439.646	326.76
440.021	342.35
440.395	337.6
440.77	324.95
441.145	328.11
441.52	330.82
441.895	356.36
442.27	357.26
442.645	345.29
443.019	328.79
443.394	347.1
443.769	349.36
444.143	343.93
444.518	352.74
444.892	335.57
445.267	360.43
445.641	352.29
446.016	367.21
446.39	328.56
446.764	352.52
447.139	350.94
447.513	377.38
447.887	347.77
448.262	365.17
448.636	349.81
449.01	364.95
449.384	338.06
449.758	347.77
450.132	371.95
450.506	395
450.88	383.03
451.254	350.49
451.628	362.46
452.002	384.83
452.376	372.86
452.75	353.42
453.123	362.01
453.497	388.68
453.871	359.52
454.244	362.69
454.618	361.11
454.992	384.16
455.365	373.08
455.739	365.85
456.112	358.39
456.486	390.03
456.859	364.95
457.232	378.06
457.606	371.28
457.979	359.3
458.352	384.61
458.725	358.17
459.099	354.1
459.472	349.36
459.845	359.98
460.218	371.73
460.591	362.46
460.964	367.66
461.337	350.71
461.71	355.91
462.083	360.65
462.456	356.59
462.829	377.15
463.201	358.39
463.574	359.07
463.947	357.04
464.32	353.65
464.692	358.39
465.065	366.3
465.438	356.13
465.81	334.44
466.183	348.9
466.555	343.48
466.928	357.72
467.3	358.39
467.672	338.73
468.045	375.34
468.417	366.76
468.789	371.28
469.161	378.06
469.534	350.71
469.906	362.46
470.278	361.11
470.65	342.35
471.022	364.04
471.394	328.34
471.766	351.16
472.138	374.21
472.51	361.11
472.882	357.49
473.253	325.4
473.625	357.04
473.997	355.46
474.369	346.19
474.74	346.87
475.112	347.1
475.484	362.24
475.855	355.23
476.227	355.91
476.598	357.94
476.97	335.57
477.341	363.14
477.713	354.33
478.084	347.55
478.455	351.62
478.827	363.37
479.198	351.62
479.569	349.81
479.94	374.67
480.311	356.13
480.682	363.82
481.053	362.69
481.424	350.03
481.795	348.23
482.166	354.78
482.537	369.92
482.908	355.23
483.279	348.45
483.65	369.69
484.021	380.54
484.391	370.15
484.762	377.83
485.133	364.27
485.503	371.73
485.874	365.4
486.244	359.3
486.615	349.81
486.985	372.63
487.356	365.85
487.726	366.3
488.097	383.48
488.467	364.04
488.837	358.62
489.207	374.67
489.578	366.53
489.948	349.36
490.318	362.01
490.688	365.85
491.058	390.03
491.428	375.34
491.798	385.06
492.168	392.07
492.538	361.33
492.908	378.51
493.278	376.25
493.648	358.85
494.017	391.84
494.387	382.57
494.757	382.35
495.126	383.03
495.496	370.6
495.866	386.87
496.235	385.29
496.605	394.33
496.974	408.34
497.344	391.84
497.713	379.64
498.082	423.93
498.452	380.31
498.821	404.95
499.19	402.91
499.559	366.98
499.928	400.88
500.298	388.68
500.667	402.91
501.036	410.37
501.405	392.97
501.774	407.66
502.143	414.44
502.512	415.12
502.88	407.43
503.249	416.25
503.618	405.85
503.987	413.76
504.356	421.44
504.724	417.6
505.093	402.24
505.462	429.35
505.83	429.35
506.199	413.53
506.567	438.39
506.936	447.66
507.304	407.66
507.672	423.03
508.041	414.21
508.409	421.22
508.777	430.71
509.145	441.33
509.514	435.68
509.882	434.32
510.25	425.51
510.618	446.75
510.986	416.25
511.354	434.55
511.722	452.4
512.09	423.7
512.458	434.32
512.826	438.62
513.193	440.65
513.561	429.81
513.929	447.66
514.297	457.15
514.664	440.88
515.032	441.1
515.4	442.23
515.767	463.48
516.135	470.26
516.502	443.14
516.869	464.83
517.237	455.79
517.604	450.37
517.972	443.59
518.339	463.48
518.706	451.5
519.073	457.15
519.44	468.9
519.808	474.1
520.175	463.25
520.542	473.65
520.909	451.5
521.276	459.63
521.643	465.74
522.009	458.05
522.376	468.67
522.743	483.59
523.11	454.66
523.477	470.26
523.843	474.32
524.21	461.89
524.577	469.8
524.943	484.72
525.31	490.14
525.676	485.17
526.043	498.73
526.409	498.73
526.776	495.34
527.142	491.05
527.508	501.89
527.874	503.7
528.241	482.69
528.607	506.64
528.973	504.61
529.339	503.7
529.705	488.56
530.071	480.43
530.437	484.27
530.803	489.46
531.169	500.31
531.535	498.05
531.901	479.07
532.267	512.74
532.632	503.25
532.998	476.13
533.364	477.71
533.73	502.35
534.095	511.84
534.461	505.96
534.826	499.41
535.192	506.41
535.557	495.57
535.923	517.49
536.288	509.35
536.653	509.35
537.019	507.32
537.384	500.31
537.749	503.25
538.114	511.16
538.479	516.36
538.845	507.32
539.21	509.13
539.575	515.23
539.94	524.49
540.305	508.45
540.67	520.65
541.034	526.07
541.399	538.28
541.764	521.33
542.129	538.05
542.494	516.13
542.858	504.83
543.223	514.1
543.587	528.11
543.952	529.01
544.316	526.07
544.681	526.07
545.045	532.4
545.41	517.71
545.774	516.58
546.138	549.12
546.503	529.24
546.867	525.4
547.231	507.54
547.595	518.39
547.959	517.26
548.324	524.72
548.688	523.59
549.052	529.69
549.416	542.57
549.779	528.79
550.143	527.88
550.507	539.86
550.871	536.47
551.235	520.42
551.599	542.8
551.962	550.93
552.326	531.5
552.689	534.66
553.053	536.02
553.417	544.6
553.78	513.19
554.143	542.57
554.507	536.92
554.87	531.95
555.234	535.34
555.597	547.54
555.96	544.38
556.323	531.27
556.686	533.76
557.05	558.62
557.413	565.85
557.776	546.86
558.139	557.94
558.502	543.93
558.865	557.03
559.228	540.99
559.59	524.72
559.953	533.53
560.316	545.51
560.679	557.03
561.041	554.32
561.404	561.1
561.767	577.15
562.129	568.11
562.492	585.51
562.854	550.03
563.217	558.39
563.579	563.59
563.941	538.28
564.304	559.29
564.666	549.58
565.028	556.81
565.39	577.15
565.753	564.26
566.115	559.07
566.477	586.19
566.839	562.68
567.201	564.49
567.563	589.35
567.925	585.96
568.287	592.29
568.648	590.7
569.01	573.3
569.372	582.57
569.734	604.26
570.095	563.59
570.457	570.14
570.819	562.91
571.18	590.25
571.542	599.29
571.903	581.89
572.265	579.18
572.626	581.89
572.987	593.19
573.349	588.9
573.71	559.07
574.071	595
574.432	574.21
574.794	598.39
575.155	587.32
575.516	581.89
575.877	593.42
576.238	602
576.599	581.44
576.96	581.89
577.32	582.57
577.681	591.38
578.042	616.01
578.403	602.91
578.763	595.68
579.124	599.97
579.485	596.13
579.845	604.04
580.206	570.37
580.566	599.29
580.927	585.51
581.287	599.29
581.648	602.46
582.008	598.16
582.368	570.37
582.728	591.83
583.089	582.8
583.449	579.18
583.809	590.48
584.169	596.13
584.529	605.39
584.889	607.88
585.249	574.66
585.609	576.02
585.969	605.62
586.329	591.83
586.688	576.69
587.048	581.67
587.408	580.99
587.768	572.17
588.127	572.63
588.487	611.27
588.846	602.68
589.206	615.34
589.565	609.01
589.925	599.52
590.284	584.15
590.643	581.21
591.003	610.37
591.362	614.66
591.721	580.54
592.08	583.02
592.44	575.56
592.799	591.61
593.158	583.02
593.517	603.59
593.876	593.19
594.235	611.72
594.593	596.58
594.952	580.54
595.311	582.34
595.67	585.51
596.029	601.78
596.387	598.16
596.746	580.31
597.104	608.33
597.463	597.26
597.822	579.18
598.18	577.37
598.538	578.5
598.897	585.51
599.255	585.28
599.613	574.43
599.972	581.67
600.33	542.34
600.688	563.13
601.046	561.1
601.404	572.4
601.762	563.59
602.12	569.01
602.478	579.41
602.836	580.99
603.194	570.59
603.552	573.53
603.91	573.3
604.268	573.76
604.625	563.13
604.983	571.72
605.341	567.43
605.698	542.8
606.056	552.29
606.413	581.21
606.771	568.78
607.128	549.12
607.485	554.32
607.843	569.01
608.2	566.52
608.557	576.02
608.914	578.05
609.272	573.98
609.629	588.67
609.986	545.96
610.343	565.85
610.7	552.29
611.057	565.85
611.414	562
611.771	550.71
612.127	558.39
612.484	555.68
612.841	550.93
613.198	566.98
613.554	524.49
613.911	551.16
614.267	563.13
614.624	559.52
614.98	560.2
615.337	529.24
615.693	545.51
616.05	555.9
616.406	534.44
616.762	544.83
617.118	540.54
617.475	544.83
617.831	527.66
618.187	542.57
618.543	535.11
618.899	551.16
619.255	548.22
619.611	550.03
619.967	566.75
620.323	544.38
620.678	538.73
621.034	547.54
621.39	521.33
621.746	529.69
622.101	528.33
622.457	525.62
622.812	542.12
623.168	524.04
623.523	511.38
623.879	532.4
624.234	531.05
624.589	520.65
624.945	527.66
625.3	544.83
625.655	532.18
626.01	512.97
626.365	503.02
626.72	511.38
627.075	511.61
627.43	510.93
627.785	503.93
628.14	530.59
628.495	518.16
628.85	504.83
629.205	531.27
629.559	530.82
629.914	495.34
630.269	511.16
630.623	486.3
630.978	515.68
631.332	524.27
631.687	499.41
632.041	503.02
632.396	480.88
632.75	520.2
633.104	500.31
633.459	509.35
633.813	484.04
634.167	483.14
634.521	500.54
634.875	481.56
635.229	505.74
635.583	483.14
635.937	495.11
636.291	489.69
636.645	471.16
636.999	478.62
637.352	482.46
637.706	472.06
638.06	451.95
638.413	503.02
638.767	471.61
639.121	483.36
639.474	498.28
639.828	467.09
640.181	467.09
640.534	476.58
640.888	460.76
641.241	457.15
641.594	477.04
641.947	449.92
642.301	468.67
642.654	436.13
643.007	461.67
643.36	456.92
643.713	470.71
644.066	459.18
644.419	467.77
644.771	465.51
645.124	451.73
645.477	452.63
645.83	456.7
646.182	461.44
646.535	471.61
646.888	451.05
647.24	458.73
647.593	452.63
647.945	434.1
648.298	435
648.65	436.36
649.002	444.49
649.355	451.73
649.707	451.27
650.059	431.61
650.411	439.75
650.763	452.18
651.115	437.71
651.467	446.53
651.819	428.45
652.171	465.74
652.523	437.04
652.875	450.6
653.227	442.46
653.578	427.09
653.93	415.34
654.282	422.8
654.633	430.71
654.985	441.78
655.337	422.35
655.688	416.7
656.039	423.48
656.391	416.02
656.742	413.31
657.094	419.64
657.445	432.74
657.796	425.29
658.147	430.71
658.498	433.19
658.849	430.26
659.2	425.06
659.551	429.81
659.902	425.96
660.253	413.31
660.604	420.54
660.955	398.62
661.306	399.3
661.656	398.39
662.007	419.86
662.358	406.53
662.708	390.48
663.059	417.83
663.409	387.55
663.76	399.98
664.11	395.68
664.461	408.11
664.811	418.05
665.161	387.09
665.511	399.07
665.862	409.92
666.212	387.55
666.562	424.16
666.912	382.35
667.262	382.8
667.612	396.81
667.962	392.07
668.312	393.65
668.662	399.07
669.011	413.31
669.361	401.11
669.711	394.78
670.06	385.74
670.41	424.38
670.76	395.46
671.109	395.23
671.459	396.59
671.808	383.93
672.157	378.73
672.507	388.45
672.856	376.7
673.205	382.12
673.554	409.69
673.904	390.26
674.253	386.42
674.602	386.64
674.951	381.44
675.3	390.94
675.649	404.04
675.998	400.65
676.346	383.48
676.695	378.06
677.044	371.95
677.393	369.24
677.741	411.5
678.09	387.32
678.438	395
678.787	385.29
679.135	386.42
679.484	383.25
679.832	383.7
680.181	371.73
680.529	358.17
680.877	390.03
681.225	371.73
681.573	369.47
681.922	367.89
682.27	363.59
682.618	369.69
682.966	381.22
683.314	366.98
683.661	385.51
684.009	382.8
684.357	367.43
684.705	379.18
685.053	383.7
685.4	379.86
685.748	374.89
686.095	382.12
686.443	382.57
686.79	385.29
687.138	342.8
687.485	361.56
687.832	379.64
688.18	368.34
688.527	373.99
688.874	353.2
689.221	357.26
689.568	368.56
689.915	382.57
690.262	365.63
690.609	369.69
690.956	352.97
691.303	353.2
691.65	366.53
691.997	374.89
692.344	373.99
692.69	370.82
693.037	382.35
693.383	367.89
693.73	366.53
694.077	358.17
694.423	338.28
694.769	347.32
695.116	343.48
695.462	356.59
695.808	339.41
696.155	365.63
696.501	362.46
696.847	352.07
697.193	345.97
697.539	377.6
697.885	363.82
698.231	341.67
698.577	348
698.923	379.64
699.269	353.2
699.614	367.43
699.96	339.19
700.306	349.36
700.651	334.89
700.997	342.58
701.342	353.42
701.688	346.64
702.033	361.56
702.379	353.87
702.724	355.68
703.069	356.59
703.415	355.68
703.76	363.14
704.105	357.26
704.45	333.76
704.795	360.2
705.14	357.04
705.485	351.39
705.83	341.67
706.175	352.07
706.52	355.91
706.865	354.33
707.209	361.78
707.554	328.56
707.899	334.44
708.243	360.43
708.588	370.15
708.932	366.76
709.277	345.06
709.621	361.33
709.966	335.57
710.31	352.29
710.654	349.58
710.998	350.03
711.342	349.36
711.687	351.62
712.031	324.5
712.375	361.56
712.719	343.03
713.063	317.94
713.407	344.16
713.75	339.19
714.094	352.29
714.438	334.21
714.782	344.38
715.125	338.51
715.469	341.9
715.812	356.36
716.156	356.81
716.499	335.8
716.843	345.51
717.186	339.41
717.53	345.06
717.873	349.58
718.216	352.29
718.559	346.87
718.902	351.62
719.246	325.85
719.589	333.54
719.932	344.16
720.275	355
720.617	327.66
720.96	301.9
721.303	339.41
721.646	343.25
721.989	338.73
722.331	361.56
722.674	344.38
723.016	342.35
723.359	322.24
723.701	331.28
724.044	333.54
724.386	351.39
724.729	347.1
725.071	334.44
725.413	334.67
725.755	347.55
726.097	330.6
726.439	359.75
726.782	350.71
727.124	315.01
727.465	323.59
727.807	344.84
728.149	315.68
728.491	345.74
728.833	323.14
729.175	312.75
729.516	343.93
729.858	323.82
730.199	318.17
730.541	355.46
730.882	348.68
731.224	331.95
731.565	348
731.906	354.78
732.248	331.95
732.589	321.11
732.93	340.54
733.271	332.41
733.612	356.59
733.953	334.89
734.294	347.77
734.635	340.77
734.976	336.47
735.317	334.67
735.658	328.56
735.999	330.15
736.339	324.72
736.68	330.37
737.021	346.42
737.361	342.58
737.702	336.93
738.042	327.21
738.383	334.67
738.723	331.28
739.063	320.43
739.404	340.32
739.744	321.11
740.084	315.46
740.424	348
740.764	313.88
741.104	330.37
741.444	326.76
741.784	329.69
742.124	343.71
742.464	334.89
742.804	323.82
743.143	344.16
743.483	319.3
743.823	349.13
744.162	326.98
744.502	317.49
744.841	332.18
745.181	336.25
745.52	325.85
745.86	322.69
746.199	312.29
746.538	330.15
746.877	329.47
747.216	311.84
747.556	322.46
747.895	346.42
748.234	335.57
748.573	334.21
748.911	341.9
749.25	341.45
749.589	325.4
749.928	334.67
750.267	342.8
750.605	314.33
750.944	330.82
751.283	340.54
751.621	326.98
751.96	344.16
752.298	362.01
752.636	328.11
752.975	327.66
753.313	323.82
753.651	331.5
753.989	323.59
754.327	347.77
754.666	332.86
755.004	318.85
755.342	320.43
755.679	337.15
756.017	334.21
756.355	350.49
756.693	336.93
757.031	332.18
757.368	327.43
757.706	325.63
758.044	331.28
758.381	339.86
758.719	323.82
759.056	333.76
759.394	315.46
759.731	331.28
760.068	348.9
760.405	354.33
760.743	331.28
761.08	326.3
761.417	326.08
761.754	320.2
762.091	350.94
762.428	338.06
762.765	336.25
763.102	333.99
763.438	311.16
763.775	327.21
764.112	328.11
764.449	325.85
764.785	307.1
765.122	342.35
765.458	338.28
765.795	329.92
766.131	338.28
766.467	324.5
766.804	340.54
767.14	343.93
767.476	332.63
767.812	323.82
768.148	325.63
768.485	315.23
768.821	325.4
769.157	332.63
769.492	342.58
769.828	332.18
770.164	334.89
770.5	331.73
770.836	354.78
771.171	336.02
771.507	330.6
771.842	310.03
772.178	329.92
772.513	332.63
772.849	322.69
773.184	310.03
773.519	321.11
773.855	341.67
774.19	311.84
774.525	333.54
774.86	331.5
775.195	334.21
775.53	322.24
775.865	331.28
776.2	335.8
776.535	348
776.87	333.08
777.205	330.6
777.539	313.88
777.874	334.67
778.209	343.25
778.543	326.3
778.878	335.34
779.212	327.89
779.547	321.79
779.881	318.17
780.215	333.31
780.55	326.08
780.884	341.22
781.218	341.9
781.552	339.64
781.886	342.58
782.22	331.28
782.554	324.5
782.888	330.15
783.222	330.37
783.556	332.63
783.889	335.57
784.223	325.63
784.557	338.51
784.89	323.14
785.224	343.48
785.557	345.51
785.891	348.45
786.224	328.56
786.558	326.98
786.891	334.21
787.224	349.13
787.557	324.72
787.891	335.8
788.224	324.72
788.557	307.55
788.89	317.49
789.223	326.53
789.556	324.5
789.888	347.55
790.221	323.59
790.554	322.01
790.887	299.86
791.219	324.27
791.552	333.99
791.884	343.25
792.217	325.85
792.549	319.53
792.882	319.07
793.214	342.35
793.546	336.02
793.879	321.11
794.211	324.95
794.543	313.65
794.875	321.11
795.207	343.93
795.539	346.87
795.871	324.27
796.203	329.92
796.535	299.86
796.867	324.05
797.198	333.54
797.53	313.2
797.862	317.27
798.193	310.94
798.525	342.58
798.856	315.91
799.188	337.83
799.519	322.24
799.85	330.15
800.182	341.22
800.513	333.54
800.844	315.91
801.175	324.5
801.506	318.17
801.837	322.24
802.168	345.97
802.499	324.27
802.83	337.6
803.161	341.45
803.491	337.83
803.822	329.69
804.153	347.55
804.483	332.41
804.814	328.56
805.145	307.55
805.475	323.82
805.805	336.47
806.136	313.42
806.466	334.89
806.796	340.09
807.126	331.73
807.457	324.05
807.787	316.59
808.117	329.92
808.447	309.36
808.777	351.39
809.107	339.64
809.436	335.34
809.766	331.73
810.096	325.63
810.426	330.15
810.755	314.78
811.085	314.1
811.414	343.93
811.744	319.75
812.073	317.27
812.403	329.92
812.732	333.31
813.061	335.8
813.39	321.11
813.719	332.18
814.049	324.27
814.378	329.02
814.707	321.56
815.036	320.2
815.365	323.82
815.693	339.86
816.022	315.68
816.351	320.43
816.68	328.56
817.008	333.08
817.337	326.08
817.665	328.56
817.994	333.08
818.322	314.1
818.651	309.13
818.979	308
819.307	305.74
819.636	315.23
819.964	330.15
820.292	332.41
820.62	324.05
820.948	310.49
821.276	308.23
821.604	335.34
821.932	333.08
822.259	316.14
822.587	329.02
822.915	298.74
823.243	341.45
823.57	324.95
823.898	322.01
824.225	318.62
824.553	319.53
824.88	311.16
825.207	326.08
825.535	339.86
825.862	337.38
826.189	355.68
826.516	321.79
826.843	333.99
827.17	314.33
827.497	319.3
827.824	300.54
828.151	343.48
828.478	317.27
828.805	314.78
829.131	362.24
829.458	312.29
829.785	337.38
830.111	321.11
830.438	318.85
830.764	336.47
831.09	321.33
831.417	325.4
831.743	331.05
832.069	309.36
832.395	324.05
832.722	323.37
833.048	331.95
833.374	330.37
833.7	301.67
834.026	338.51
834.351	326.76
834.677	311.84
835.003	336.02
835.329	318.62
835.654	319.07
835.98	308.68
836.306	320.43
836.631	323.37
836.956	322.92
837.282	321.11
837.607	330.82
837.932	317.49
838.258	328.56
838.583	318.62
838.908	314.33
839.233	339.86
839.558	322.01
839.883	328.79
840.208	312.07
840.533	320.66
840.858	324.72
841.182	329.47
841.507	332.41
841.832	316.36
842.156	325.85
842.481	322.01
842.805	325.63
843.13	327.66
843.454	319.3
843.778	339.41
844.103	332.63
844.427	331.28
844.751	328.11
845.075	319.3
845.399	310.94
845.723	339.19
846.047	314.78
846.371	340.09
846.695	321.33
847.019	331.05
847.343	332.18
847.666	340.54
847.99	326.98
848.313	324.05
848.637	306.64
848.96	329.02
849.284	317.49
849.607	331.05
849.931	333.08
850.254	329.24
850.577	314.33
850.9	316.81
851.223	316.59
851.546	317.72
851.869	303.48
852.192	324.5
852.515	338.73
852.838	315.46
853.161	305.29
853.483	322.24
853.806	316.36
854.129	319.75
854.451	305.51
854.774	317.27
855.096	332.41
855.419	300.32
855.741	309.36
856.063	304.16
856.385	311.84
856.708	321.11
857.03	331.5
857.352	324.27
857.674	319.75
857.996	340.09
858.318	337.38
858.64	332.63
858.961	321.33
859.283	327.66
859.605	319.98
859.926	330.82
860.248	320.88
860.57	312.75
860.891	317.94
861.212	321.11
861.534	308.45
861.855	340.09
862.176	315.68
862.498	324.5
862.819	318.17
863.14	330.82
863.461	303.71
863.782	333.31
864.103	314.1
864.424	326.3
864.745	317.94
865.065	332.86
865.386	326.53
865.707	324.95
866.027	324.95
866.348	323.59
866.668	322.01
866.989	335.57
867.309	331.05
867.63	307.55
867.95	326.3
868.27	318.17
868.59	324.5
868.91	319.3
869.23	323.37
869.55	307.77
869.87	335.8
870.19	326.3
870.51	322.01
870.83	320.43
871.15	336.93
871.469	342.8
871.789	328.34
872.109	322.24
872.428	311.84
872.748	316.36
873.067	306.87
873.386	334.44
873.706	342.58
874.025	339.86
874.344	331.28
874.663	312.52
874.982	328.56
875.301	292.86
875.62	309.13
875.939	299.19
876.258	336.25
876.577	316.14
876.896	343.03
877.214	340.77
877.533	305.06
877.852	324.72
878.17	326.76
878.489	312.07
878.807	326.3
879.125	327.66
879.444	341.67
879.762	326.76
880.08	326.08
880.398	294.44
880.716	319.3
881.034	347.77
881.352	327.43
881.67	322.24
881.988	322.01
882.306	318.4
882.624	331.28
882.941	310.71
883.259	305.29
883.577	295.57
883.894	309.36
884.212	321.11
884.529	318.62
884.846	300.09
885.164	335.57
885.481	333.54
885.798	333.08
886.115	338.28
886.432	318.62
886.75	327.89
887.067	291.5
887.383	304.16
887.7	311.84
888.017	306.64
888.334	322.01
888.651	290.6
888.967	323.82
889.284	319.3
889.6	326.08
889.917	309.81
890.233	303.03
890.55	323.37
890.866	314.78
891.182	330.6
891.498	318.4
891.815	330.37
892.131	328.34
892.447	314.33
892.763	337.83
893.079	312.07
893.395	331.05
893.71	319.07
894.026	319.53
894.342	338.73
894.657	346.64
894.973	302.8
895.289	311.84
895.604	315.23
895.92	309.81
896.235	311.16
896.55	321.33
896.865	302.58
897.181	312.97
897.496	306.19
897.811	333.76
898.126	329.69
898.441	318.85
898.756	324.95
899.071	320.2
899.386	317.04
899.7	323.14
900.015	345.51
900.33	344.16
900.644	319.98
900.959	305.06
901.273	318.4
901.588	306.19
901.902	331.05
902.216	338.06
902.531	311.84
902.845	319.98
903.159	321.33
903.473	298.74
903.787	313.88
904.101	316.59
904.415	326.76
904.729	327.89
905.042	324.72
905.356	309.81
905.67	308.68
905.984	305.74
906.297	304.84
906.611	323.82
906.924	323.82
907.237	317.04
907.551	320.2
907.864	322.69
908.177	312.97
908.491	334.44
908.804	323.14
909.117	335.34
909.43	333.54
909.743	345.74
910.056	322.92
910.368	315.23
910.681	291.5
910.994	319.07
911.307	326.53
911.619	330.15
911.932	311.16
912.244	343.03
912.557	327.21
912.869	341.9
913.181	317.49
913.494	309.58
913.806	298.06
914.118	319.3
914.43	323.82
914.742	318.62
915.054	320.66
915.366	309.58
915.678	308.9
915.99	310.03
916.302	305.29
916.613	299.86
916.925	317.27
917.236	304.61
917.548	325.63
917.859	279.3
918.171	330.6
918.482	318.17
918.794	298.28
919.105	327.21
919.416	310.94
919.727	318.85
920.038	340.77
920.349	314.78
920.66	336.93
920.971	314.33
921.282	329.02
921.593	323.59
921.903	307.55
922.214	329.47
922.525	310.49
922.835	316.36
923.146	335.34
923.456	324.27
923.767	308.9
924.077	321.79
924.387	312.52
924.697	319.75
925.008	323.59
925.318	318.17
925.628	347.77
925.938	322.69
926.248	304.38
926.558	307.32
926.867	311.62
927.177	300.09
927.487	302.12
927.796	342.58
928.106	323.59
928.416	323.59
928.725	329.69
929.034	300.77
929.344	324.72
929.653	326.3
929.962	343.25
930.271	305.06
930.581	337.15
930.89	319.3
931.199	317.04
931.508	317.04
931.817	321.11
932.125	318.62
932.434	312.52
932.743	320.66
933.051	319.98
933.36	310.49
933.669	327.21
933.977	314.55
934.286	333.08
934.594	329.47
934.902	331.05
935.21	329.02
935.519	324.5
935.827	320.43
936.135	298.74
936.443	305.97
936.751	331.05
937.059	310.03
937.367	322.92
937.674	322.46
937.982	307.77
938.29	317.27
938.597	308.45
938.905	326.76
939.213	311.16
939.52	307.1
939.827	324.27
940.135	303.71
940.442	325.85
940.749	302.58
941.056	303.03
941.363	307.1
941.67	319.07
941.977	319.3
942.284	313.42
942.591	307.32
942.898	318.4
943.205	326.98
943.511	310.03
943.818	325.63
944.125	319.98
944.431	320.66
944.738	322.46
945.044	312.29
945.35	295.8
945.657	322.46
945.963	332.63
946.269	322.01
946.575	305.97
946.881	316.36
947.187	325.4
947.493	306.64
947.799	311.84
948.105	317.72
948.41	324.95
948.716	312.07
949.022	334.67
949.327	285.85
949.633	326.08
949.938	311.16
950.244	324.72
950.549	305.29
950.854	305.97
951.16	333.08
951.465	315.68
951.77	298.06
952.075	319.3
952.38	317.49
952.685	321.56
952.99	315.68
953.294	321.33
953.599	333.31
953.904	310.49
954.209	316.81
954.513	317.94
954.818	314.78
955.122	313.2
955.426	321.33
955.731	309.13
956.035	316.36
956.339	293.09
956.643	341.9
956.948	331.05
957.252	305.74
957.556	310.03
957.86	319.07
958.163	299.41
958.467	329.02
958.771	318.62
959.075	323.82
959.378	284.95
959.682	326.53
959.985	307.32
960.289	306.64
960.592	298.74
960.896	317.94
961.199	326.98
961.502	324.5
961.805	303.03
962.108	330.37
962.411	311.84
962.714	322.92
963.017	313.2
963.32	318.17
963.623	328.11
963.926	308
964.228	310.03
964.531	327.66
964.833	319.75
965.136	322.46
965.438	323.82
965.741	328.34
966.043	301.45
966.345	305.97
966.648	313.65
966.95	319.3
967.252	331.28
967.554	303.71
967.856	317.94
968.158	300.77
968.46	302.58
968.761	327.66
969.063	325.63
969.365	322.92
969.666	310.26
969.968	316.59
970.269	310.94
970.571	295.12
970.872	317.94
971.174	326.53
971.475	320.66
971.776	322.24
972.077	329.92
972.378	314.33
972.679	315.01
972.98	310.49
973.281	311.84
973.582	316.81
973.883	341.45
974.183	296.7
974.484	306.19
974.785	317.27
975.085	324.95
975.386	331.73
975.686	347.77
975.986	309.81
976.287	314.1
976.587	328.79
976.887	320.43
977.187	312.75
977.487	297.15
977.787	291.96
978.087	293.76
978.387	343.48
978.687	330.37
978.987	317.49
979.286	295.35
979.586	308.9
979.885	321.33
980.185	323.82
980.484	307.77
980.784	314.55
981.083	319.53
981.382	321.79
981.682	307.32
981.981	326.76
982.28	316.36
982.579	321.79
982.878	324.27
983.177	340.54
983.475	310.03
983.774	270.04
984.073	318.4
984.372	328.79
984.67	312.97
984.969	339.41
985.267	317.94
985.566	325.85
985.864	335.8
986.162	317.27
986.461	313.65
986.759	320.66
987.057	313.65
987.355	320.66
987.653	323.59
987.951	317.04
988.249	297.15
988.547	333.76
988.844	312.52
989.142	323.37
989.44	330.82
989.737	332.18
990.035	323.82
990.332	307.1
990.63	312.97
990.927	317.72
991.224	316.14
991.521	317.27
991.819	301.67
992.116	315.91
992.413	310.26
992.71	315.91
993.006	316.14
993.303	314.55
993.6	312.07
993.897	308.23
994.193	306.87
994.49	320.88
994.787	311.16
995.083	319.53
995.379	326.53
995.676	321.56
995.972	303.71
996.268	300.54
996.565	319.3
996.861	317.72
997.157	322.69
997.453	306.87
997.749	318.4
998.044	310.94
998.34	328.11
998.636	312.29
998.932	310.94
999.227	320.43
999.523	316.36
999.818	304.61
1000.114	305.97
1000.409	315.01
1000.704	331.05
1001	322.69
1001.295	312.75
1001.59	288.11
1001.885	331.28
1002.18	298.06
1002.475	303.03
1002.77	322.69
1003.065	332.41
1003.359	327.89
1003.654	330.15
1003.949	319.98
1004.243	305.97
1004.538	326.53
1004.832	310.26
1005.127	292.41
1005.421	296.25
1005.715	328.34
1006.009	307.1
1006.304	321.11
1006.598	341.9
1006.892	300.77
1007.186	323.59
1007.48	324.27
1007.773	317.49
1008.067	333.31
1008.361	334.67
1008.655	328.11
1008.948	315.68
1009.242	323.82
1009.535	321.56
1009.829	325.63
1010.122	296.93
1010.415	311.39
1010.708	316.81
1011.001	310.26
1011.295	320.43
1011.588	326.53
1011.881	313.88
1012.173	314.78
1012.466	325.85
1012.759	310.26
1013.052	308.9
1013.344	301.22
1013.637	307.32
1013.93	319.75
1014.222	301.67
1014.514	313.65
1014.807	336.47
1015.099	310.03
1015.391	294.44
1015.683	315.68
1015.976	310.03
1016.268	309.36
1016.56	322.69
1016.851	317.72
1017.143	334.44
1017.435	321.79
1017.727	322.01
1018.018	321.33
1018.31	316.59
1018.602	315.01
1018.893	337.6
1019.185	297.15
1019.476	313.42
1019.767	310.49
1020.058	312.75
1020.35	316.14
1020.641	317.94
1020.932	303.48
1021.223	310.71
1021.514	300.99
1021.804	328.11
1022.095	310.71
1022.386	318.4
1022.677	320.66
1022.967	305.06
1023.258	317.04
1023.548	316.36
1023.839	322.01
1024.129	326.3
1024.419	315.23
1024.709	329.47
1025	309.13
1025.29	322.01
1025.58	308.45
1025.87	330.82
1026.16	329.69
1026.449	313.2
1026.739	295.35
1027.029	318.17
1027.319	323.14
1027.608	312.52
1027.898	319.53
1028.187	312.75
1028.477	304.84
1028.766	310.49
1029.055	300.09
1029.344	310.03
1029.634	317.04
1029.923	320.43
1030.212	315.01
1030.501	310.49
1030.79	305.06
1031.078	296.48
1031.367	316.59
1031.656	310.71
1031.945	311.39
1032.233	333.76
1032.522	305.29
1032.81	297.83
1033.099	312.29
1033.387	315.01
1033.675	329.69
1033.963	317.94
1034.251	310.71
1034.54	325.63
1034.828	330.15
1035.116	314.33
1035.403	301.22
1035.691	309.13
1035.979	292.41
1036.267	322.46
1036.554	325.18
1036.842	318.17
1037.129	302.58
1037.417	314.33
1037.704	315.46
1037.992	320.43
1038.279	313.42
1038.566	323.82
1038.853	323.82
1039.14	323.82
