Data from No_light_on_white_reflection_standard_FLMS001491_008.txt Node
Date: Tue Feb 07 10:32:53 GMT 2017
User: dcchb
Spectrometer: FLMS00149
Trigger mode: 0
Integration Time (sec): 2.000000E-2
Scans to average: 10
Electric dark correction enabled: true
Nonlinearity correction enabled: false
Boxcar width: 0
XAxis mode: Wavelengths
Number of Pixels in Spectrum: 2048
>>>>>Begin Spectral Data<<<<<
341.393	0.66
341.776	0.66
342.16	0.66
342.543	-55.61
342.927	-59
343.31	-63.97
343.693	-57.19
344.077	-70.97
344.46	-59.67
344.843	-32.78
345.226	-34.59
345.61	-45.21
345.993	-22.39
346.376	-19.67
346.759	-16.96
347.142	29.82
347.525	49.7
347.908	77.05
348.291	69.36
348.674	91.51
349.057	105.97
349.44	123.15
349.823	138.29
350.206	169.02
350.588	165.18
350.971	186.2
351.354	188.46
351.737	214.9
352.119	219.64
352.502	230.04
352.884	232.75
353.267	270.94
353.65	266.19
354.032	262.35
354.414	267.32
354.797	303.93
355.179	287.44
355.562	291.96
355.944	334.44
356.326	312.97
356.709	284.72
357.091	308.68
357.473	315.23
357.855	297.61
358.238	326.3
358.62	315.46
359.002	306.64
359.384	300.32
359.766	302.12
360.148	325.63
360.53	322.92
360.912	306.19
361.294	315.01
361.676	310.94
362.057	293.99
362.439	300.99
362.821	303.48
363.203	282.01
363.584	286.53
363.966	288.34
364.348	297.38
364.729	301.9
365.111	316.14
365.493	299.86
365.874	287.66
366.256	276.14
366.637	272.3
367.019	279.3
367.4	282.69
367.781	272.52
368.163	275.68
368.544	278.17
368.925	276.36
369.306	266.42
369.688	288.79
370.069	266.19
370.45	276.36
370.831	284.95
371.212	279.75
371.593	290.6
371.974	264.16
372.355	303.71
372.736	281.79
373.117	283.59
373.498	267.1
373.879	276.59
374.26	290.6
374.641	274.78
375.021	283.14
375.402	282.92
375.783	288.79
376.163	268.45
376.544	303.03
376.925	272.3
377.305	271.62
377.686	297.83
378.066	295.57
378.447	280.2
378.827	281.79
379.208	282.46
379.588	291.73
379.968	262.58
380.349	274.55
380.729	299.86
381.109	302.8
381.489	293.99
381.87	288.11
382.25	291.05
382.63	287.44
383.01	298.06
383.39	262.13
383.77	280.43
384.15	296.25
384.53	300.54
384.91	279.3
385.29	289.24
385.67	274.1
386.049	304.61
386.429	287.89
386.809	317.94
387.189	295.57
387.568	283.59
387.948	292.86
388.328	284.27
388.707	288.79
389.087	290.37
389.466	292.18
389.846	292.63
390.225	303.03
390.605	288.57
390.984	318.17
391.363	291.73
391.743	283.59
392.122	298.28
392.501	314.78
392.881	306.19
393.26	281.56
393.639	288.34
394.018	296.93
394.397	312.07
394.776	288.57
395.155	293.99
395.534	302.12
395.913	305.06
396.292	317.27
396.671	316.14
397.05	305.51
397.429	304.16
397.808	304.61
398.186	308.23
398.565	291.73
398.944	305.74
399.323	289.24
399.701	289.92
400.08	311.62
400.458	298.06
400.837	298.51
401.215	307.55
401.594	297.15
401.972	292.41
402.351	273.43
402.729	292.86
403.107	315.01
403.486	305.97
403.864	319.75
404.242	292.41
404.62	299.64
404.999	286.31
405.377	292.18
405.755	326.98
406.133	305.97
406.511	308
406.889	304.16
407.267	302.35
407.645	305.29
408.023	292.63
408.401	308
408.779	331.28
409.156	287.21
409.534	310.71
409.912	303.03
410.29	318.62
410.667	304.16
411.045	293.76
411.422	300.32
411.8	301.67
412.178	310.49
412.555	305.74
412.933	320.66
413.31	310.71
413.687	304.16
414.065	293.31
414.442	298.28
414.819	294.44
415.197	314.55
415.574	317.04
415.951	314.33
416.328	306.42
416.705	301.45
417.082	300.54
417.46	309.36
417.837	310.71
418.214	291.05
418.591	299.64
418.967	305.97
419.344	315.91
419.721	314.1
420.098	305.97
420.475	305.29
420.852	318.4
421.228	320.2
421.605	330.82
421.982	292.86
422.358	300.09
422.735	331.28
423.111	302.8
423.488	318.4
423.864	312.75
424.241	331.05
424.617	306.64
424.994	313.2
425.37	320.88
425.746	310.94
426.123	319.53
426.499	310.26
426.875	317.72
427.251	309.13
427.627	312.97
428.003	329.24
428.379	327.43
428.756	330.37
429.132	350.26
429.507	324.05
429.883	330.82
430.259	308.68
430.635	306.42
431.011	334.21
431.387	313.42
431.763	310.94
432.138	331.5
432.514	300.54
432.89	329.69
433.265	319.75
433.641	325.85
434.016	315.91
434.392	327.43
434.767	317.72
435.143	322.46
435.518	342.35
435.894	315.68
436.269	342.58
436.644	312.29
437.02	317.27
437.395	329.02
437.77	335.34
438.145	330.15
438.52	322.92
438.895	339.19
439.271	323.14
439.646	328.11
440.021	344.16
440.395	346.42
440.77	348.45
441.145	331.28
441.52	341.45
441.895	345.97
442.27	338.06
442.645	353.65
443.019	376.25
443.394	339.86
443.769	372.18
444.143	343.48
444.518	348.9
444.892	348.9
445.267	341.67
445.641	360.88
446.016	339.64
446.39	354.33
446.764	352.52
447.139	360.65
447.513	343.93
447.887	371.95
448.262	373.08
448.636	361.11
449.01	368.11
449.384	370.6
449.758	370.82
450.132	367.89
450.506	363.59
450.88	368.11
451.254	355.91
451.628	373.08
452.002	370.82
452.376	381.44
452.75	376.25
453.123	373.31
453.497	388.45
453.871	373.76
454.244	369.69
454.618	360.88
454.992	357.94
455.365	360.2
455.739	376.25
456.112	365.4
456.486	379.64
456.859	365.4
457.232	380.54
457.606	376.93
457.979	371.05
458.352	372.41
458.725	362.01
459.099	366.3
459.472	376.93
459.845	378.06
460.218	365.85
460.591	364.72
460.964	336.47
461.337	354.33
461.71	364.72
462.083	374.67
462.456	364.04
462.829	364.95
463.201	361.33
463.574	345.51
463.947	355.91
464.32	364.72
464.692	353.65
465.065	364.04
465.438	382.35
465.81	369.92
466.183	374.67
466.555	369.92
466.928	351.39
467.3	352.07
467.672	368.56
468.045	365.17
468.417	351.39
468.789	364.95
469.161	350.94
469.534	375.12
469.906	349.58
470.278	359.3
470.65	361.56
471.022	332.63
471.394	352.52
471.766	352.29
472.138	355.46
472.51	381.44
472.882	362.24
473.253	362.24
473.625	364.95
473.997	342.35
474.369	345.29
474.74	334.44
475.112	372.63
475.484	355.91
475.855	374.44
476.227	326.3
476.598	352.07
476.97	351.84
477.341	360.2
477.713	356.13
478.084	359.52
478.455	373.76
478.827	367.21
479.198	360.65
479.569	359.07
479.94	362.46
480.311	362.01
480.682	359.52
481.053	372.18
481.424	373.99
481.795	362.01
482.166	378.51
482.537	352.07
482.908	363.37
483.279	368.56
483.65	351.62
484.021	352.97
484.391	349.81
484.762	376.02
485.133	346.42
485.503	376.25
485.874	354.1
486.244	355.91
486.615	364.04
486.985	357.49
487.356	374.21
487.726	390.03
488.097	369.24
488.467	366.3
488.837	392.52
489.207	368.79
489.578	380.09
489.948	381.9
490.318	394.33
490.688	376.47
491.058	374.89
491.428	397.04
491.798	390.71
492.168	380.31
492.538	382.8
492.908	380.77
493.278	373.31
493.648	399.07
494.017	364.27
494.387	373.54
494.757	399.3
495.126	379.64
495.496	379.64
495.866	381.44
496.235	388
496.605	379.64
496.974	370.6
497.344	402.46
497.713	427.09
498.082	416.25
498.452	400.43
498.821	414.21
499.19	395
499.559	385.29
499.928	401.33
500.298	417.83
500.667	415.79
501.036	396.13
501.405	404.04
501.774	420.09
502.143	392.74
502.512	393.2
502.88	413.53
503.249	406.53
503.618	431.61
503.987	430.71
504.356	413.08
504.724	407.43
505.093	406.98
505.462	422.8
505.83	405.17
506.199	425.51
506.567	426.64
506.936	409.92
507.304	406.53
507.672	419.41
508.041	425.74
508.409	423.93
508.777	404.95
509.145	429.35
509.514	423.03
509.882	434.32
510.25	432.06
510.618	430.03
510.986	440.2
511.354	413.99
511.722	442.69
512.09	453.99
512.458	434.32
512.826	432.97
513.193	456.92
513.561	424.38
513.929	455.79
514.297	444.95
514.664	455.12
515.032	417.15
515.4	447.21
515.767	443.59
516.135	467.09
516.502	448.79
516.869	449.47
517.237	459.86
517.604	455.79
517.972	464.83
518.339	469.35
518.706	437.49
519.073	454.44
519.44	463.02
519.808	459.41
520.175	457.37
520.542	456.25
520.909	457.83
521.276	462.35
521.643	477.04
522.009	459.18
522.376	465.06
522.743	477.04
523.11	465.96
523.477	476.13
523.843	459.63
524.21	467.77
524.577	470.48
524.943	481.1
525.31	481.56
525.676	466.87
526.043	494.66
526.409	469.35
526.776	487.66
527.142	491.95
527.508	482.01
527.874	507.09
528.241	475.45
528.607	489.24
528.973	492.18
529.339	485.62
529.705	488.79
530.071	490.14
530.437	503.7
530.803	503.25
531.169	493.76
531.535	508.9
531.901	498.05
532.267	500.09
532.632	483.59
532.998	489.01
533.364	501.67
533.73	507.77
534.095	507.32
534.461	480.65
534.826	507.32
535.192	515
535.557	506.41
535.923	508.67
536.288	495.34
536.653	510.48
537.019	515
537.384	507.09
537.749	496.47
538.114	523.36
538.479	502.35
538.845	504.15
539.21	511.38
539.575	493.53
539.94	521.55
540.305	524.94
540.67	487.43
541.034	494.21
541.399	518.39
541.764	517.94
542.129	526.53
542.494	534.21
542.858	529.46
543.223	515.45
543.587	525.4
543.952	512.74
544.316	522.46
544.681	513.64
545.045	519.07
545.41	529.92
545.774	505.06
546.138	526.98
546.503	509.35
546.867	513.64
547.231	517.03
547.595	522.01
547.959	513.87
548.324	512.74
548.688	488.56
549.052	533.76
549.416	539.63
549.779	534.21
550.143	540.08
550.507	528.11
550.871	535.57
551.235	531.05
551.599	522.91
551.962	527.66
552.326	545.06
552.689	534.44
553.053	526.75
553.417	521.1
553.78	531.72
554.143	520.2
554.507	528.79
554.87	528.11
555.234	560.65
555.597	524.94
555.96	537.82
556.323	548.67
556.686	543.47
557.05	562.46
557.413	541.89
557.776	524.04
558.139	536.69
558.502	544.15
558.865	554.32
559.228	571.95
559.59	555.45
559.953	542.8
560.316	542.57
560.679	561.78
561.041	555.23
561.404	536.24
561.767	547.09
562.129	559.52
562.492	542.12
562.854	558.39
563.217	558.16
563.579	554.1
563.941	531.95
564.304	579.86
564.666	558.84
565.028	549.12
565.39	547.99
565.753	569.24
566.115	585.96
566.477	571.5
566.839	578.73
567.201	552.06
567.563	570.14
567.925	572.17
568.287	573.76
568.648	560.65
569.01	555.45
569.372	546.19
569.734	565.39
570.095	563.13
570.457	573.76
570.819	582.34
571.18	577.82
571.542	573.53
571.903	596.13
572.265	578.73
572.626	573.53
572.987	593.64
573.349	577.15
573.71	579.18
574.071	592.96
574.432	588.67
574.794	581.44
575.155	590.93
575.516	574.21
575.877	581.21
576.238	583.25
576.599	578.28
576.96	560.65
577.32	592.74
577.681	577.6
578.042	581.44
578.403	580.54
578.763	586.64
579.124	575.79
579.485	584.38
579.845	562.68
580.206	576.47
580.566	580.54
580.927	579.86
581.287	582.12
581.648	589.35
582.008	598.84
582.368	590.7
582.728	593.64
583.089	573.08
583.449	577.82
583.809	586.64
584.169	579.18
584.529	581.44
584.889	591.61
585.249	579.18
585.609	569.46
585.969	595.9
586.329	613.08
586.688	596.35
587.048	569.91
587.408	595.22
587.768	569.24
588.127	587.99
588.487	579.41
588.846	609.91
589.206	584.38
589.565	579.86
589.925	580.99
590.284	572.85
590.643	568.11
591.003	588.67
591.362	591.61
591.721	573.08
592.08	569.91
592.44	571.04
592.799	578.28
593.158	566.52
593.517	586.64
593.876	563.13
594.235	580.54
594.593	586.19
594.952	606.98
595.311	579.86
595.67	574.66
596.029	578.28
596.387	574.66
596.746	562
597.104	585.51
597.463	591.83
597.822	574.21
598.18	591.16
598.538	585.51
598.897	574.21
599.255	561.33
599.613	566.52
599.972	580.76
600.33	564.49
600.688	559.97
601.046	564.49
601.404	568.56
601.762	567.2
602.12	575.11
602.478	571.95
602.836	564.72
603.194	585.73
603.552	579.86
603.91	572.17
604.268	553.19
604.625	560.65
604.983	585.96
605.341	544.38
605.698	561.1
606.056	567.65
606.413	579.18
606.771	550.71
607.128	563.81
607.485	579.63
607.843	569.46
608.2	552.97
608.557	559.52
608.914	547.54
609.272	576.92
609.629	563.81
609.986	561.78
610.343	567.65
610.7	570.37
611.057	555.9
611.414	562.23
611.771	553.19
612.127	552.06
612.484	555.45
612.841	544.6
613.198	522.01
613.554	567.88
613.911	550.03
614.267	533.98
614.624	560.2
614.98	539.18
615.337	550.25
615.693	529.24
616.05	563.36
616.406	566.75
616.762	551.38
617.118	534.44
617.475	526.98
617.831	558.16
618.187	551.38
618.543	521.1
618.899	515
619.255	528.56
619.611	536.24
619.967	515.23
620.323	542.57
620.678	564.26
621.034	540.99
621.39	533.76
621.746	534.89
622.101	524.72
622.457	535.34
622.812	540.76
623.168	538.95
623.523	493.98
623.879	536.47
624.234	514.32
624.589	515.45
624.945	534.89
625.3	513.64
625.655	525.4
626.01	508.9
626.365	495.57
626.72	505.74
627.075	502.57
627.43	512.97
627.785	512.06
628.14	497.83
628.495	508.67
628.85	495.11
629.205	493.98
629.559	513.19
629.914	510.48
630.269	505.74
630.623	506.87
630.978	486.75
631.332	511.16
631.687	483.14
632.041	488.11
632.396	484.94
632.75	482.23
633.104	489.01
633.459	494.21
633.813	499.41
634.167	513.64
634.521	483.59
634.875	483.81
635.229	487.2
635.583	488.79
635.937	486.3
636.291	492.18
636.645	465.06
636.999	484.49
637.352	463.93
637.706	474.78
638.06	467.09
638.413	479.75
638.767	479.07
639.121	468.9
639.474	483.14
639.828	456.7
640.181	481.56
640.534	469.35
640.888	471.61
641.241	444.72
641.594	464.38
641.947	451.05
642.301	467.77
642.654	483.59
643.007	471.84
643.36	449.24
643.713	447.43
644.066	448.56
644.419	460.99
644.771	451.27
645.124	446.08
645.477	435.68
645.83	467.77
646.182	463.02
646.535	440.2
646.888	425.51
647.24	453.31
647.593	439.3
647.945	442.69
648.298	428.45
648.65	453.99
649.002	437.94
649.355	435
649.707	425.74
650.059	433.19
650.411	444.72
650.763	443.14
651.115	439.97
651.467	411.95
651.819	439.3
652.171	458.5
652.523	428
652.875	429.35
653.227	429.13
653.578	426.19
653.93	428
654.282	430.48
654.633	434.32
654.985	395.46
655.337	425.06
655.688	409.24
656.039	412.86
656.391	437.94
656.742	413.08
657.094	390.94
657.445	422.57
657.796	417.15
658.147	442.91
658.498	414.44
658.849	430.03
659.2	426.64
659.551	395.46
659.902	413.76
660.253	417.6
660.604	396.13
660.955	419.64
661.306	409.69
661.656	406.53
662.007	413.76
662.358	410.14
662.708	393.87
663.059	414.66
663.409	415.79
663.76	400.43
664.11	397.72
664.461	391.39
664.811	396.81
665.161	397.04
665.511	414.66
665.862	412.86
666.212	416.92
666.562	394.1
666.912	375.8
667.262	425.96
667.612	413.76
667.962	383.48
668.312	423.03
668.662	405.17
669.011	385.96
669.361	419.64
669.711	400.65
670.06	391.16
670.41	402.01
670.76	381.22
671.109	396.36
671.459	396.81
671.808	385.06
672.157	385.74
672.507	389.81
672.856	390.03
673.205	379.18
673.554	392.74
673.904	413.31
674.253	380.99
674.602	385.29
674.951	391.61
675.3	406.3
675.649	377.6
675.998	386.42
676.346	392.07
676.695	401.33
677.044	396.81
677.393	387.09
677.741	380.09
678.09	380.31
678.438	402.01
678.787	400.43
679.135	383.7
679.484	399.98
679.832	400.43
680.181	392.29
680.529	379.86
680.877	387.77
681.225	375.57
681.573	391.84
681.922	376.25
682.27	387.77
682.618	395.23
682.966	402.46
683.314	383.93
683.661	365.63
684.009	370.15
684.357	376.93
684.705	392.52
685.053	392.97
685.4	392.97
685.748	379.64
686.095	372.63
686.443	378.06
686.79	399.98
687.138	374.67
687.485	366.76
687.832	369.92
688.18	358.85
688.527	360.88
688.874	359.98
689.221	354.33
689.568	364.72
689.915	371.73
690.262	365.63
690.609	382.12
690.956	378.28
691.303	360.2
691.65	374.21
691.997	365.17
692.344	385.96
692.69	371.5
693.037	382.35
693.383	375.57
693.73	364.95
694.077	362.24
694.423	360.43
694.769	374.67
695.116	364.04
695.462	375.12
695.808	362.69
696.155	359.52
696.501	392.07
696.847	378.06
697.193	380.54
697.539	355.91
697.885	358.17
698.231	352.97
698.577	349.81
698.923	361.78
699.269	358.85
699.614	350.03
699.96	369.47
700.306	354.1
700.651	355.91
700.997	363.59
701.342	369.24
701.688	366.98
702.033	348.9
702.379	346.19
702.724	331.95
703.069	347.1
703.415	338.96
703.76	369.92
704.105	343.03
704.45	349.58
704.795	367.43
705.14	356.81
705.485	336.47
705.83	361.33
706.175	343.93
706.52	350.49
706.865	342.8
707.209	359.3
707.554	370.82
707.899	349.36
708.243	361.78
708.588	362.24
708.932	357.04
709.277	362.46
709.621	360.2
709.966	359.07
710.31	329.47
710.654	356.36
710.998	327.89
711.342	358.62
711.687	356.36
712.031	362.91
712.375	343.93
712.719	360.2
713.063	339.64
713.407	335.34
713.75	347.55
714.094	328.34
714.438	352.74
714.782	342.35
715.125	359.98
715.469	354.33
715.812	323.59
716.156	362.69
716.499	350.03
716.843	331.28
717.186	321.79
717.53	350.26
717.873	342.35
718.216	330.82
718.559	338.73
718.902	337.6
719.246	359.98
719.589	338.06
719.932	367.43
720.275	336.7
720.617	349.81
720.96	334.21
721.303	340.99
721.646	337.83
721.989	331.73
722.331	335.34
722.674	351.84
723.016	326.3
723.359	330.37
723.701	325.18
724.044	323.59
724.386	341.45
724.729	327.66
725.071	368.79
725.413	329.92
725.755	336.47
726.097	348.9
726.439	330.37
726.782	340.77
727.124	351.62
727.465	339.19
727.807	336.25
728.149	340.54
728.491	331.73
728.833	333.99
729.175	339.41
729.516	349.36
729.858	323.14
730.199	344.61
730.541	353.65
730.882	340.54
731.224	328.34
731.565	321.11
731.906	341.67
732.248	343.03
732.589	354.55
732.93	339.41
733.271	343.03
733.612	346.87
733.953	325.63
734.294	334.89
734.635	331.5
734.976	332.63
735.317	356.36
735.658	339.86
735.999	329.02
736.339	326.53
736.68	349.36
737.021	353.2
737.361	335.12
737.702	331.73
738.042	329.92
738.383	346.19
738.723	346.42
739.063	342.35
739.404	322.69
739.744	339.41
740.084	346.42
740.424	329.24
740.764	325.63
741.104	331.5
741.444	331.73
741.784	327.89
742.124	310.26
742.464	335.8
742.804	342.58
743.143	333.99
743.483	337.83
743.823	352.74
744.162	346.42
744.502	330.82
744.841	332.86
745.181	329.24
745.52	325.85
745.86	330.37
746.199	344.84
746.538	341.22
746.877	343.25
747.216	330.82
747.556	312.52
747.895	339.86
748.234	340.77
748.573	318.85
748.911	330.82
749.25	347.77
749.589	339.64
749.928	337.83
750.267	353.42
750.605	336.25
750.944	332.63
751.283	338.06
751.621	332.18
751.96	326.76
752.298	326.53
752.636	332.41
752.975	315.68
753.313	345.74
753.651	366.08
753.989	324.72
754.327	335.8
754.666	341.45
755.004	327.66
755.342	333.08
755.679	352.29
756.017	379.41
756.355	352.74
756.693	350.71
757.031	321.11
757.368	344.84
757.706	352.07
758.044	330.82
758.381	351.16
758.719	341.45
759.056	338.28
759.394	323.82
759.731	330.37
760.068	346.19
760.405	338.06
760.743	331.73
761.08	333.54
761.417	330.6
761.754	324.72
762.091	338.06
762.428	345.74
762.765	342.8
763.102	347.77
763.438	346.19
763.775	320.43
764.112	320.43
764.449	318.4
764.785	343.93
765.122	349.58
765.458	328.56
765.795	351.84
766.131	324.5
766.467	357.49
766.804	316.36
767.14	323.59
767.476	341.22
767.812	328.11
768.148	336.47
768.485	337.38
768.821	324.05
769.157	350.26
769.492	340.09
769.828	311.84
770.164	331.95
770.5	343.93
770.836	316.14
771.171	335.8
771.507	345.29
771.842	359.75
772.178	333.76
772.513	323.14
772.849	332.18
773.184	345.74
773.519	351.62
773.855	324.72
774.19	341.22
774.525	345.97
774.86	337.38
775.195	319.3
775.53	335.34
775.865	337.15
776.2	339.64
776.535	343.03
776.87	326.08
777.205	338.28
777.539	306.42
777.874	304.61
778.209	334.89
778.543	338.96
778.878	308.9
779.212	316.81
779.547	315.91
779.881	334.67
780.215	318.4
780.55	320.43
780.884	327.43
781.218	332.18
781.552	313.42
781.886	337.6
782.22	325.18
782.554	314.55
782.888	329.47
783.222	324.05
783.556	329.69
783.889	329.69
784.223	334.44
784.557	333.76
784.89	332.86
785.224	321.79
785.557	334.89
785.891	338.73
786.224	324.5
786.558	340.99
786.891	336.02
787.224	330.15
787.557	348.9
787.891	358.62
788.224	324.27
788.557	315.46
788.89	320.43
789.223	333.08
789.556	324.95
789.888	345.74
790.221	320.66
790.554	330.82
790.887	348.9
791.219	330.82
791.552	326.08
791.884	322.92
792.217	315.68
792.549	319.3
792.882	322.24
793.214	322.01
793.546	347.77
793.879	315.91
794.211	336.47
794.543	322.24
794.875	328.11
795.207	316.59
795.539	337.38
795.871	325.63
796.203	312.75
796.535	340.77
796.867	332.86
797.198	328.34
797.53	324.95
797.862	330.15
798.193	331.95
798.525	340.77
798.856	310.94
799.188	349.36
799.519	329.92
799.85	326.53
800.182	335.34
800.513	341.9
800.844	344.61
801.175	345.51
801.506	317.49
801.837	344.38
802.168	305.74
802.499	331.95
802.83	322.69
803.161	330.82
803.491	314.55
803.822	330.37
804.153	336.02
804.483	327.66
804.814	318.4
805.145	331.95
805.475	331.5
805.805	341.45
806.136	341.22
806.466	315.91
806.796	339.19
807.126	337.6
807.457	307.1
807.787	311.84
808.117	322.01
808.447	336.25
808.777	317.04
809.107	318.62
809.436	301.22
809.766	348.68
810.096	321.56
810.426	339.86
810.755	329.92
811.085	321.56
811.414	331.73
811.744	318.4
812.073	318.17
812.403	339.19
812.732	326.3
813.061	345.97
813.39	313.2
813.719	332.63
814.049	322.46
814.378	333.76
814.707	324.05
815.036	339.86
815.365	325.4
815.693	312.29
816.022	325.85
816.351	317.72
816.68	344.84
817.008	336.47
817.337	319.98
817.665	323.14
817.994	320.88
818.322	341.9
818.651	322.46
818.979	329.47
819.307	332.63
819.636	338.96
819.964	321.33
820.292	328.56
820.62	338.06
820.948	343.71
821.276	343.25
821.604	316.81
821.932	322.92
822.259	326.3
822.587	338.51
822.915	339.19
823.243	338.73
823.57	331.95
823.898	319.75
824.225	333.99
824.553	340.54
824.88	328.34
825.207	337.15
825.535	343.03
825.862	341.22
826.189	335.12
826.516	326.76
826.843	313.65
827.17	333.76
827.497	321.11
827.824	318.85
828.151	355.68
828.478	327.21
828.805	328.34
829.131	348.23
829.458	346.19
829.785	317.04
830.111	342.8
830.438	335.34
830.764	343.03
831.09	325.63
831.417	324.95
831.743	320.2
832.069	336.93
832.395	319.75
832.722	341.67
833.048	330.82
833.374	315.46
833.7	332.86
834.026	350.94
834.351	331.5
834.677	323.59
835.003	317.27
835.329	319.53
835.654	341.67
835.98	321.11
836.306	330.37
836.631	328.79
836.956	312.52
837.282	329.24
837.607	340.09
837.932	346.19
838.258	335.12
838.583	331.5
838.908	329.02
839.233	339.19
839.558	320.43
839.883	313.2
840.208	335.34
840.533	324.5
840.858	339.86
841.182	337.15
841.507	338.06
841.832	321.33
842.156	311.84
842.481	344.38
842.805	333.76
843.13	313.65
843.454	312.07
843.778	310.49
844.103	330.6
844.427	314.1
844.751	331.05
845.075	340.77
845.399	308.45
845.723	342.35
846.047	340.99
846.371	329.24
846.695	308.23
847.019	328.34
847.343	348.9
847.666	338.73
847.99	319.3
848.313	337.38
848.637	334.67
848.96	325.63
849.284	327.43
849.607	323.37
849.931	338.51
850.254	329.69
850.577	332.18
850.9	308.68
851.223	331.73
851.546	324.95
851.869	325.4
852.192	338.06
852.515	330.82
852.838	345.97
853.161	310.03
853.483	330.6
853.806	315.46
854.129	331.95
854.451	308.68
854.774	343.03
855.096	323.82
855.419	319.53
855.741	323.37
856.063	322.01
856.385	327.43
856.708	323.82
857.03	324.95
857.352	322.92
857.674	308.23
857.996	313.42
858.318	325.4
858.64	333.76
858.961	324.27
859.283	303.93
859.605	326.08
859.926	319.53
860.248	324.72
860.57	326.76
860.891	332.18
861.212	323.59
861.534	329.02
861.855	347.77
862.176	309.36
862.498	340.54
862.819	329.02
863.14	326.08
863.461	332.63
863.782	331.5
864.103	317.72
864.424	334.21
864.745	338.96
865.065	338.51
865.386	317.72
865.707	319.98
866.027	324.27
866.348	327.66
866.668	308
866.989	315.01
867.309	349.58
867.63	339.41
867.95	336.02
868.27	329.02
868.59	326.98
868.91	319.07
869.23	328.11
869.55	319.53
869.87	319.98
870.19	326.53
870.51	321.33
870.83	328.11
871.15	318.17
871.469	333.54
871.789	343.03
872.109	314.78
872.428	318.62
872.748	328.79
873.067	335.8
873.386	332.41
873.706	307.77
874.025	317.27
874.344	323.59
874.663	325.85
874.982	319.98
875.301	324.95
875.62	322.69
875.939	322.24
876.258	320.66
876.577	316.36
876.896	321.11
877.214	359.3
877.533	331.95
877.852	340.09
878.17	336.7
878.489	328.79
878.807	294.44
879.125	308.68
879.444	334.67
879.762	337.6
880.08	322.69
880.398	321.33
880.716	326.3
881.034	320.2
881.352	319.07
881.67	340.09
881.988	317.04
882.306	320.66
882.624	331.95
882.941	314.33
883.259	314.1
883.577	323.82
883.894	329.47
884.212	333.54
884.529	303.25
884.846	336.47
885.164	333.76
885.481	334.21
885.798	345.97
886.115	328.34
886.432	318.85
886.75	316.36
887.067	322.46
887.383	315.91
887.7	321.56
888.017	323.14
888.334	326.08
888.651	328.56
888.967	345.51
889.284	319.07
889.6	335.12
889.917	342.35
890.233	301.45
890.55	339.64
890.866	317.72
891.182	326.53
891.498	318.17
891.815	321.79
892.131	300.09
892.447	324.05
892.763	298.06
893.079	324.72
893.395	320.2
893.71	299.19
894.026	333.31
894.342	329.02
894.657	317.27
894.973	319.53
895.289	328.56
895.604	311.39
895.92	323.59
896.235	331.73
896.55	322.69
896.865	313.42
897.181	339.64
897.496	346.87
897.811	328.56
898.126	317.72
898.441	305.97
898.756	322.46
899.071	319.98
899.386	335.57
899.7	316.36
900.015	333.08
900.33	329.92
900.644	324.05
900.959	324.27
901.273	334.44
901.588	318.4
901.902	319.98
902.216	342.35
902.531	326.08
902.845	320.2
903.159	312.97
903.473	306.19
903.787	326.76
904.101	320.88
904.415	338.06
904.729	309.13
905.042	315.91
905.356	319.98
905.67	319.07
905.984	311.62
906.297	329.47
906.611	314.55
906.924	324.27
907.237	333.99
907.551	340.99
907.864	287.89
908.177	318.85
908.491	332.18
908.804	302.35
909.117	318.17
909.43	298.51
909.743	324.05
910.056	335.12
910.368	312.52
910.681	310.03
910.994	307.77
911.307	329.47
911.619	326.98
911.932	325.63
912.244	325.18
912.557	324.72
912.869	341.67
913.181	331.05
913.494	324.72
913.806	329.24
914.118	301.22
914.43	327.21
914.742	313.2
915.054	318.62
915.366	323.59
915.678	331.05
915.99	315.91
916.302	304.16
916.613	326.08
916.925	323.59
917.236	323.82
917.548	343.71
917.859	336.25
918.171	335.8
918.482	320.88
918.794	339.86
919.105	312.75
919.416	331.95
919.727	348.9
920.038	339.19
920.349	305.74
920.66	323.14
920.971	323.37
921.282	315.46
921.593	311.39
921.903	325.4
922.214	322.92
922.525	313.2
922.835	322.01
923.146	311.16
923.456	321.56
923.767	336.93
924.077	339.86
924.387	334.21
924.697	314.33
925.008	315.01
925.318	318.62
925.628	335.57
925.938	334.67
926.248	334.89
926.558	318.4
926.867	325.85
927.177	309.36
927.487	343.71
927.796	322.46
928.106	347.1
928.416	322.01
928.725	306.87
929.034	329.47
929.344	321.11
929.653	324.05
929.962	311.62
930.271	322.24
930.581	320.2
930.89	314.1
931.199	318.4
931.508	314.33
931.817	317.49
932.125	322.69
932.434	328.79
932.743	309.58
933.051	322.01
933.36	325.63
933.669	322.69
933.977	326.3
934.286	329.69
934.594	332.63
934.902	303.25
935.21	339.64
935.519	328.56
935.827	313.88
936.135	340.09
936.443	321.56
936.751	327.21
937.059	318.17
937.367	317.27
937.674	336.7
937.982	316.81
938.29	314.33
938.597	319.98
938.905	324.05
939.213	307.1
939.52	319.07
939.827	330.37
940.135	295.8
940.442	312.97
940.749	321.79
941.056	303.93
941.363	331.95
941.67	322.46
941.977	330.15
942.284	325.63
942.591	319.98
942.898	329.24
943.205	316.81
943.511	329.92
943.818	303.71
944.125	320.43
944.431	318.85
944.738	316.59
945.044	323.59
945.35	319.75
945.657	324.72
945.963	341.45
946.269	317.04
946.575	311.62
946.881	309.36
947.187	326.3
947.493	336.02
947.799	308.45
948.105	332.41
948.41	317.72
948.716	314.78
949.022	303.93
949.327	309.13
949.633	303.93
949.938	317.72
950.244	325.18
950.549	313.65
950.854	309.36
951.16	290.15
951.465	321.33
951.77	311.16
952.075	320.66
952.38	310.26
952.685	307.32
952.99	305.29
953.294	330.6
953.599	316.14
953.904	324.05
954.209	327.43
954.513	335.57
954.818	324.5
955.122	312.29
955.426	322.92
955.731	314.78
956.035	319.3
956.339	318.4
956.643	299.64
956.948	331.28
957.252	316.36
957.556	346.64
957.86	305.51
958.163	322.46
958.467	324.72
958.771	337.6
959.075	329.47
959.378	308.23
959.682	341.9
959.985	318.4
960.289	318.62
960.592	340.32
960.896	317.49
961.199	336.93
961.502	324.27
961.805	315.46
962.108	324.27
962.411	338.96
962.714	304.16
963.017	321.11
963.32	316.81
963.623	323.59
963.926	336.25
964.228	317.49
964.531	330.6
964.833	305.51
965.136	335.8
965.438	315.23
965.741	307.32
966.043	337.15
966.345	312.75
966.648	326.3
966.95	319.3
967.252	313.2
967.554	312.07
967.856	320.43
968.158	321.79
968.46	327.21
968.761	314.33
969.063	331.28
969.365	316.59
969.666	328.34
969.968	326.08
970.269	329.69
970.571	323.14
970.872	325.85
971.174	343.48
971.475	329.24
971.776	319.07
972.077	334.21
972.378	316.14
972.679	303.03
972.98	325.85
973.281	317.94
973.582	295.57
973.883	339.64
974.183	318.17
974.484	310.03
974.785	315.68
975.085	314.55
975.386	300.09
975.686	332.41
975.986	329.92
976.287	310.26
976.587	326.76
976.887	319.75
977.187	330.37
977.487	338.06
977.787	294.67
978.087	315.01
978.387	314.78
978.687	316.81
978.987	319.3
979.286	320.43
979.586	324.95
979.885	338.28
980.185	318.62
980.484	320.88
980.784	318.17
981.083	322.46
981.382	313.42
981.682	309.36
981.981	342.8
982.28	325.18
982.579	319.75
982.878	326.76
983.177	314.55
983.475	318.62
983.774	319.98
984.073	312.97
984.372	310.03
984.67	326.98
984.969	313.65
985.267	326.98
985.566	330.82
985.864	310.94
986.162	337.83
986.461	306.19
986.759	303.93
987.057	323.82
987.355	325.4
987.653	326.76
987.951	327.21
988.249	324.95
988.547	321.11
988.844	307.1
989.142	310.71
989.44	324.05
989.737	338.51
990.035	347.55
990.332	322.01
990.63	323.14
990.927	308.9
991.224	316.81
991.521	324.05
991.819	299.64
992.116	324.05
992.413	310.71
992.71	317.49
993.006	358.85
993.303	325.4
993.6	333.31
993.897	333.08
994.193	303.71
994.49	319.53
994.787	332.41
995.083	345.74
995.379	325.85
995.676	326.3
995.972	312.75
996.268	337.6
996.565	326.76
996.861	324.5
997.157	310.26
997.453	333.99
997.749	334.44
998.044	315.68
998.34	302.8
998.636	307.1
998.932	337.6
999.227	333.54
999.523	325.18
999.818	310.03
1000.114	328.79
1000.409	317.49
1000.704	331.05
1001	322.24
1001.295	330.37
1001.59	314.33
1001.885	333.76
1002.18	308.68
1002.475	325.18
1002.77	316.59
1003.065	313.88
1003.359	313.42
1003.654	315.46
1003.949	323.37
1004.243	313.42
1004.538	318.4
1004.832	312.97
1005.127	321.33
1005.421	293.31
1005.715	294.44
1006.009	293.54
1006.304	317.04
1006.598	315.46
1006.892	313.42
1007.186	306.42
1007.48	322.69
1007.773	328.56
1008.067	324.72
1008.361	318.17
1008.655	310.71
1008.948	319.3
1009.242	318.4
1009.535	322.69
1009.829	332.41
1010.122	339.86
1010.415	325.18
1010.708	319.75
1011.001	318.62
1011.295	309.81
1011.588	313.2
1011.881	305.51
1012.173	322.92
1012.466	319.07
1012.759	318.17
1013.052	323.59
1013.344	317.94
1013.637	321.33
1013.93	318.85
1014.222	327.66
1014.514	318.62
1014.807	330.15
1015.099	324.5
1015.391	323.82
1015.683	305.97
1015.976	311.84
1016.268	307.1
1016.56	307.32
1016.851	326.76
1017.143	313.88
1017.435	317.49
1017.727	337.38
1018.018	314.55
1018.31	319.3
1018.602	321.56
1018.893	308.9
1019.185	335.12
1019.476	329.92
1019.767	336.7
1020.058	311.62
1020.35	317.27
1020.641	352.52
1020.932	323.82
1021.223	312.97
1021.514	322.46
1021.804	316.81
1022.095	311.39
1022.386	329.69
1022.677	336.02
1022.967	322.92
1023.258	321.11
1023.548	311.62
1023.839	305.51
1024.129	324.5
1024.419	306.42
1024.709	326.53
1025	321.56
1025.29	322.24
1025.58	319.3
1025.87	338.06
1026.16	317.27
1026.449	324.27
1026.739	310.26
1027.029	302.12
1027.319	305.74
1027.608	304.61
1027.898	321.33
1028.187	315.46
1028.477	323.59
1028.766	318.4
1029.055	343.03
1029.344	310.94
1029.634	316.59
1029.923	313.42
1030.212	315.91
1030.501	336.25
1030.79	315.46
1031.078	331.28
1031.367	311.39
1031.656	307.1
1031.945	324.72
1032.233	329.02
1032.522	301.67
1032.81	318.85
1033.099	314.55
1033.387	332.18
1033.675	316.14
1033.963	328.56
1034.251	308.23
1034.54	297.38
1034.828	328.79
1035.116	319.98
1035.403	338.28
1035.691	322.46
1035.979	325.18
1036.267	328.11
1036.554	314.78
1036.842	323.59
1037.129	324.95
1037.417	314.33
1037.704	311.16
1037.992	304.61
1038.279	321.33
1038.566	325.18
1038.853	325.18
1039.14	325.18
