Data from No_light_on_white_reflection_standard_FLMS001491_071.txt Node
Date: Tue Feb 07 10:33:06 GMT 2017
User: dcchb
Spectrometer: FLMS00149
Trigger mode: 0
Integration Time (sec): 2.000000E-2
Scans to average: 10
Electric dark correction enabled: true
Nonlinearity correction enabled: false
Boxcar width: 0
XAxis mode: Wavelengths
Number of Pixels in Spectrum: 2048
>>>>>Begin Spectral Data<<<<<
341.393	2.73
341.776	2.73
342.16	2.73
342.543	-64.84
342.927	-62.81
343.31	-84.73
343.693	-70.27
344.077	-69.59
344.46	-54.45
344.843	-71.17
345.226	-44.73
345.61	-46.99
345.993	-3.83
346.376	6.79
346.759	14.7
347.142	26.91
347.525	39.79
347.908	78.88
348.291	90.63
348.674	71.88
349.057	116.17
349.44	110.07
349.823	143.06
350.206	165.66
350.588	129.28
350.971	183.96
351.354	180.35
351.737	196.39
352.119	218.99
352.502	220.8
352.884	230.29
353.267	267.8
353.65	270.06
354.032	265.32
354.414	280.01
354.797	277.75
355.179	288.82
355.562	292.21
355.944	285.88
356.326	306.22
356.709	309.84
357.091	303.96
357.473	301.02
357.855	316.62
358.238	313.68
358.62	289.27
359.002	311.42
359.384	297.86
359.766	323.17
360.148	302.83
360.53	317.75
360.912	296.05
361.294	309.38
361.676	309.38
362.057	288.14
362.439	303.73
362.821	292.66
363.203	289.5
363.584	270.06
363.966	289.05
364.348	279.55
364.729	280.23
365.111	307.12
365.493	285.88
365.874	282.04
366.256	299.44
366.637	284.75
367.019	289.95
367.4	258.09
367.781	270.06
368.163	287.69
368.544	284.53
368.925	283.62
369.306	269.16
369.688	247.24
370.069	283.85
370.45	278.88
370.831	286.56
371.212	265.09
371.593	288.59
371.974	282.94
372.355	270.97
372.736	264.64
373.117	253.57
373.498	272.32
373.879	272.32
374.26	282.72
374.641	267.35
375.021	274.36
375.402	248.14
375.783	270.74
376.163	272.1
376.544	266.9
376.925	289.72
377.305	278.2
377.686	293.11
378.066	273
378.447	263.06
378.827	281.14
379.208	278.65
379.588	302.38
379.968	270.74
380.349	258.31
380.729	286.33
381.109	270.06
381.489	298.99
381.87	292.21
382.25	301.7
382.63	284.75
383.01	300.35
383.39	282.94
383.77	277.52
384.15	270.74
384.53	282.27
384.91	291.53
385.29	276.39
385.67	292.89
386.049	298.54
386.429	293.57
386.809	297.41
387.189	308.25
387.568	288.82
387.948	280.91
388.328	304.86
388.707	288.59
389.087	286.56
389.466	276.62
389.846	284.98
390.225	274.58
390.605	292.66
390.984	264.87
391.363	289.5
391.743	289.72
392.122	299.44
392.501	281.59
392.881	273.45
393.26	277.29
393.639	294.24
394.018	298.76
394.397	288.37
394.776	282.72
395.155	291.76
395.534	284.3
395.913	291.53
396.292	290.63
396.671	288.82
397.05	283.4
397.429	304.19
397.808	304.19
398.186	300.8
398.565	288.82
398.944	287.01
399.323	305.54
399.701	294.47
400.08	302.38
400.458	307.8
400.837	303.28
401.215	291.31
401.594	296.73
401.972	295.83
402.351	300.35
402.729	285.2
403.107	301.48
403.486	282.49
403.864	289.95
404.242	288.82
404.62	298.31
404.999	313
405.377	315.26
405.755	285.43
406.133	312.55
406.511	287.92
406.889	299.89
407.267	294.92
407.645	314.13
408.023	300.12
408.401	294.92
408.779	307.12
409.156	302.83
409.534	302.38
409.912	286.56
410.29	311.42
410.667	304.86
411.045	295.6
411.422	293.79
411.8	311.87
412.178	296.05
412.555	321.14
412.933	291.31
413.31	295.83
413.687	317.29
414.065	312.32
414.442	306.22
414.819	305.09
415.197	305.77
415.574	293.11
415.951	320.23
416.328	298.31
416.705	289.05
417.082	301.93
417.46	289.05
417.837	314.58
418.214	314.58
418.591	307.12
418.967	340.8
419.344	286.33
419.721	293.57
420.098	317.75
420.475	298.54
420.852	300.57
421.228	309.61
421.605	317.29
421.982	314.58
422.358	324.53
422.735	306.22
423.111	305.32
423.488	312.77
423.864	304.41
424.241	287.92
424.617	297.41
424.994	301.25
425.37	305.99
425.746	324.98
426.123	287.01
426.499	293.11
426.875	304.41
427.251	295.83
427.627	308.25
428.003	310.29
428.379	327.46
428.756	327.46
429.132	330.4
429.507	318.88
429.883	307.35
430.259	309.84
430.635	309.38
431.011	326.33
431.387	306.45
431.763	323.4
432.138	309.84
432.514	321.81
432.89	304.41
433.265	308.03
433.641	297.63
434.016	322.94
434.392	324.53
434.767	326.33
435.143	300.57
435.518	303.73
435.894	311.87
436.269	317.97
436.644	313.45
437.02	315.49
437.395	325.43
437.77	317.52
438.145	315.03
438.52	321.81
438.895	328.82
439.271	310.74
439.646	363.39
440.021	341.47
440.395	334.92
440.77	325.66
441.145	315.71
441.52	343.73
441.895	327.24
442.27	319.33
442.645	329.05
443.019	351.19
443.394	338.54
443.769	336.05
444.143	358.2
444.518	353.45
444.892	342.6
445.267	335.6
445.641	363.85
446.016	339.67
446.39	359.55
446.764	360.91
447.139	352.32
447.513	344.86
447.887	360.46
448.262	350.97
448.636	373.34
449.01	356.16
449.384	348.71
449.758	378.31
450.132	363.39
450.506	361.81
450.88	374.24
451.254	347.35
451.628	373.34
452.002	362.04
452.376	388.7
452.75	383.51
453.123	372.43
453.497	360
453.871	376.73
454.244	364.75
454.618	384.41
454.992	385.54
455.365	365.43
455.739	359.33
456.112	364.07
456.486	363.17
456.859	373.56
457.232	347.12
457.606	353.68
457.979	347.35
458.352	359.1
458.725	382.6
459.099	380.8
459.472	364.3
459.845	364.3
460.218	367.69
460.591	366.11
460.964	341.25
461.337	347.8
461.71	355.26
462.083	352.77
462.456	345.54
462.829	374.47
463.201	374.24
463.574	353
463.947	353
464.32	341.7
464.692	363.62
465.065	357.07
465.438	358.42
465.81	380.34
466.183	356.84
466.555	385.99
466.928	360
467.3	358.65
467.672	352.1
468.045	336.28
468.417	331.53
468.789	359.55
469.161	342.38
469.534	349.61
469.906	351.42
470.278	360.23
470.65	348.71
471.022	349.38
471.394	351.64
471.766	340.8
472.138	329.5
472.51	356.84
472.882	350.74
473.253	353.23
473.625	333.79
473.997	328.82
474.369	341.7
474.74	343.28
475.112	332.43
475.484	342.38
475.855	352.77
476.227	350.29
476.598	369.5
476.97	335.37
477.341	365.65
477.713	337.41
478.084	342.38
478.455	352.1
478.827	356.84
479.198	366.11
479.569	339.21
479.94	361.13
480.311	356.39
480.682	359.33
481.053	343.73
481.424	356.61
481.795	361.81
482.166	348.93
482.537	362.94
482.908	359.1
483.279	357.74
483.65	360.68
484.021	369.04
484.391	366.56
484.762	353.68
485.133	365.2
485.503	362.72
485.874	358.65
486.244	349.38
486.615	348.25
486.985	370.85
487.356	350.74
487.726	369.72
488.097	362.94
488.467	382.83
488.837	343.51
489.207	385.99
489.578	346.67
489.948	365.2
490.318	361.59
490.688	392.55
491.058	386.22
491.428	371.08
491.798	378.08
492.168	369.95
492.538	370.63
492.908	387.35
493.278	378.31
493.648	395.03
494.017	392.09
494.387	381.7
494.757	381.25
495.126	361.36
495.496	399.78
495.866	393.68
496.235	388.7
496.605	397.97
496.974	382.15
497.344	385.77
497.713	397.07
498.082	411.53
498.452	406.56
498.821	390.51
499.19	391.87
499.559	409.27
499.928	403.39
500.298	384.41
500.667	380.8
501.036	399.55
501.405	410.85
501.774	397.97
502.143	400.46
502.512	411.3
502.88	405.43
503.249	413.79
503.618	423.73
503.987	432.55
504.356	407.69
504.724	412.88
505.093	418.53
505.462	414.47
505.83	427.8
506.199	417.4
506.567	416.5
506.936	413.56
507.304	419.89
507.672	435.48
508.041	433
508.409	411.3
508.777	428.25
509.145	419.44
509.514	439.32
509.882	444.97
510.25	422.38
510.618	435.48
510.986	441.13
511.354	434.8
511.722	437.52
512.09	448.59
512.458	436.61
512.826	436.39
513.193	441.36
513.561	428.7
513.929	440.45
514.297	414.01
514.664	443.39
515.032	423.96
515.4	440.23
515.767	432.77
516.135	452.21
516.502	436.39
516.869	451.3
517.237	447.69
517.604	464.86
517.972	452.21
518.339	448.82
518.706	467.8
519.073	464.18
519.44	459.21
519.808	468.7
520.175	475.03
520.542	477.52
520.909	472.77
521.276	447.23
521.643	479.55
522.009	466.67
522.376	465.09
522.743	471.87
523.11	473.22
523.477	458.08
523.843	492.66
524.21	447.01
524.577	462.37
524.943	484.75
525.31	470.28
525.676	487.46
526.043	454.92
526.409	477.29
526.776	482.71
527.142	474.13
527.508	455.37
527.874	484.75
528.241	456.73
528.607	475.48
528.973	484.3
529.339	489.94
529.705	480
530.071	497.18
530.437	485.43
530.803	491.53
531.169	501.24
531.535	474.58
531.901	505.09
532.267	505.09
532.632	502.15
532.998	503.96
533.364	499.44
533.73	502.6
534.095	496.5
534.461	498.98
534.826	491.75
535.192	497.63
535.557	510.28
535.923	491.3
536.288	494.92
536.653	488.59
537.019	501.02
537.384	496.27
537.749	494.69
538.114	504.86
538.479	505.09
538.845	523.84
539.21	505.54
539.575	518.19
539.94	508.7
540.305	516.61
540.67	506.89
541.034	507.12
541.399	501.7
541.764	496.05
542.129	518.42
542.494	491.98
542.858	523.62
543.223	523.84
543.587	539.89
543.952	510.06
544.316	506.89
544.681	508.25
545.045	519.32
545.41	514.58
545.774	526.1
546.138	522.49
546.503	522.03
546.867	515.25
547.231	539.66
547.595	524.97
547.959	521.58
548.324	496.72
548.688	519.1
549.052	522.03
549.416	516.84
549.779	540.34
550.143	499.66
550.507	519.77
550.871	521.81
551.235	519.55
551.599	527.68
551.962	532.2
552.326	516.61
552.689	548.47
553.053	543.73
553.417	524.07
553.78	520.23
554.143	540.34
554.507	531.53
554.87	551.19
555.234	560.23
555.597	558.64
555.96	537.18
556.323	559.77
556.686	516.84
557.05	548.47
557.413	544.18
557.776	538.98
558.139	546.89
558.502	531.07
558.865	523.16
559.228	557.97
559.59	560.9
559.953	576.95
560.316	544.63
560.679	555.25
561.041	552.77
561.404	556.84
561.767	536.05
562.129	542.82
562.492	550.96
562.854	549.6
563.217	553.45
563.579	556.61
563.941	550.73
564.304	543.05
564.666	567.68
565.028	586.89
565.39	584.86
565.753	561.13
566.115	570.85
566.477	552.54
566.839	573.78
567.201	571.3
567.563	549.83
567.925	559.32
568.287	557.74
568.648	575.37
569.01	585.76
569.372	579.66
569.734	543.73
570.095	585.08
570.457	577.85
570.819	581.92
571.18	570.39
571.542	589.38
571.903	579.43
572.265	578.3
572.626	592.54
572.987	567.91
573.349	587.12
573.71	574.01
574.071	605.65
574.432	555.93
574.794	589.6
575.155	594.12
575.516	551.19
575.877	586.44
576.238	593.22
576.599	588.47
576.96	578.98
577.32	581.24
577.681	595.93
578.042	604.74
578.403	588.7
578.763	598.42
579.124	582.15
579.485	588.47
579.845	585.76
580.206	588.02
580.566	586.44
580.927	589.83
581.287	622.82
581.648	620.79
582.008	577.63
582.368	583.73
582.728	586.67
583.089	590.28
583.449	611.98
583.809	587.8
584.169	597.74
584.529	602.48
584.889	584.86
585.249	573.11
585.609	576.72
585.969	596.83
586.329	588.02
586.688	563.62
587.048	571.52
587.408	599.32
587.768	587.8
588.127	582.37
588.487	556.38
588.846	582.82
589.206	590.51
589.565	583.28
589.925	579.21
590.284	603.39
590.643	586.21
591.003	566.55
591.362	573.11
591.721	573.11
592.08	592.54
592.44	590.96
592.799	592.54
593.158	558.19
593.517	576.95
593.876	567.23
594.235	560.68
594.593	583.28
594.952	576.04
595.311	589.6
595.67	599.77
596.029	567.91
596.387	583.28
596.746	582.37
597.104	583.73
597.463	569.49
597.822	576.04
598.18	562.71
598.538	580.79
598.897	576.04
599.255	567
599.613	568.36
599.972	561.36
600.33	559.55
600.688	545.31
601.046	564.75
601.404	574.69
601.762	563.84
602.12	592.99
602.478	575.14
602.836	562.26
603.194	575.14
603.552	555.03
603.91	567
604.268	575.14
604.625	562.71
604.983	569.72
605.341	567.23
605.698	571.98
606.056	565.87
606.413	547.12
606.771	563.84
607.128	554.12
607.485	569.04
607.843	569.49
608.2	556.84
608.557	572.43
608.914	550.06
609.272	565.42
609.629	544.41
609.986	544.18
610.343	570.62
610.7	552.77
611.057	555.48
611.414	563.16
611.771	556.84
612.127	565.65
612.484	549.38
612.841	567
613.198	562.26
613.554	550.06
613.911	530.62
614.267	544.63
614.624	533.11
614.98	545.31
615.337	563.62
615.693	555.93
616.05	531.75
616.406	569.04
616.762	539.89
617.118	555.25
617.475	538.08
617.831	536.27
618.187	536.05
618.543	511.19
618.899	538.98
619.255	536.95
619.611	539.43
619.967	512.54
620.323	535.59
620.678	523.39
621.034	530.17
621.39	500.34
621.746	522.49
622.101	523.62
622.457	527.91
622.812	531.98
623.168	512.32
623.523	524.75
623.879	515.03
624.234	534.92
624.589	538.31
624.945	514.58
625.3	518.87
625.655	504.18
626.01	541.92
626.365	518.87
626.72	515.03
627.075	529.04
627.43	528.36
627.785	513.45
628.14	496.95
628.495	514.35
628.85	489.27
629.205	495.59
629.559	505.99
629.914	490.85
630.269	499.21
630.623	481.58
630.978	494.24
631.332	480.23
631.687	481.36
632.041	483.39
632.396	490.17
632.75	477.97
633.104	491.3
633.459	487.68
633.813	502.6
634.167	492.88
634.521	493.33
634.875	495.82
635.229	463.96
635.583	489.04
635.937	495.14
636.291	496.5
636.645	475.48
636.999	481.58
637.352	475.48
637.706	456.5
638.06	451.3
638.413	470.74
638.767	482.26
639.121	471.19
639.474	469.61
639.828	435.03
640.181	463.96
640.534	465.09
640.888	445.2
641.241	465.54
641.594	459.66
641.947	462.37
642.301	455.6
642.654	466.22
643.007	460.79
643.36	456.5
643.713	456.05
644.066	449.04
644.419	469.83
644.771	444.52
645.124	451.98
645.477	452.21
645.83	431.42
646.182	447.46
646.535	441.36
646.888	449.95
647.24	428.48
647.593	436.61
647.945	430.06
648.298	447.23
648.65	440.68
649.002	445.65
649.355	440
649.707	415.6
650.059	408.36
650.411	423.51
650.763	426.67
651.115	448.59
651.467	439.78
651.819	435.03
652.171	436.61
652.523	443.84
652.875	420.79
653.227	415.14
653.578	408.36
653.93	437.29
654.282	436.84
654.633	421.02
654.985	421.02
655.337	425.77
655.688	421.92
656.039	430.29
656.391	414.24
656.742	405.88
657.094	408.82
657.445	419.89
657.796	413.11
658.147	418.99
658.498	414.92
658.849	407.46
659.2	403.85
659.551	418.53
659.902	415.37
660.253	425.09
660.604	407.24
660.955	416.27
661.306	395.94
661.656	415.37
662.007	382.6
662.358	407.91
662.708	402.94
663.059	414.47
663.409	390.29
663.76	409.49
664.11	404.07
664.461	409.49
664.811	385.09
665.161	385.54
665.511	411.98
665.862	383.73
666.212	384.86
666.562	400.46
666.912	395.03
667.262	382.6
667.612	395.48
667.962	407.91
668.312	382.6
668.662	391.64
669.011	391.87
669.361	387.12
669.711	379.21
670.06	367.46
670.41	376.5
670.76	393.68
671.109	389.83
671.459	395.48
671.808	393
672.157	396.39
672.507	391.64
672.856	390.74
673.205	364.3
673.554	372.21
673.904	384.64
674.253	381.02
674.602	389.38
674.951	374.92
675.3	392.55
675.649	384.64
675.998	420.57
676.346	395.03
676.695	368.37
677.044	381.25
677.393	364.3
677.741	372.21
678.09	368.37
678.438	403.39
678.787	377.41
679.135	382.6
679.484	394.13
679.832	345.77
680.181	378.76
680.529	379.44
680.877	364.07
681.225	378.54
681.573	370.63
681.922	376.73
682.27	368.14
682.618	376.05
682.966	353
683.314	363.85
683.661	361.36
684.009	364.3
684.357	351.87
684.705	360.46
685.053	347.8
685.4	381.02
685.748	388.7
686.095	344.41
686.443	373.34
686.79	361.13
687.138	375.15
687.485	368.59
687.832	356.16
688.18	368.37
688.527	366.11
688.874	384.64
689.221	369.72
689.568	356.39
689.915	370.85
690.262	375.37
690.609	346.22
690.956	363.39
691.303	371.98
691.65	374.02
691.997	363.39
692.344	349.16
692.69	354.81
693.037	341.7
693.383	348.03
693.73	340.8
694.077	372.21
694.423	356.84
694.769	370.85
695.116	354.81
695.462	336.95
695.808	358.2
696.155	350.29
696.501	343.28
696.847	373.56
697.193	347.58
697.539	360.23
697.885	355.26
698.231	359.78
698.577	343.51
698.923	350.29
699.269	353.45
699.614	355.03
699.96	346.67
700.306	354.36
700.651	361.36
700.997	351.64
701.342	347.8
701.688	337.18
702.033	357.52
702.379	349.84
702.724	339.89
703.069	332.43
703.415	341.02
703.76	327.46
704.105	348.25
704.45	337.41
704.795	339.21
705.14	340.8
705.485	348.93
705.83	351.87
706.175	353.23
706.52	342.83
706.865	357.74
707.209	356.16
707.554	353.23
707.899	339.21
708.243	350.06
708.588	338.31
708.932	345.77
709.277	334.47
709.621	345.54
709.966	338.99
710.31	330.17
710.654	349.84
710.998	347.12
711.342	352.55
711.687	368.59
712.031	336.05
712.375	331.08
712.719	346.22
713.063	348.93
713.407	340.57
713.75	348.03
714.094	380.12
714.438	333.79
714.782	357.07
715.125	339.67
715.469	351.42
715.812	348.48
716.156	345.99
716.499	335.37
716.843	358.87
717.186	347.35
717.53	345.54
717.873	356.61
718.216	331.3
718.559	327.92
718.902	342.6
719.246	337.63
719.589	342.15
719.932	348.48
720.275	343.96
720.617	318.65
720.96	336.5
721.303	349.16
721.646	341.93
721.989	334.69
722.331	350.06
722.674	353.9
723.016	335.15
723.359	331.08
723.701	325.2
724.044	323.17
724.386	353.68
724.729	331.08
725.071	344.41
725.413	329.72
725.755	355.71
726.097	330.17
726.439	333.34
726.782	336.5
727.124	320.91
727.465	350.51
727.807	334.24
728.149	337.41
728.491	320.46
728.833	315.94
729.175	315.49
729.516	325.66
729.858	331.08
730.199	333.11
730.541	335.15
730.882	317.52
731.224	340.34
731.565	339.44
731.906	329.72
732.248	339.67
732.589	338.76
732.93	338.31
733.271	347.12
733.612	342.6
733.953	331.08
734.294	349.84
734.635	334.92
734.976	357.74
735.317	329.72
735.658	324.53
735.999	334.47
736.339	322.72
736.68	334.02
737.021	321.36
737.361	343.51
737.702	340.57
738.042	321.14
738.383	336.5
738.723	341.02
739.063	333.56
739.404	328.37
739.744	344.41
740.084	324.53
740.424	322.94
740.764	321.81
741.104	339.44
741.444	355.49
741.784	356.84
742.124	336.95
742.464	353.23
742.804	335.37
743.143	353.68
743.483	336.73
743.823	339.44
744.162	326.56
744.502	336.95
744.841	338.76
745.181	336.28
745.52	335.37
745.86	347.12
746.199	323.4
746.538	315.03
746.877	340.57
747.216	324.53
747.556	325.2
747.895	331.08
748.234	327.01
748.573	320.68
748.911	325.2
749.25	329.05
749.589	357.07
749.928	328.37
750.267	332.21
750.605	334.69
750.944	339.89
751.283	346.9
751.621	353.68
751.96	346.67
752.298	338.99
752.636	336.73
752.975	345.77
753.313	309.16
753.651	331.76
753.989	362.26
754.327	346.67
754.666	318.2
755.004	315.49
755.342	334.24
755.679	342.6
756.017	348.25
756.355	346.45
756.693	341.25
757.031	348.48
757.368	316.16
757.706	327.92
758.044	338.99
758.381	306.45
758.719	338.54
759.056	302.61
759.394	322.94
759.731	327.69
760.068	326.33
760.405	315.26
760.743	340.57
761.08	334.24
761.417	322.27
761.754	325.66
762.091	309.38
762.428	316.39
762.765	330.85
763.102	331.08
763.438	324.53
763.775	320.68
764.112	323.85
764.449	304.19
764.785	322.94
765.122	334.92
765.458	323.4
765.795	330.4
766.131	327.24
766.467	338.54
766.804	333.56
767.14	331.98
767.476	339.89
767.812	318.88
768.148	313.68
768.485	323.17
768.821	306.9
769.157	349.16
769.492	317.52
769.828	324.75
770.164	310.51
770.5	342.83
770.836	315.26
771.171	337.63
771.507	324.75
771.842	333.79
772.178	341.02
772.513	336.28
772.849	341.7
773.184	335.37
773.519	317.07
773.855	315.49
774.19	322.49
774.525	349.38
774.86	342.83
775.195	320.46
775.53	343.51
775.865	321.14
776.2	317.29
776.535	333.56
776.87	325.43
777.205	331.76
777.539	333.11
777.874	308.93
778.209	336.05
778.543	331.08
778.878	334.69
779.212	326.56
779.547	336.73
779.881	343.06
780.215	327.24
780.55	322.27
780.884	316.84
781.218	323.4
781.552	338.99
781.886	332.21
782.22	326.33
782.554	301.93
782.888	322.49
783.222	320.68
783.556	322.49
783.889	300.8
784.223	341.25
784.557	315.71
784.89	349.61
785.224	329.95
785.557	307.35
785.891	312.32
786.224	317.07
786.558	318.42
786.891	324.53
787.224	320.91
787.557	324.07
787.891	320.23
788.224	331.53
788.557	316.39
788.89	329.72
789.223	332.43
789.556	328.59
789.888	334.24
790.221	329.95
790.554	320.91
790.887	318.65
791.219	311.64
791.552	330.85
791.884	323.85
792.217	331.98
792.549	326.11
792.882	324.53
793.214	324.53
793.546	315.49
793.879	342.15
794.211	322.94
794.543	326.79
794.875	318.65
795.207	330.85
795.539	341.7
795.871	328.37
796.203	327.46
796.535	318.42
796.867	322.49
797.198	316.16
797.53	308.25
797.862	314.36
798.193	320.91
798.525	338.54
798.856	329.72
799.188	330.85
799.519	327.92
799.85	335.37
800.182	328.59
800.513	320.91
800.844	308.71
801.175	306.67
801.506	320.91
801.837	314.81
802.168	327.01
802.499	336.28
802.83	331.08
803.161	334.92
803.491	322.27
803.822	329.5
804.153	332.89
804.483	326.11
804.814	335.37
805.145	329.27
805.475	336.28
805.805	314.81
806.136	332.89
806.466	329.27
806.796	330.4
807.126	319.1
807.457	311.64
807.787	329.95
808.117	305.32
808.447	332.66
808.777	326.56
809.107	310.06
809.436	327.01
809.766	324.3
810.096	333.79
810.426	303.28
810.755	332.43
811.085	326.79
811.414	333.11
811.744	315.03
812.073	309.38
812.403	285.88
812.732	325.88
813.061	334.92
813.39	314.36
813.719	325.88
814.049	317.75
814.378	345.77
814.707	341.93
815.036	322.49
815.365	342.6
815.693	326.79
816.022	325.88
816.351	328.59
816.68	328.59
817.008	320.23
817.337	329.05
817.665	311.42
817.994	313
818.322	330.85
818.651	311.19
818.979	312.77
819.307	332.66
819.636	301.02
819.964	322.49
820.292	320.46
820.62	321.59
820.948	303.96
821.276	318.88
821.604	321.36
821.932	334.92
822.259	313.23
822.587	314.81
822.915	320.01
823.243	305.99
823.57	326.56
823.898	291.76
824.225	334.47
824.553	317.52
824.88	315.26
825.207	315.26
825.535	331.98
825.862	317.75
826.189	319.1
826.516	306.22
826.843	323.17
827.17	317.29
827.497	314.81
827.824	324.07
828.151	345.09
828.478	332.66
828.805	334.02
829.131	331.3
829.458	343.96
829.785	328.59
830.111	327.01
830.438	330.17
830.764	319.33
831.09	315.94
831.417	310.74
831.743	329.27
832.069	336.05
832.395	324.07
832.722	326.11
833.048	320.01
833.374	314.58
833.7	321.14
834.026	325.2
834.351	310.29
834.677	320.68
835.003	312.55
835.329	335.37
835.654	332.66
835.98	309.84
836.306	318.65
836.631	319.78
836.956	324.75
837.282	310.97
837.607	320.46
837.932	331.76
838.258	319.1
838.583	319.78
838.908	324.3
839.233	342.6
839.558	325.43
839.883	334.24
840.208	328.59
840.533	327.46
840.858	337.41
841.182	314.58
841.507	313.68
841.832	316.62
842.156	319.78
842.481	336.73
842.805	323.17
843.13	309.84
843.454	305.77
843.778	336.28
844.103	311.19
844.427	316.16
844.751	326.33
845.075	317.29
845.399	304.86
845.723	304.64
846.047	342.6
846.371	339.21
846.695	323.62
847.019	319.78
847.343	346.9
847.666	314.13
847.99	330.63
848.313	317.07
848.637	330.4
848.96	330.63
849.284	324.53
849.607	348.71
849.931	305.09
850.254	315.71
850.577	307.8
850.9	332.43
851.223	317.97
851.546	327.92
851.869	318.42
852.192	324.07
852.515	306.67
852.838	311.19
853.161	300.8
853.483	313.45
853.806	295.37
854.129	327.69
854.451	336.95
854.774	317.07
855.096	324.3
855.419	315.26
855.741	311.64
856.063	333.79
856.385	338.08
856.708	314.13
857.03	319.1
857.352	311.42
857.674	325.88
857.996	318.2
858.318	306.22
858.64	300.57
858.961	323.85
859.283	321.36
859.605	326.11
859.926	322.49
860.248	299.67
860.57	330.17
860.891	334.24
861.212	338.08
861.534	319.33
861.855	323.4
862.176	332.66
862.498	327.01
862.819	313.45
863.14	325.2
863.461	302.83
863.782	314.13
864.103	322.27
864.424	308.93
864.745	317.07
865.065	321.59
865.386	319.1
865.707	335.6
866.027	320.91
866.348	314.58
866.668	325.43
866.989	314.36
867.309	328.37
867.63	326.56
867.95	333.34
868.27	301.25
868.59	333.34
868.91	304.86
869.23	316.62
869.55	304.41
869.87	313.9
870.19	322.27
870.51	339.89
870.83	336.28
871.15	341.7
871.469	320.46
871.789	339.89
872.109	330.4
872.428	316.84
872.748	314.81
873.067	320.01
873.386	318.88
873.706	323.62
874.025	354.36
874.344	311.87
874.663	333.56
874.982	331.98
875.301	319.33
875.62	311.64
875.939	332.43
876.258	320.68
876.577	318.88
876.896	319.33
877.214	309.16
877.533	315.03
877.852	330.85
878.17	316.62
878.489	311.64
878.807	313
879.125	313.45
879.444	335.6
879.762	319.55
880.08	324.75
880.398	329.5
880.716	332.21
881.034	312.1
881.352	295.6
881.67	322.04
881.988	310.51
882.306	309.61
882.624	318.65
882.941	327.92
883.259	324.75
883.577	323.4
883.894	303.51
884.212	295.6
884.529	315.49
884.846	318.65
885.164	312.32
885.481	322.72
885.798	298.76
886.115	321.59
886.432	300.8
886.75	314.13
887.067	298.54
887.383	322.27
887.7	327.92
888.017	317.97
888.334	303.51
888.651	329.95
888.967	306.9
889.284	321.14
889.6	332.66
889.917	314.13
890.233	327.69
890.55	324.53
890.866	298.99
891.182	305.09
891.498	342.6
891.815	322.27
892.131	324.3
892.447	327.92
892.763	321.14
893.079	311.87
893.395	316.39
893.71	307.58
894.026	331.53
894.342	329.05
894.657	299.67
894.973	305.77
895.289	311.42
895.604	335.82
895.92	333.11
896.235	313.45
896.55	305.32
896.865	323.4
897.181	298.31
897.496	329.27
897.811	329.05
898.126	309.38
898.441	312.55
898.756	301.48
899.071	313.23
899.386	316.39
899.7	324.98
900.015	322.27
900.33	306.45
900.644	327.46
900.959	313.23
901.273	311.64
901.588	323.17
901.902	314.81
902.216	322.49
902.531	295.37
902.845	345.77
903.159	310.97
903.473	324.98
903.787	327.24
904.101	307.8
904.415	321.59
904.729	314.13
905.042	324.98
905.356	322.94
905.67	323.85
905.984	333.11
906.297	333.11
906.611	298.09
906.924	330.17
907.237	341.02
907.551	316.39
907.864	324.3
908.177	331.76
908.491	344.41
908.804	304.19
909.117	328.37
909.43	319.1
909.743	308.71
910.056	306.45
910.368	316.39
910.681	332.43
910.994	338.31
911.307	315.03
911.619	313.9
911.932	322.94
912.244	296.28
912.557	297.86
912.869	317.97
913.181	327.24
913.494	336.5
913.806	320.01
914.118	314.13
914.43	311.87
914.742	326.56
915.054	311.87
915.366	328.82
915.678	302.83
915.99	338.08
916.302	313
916.613	326.56
916.925	332.66
917.236	318.88
917.548	315.49
917.859	321.36
918.171	305.32
918.482	324.3
918.794	322.49
919.105	309.16
919.416	303.73
919.727	317.52
920.038	327.24
920.349	322.72
920.66	315.49
920.971	327.92
921.282	310.06
921.593	326.79
921.903	317.07
922.214	320.01
922.525	296.05
922.835	329.27
923.146	302.15
923.456	322.27
923.767	310.74
924.077	327.01
924.387	319.1
924.697	315.26
925.008	331.98
925.318	311.87
925.628	316.39
925.938	319.55
926.248	320.91
926.558	333.34
926.867	299.89
927.177	313.9
927.487	301.02
927.796	327.24
928.106	331.98
928.416	313.9
928.725	317.07
929.034	296.73
929.344	299.44
929.653	308.93
929.962	317.29
930.271	311.64
930.581	306.22
930.89	327.01
931.199	315.26
931.508	296.73
931.817	323.4
932.125	298.54
932.434	315.94
932.743	309.61
933.051	322.94
933.36	313.68
933.669	324.98
933.977	311.42
934.286	305.54
934.594	326.33
934.902	321.59
935.21	316.39
935.519	298.31
935.827	291.76
936.135	325.66
936.443	317.52
936.751	316.39
937.059	294.47
937.367	321.59
937.674	322.27
937.982	331.53
938.29	324.75
938.597	323.85
938.905	319.78
939.213	325.43
939.52	319.1
939.827	323.85
940.135	323.85
940.442	330.63
940.749	324.53
941.056	324.75
941.363	328.37
941.67	325.43
941.977	315.26
942.284	303.06
942.591	312.1
942.898	314.58
943.205	300.12
943.511	312.32
943.818	317.07
944.125	324.75
944.431	308.48
944.738	319.78
945.044	328.37
945.35	309.61
945.657	313
945.963	316.39
946.269	329.5
946.575	323.4
946.881	304.64
947.187	316.39
947.493	323.17
947.799	348.25
948.105	305.77
948.41	312.55
948.716	314.36
949.022	332.89
949.327	291.53
949.633	327.24
949.938	318.2
950.244	300.57
950.549	329.5
950.854	309.61
951.16	298.31
951.465	334.24
951.77	330.63
952.075	306.45
952.38	322.94
952.685	292.89
952.99	320.23
953.294	308.48
953.599	329.27
953.904	310.29
954.209	328.14
954.513	324.53
954.818	309.61
955.122	310.97
955.426	322.04
955.731	312.1
956.035	304.64
956.339	310.97
956.643	306.9
956.948	317.97
957.252	327.01
957.556	314.81
957.86	328.37
958.163	319.55
958.467	324.98
958.771	326.11
959.075	320.68
959.378	317.75
959.682	313.23
959.985	299.44
960.289	299.22
960.592	303.51
960.896	321.36
961.199	287.46
961.502	309.61
961.805	316.16
962.108	333.56
962.411	313.23
962.714	322.04
963.017	307.35
963.32	309.16
963.623	310.97
963.926	297.41
964.228	293.79
964.531	322.94
964.833	336.28
965.136	310.06
965.438	322.94
965.741	311.87
966.043	311.64
966.345	348.48
966.648	324.75
966.95	303.06
967.252	330.85
967.554	291.98
967.856	327.01
968.158	307.35
968.46	341.25
968.761	303.06
969.063	314.36
969.365	307.12
969.666	300.8
969.968	318.88
970.269	322.27
970.571	295.83
970.872	308.03
971.174	322.72
971.475	322.04
971.776	325.2
972.077	330.17
972.378	295.83
972.679	325.43
972.98	324.98
973.281	310.51
973.582	304.41
973.883	317.97
974.183	331.3
974.484	310.74
974.785	315.71
975.085	295.37
975.386	302.15
975.686	331.76
975.986	299.67
976.287	290.4
976.587	325.66
976.887	312.32
977.187	311.64
977.487	320.68
977.787	317.97
978.087	310.74
978.387	327.46
978.687	310.06
978.987	331.98
979.286	312.32
979.586	319.55
979.885	313.23
980.185	313.23
980.484	318.2
980.784	297.18
981.083	320.23
981.382	312.55
981.682	329.95
981.981	301.7
982.28	318.65
982.579	308.71
982.878	313.45
983.177	323.62
983.475	314.36
983.774	325.2
984.073	303.51
984.372	312.77
984.67	317.52
984.969	311.19
985.267	297.41
985.566	308.48
985.864	317.75
986.162	315.71
986.461	302.83
986.759	316.62
987.057	307.12
987.355	298.76
987.653	332.66
987.951	295.15
988.249	319.55
988.547	299.44
988.844	304.64
989.142	311.19
989.44	323.4
989.737	303.51
990.035	325.43
990.332	311.19
990.63	334.02
990.927	298.76
991.224	316.16
991.521	303.96
991.819	309.84
992.116	306.67
992.413	309.16
992.71	303.73
993.006	307.8
993.303	302.38
993.6	327.92
993.897	314.36
994.193	306.45
994.49	311.87
994.787	290.4
995.083	328.14
995.379	293.11
995.676	290.18
995.972	312.55
996.268	319.1
996.565	288.82
996.861	308.03
997.157	311.87
997.453	327.01
997.749	310.29
998.044	301.48
998.34	321.81
998.636	339.67
998.932	324.07
999.227	292.89
999.523	317.29
999.818	327.92
1000.114	317.29
1000.409	310.97
1000.704	291.76
1001	281.59
1001.295	315.26
1001.59	293.57
1001.885	321.36
1002.18	321.81
1002.475	300.12
1002.77	325.88
1003.065	323.85
1003.359	286.33
1003.654	311.64
1003.949	315.49
1004.243	309.38
1004.538	316.16
1004.832	318.65
1005.127	308.48
1005.421	308.93
1005.715	297.63
1006.009	315.03
1006.304	338.54
1006.598	323.85
1006.892	304.41
1007.186	316.62
1007.48	317.52
1007.773	302.38
1008.067	296.28
1008.361	315.71
1008.655	316.84
1008.948	323.17
1009.242	316.16
1009.535	331.76
1009.829	299.67
1010.122	328.59
1010.415	318.2
1010.708	321.14
1011.001	326.11
1011.295	313.45
1011.588	316.16
1011.881	313
1012.173	313.23
1012.466	311.87
1012.759	284.75
1013.052	314.81
1013.344	309.16
1013.637	314.13
1013.93	331.53
1014.222	320.91
1014.514	315.71
1014.807	318.88
1015.099	329.72
1015.391	329.5
1015.683	324.75
1015.976	307.58
1016.268	333.79
1016.56	321.36
1016.851	321.59
1017.143	316.39
1017.435	316.84
1017.727	329.05
1018.018	326.56
1018.31	301.7
1018.602	294.7
1018.893	295.6
1019.185	324.98
1019.476	299.22
1019.767	309.38
1020.058	307.12
1020.35	299.44
1020.641	319.78
1020.932	330.85
1021.223	317.07
1021.514	311.42
1021.804	300.57
1022.095	299.44
1022.386	311.19
1022.677	314.13
1022.967	311.87
1023.258	311.64
1023.548	321.81
1023.839	331.98
1024.129	310.97
1024.419	329.05
1024.709	320.91
1025	286.33
1025.29	300.12
1025.58	317.75
1025.87	305.32
1026.16	325.88
1026.449	313.23
1026.739	306.45
1027.029	324.3
1027.319	319.55
1027.608	327.92
1027.898	323.62
1028.187	295.83
1028.477	314.36
1028.766	307.8
1029.055	304.41
1029.344	325.88
1029.634	299.44
1029.923	305.32
1030.212	329.5
1030.501	293.79
1030.79	298.99
1031.078	315.94
1031.367	310.97
1031.656	315.71
1031.945	308.48
1032.233	299.44
1032.522	311.64
1032.81	304.41
1033.099	318.65
1033.387	301.02
1033.675	301.25
1033.963	322.72
1034.251	337.63
1034.54	301.93
1034.828	310.29
1035.116	303.06
1035.403	296.28
1035.691	295.6
1035.979	324.98
1036.267	317.52
1036.554	291.76
1036.842	304.64
1037.129	306.67
1037.417	318.88
1037.704	301.25
1037.992	320.68
1038.279	322.27
1038.566	316.84
1038.853	316.84
1039.14	316.84
