Data from No_light_on_white_reflection_standard_FLMS001491_002.txt Node
Date: Tue Feb 07 10:32:52 GMT 2017
User: dcchb
Spectrometer: FLMS00149
Trigger mode: 0
Integration Time (sec): 2.000000E-2
Scans to average: 10
Electric dark correction enabled: true
Nonlinearity correction enabled: false
Boxcar width: 0
XAxis mode: Wavelengths
Number of Pixels in Spectrum: 2048
>>>>>Begin Spectral Data<<<<<
341.393	1.65
341.776	1.65
342.16	1.65
342.543	-60.49
342.927	-67.05
343.31	-73.15
343.693	-79.7
344.077	-74.96
344.46	-51.68
344.843	-52.58
345.226	-34.05
345.61	-32.24
345.993	-25.69
346.376	-5.35
346.759	33.29
347.142	20.41
347.525	28.77
347.908	54.98
348.291	64.25
348.674	88.88
349.057	138.82
349.44	137.02
349.823	131.59
350.206	134.53
350.588	177.69
350.971	178.15
351.354	188.31
351.737	167.98
352.119	219.27
352.502	236.9
352.884	242.78
353.267	245.26
353.65	243.68
354.032	252.49
354.414	280.74
354.797	283.9
355.179	288.65
355.562	297.69
355.944	301.98
356.326	294.98
356.709	311.7
357.091	309.89
357.473	306.5
357.855	318.48
358.238	314.64
358.62	315.54
359.002	300.4
359.384	314.41
359.766	323
360.148	288.42
360.53	310.8
360.912	296.11
361.294	291.59
361.676	290.23
362.057	303.11
362.439	281.19
362.821	301.98
363.203	292.72
363.584	305.83
363.966	295.2
364.348	299.95
364.729	290.01
365.111	292.27
365.493	303.79
365.874	262.21
366.256	299.95
366.637	282.55
367.019	287.75
367.4	267.41
367.781	284.36
368.163	260.4
368.544	291.14
368.925	271.48
369.306	291.14
369.688	261.98
370.069	273.96
370.45	255.88
370.831	260.18
371.212	276
371.593	265.15
371.974	280.29
372.355	263.79
372.736	273.28
373.117	283.68
373.498	279.84
373.879	272.15
374.26	264.02
374.641	270.57
375.021	295.88
375.402	275.32
375.783	257.92
376.163	279.61
376.544	272.61
376.925	267.63
377.305	300.63
377.686	271.02
378.066	285.71
378.447	302.89
378.827	294.07
379.208	286.39
379.588	272.61
379.968	293.85
380.349	270.8
380.729	281.87
381.109	285.03
381.489	297.46
381.87	310.12
382.25	289.78
382.63	278.48
383.01	292.04
383.39	282.1
383.77	293.17
384.15	295.88
384.53	276
384.91	283.68
385.29	301.08
385.67	289.78
386.049	276.67
386.429	284.13
386.809	266.05
387.189	290.91
387.568	290.23
387.948	278.26
388.328	283.45
388.707	276.67
389.087	303.34
389.466	284.81
389.846	292.27
390.225	271.7
390.605	297.46
390.984	266.96
391.363	294.53
391.743	295.88
392.122	287.52
392.501	316.45
392.881	283
393.26	304.47
393.639	289.33
394.018	291.14
394.397	287.52
394.776	275.77
395.155	286.16
395.534	311.47
395.913	274.41
396.292	282.32
396.671	295.66
397.05	295.88
397.429	288.42
397.808	303.11
398.186	283.45
398.565	298.59
398.944	291.81
399.323	285.94
399.701	315.54
400.08	287.97
400.458	289.78
400.837	302.89
401.215	302.89
401.594	300.63
401.972	281.42
402.351	312.6
402.729	320.51
403.107	286.84
403.486	264.24
403.864	290.46
404.242	297.24
404.62	298.37
404.999	291.36
405.377	297.01
405.755	309.22
406.133	293.4
406.511	283.9
406.889	314.64
407.267	303.11
407.645	283
408.023	286.16
408.401	318.71
408.779	293.85
409.156	299.95
409.534	298.59
409.912	309.44
410.29	292.04
410.667	289.33
411.045	323.45
411.422	308.54
411.8	290.01
412.178	306.5
412.555	311.7
412.933	309.22
413.31	308.54
413.687	306.96
414.065	301.31
414.442	278.93
414.819	315.77
415.197	283.23
415.574	303.79
415.951	298.14
416.328	290.91
416.705	290.68
417.082	310.8
417.46	315.99
417.837	308.31
418.214	330.91
418.591	301.98
418.967	302.44
419.344	316.67
419.721	310.12
420.098	321.42
420.475	292.94
420.852	294.98
421.228	328.2
421.605	310.12
421.982	301.08
422.358	303.79
422.735	302.89
423.111	320.06
423.488	314.41
423.864	314.41
424.241	315.77
424.617	305.83
424.994	316.22
425.37	314.86
425.746	320.51
426.123	318.93
426.499	311.47
426.875	319.84
427.251	308.09
427.627	319.61
428.003	313.06
428.379	310.8
428.756	313.73
429.132	323.23
429.507	308.99
429.883	317.12
430.259	313.73
430.635	341.98
431.011	325.26
431.387	324.81
431.763	339.5
432.138	311.93
432.514	309.22
432.89	303.57
433.265	310.8
433.641	291.36
434.016	327.75
434.392	313.96
434.767	321.42
435.143	301.98
435.518	335.66
435.894	312.6
436.269	313.96
436.644	321.19
437.02	312.15
437.395	318.71
437.77	309.89
438.145	320.51
438.52	326.16
438.895	339.27
439.271	322.55
439.646	331.36
440.021	350.34
440.395	330.91
440.77	330.46
441.145	346.28
441.52	337.69
441.895	330.01
442.27	342.21
442.645	341.98
443.019	353.96
443.394	323
443.769	328.42
444.143	375.65
444.518	334.07
444.892	362.77
445.267	357.35
445.641	355.77
446.016	355.09
446.39	356.22
446.764	357.58
447.139	351.93
447.513	376.11
447.887	368.42
448.262	362.09
448.636	356.22
449.01	377.69
449.384	373.17
449.758	364.13
450.132	335.66
450.506	372.72
450.88	365.71
451.254	378.14
451.628	372.04
452.002	381.3
452.376	384.02
452.75	356.67
453.123	374.52
453.497	351.25
453.871	380.4
454.244	354.19
454.618	390.12
454.992	362.77
455.365	371.81
455.739	371.81
456.112	360.06
456.486	367.52
456.859	391.25
457.232	353.51
457.606	364.81
457.979	344.47
458.352	375.43
458.725	345.15
459.099	360.74
459.472	366.39
459.845	357.12
460.218	355.32
460.591	352.83
460.964	342.43
461.337	351.02
461.71	358.93
462.083	364.81
462.456	346.5
462.829	343.79
463.201	365.48
463.574	357.8
463.947	345.37
464.32	349.21
464.692	364.35
465.065	345.6
465.438	372.49
465.81	331.14
466.183	338.59
466.555	377.91
466.928	359.38
467.3	376.33
467.672	365.03
468.045	368.42
468.417	351.02
468.789	353.73
469.161	356.22
469.534	347.18
469.906	343.56
470.278	353.96
470.65	362.77
471.022	349.44
471.394	340.85
471.766	333.85
472.138	358.93
472.51	353.73
472.882	353.51
473.253	371.13
473.625	363.45
473.997	363.9
474.369	325.03
474.74	344.69
475.112	364.35
475.484	358.93
475.855	347.18
476.227	347.86
476.598	362.77
476.97	346.5
477.341	345.6
477.713	340.85
478.084	350.8
478.455	337.91
478.827	336.78
479.198	336.56
479.569	353.73
479.94	360.06
480.311	364.58
480.682	352.15
481.053	363.9
481.424	341.98
481.795	358.48
482.166	368.65
482.537	355.99
482.908	353.96
483.279	369.55
483.65	365.03
484.021	356.22
484.391	352.15
484.762	358.03
485.133	364.35
485.503	376.78
485.874	340.85
486.244	378.82
486.615	378.14
486.985	365.94
487.356	363
487.726	362.32
488.097	353.96
488.467	378.59
488.837	386.05
489.207	370.68
489.578	366.39
489.948	349.21
490.318	379.72
490.688	379.04
491.058	370.91
491.428	395.77
491.798	371.36
492.168	360.06
492.538	363.9
492.908	395.54
493.278	371.81
493.648	355.77
494.017	384.92
494.387	367.29
494.757	389.44
495.126	376.56
495.496	380.4
495.866	384.02
496.235	389.66
496.605	390.57
496.974	406.39
497.344	400.29
497.713	414.75
498.082	391.02
498.452	403.45
498.821	393.05
499.19	396.67
499.559	396.9
499.928	389.44
500.298	388.53
500.667	410
501.036	411.81
501.405	392.15
501.774	403
502.143	406.39
502.512	403.45
502.88	422.21
503.249	416.78
503.618	403.45
503.987	406.16
504.356	412.49
504.724	411.36
505.093	410.91
505.462	423.56
505.83	412.72
506.199	423.34
506.567	421.08
506.936	421.53
507.304	430.34
507.672	405.94
508.041	410.23
508.409	428.31
508.777	427.4
509.145	434.86
509.514	424.69
509.882	438.48
510.25	454.97
510.618	430.57
510.986	447.97
511.354	430.57
511.722	433.28
512.09	427.63
512.458	440.74
512.826	443
513.193	444.8
513.561	451.13
513.929	440.51
514.297	450.23
514.664	430.79
515.032	458.36
515.4	444.8
515.767	430.79
516.135	444.58
516.502	450.68
516.869	428.53
517.237	432.15
517.604	440.96
517.972	458.36
518.339	447.97
518.706	447.74
519.073	440.06
519.44	440.06
519.808	463.56
520.175	464.92
520.542	449.32
520.909	466.5
521.276	455.88
521.643	483
522.009	478.25
522.376	482.09
522.743	469.89
523.11	461.08
523.477	478.48
523.843	478.02
524.21	469.66
524.577	447.29
524.943	481.19
525.31	475.99
525.676	466.05
526.043	480.74
526.409	477.12
526.776	478.02
527.142	465.14
527.508	495.42
527.874	497.46
528.241	477.12
528.607	485.48
528.973	470.11
529.339	493.39
529.705	488.65
530.071	480.28
530.437	483.45
530.803	494.29
531.169	479.83
531.535	479.83
531.901	491.58
532.267	501.53
532.632	501.53
532.998	490.68
533.364	496.55
533.73	482.32
534.095	498.36
534.461	505.37
534.826	506.72
535.192	499.04
535.557	531.13
535.923	486.61
536.288	487.29
536.653	511.02
537.019	506.72
537.384	527.74
537.749	490.68
538.114	498.59
538.479	506.5
538.845	482.77
539.21	501.07
539.575	527.74
539.94	512.37
540.305	529.55
540.67	506.05
541.034	514.63
541.399	519.15
541.764	513.5
542.129	505.14
542.494	521.19
542.858	489.78
543.223	500.85
543.587	508.31
543.952	524.35
544.316	492.94
544.681	513.5
545.045	513.05
545.41	533.84
545.774	520.96
546.138	523.67
546.503	509.66
546.867	513.5
547.231	496.78
547.595	515.09
547.959	507.63
548.324	518.25
548.688	532.26
549.052	514.63
549.416	525.93
549.779	517.57
550.143	495.65
550.507	524.35
550.871	515.31
551.235	515.76
551.599	516.22
551.962	510.34
552.326	542.43
552.689	542.43
553.053	546.27
553.417	553.73
553.78	539.27
554.143	537.46
554.507	530.68
554.87	550.11
555.234	559.15
555.597	543.56
555.96	535.42
556.323	556.89
556.686	531.36
557.05	532.49
557.413	541.3
557.776	537.01
558.139	539.04
558.502	540.62
558.865	545.82
559.228	552.82
559.59	558.02
559.953	527.29
560.316	555.31
560.679	556.21
561.041	539.27
561.404	541.75
561.767	553.05
562.129	563.67
562.492	568.87
562.854	558.02
563.217	565.25
563.579	532.94
563.941	536.1
564.304	555.76
564.666	550.79
565.028	541.98
565.39	553.73
565.753	562.32
566.115	540.62
566.477	537.01
566.839	575.87
567.201	554.18
567.563	542.43
567.925	571.13
568.287	567.29
568.648	574.29
569.01	571.81
569.372	544.92
569.734	573.84
570.095	572.94
570.457	565.71
570.819	576.1
571.18	574.97
571.542	579.49
571.903	573.16
572.265	594.18
572.626	560.06
572.987	574.29
573.349	590.34
573.71	583.11
574.071	562.09
574.432	572.94
574.794	570.23
575.155	600.05
575.516	590.56
575.877	580.39
576.238	570.23
576.599	585.37
576.96	554.63
577.32	570.45
577.681	589.21
578.042	565.48
578.403	584.69
578.763	584.24
579.124	578.13
579.485	575.42
579.845	584.46
580.206	571.81
580.566	577.46
580.927	595.31
581.287	587.17
581.648	577.46
582.008	578.81
582.368	587.17
582.728	602.99
583.089	564.35
583.449	576.55
583.809	594.86
584.169	585.14
584.529	585.37
584.889	559.38
585.249	588.98
585.609	589.89
585.969	595.08
586.329	575.87
586.688	591.92
587.048	595.99
587.408	594.41
587.768	579.49
588.127	590.56
588.487	556.44
588.846	563.9
589.206	599.15
589.565	569.77
589.925	599.38
590.284	588.76
590.643	571.36
591.003	569.77
591.362	568.19
591.721	580.62
592.08	564.8
592.44	562.77
592.799	587.17
593.158	587.63
593.517	576.55
593.876	558.47
594.235	579.26
594.593	560.51
594.952	553.05
595.311	572.03
595.67	601.18
596.029	587.4
596.387	572.48
596.746	567.74
597.104	564.8
597.463	574.07
597.822	555.54
598.18	549.43
598.538	601.18
598.897	585.82
599.255	553.73
599.613	569.1
599.972	564.35
600.33	571.13
600.688	577.23
601.046	567.29
601.404	574.97
601.762	564.12
602.12	557.8
602.478	570
602.836	570.68
603.194	546.72
603.552	563.9
603.91	563.9
604.268	541.3
604.625	553.95
604.983	559.83
605.341	546.95
605.698	554.86
606.056	562.54
606.413	577.46
606.771	543.11
607.128	546.5
607.485	562.09
607.843	541.53
608.2	541.53
608.557	539.49
608.914	556.44
609.272	560.51
609.629	556.67
609.986	562.99
610.343	563.45
610.7	573.16
611.057	551.02
611.414	527.51
611.771	558.93
612.127	544.01
612.484	557.57
612.841	535.88
613.198	537.01
613.554	552.15
613.911	552.15
614.267	513.5
614.624	550.79
614.98	540.62
615.337	530.9
615.693	532.03
616.05	539.94
616.406	550.79
616.762	523.22
617.118	530
617.475	545.82
617.831	532.03
618.187	527.97
618.543	527.97
618.899	517.12
619.255	505.37
619.611	532.94
619.967	518.93
620.323	538.36
620.678	518.25
621.034	522.54
621.39	500.62
621.746	521.41
622.101	514.18
622.457	511.92
622.812	504.01
623.168	504.01
623.523	535.65
623.879	512.15
624.234	528.19
624.589	527.51
624.945	503.33
625.3	502.88
625.655	542.43
626.01	491.81
626.365	505.37
626.72	517.8
627.075	509.66
627.43	503.33
627.785	486.16
628.14	512.83
628.495	509.89
628.85	493.39
629.205	504.92
629.559	493.84
629.914	486.39
630.269	500.62
630.623	480.51
630.978	491.36
631.332	491.36
631.687	494.75
632.041	520.28
632.396	488.87
632.75	481.41
633.104	480.74
633.459	485.26
633.813	489.1
634.167	471.47
634.521	481.41
634.875	485.48
635.229	482.32
635.583	468.98
635.937	477.12
636.291	468.76
636.645	476.67
636.999	457.01
637.352	495.42
637.706	452.94
638.06	487.74
638.413	478.25
638.767	465.37
639.121	459.27
639.474	457.01
639.828	470.79
640.181	466.5
640.534	443.9
640.888	461.08
641.241	453.62
641.594	475.31
641.947	443.9
642.301	456.1
642.654	450.91
643.007	452.26
643.36	456.1
643.713	459.72
644.066	457.69
644.419	441.87
644.771	441.64
645.124	457.23
645.477	443
645.83	449.1
646.182	441.87
646.535	441.19
646.888	437.8
647.24	439.61
647.593	439.61
647.945	441.41
648.298	424.69
648.65	442.09
649.002	428.08
649.355	430.34
649.707	410.68
650.059	463.34
650.411	445.93
650.763	436.22
651.115	416.1
651.467	412.72
651.819	429.66
652.171	456.1
652.523	431.02
652.875	434.64
653.227	409.1
653.578	423.56
653.93	424.69
654.282	422.88
654.633	426.05
654.985	421.53
655.337	440.29
655.688	417.01
656.039	424.24
656.391	431.7
656.742	405.94
657.094	395.54
657.445	418.14
657.796	397.12
658.147	406.84
658.498	420.85
658.849	406.84
659.2	406.84
659.551	420.4
659.902	427.63
660.253	412.72
660.604	403
660.955	413.39
661.306	411.81
661.656	403.9
662.007	403.68
662.358	394.64
662.708	403.9
663.059	400.51
663.409	392.6
663.76	381.76
664.11	396.22
664.461	404.58
664.811	415.43
665.161	406.16
665.511	403.68
665.862	397.12
666.212	407.07
666.562	400.96
666.912	403.9
667.262	404.35
667.612	394.41
667.962	408.87
668.312	386.05
668.662	394.18
669.011	396.22
669.361	387.18
669.711	392.83
670.06	400.29
670.41	404.35
670.76	367.29
671.109	395.09
671.459	407.07
671.808	402.32
672.157	391.02
672.507	408.65
672.856	407.07
673.205	383.56
673.554	396.9
673.904	367.74
674.253	377.69
674.602	388.53
674.951	363.22
675.3	391.47
675.649	388.53
675.998	368.87
676.346	372.04
676.695	378.14
677.044	379.72
677.393	381.3
677.741	400.74
678.09	365.03
678.438	372.94
678.787	380.17
679.135	398.48
679.484	387.41
679.832	394.41
680.181	381.53
680.529	379.27
680.877	374.3
681.225	373.62
681.573	369.1
681.922	366.39
682.27	372.94
682.618	367.29
682.966	376.56
683.314	357.35
683.661	358.93
684.009	365.94
684.357	362.77
684.705	376.33
685.053	360.29
685.4	361.42
685.748	370.68
686.095	377.01
686.443	384.69
686.79	360.97
687.138	370.46
687.485	346.73
687.832	360.29
688.18	365.94
688.527	368.87
688.874	358.48
689.221	358.93
689.568	379.27
689.915	372.49
690.262	360.06
690.609	373.39
690.956	352.15
691.303	341.76
691.65	348.08
691.997	354.19
692.344	363
692.69	350.8
693.037	358.71
693.383	364.35
693.73	358.25
694.077	355.32
694.423	353.51
694.769	346.73
695.116	357.8
695.462	359.38
695.808	368.65
696.155	358.71
696.501	356.45
696.847	360.74
697.193	349.21
697.539	365.03
697.885	364.81
698.231	360.97
698.577	361.87
698.923	345.37
699.269	344.69
699.614	350.34
699.96	346.5
700.306	365.03
700.651	332.49
700.997	341.98
701.342	353.96
701.688	364.81
702.033	341.98
702.379	371.59
702.724	349.44
703.069	359.61
703.415	352.6
703.76	360.97
704.105	363
704.45	370.68
704.795	357.35
705.14	346.95
705.485	344.24
705.83	351.02
706.175	336.11
706.52	339.27
706.865	340.63
707.209	346.73
707.554	338.59
707.899	321.64
708.243	347.18
708.588	358.25
708.932	337.69
709.277	349.44
709.621	330.68
709.966	329.78
710.31	337.91
710.654	342.89
710.998	342.43
711.342	351.7
711.687	362.55
712.031	332.94
712.375	363.68
712.719	351.7
713.063	342.66
713.407	352.38
713.75	336.11
714.094	353.28
714.438	333.4
714.782	321.42
715.125	332.72
715.469	336.56
715.812	355.09
716.156	342.21
716.499	345.37
716.843	338.82
717.186	353.28
717.53	344.02
717.873	338.14
718.216	322.1
718.559	329.33
718.902	328.2
719.246	353.06
719.589	332.49
719.932	322.32
720.275	344.24
720.617	325.94
720.96	330.23
721.303	348.99
721.646	356.22
721.989	322.55
722.331	321.42
722.674	342.66
723.016	339.27
723.359	350.34
723.701	345.6
724.044	352.6
724.386	338.82
724.729	335.88
725.071	320.74
725.413	344.92
725.755	326.16
726.097	343.11
726.439	342.43
726.782	328.65
727.124	329.33
727.465	313.51
727.807	325.94
728.149	330.01
728.491	339.04
728.833	356.22
729.175	341.53
729.516	346.95
729.858	351.93
730.199	340.63
730.541	347.86
730.882	353.73
731.224	347.18
731.565	343.56
731.906	326.84
732.248	347.18
732.589	340.85
732.93	341.3
733.271	341.3
733.612	329.1
733.953	335.43
734.294	339.04
734.635	341.76
734.976	356.9
735.317	342.43
735.658	335.88
735.999	328.2
736.339	316.22
736.68	334.07
737.021	340.85
737.361	342.21
737.702	347.41
738.042	341.08
738.383	328.42
738.723	334.98
739.063	352.6
739.404	348.08
739.744	352.83
740.084	332.49
740.424	343.34
740.764	341.98
741.104	316.67
741.444	332.49
741.784	325.71
742.124	332.94
742.464	340.4
742.804	337.24
743.143	330.68
743.483	334.53
743.823	337.01
744.162	351.93
744.502	344.24
744.841	336.78
745.181	318.25
745.52	331.81
745.86	317.8
746.199	335.88
746.538	338.14
746.877	313.73
747.216	337.69
747.556	346.73
747.895	345.82
748.234	316.22
748.573	329.78
748.911	326.62
749.25	336.11
749.589	323.45
749.928	353.51
750.267	348.08
750.605	332.04
750.944	327.52
751.283	335.88
751.621	324.81
751.96	334.98
752.298	330.91
752.636	358.03
752.975	319.16
753.313	335.2
753.651	338.37
753.989	347.86
754.327	334.75
754.666	338.82
755.004	320.74
755.342	335.2
755.679	343.56
756.017	334.98
756.355	332.72
756.693	353.28
757.031	347.86
757.368	325.03
757.706	329.1
758.044	327.07
758.381	329.55
758.719	363.68
759.056	325.71
759.394	338.14
759.731	330.68
760.068	324.58
760.405	338.82
760.743	337.24
761.08	330.91
761.417	317.35
761.754	337.01
762.091	341.53
762.428	329.33
762.765	331.59
763.102	325.49
763.438	336.78
763.775	349.44
764.112	316.9
764.449	339.5
764.785	314.86
765.122	330.91
765.458	317.12
765.795	329.78
766.131	315.54
766.467	328.88
766.804	313.96
767.14	322.1
767.476	324.13
767.812	320.51
768.148	315.54
768.485	340.17
768.821	340.4
769.157	334.07
769.492	330.91
769.828	328.2
770.164	335.2
770.5	341.76
770.836	330.01
771.171	339.5
771.507	327.07
771.842	337.46
772.178	320.51
772.513	332.94
772.849	345.37
773.184	319.84
773.519	340.63
773.855	328.42
774.19	324.36
774.525	334.53
774.86	329.55
775.195	318.71
775.53	345.37
775.865	330.46
776.2	325.26
776.535	335.2
776.87	340.85
777.205	333.85
777.539	328.65
777.874	313.06
778.209	327.52
778.543	308.76
778.878	317.35
779.212	337.24
779.547	332.04
779.881	311.25
780.215	318.71
780.55	328.65
780.884	313.06
781.218	359.84
781.552	305.83
781.886	336.33
782.22	319.61
782.554	322.77
782.888	323
783.222	334.75
783.556	320.51
783.889	333.17
784.223	325.26
784.557	326.16
784.89	307.86
785.224	339.95
785.557	323.9
785.891	326.16
786.224	309.22
786.558	345.82
786.891	325.94
787.224	327.29
787.557	326.16
787.891	328.65
788.224	326.16
788.557	333.4
788.89	346.28
789.223	334.98
789.556	336.11
789.888	348.99
790.221	335.43
790.554	322.32
790.887	329.78
791.219	333.17
791.552	310.8
791.884	337.24
792.217	312.15
792.549	328.2
792.882	343.79
793.214	324.13
793.546	349.21
793.879	331.81
794.211	318.71
794.543	328.42
794.875	305.6
795.207	303.57
795.539	347.18
795.871	334.3
796.203	338.82
796.535	337.24
796.867	326.62
797.198	319.38
797.53	309.89
797.862	331.81
798.193	342.66
798.525	326.16
798.856	331.81
799.188	333.62
799.519	321.42
799.85	318.71
800.182	324.58
800.513	340.4
800.844	327.29
801.175	317.8
801.506	318.48
801.837	313.96
802.168	323.9
802.499	335.43
802.83	337.69
803.161	332.27
803.491	319.84
803.822	322.55
804.153	328.88
804.483	317.12
804.814	295.66
805.145	315.09
805.475	320.06
805.805	320.74
806.136	317.12
806.466	339.72
806.796	311.93
807.126	312.15
807.457	331.14
807.787	319.38
808.117	340.17
808.447	339.72
808.777	324.13
809.107	328.2
809.436	320.06
809.766	301.98
810.096	322.32
810.426	315.54
810.755	319.61
811.085	332.27
811.414	303.79
811.744	323
812.073	335.43
812.403	330.91
812.732	334.53
813.061	315.99
813.39	315.09
813.719	322.77
814.049	320.97
814.378	318.03
814.707	328.88
815.036	319.16
815.365	333.4
815.693	336.11
816.022	332.72
816.351	317.8
816.68	316.9
817.008	310.34
817.337	313.51
817.665	321.19
817.994	328.88
818.322	317.12
818.651	330.23
818.979	312.38
819.307	327.07
819.636	325.71
819.964	334.07
820.292	328.42
820.62	299.05
820.948	320.74
821.276	338.82
821.604	323.23
821.932	305.15
822.259	310.34
822.587	308.99
822.915	322.55
823.243	329.33
823.57	326.39
823.898	300.18
824.225	329.1
824.553	323.23
824.88	319.61
825.207	329.33
825.535	300.85
825.862	326.16
826.189	326.39
826.516	342.89
826.843	330.68
827.17	331.59
827.497	316.22
827.824	312.15
828.151	331.81
828.478	320.29
828.805	335.43
829.131	324.58
829.458	326.16
829.785	320.51
830.111	326.39
830.438	324.81
830.764	318.25
831.09	325.03
831.417	315.09
831.743	323
832.069	316.22
832.395	302.89
832.722	323.23
833.048	320.51
833.374	333.17
833.7	318.93
834.026	319.38
834.351	315.09
834.677	332.49
835.003	304.47
835.329	312.83
835.654	337.01
835.98	348.99
836.306	314.41
836.631	323.9
836.956	315.77
837.282	332.04
837.607	331.59
837.932	334.75
838.258	324.36
838.583	316.45
838.908	313.73
839.233	317.8
839.558	331.14
839.883	313.73
840.208	318.25
840.533	333.85
840.858	315.54
841.182	322.32
841.507	323.45
841.832	319.84
842.156	326.16
842.481	316.67
842.805	313.51
843.13	322.32
843.454	322.32
843.778	320.74
844.103	302.89
844.427	335.66
844.751	334.3
845.075	298.14
845.399	317.12
845.723	315.54
846.047	320.97
846.371	331.81
846.695	313.73
847.019	332.04
847.343	344.69
847.666	314.86
847.99	341.08
848.313	328.42
848.637	333.4
848.96	318.25
849.284	320.06
849.607	299.5
849.931	326.16
850.254	339.5
850.577	320.06
850.9	320.29
851.223	330.23
851.546	324.58
851.869	327.52
852.192	329.55
852.515	325.71
852.838	334.07
853.161	339.04
853.483	332.72
853.806	313.51
854.129	328.2
854.451	318.71
854.774	319.61
855.096	304.47
855.419	332.49
855.741	334.75
856.063	333.62
856.385	323.68
856.708	313.51
857.03	308.31
857.352	308.99
857.674	328.2
857.996	338.82
858.318	309.67
858.64	313.96
858.961	324.36
859.283	313.73
859.605	340.4
859.926	330.01
860.248	314.86
860.57	334.98
860.891	327.29
861.212	314.41
861.534	337.91
861.855	319.16
862.176	310.57
862.498	318.71
862.819	334.07
863.14	319.16
863.461	334.98
863.782	313.06
864.103	339.72
864.424	305.6
864.745	318.25
865.065	312.38
865.386	345.82
865.707	315.09
866.027	310.8
866.348	339.72
866.668	338.14
866.989	331.81
867.309	334.53
867.63	309.89
867.95	320.29
868.27	318.93
868.59	320.51
868.91	314.41
869.23	319.61
869.55	313.73
869.87	322.55
870.19	323.45
870.51	325.26
870.83	325.03
871.15	303.34
871.469	327.07
871.789	352.6
872.109	327.29
872.428	312.15
872.748	302.66
873.067	312.83
873.386	317.35
873.706	317.12
874.025	322.32
874.344	339.04
874.663	321.42
874.982	327.29
875.301	313.73
875.62	308.76
875.939	306.28
876.258	326.84
876.577	327.97
876.896	344.24
877.214	318.71
877.533	316.45
877.852	323.68
878.17	323.23
878.489	313.51
878.807	299.95
879.125	318.48
879.444	343.79
879.762	314.19
880.08	318.03
880.398	317.35
880.716	319.84
881.034	316.22
881.352	310.34
881.67	308.31
881.988	321.64
882.306	323.9
882.624	320.74
882.941	328.65
883.259	309.44
883.577	320.97
883.894	317.12
884.212	331.14
884.529	329.1
884.846	301.98
885.164	300.85
885.481	319.61
885.798	320.06
886.115	317.8
886.432	316.22
886.75	326.39
887.067	322.1
887.383	330.46
887.7	338.59
888.017	306.28
888.334	356.22
888.651	325.94
888.967	325.26
889.284	326.62
889.6	318.71
889.917	321.42
890.233	330.68
890.55	315.99
890.866	329.1
891.182	342.89
891.498	329.78
891.815	334.98
892.131	335.2
892.447	299.05
892.763	315.32
893.079	326.39
893.395	334.53
893.71	325.71
894.026	318.71
894.342	296.11
894.657	321.64
894.973	312.15
895.289	330.23
895.604	333.4
895.92	296.33
896.235	305.15
896.55	308.99
896.865	317.35
897.181	318.03
897.496	308.54
897.811	311.25
898.126	327.07
898.441	320.51
898.756	333.85
899.071	320.74
899.386	331.59
899.7	316.9
900.015	298.82
900.33	331.36
900.644	342.89
900.959	329.33
901.273	341.98
901.588	322.55
901.902	315.54
902.216	316.9
902.531	298.59
902.845	297.69
903.159	322.77
903.473	319.84
903.787	323.23
904.101	322.32
904.415	320.29
904.729	313.73
905.042	320.74
905.356	311.02
905.67	323.45
905.984	321.64
906.297	313.28
906.611	319.61
906.924	323.23
907.237	317.35
907.551	323.23
907.864	311.02
908.177	306.96
908.491	320.74
908.804	309.22
909.117	313.73
909.43	328.42
909.743	301.98
910.056	327.52
910.368	311.25
910.681	313.28
910.994	323.9
911.307	327.07
911.619	341.53
911.932	320.97
912.244	302.44
912.557	310.57
912.869	317.12
913.181	308.54
913.494	305.6
913.806	317.35
914.118	308.54
914.43	309.89
914.742	309.89
915.054	311.7
915.366	311.02
915.678	308.99
915.99	311.7
916.302	311.25
916.613	304.47
916.925	321.42
917.236	321.64
917.548	325.26
917.859	318.48
918.171	327.97
918.482	303.79
918.794	334.53
919.105	337.69
919.416	318.25
919.727	315.54
920.038	323.23
920.349	303.57
920.66	316.9
920.971	326.16
921.282	316.45
921.593	304.7
921.903	315.32
922.214	317.8
922.525	303.57
922.835	338.37
923.146	333.62
923.456	316.22
923.767	320.51
924.077	306.73
924.387	334.3
924.697	315.99
925.008	330.23
925.318	313.73
925.628	342.66
925.938	331.81
926.248	318.93
926.558	312.6
926.867	313.96
927.177	324.58
927.487	321.19
927.796	332.27
928.106	325.03
928.416	333.85
928.725	311.7
929.034	332.94
929.344	323.68
929.653	318.03
929.962	343.79
930.271	340.17
930.581	316.45
930.89	329.55
931.199	317.58
931.508	325.26
931.817	318.03
932.125	315.54
932.434	332.94
932.743	320.51
933.051	305.6
933.36	323.23
933.669	317.35
933.977	314.64
934.286	320.74
934.594	336.78
934.902	303.11
935.21	330.23
935.519	312.83
935.827	304.24
936.135	320.51
936.443	328.42
936.751	315.32
937.059	329.1
937.367	305.6
937.674	329.55
937.982	327.07
938.29	327.75
938.597	316.45
938.905	315.54
939.213	320.74
939.52	314.19
939.827	301.31
940.135	303.34
940.442	325.71
940.749	342.89
941.056	322.32
941.363	304.92
941.67	316.45
941.977	309.44
942.284	314.86
942.591	314.19
942.898	309.67
943.205	323.23
943.511	315.54
943.818	337.01
944.125	327.29
944.431	303.79
944.738	313.28
945.044	316.22
945.35	330.23
945.657	324.13
945.963	313.73
946.269	319.38
946.575	330.91
946.881	288.88
947.187	328.65
947.493	293.17
947.799	310.34
948.105	309.44
948.41	318.71
948.716	325.94
949.022	310.34
949.327	308.09
949.633	319.16
949.938	332.72
950.244	317.58
950.549	311.93
950.854	303.57
951.16	315.77
951.465	334.53
951.77	317.35
952.075	306.5
952.38	333.4
952.685	311.93
952.99	324.81
953.294	295.43
953.599	313.51
953.904	297.92
954.209	318.71
954.513	321.42
954.818	298.37
955.122	309.67
955.426	323.68
955.731	302.66
956.035	320.51
956.339	318.03
956.643	314.19
956.948	295.88
957.252	306.28
957.556	314.64
957.86	332.49
958.163	325.71
958.467	310.57
958.771	315.09
959.075	322.77
959.378	311.25
959.682	327.75
959.985	300.85
960.289	314.19
960.592	306.05
960.896	326.39
961.199	317.8
961.502	313.96
961.805	300.85
962.108	321.64
962.411	321.42
962.714	318.03
963.017	318.25
963.32	308.76
963.623	304.24
963.926	316.67
964.228	311.7
964.531	321.19
964.833	311.7
965.136	294.53
965.438	303.34
965.741	329.1
966.043	330.01
966.345	296.33
966.648	315.99
966.95	320.97
967.252	331.14
967.554	325.49
967.856	327.97
968.158	307.86
968.46	315.54
968.761	327.29
969.063	318.71
969.365	325.26
969.666	307.41
969.968	301.31
970.269	329.1
970.571	313.73
970.872	318.25
971.174	311.47
971.475	331.59
971.776	350.57
972.077	309.67
972.378	306.5
972.679	339.95
972.98	298.82
973.281	329.33
973.582	311.7
973.883	319.38
974.183	326.62
974.484	299.72
974.785	327.29
975.085	329.78
975.386	318.71
975.686	322.1
975.986	310.12
976.287	333.4
976.587	326.39
976.887	321.87
977.187	289.55
977.487	318.25
977.787	311.7
978.087	301.98
978.387	308.31
978.687	314.86
978.987	328.2
979.286	326.84
979.586	322.1
979.885	315.99
980.185	309.22
980.484	311.02
980.784	315.77
981.083	316.9
981.382	305.15
981.682	319.38
981.981	321.19
982.28	322.77
982.579	320.51
982.878	318.25
983.177	339.5
983.475	326.62
983.774	301.31
984.073	313.06
984.372	317.8
984.67	312.83
984.969	323.45
985.267	302.66
985.566	339.27
985.864	332.49
986.162	307.63
986.461	314.41
986.759	308.54
987.057	334.53
987.355	294.3
987.653	311.25
987.951	308.54
988.249	330.68
988.547	301.98
988.844	323
989.142	304.7
989.44	324.58
989.737	325.71
990.035	321.87
990.332	326.39
990.63	313.73
990.927	304.7
991.224	314.19
991.521	310.8
991.819	293.4
992.116	298.37
992.413	311.25
992.71	309.89
993.006	306.73
993.303	313.06
993.6	302.89
993.897	322.77
994.193	325.71
994.49	325.49
994.787	298.82
995.083	315.09
995.379	319.84
995.676	320.06
995.972	323.45
996.268	335.2
996.565	319.84
996.861	314.86
997.157	334.53
997.453	318.48
997.749	312.6
998.044	308.31
998.34	334.75
998.636	309.89
998.932	301.76
999.227	322.32
999.523	311.02
999.818	330.23
1000.114	307.41
1000.409	301.53
1000.704	313.51
1001	298.59
1001.295	314.86
1001.59	315.09
1001.885	336.33
1002.18	317.58
1002.475	322.32
1002.77	317.12
1003.065	330.01
1003.359	307.63
1003.654	325.94
1003.949	304.02
1004.243	315.32
1004.538	314.41
1004.832	322.1
1005.127	316.67
1005.421	307.41
1005.715	307.86
1006.009	326.84
1006.304	332.49
1006.598	330.68
1006.892	317.58
1007.186	313.06
1007.48	313.28
1007.773	315.99
1008.067	314.19
1008.361	319.61
1008.655	316.22
1008.948	316.67
1009.242	315.99
1009.535	304.24
1009.829	319.61
1010.122	319.61
1010.415	324.58
1010.708	309.89
1011.001	309.22
1011.295	322.1
1011.588	329.33
1011.881	332.27
1012.173	304.24
1012.466	314.19
1012.759	317.8
1013.052	304.24
1013.344	296.56
1013.637	327.97
1013.93	311.93
1014.222	312.38
1014.514	315.09
1014.807	334.75
1015.099	305.15
1015.391	320.97
1015.683	319.38
1015.976	319.16
1016.268	318.71
1016.56	312.6
1016.851	310.34
1017.143	316.9
1017.435	324.36
1017.727	311.93
1018.018	319.38
1018.31	303.57
1018.602	299.27
1018.893	334.53
1019.185	320.74
1019.476	302.66
1019.767	317.58
1020.058	314.64
1020.35	328.42
1020.641	314.41
1020.932	328.65
1021.223	300.18
1021.514	322.1
1021.804	318.48
1022.095	317.58
1022.386	318.03
1022.677	310.8
1022.967	323
1023.258	303.34
1023.548	317.12
1023.839	295.43
1024.129	319.16
1024.419	313.73
1024.709	337.46
1025	302.21
1025.29	311.47
1025.58	324.81
1025.87	301.53
1026.16	320.97
1026.449	337.24
1026.739	318.03
1027.029	301.31
1027.319	302.66
1027.608	321.42
1027.898	313.06
1028.187	325.94
1028.477	330.91
1028.766	311.25
1029.055	302.66
1029.344	331.14
1029.634	306.5
1029.923	302.21
1030.212	318.48
1030.501	315.32
1030.79	322.77
1031.078	328.42
1031.367	301.98
1031.656	319.38
1031.945	297.69
1032.233	300.63
1032.522	319.84
1032.81	323.23
1033.099	312.38
1033.387	302.44
1033.675	306.96
1033.963	336.33
1034.251	320.74
1034.54	312.38
1034.828	301.76
1035.116	287.75
1035.403	306.05
1035.691	320.06
1035.979	325.03
1036.267	321.64
1036.554	337.01
1036.842	320.51
1037.129	318.25
1037.417	306.28
1037.704	320.51
1037.992	334.98
1038.279	303.11
1038.566	322.1
1038.853	322.1
1039.14	322.1
