Data from No_light_on_white_reflection_standard_FLMS001491_026.txt Node
Date: Tue Feb 07 10:32:57 GMT 2017
User: dcchb
Spectrometer: FLMS00149
Trigger mode: 0
Integration Time (sec): 2.000000E-2
Scans to average: 10
Electric dark correction enabled: true
Nonlinearity correction enabled: false
Boxcar width: 0
XAxis mode: Wavelengths
Number of Pixels in Spectrum: 2048
>>>>>Begin Spectral Data<<<<<
341.393	-16.71
341.776	-16.71
342.16	-16.71
342.543	-51.51
342.927	-60.32
343.31	-68.23
343.693	-73.2
344.077	-69.14
344.46	-67.1
344.843	-56.93
345.226	-44.73
345.61	-37.05
345.993	-14.9
346.376	7.02
346.759	3.4
347.142	31.2
347.525	30.75
347.908	67.13
348.291	87.24
348.674	90.86
349.057	113.68
349.44	131.54
349.823	133.34
350.206	150.74
350.588	156.62
350.971	164.76
351.354	202.72
351.737	200.91
352.119	218.09
352.502	233.68
352.884	257.18
353.267	236.62
353.65	274.13
354.032	268.48
354.414	280.91
354.797	281.14
355.179	298.31
355.562	301.25
355.944	285.2
356.326	299.44
356.709	316.62
357.091	289.05
357.473	288.14
357.855	304.86
358.238	304.86
358.62	294.02
359.002	301.02
359.384	304.19
359.766	299.89
360.148	309.38
360.53	297.18
360.912	312.32
361.294	316.39
361.676	308.48
362.057	332.66
362.439	308.48
362.821	293.57
363.203	279.78
363.584	308.48
363.966	270.06
364.348	317.52
364.729	265.77
365.111	270.06
365.493	296.5
365.874	299.44
366.256	279.55
366.637	254.7
367.019	278.2
367.4	254.47
367.781	268.03
368.163	279.55
368.544	282.04
368.925	295.6
369.306	285.2
369.688	273.91
370.069	283.17
370.45	280.91
370.831	259.44
371.212	277.75
371.593	285.88
371.974	267.35
372.355	278.65
372.736	261.7
373.117	287.01
373.498	278.65
373.879	268.93
374.26	279.33
374.641	273.68
375.021	276.62
375.402	285.88
375.783	284.75
376.163	278.42
376.544	291.76
376.925	289.95
377.305	257.86
377.686	267.13
378.066	285.88
378.447	275.71
378.827	282.94
379.208	278.65
379.588	281.81
379.968	288.14
380.349	270.74
380.729	282.27
381.109	275.71
381.489	269.84
381.87	290.4
382.25	290.85
382.63	302.15
383.01	281.81
383.39	291.76
383.77	303.28
384.15	303.28
384.53	290.85
384.91	289.05
385.29	301.48
385.67	300.57
386.049	291.98
386.429	279.55
386.809	301.48
387.189	289.95
387.568	274.13
387.948	287.01
388.328	288.37
388.707	296.5
389.087	292.66
389.466	301.48
389.846	268.26
390.225	299.89
390.605	301.93
390.984	299.22
391.363	300.35
391.743	307.12
392.122	284.3
392.501	283.85
392.881	304.41
393.26	295.15
393.639	312.1
394.018	311.87
394.397	290.63
394.776	289.72
395.155	292.66
395.534	298.76
395.913	286.79
396.292	294.02
396.671	306.9
397.05	294.7
397.429	289.72
397.808	296.28
398.186	300.12
398.565	303.51
398.944	299.44
399.323	293.34
399.701	298.99
400.08	281.14
400.458	299.44
400.837	308.71
401.215	312.1
401.594	279.1
401.972	283.85
402.351	295.6
402.729	308.93
403.107	305.09
403.486	297.41
403.864	295.83
404.242	298.31
404.62	312.55
404.999	277.29
405.377	287.92
405.755	281.14
406.133	310.06
406.511	279.1
406.889	306.45
407.267	281.36
407.645	291.31
408.023	309.38
408.401	296.05
408.779	312.77
409.156	307.35
409.534	282.04
409.912	321.14
410.29	308.93
410.667	307.8
411.045	308.03
411.422	295.37
411.8	324.75
412.178	322.04
412.555	284.98
412.933	302.83
413.31	292.21
413.687	305.32
414.065	288.37
414.442	294.7
414.819	292.44
415.197	333.79
415.574	298.76
415.951	302.61
416.328	318.2
416.705	312.77
417.082	301.93
417.46	312.77
417.837	317.07
418.214	301.93
418.591	307.8
418.967	303.96
419.344	305.32
419.721	320.23
420.098	290.63
420.475	303.06
420.852	308.03
421.228	301.02
421.605	309.84
421.982	313.45
422.358	304.41
422.735	296.05
423.111	320.01
423.488	317.29
423.864	306.22
424.241	309.61
424.617	282.04
424.994	319.33
425.37	327.69
425.746	304.41
426.123	311.87
426.499	307.58
426.875	317.97
427.251	314.36
427.627	314.13
428.003	316.39
428.379	319.55
428.756	321.14
429.132	313.45
429.507	306.22
429.883	299.89
430.259	323.4
430.635	322.27
431.011	302.38
431.387	316.84
431.763	296.5
432.138	304.19
432.514	322.94
432.89	301.25
433.265	326.56
433.641	327.01
434.016	309.16
434.392	320.91
434.767	325.43
435.143	326.56
435.518	326.79
435.894	328.14
436.269	330.4
436.644	310.06
437.02	336.28
437.395	301.02
437.77	320.46
438.145	331.08
438.52	343.73
438.895	335.37
439.271	348.93
439.646	326.79
440.021	331.53
440.395	322.49
440.77	324.53
441.145	329.95
441.52	330.4
441.895	342.83
442.27	336.28
442.645	341.25
443.019	344.41
443.394	343.06
443.769	327.92
444.143	354.13
444.518	334.47
444.892	336.95
445.267	334.24
445.641	354.58
446.016	369.04
446.39	334.47
446.764	350.74
447.139	365.88
447.513	343.96
447.887	364.3
448.262	359.33
448.636	335.37
449.01	360.91
449.384	367.91
449.758	356.16
450.132	385.99
450.506	356.84
450.88	371.3
451.254	386.9
451.628	378.99
452.002	348.03
452.376	373.79
452.75	346.9
453.123	369.5
453.497	357.29
453.871	339.44
454.244	374.92
454.618	367.46
454.992	356.16
455.365	377.63
455.739	357.29
456.112	365.43
456.486	358.42
456.859	362.72
457.232	362.94
457.606	367.24
457.979	369.95
458.352	364.75
458.725	357.97
459.099	362.04
459.472	361.36
459.845	365.43
460.218	347.12
460.591	363.17
460.964	350.97
461.337	351.19
461.71	361.13
462.083	376.05
462.456	379.44
462.829	373.79
463.201	346.45
463.574	384.41
463.947	341.25
464.32	362.94
464.692	376.05
465.065	374.92
465.438	372.89
465.81	368.37
466.183	372.66
466.555	361.81
466.928	361.59
467.3	350.29
467.672	354.81
468.045	357.07
468.417	367.69
468.789	355.49
469.161	348.71
469.534	354.13
469.906	369.27
470.278	362.94
470.65	367.46
471.022	339.67
471.394	363.39
471.766	345.09
472.138	353.23
472.51	367.46
472.882	345.77
473.253	376.5
473.625	349.16
473.997	334.24
474.369	349.61
474.74	343.51
475.112	352.32
475.484	365.65
475.855	358.87
476.227	355.49
476.598	344.86
476.97	360.23
477.341	349.84
477.713	367.24
478.084	357.07
478.455	372.43
478.827	364.75
479.198	344.86
479.569	353.23
479.94	353
480.311	370.85
480.682	350.06
481.053	338.08
481.424	360.23
481.795	366.56
482.166	357.97
482.537	369.72
482.908	371.08
483.279	360
483.65	350.29
484.021	353.23
484.391	330.63
484.762	358.2
485.133	363.62
485.503	349.84
485.874	355.71
486.244	358.65
486.615	376.28
486.985	370.63
487.356	345.99
487.726	375.15
488.097	364.52
488.467	362.94
488.837	361.81
489.207	364.98
489.578	369.72
489.948	366.11
490.318	358.2
490.688	369.04
491.058	368.59
491.428	361.59
491.798	381.7
492.168	375.15
492.538	366.33
492.908	364.3
493.278	386.67
493.648	372.89
494.017	378.31
494.387	386.22
494.757	390.06
495.126	373.11
495.496	374.02
495.866	389.16
496.235	382.83
496.605	391.42
496.974	372.43
497.344	391.19
497.713	398.42
498.082	378.31
498.452	384.86
498.821	405.88
499.19	413.11
499.559	414.01
499.928	414.69
500.298	398.2
500.667	397.29
501.036	359.78
501.405	407.24
501.774	405.43
502.143	398.42
502.512	408.82
502.88	404.75
503.249	394.13
503.618	414.69
503.987	402.94
504.356	400.46
504.724	391.87
505.093	394.35
505.462	410.4
505.83	401.81
506.199	411.53
506.567	404.75
506.936	421.7
507.304	424.64
507.672	422.6
508.041	433.45
508.409	430.96
508.777	420.57
509.145	442.94
509.514	425.54
509.882	426.44
510.25	434.35
510.618	411.3
510.986	431.19
511.354	437.52
511.722	428.25
512.09	431.87
512.458	431.87
512.826	421.25
513.193	444.52
513.561	468.93
513.929	434.58
514.297	448.14
514.664	450.62
515.032	442.26
515.4	458.08
515.767	441.58
516.135	451.75
516.502	454.47
516.869	437.06
517.237	460.34
517.604	440.45
517.972	442.71
518.339	436.39
518.706	447.91
519.073	454.69
519.44	441.36
519.808	445.2
520.175	465.99
520.542	463.28
520.909	466.89
521.276	465.31
521.643	484.75
522.009	496.27
522.376	453.56
522.743	473.22
523.11	445.43
523.477	476.16
523.843	452.66
524.21	465.31
524.577	491.98
524.943	483.39
525.31	461.7
525.676	449.95
526.043	496.72
526.409	477.97
526.776	496.27
527.142	484.97
527.508	480.68
527.874	502.83
528.241	495.59
528.607	495.82
528.973	465.76
529.339	488.59
529.705	480
530.071	491.53
530.437	484.3
530.803	498.98
531.169	488.59
531.535	504.18
531.901	483.62
532.267	494.69
532.632	491.98
532.998	482.04
533.364	487.46
533.73	493.79
534.095	494.01
534.461	486.56
534.826	494.01
535.192	510.51
535.557	480.68
535.923	503.96
536.288	490.85
536.653	522.49
537.019	490.17
537.384	533.33
537.749	515.48
538.114	500.11
538.479	502.15
538.845	525.88
539.21	512.99
539.575	489.72
539.94	507.8
540.305	493.56
540.67	505.09
541.034	503.05
541.399	513.67
541.764	510.06
542.129	532.43
542.494	501.92
542.858	495.82
543.223	509.83
543.587	513.67
543.952	537.18
544.316	511.64
544.681	531.98
545.045	496.72
545.41	505.09
545.774	521.58
546.138	514.58
546.503	513.67
546.867	520
547.231	518.87
547.595	520.23
547.959	505.99
548.324	518.19
548.688	521.81
549.052	523.84
549.416	527.01
549.779	511.87
550.143	515.48
550.507	515.93
550.871	530.17
551.235	532.66
551.599	525.88
551.962	520.68
552.326	534.01
552.689	518.87
553.053	527.46
553.417	537.85
553.78	543.5
554.143	543.73
554.507	514.58
554.87	516.16
555.234	544.63
555.597	537.4
555.96	520
556.323	526.55
556.686	513.9
557.05	521.13
557.413	544.18
557.776	513.67
558.139	517.06
558.502	518.42
558.865	522.49
559.228	526.33
559.59	540.34
559.953	541.69
560.316	567.91
560.679	532.43
561.041	544.86
561.404	550.51
561.767	567.23
562.129	552.99
562.492	566.33
562.854	536.95
563.217	568.81
563.579	556.38
563.941	550.51
564.304	549.38
564.666	553.45
565.028	558.64
565.39	555.25
565.753	540.11
566.115	549.83
566.477	554.35
566.839	528.81
567.201	556.38
567.563	548.25
567.925	564.52
568.287	558.87
568.648	574.46
569.01	578.3
569.372	570.39
569.734	556.16
570.095	556.61
570.457	538.08
570.819	542.6
571.18	565.2
571.542	575.59
571.903	579.66
572.265	552.99
572.626	576.27
572.987	560.68
573.349	578.76
573.71	563.62
574.071	569.94
574.432	559.32
574.794	567.91
575.155	579.43
575.516	562.71
575.877	563.39
576.238	572.65
576.599	555.71
576.96	571.3
577.32	586.67
577.681	597.51
578.042	577.4
578.403	585.31
578.763	574.24
579.124	562.94
579.485	573.33
579.845	566.55
580.206	579.66
580.566	598.87
580.927	576.95
581.287	573.33
581.648	609.49
582.008	582.6
582.368	588.7
582.728	560
583.089	573.33
583.449	589.38
583.809	589.6
584.169	584.63
584.529	590.28
584.889	557.74
585.249	567.46
585.609	585.76
585.969	576.72
586.329	590.06
586.688	571.75
587.048	576.95
587.408	567.23
587.768	587.8
588.127	571.07
588.487	590.28
588.846	584.18
589.206	567.46
589.565	570.39
589.925	581.24
590.284	586.89
590.643	555.03
591.003	584.41
591.362	577.63
591.721	569.94
592.08	581.47
592.44	587.34
592.799	582.15
593.158	589.15
593.517	574.69
593.876	597.29
594.235	566.55
594.593	575.14
594.952	545.99
595.311	560.45
595.67	559.1
596.029	581.47
596.387	573.33
596.746	576.04
597.104	562.03
597.463	585.54
597.822	557.74
598.18	562.03
598.538	577.4
598.897	589.15
599.255	573.56
599.613	561.58
599.972	561.36
600.33	556.84
600.688	578.3
601.046	548.47
601.404	560.68
601.762	574.46
602.12	562.94
602.478	552.54
602.836	563.62
603.194	567.68
603.552	566.33
603.91	565.87
604.268	584.41
604.625	550.06
604.983	551.19
605.341	552.54
605.698	548.25
606.056	560.23
606.413	551.64
606.771	550.06
607.128	550.06
607.485	569.72
607.843	556.38
608.2	550.28
608.557	567.91
608.914	545.54
609.272	554.12
609.629	583.05
609.986	553.45
610.343	542.15
610.7	551.19
611.057	530.62
611.414	545.99
611.771	548.93
612.127	555.25
612.484	536.72
612.841	556.84
613.198	544.18
613.554	539.89
613.911	511.41
614.267	556.61
614.624	547.12
614.98	548.7
615.337	557.97
615.693	527.68
616.05	546.89
616.406	534.46
616.762	547.57
617.118	560.9
617.475	529.27
617.831	533.79
618.187	518.42
618.543	548.25
618.899	531.98
619.255	537.4
619.611	523.62
619.967	547.34
620.323	500.34
620.678	535.59
621.034	534.24
621.39	537.63
621.746	537.85
622.101	533.33
622.457	532.2
622.812	512.54
623.168	506.89
623.523	493.33
623.879	526.33
624.234	515.48
624.589	524.97
624.945	521.81
625.3	512.54
625.655	498.98
626.01	501.02
626.365	509.15
626.72	498.31
627.075	511.87
627.43	512.99
627.785	503.73
628.14	485.65
628.495	498.08
628.85	506.89
629.205	484.97
629.559	477.52
629.914	496.5
630.269	492.88
630.623	496.95
630.978	476.84
631.332	486.1
631.687	492.66
632.041	505.09
632.396	493.79
632.75	473
633.104	500.79
633.459	482.26
633.813	479.78
634.167	487.68
634.521	504.41
634.875	482.94
635.229	477.74
635.583	491.98
635.937	447.23
636.291	481.13
636.645	479.32
636.999	482.26
637.352	461.92
637.706	470.74
638.06	466.89
638.413	490.17
638.767	466.89
639.121	454.01
639.474	472.77
639.828	478.19
640.181	461.24
640.534	503.05
640.888	466.89
641.241	444.3
641.594	479.78
641.947	471.19
642.301	462.15
642.654	457.63
643.007	456.27
643.36	434.8
643.713	453.56
644.066	438.42
644.419	448.14
644.771	449.27
645.124	444.75
645.477	440.45
645.83	454.01
646.182	454.69
646.535	417.18
646.888	436.61
647.24	434.8
647.593	435.93
647.945	427.8
648.298	430.06
648.65	442.26
649.002	445.2
649.355	421.7
649.707	406.33
650.059	399.1
650.411	411.53
650.763	446.78
651.115	429.83
651.467	417.86
651.819	429.38
652.171	438.42
652.523	439.32
652.875	435.48
653.227	425.99
653.578	427.57
653.93	416.95
654.282	426.22
654.633	423.51
654.985	415.14
655.337	433.45
655.688	422.15
656.039	423.51
656.391	402.94
656.742	415.82
657.094	400
657.445	423.05
657.796	396.16
658.147	413.56
658.498	396.84
658.849	424.64
659.2	433.68
659.551	396.84
659.902	408.82
660.253	416.73
660.604	391.42
660.955	404.52
661.306	422.38
661.656	393.9
662.007	407.24
662.358	392.55
662.708	397.52
663.059	393
663.409	439.55
663.76	388.7
664.11	414.92
664.461	411.53
664.811	404.3
665.161	414.92
665.511	388.25
665.862	402.04
666.212	399.33
666.562	372.66
666.912	378.76
667.262	386.67
667.612	390.74
667.962	393.68
668.312	406.56
668.662	394.13
669.011	390.51
669.361	388.25
669.711	401.13
670.06	388.03
670.41	399.33
670.76	387.8
671.109	372.21
671.459	393.68
671.808	381.02
672.157	395.71
672.507	384.64
672.856	403.39
673.205	377.41
673.554	387.12
673.904	388.7
674.253	397.74
674.602	371.98
674.951	385.31
675.3	366.33
675.649	388.93
675.998	365.88
676.346	381.92
676.695	395.71
677.044	388.7
677.393	360.68
677.741	387.8
678.09	357.97
678.438	379.67
678.787	374.92
679.135	371.98
679.484	379.44
679.832	374.47
680.181	373.56
680.529	371.08
680.877	376.05
681.225	383.73
681.573	380.12
681.922	380.8
682.27	359.33
682.618	393.22
682.966	377.86
683.314	382.83
683.661	368.59
684.009	372.43
684.357	380.34
684.705	381.02
685.053	370.85
685.4	372.43
685.748	368.14
686.095	373.56
686.443	370.17
686.79	374.47
687.138	354.81
687.485	347.35
687.832	380.12
688.18	386.9
688.527	364.75
688.874	363.39
689.221	370.85
689.568	375.15
689.915	351.87
690.262	360
690.609	359.78
690.956	364.98
691.303	342.15
691.65	352.77
691.997	341.25
692.344	368.37
692.69	371.08
693.037	348.48
693.383	350.74
693.73	360
694.077	356.39
694.423	349.61
694.769	356.16
695.116	348.93
695.462	349.38
695.808	359.55
696.155	359.33
696.501	375.37
696.847	358.42
697.193	370.85
697.539	344.86
697.885	355.94
698.231	344.64
698.577	374.92
698.923	361.59
699.269	331.76
699.614	347.12
699.96	346.9
700.306	353.45
700.651	358.65
700.997	354.13
701.342	374.69
701.688	357.52
702.033	341.25
702.379	334.47
702.724	353.45
703.069	340.8
703.415	352.1
703.76	351.42
704.105	357.07
704.45	346.67
704.795	349.84
705.14	358.87
705.485	338.54
705.83	350.51
706.175	351.64
706.52	360.68
706.865	346.67
707.209	349.38
707.554	332.21
707.899	348.71
708.243	346.67
708.588	336.5
708.932	338.76
709.277	347.12
709.621	367.91
709.966	353.68
710.31	343.73
710.654	319.33
710.998	336.95
711.342	347.58
711.687	350.51
712.031	336.05
712.375	358.87
712.719	341.47
713.063	363.62
713.407	339.44
713.75	343.73
714.094	332.43
714.438	337.18
714.782	331.53
715.125	355.94
715.469	327.24
715.812	348.71
716.156	349.84
716.499	337.86
716.843	342.38
717.186	326.33
717.53	336.95
717.873	329.95
718.216	339.89
718.559	346.9
718.902	342.6
719.246	336.5
719.589	344.64
719.932	351.42
720.275	341.47
720.617	333.79
720.96	350.51
721.303	352.32
721.646	321.14
721.989	341.47
722.331	331.53
722.674	348.71
723.016	334.24
723.359	332.89
723.701	326.79
724.044	339.89
724.386	333.79
724.729	329.72
725.071	344.19
725.413	338.08
725.755	341.02
726.097	341.93
726.439	335.6
726.782	337.63
727.124	345.09
727.465	338.99
727.807	343.28
728.149	333.79
728.491	337.41
728.833	314.81
729.175	338.76
729.516	346.9
729.858	315.71
730.199	317.52
730.541	328.37
730.882	330.17
731.224	353
731.565	329.95
731.906	339.21
732.248	332.66
732.589	337.18
732.93	329.95
733.271	336.5
733.612	338.31
733.953	338.99
734.294	344.41
734.635	336.95
734.976	338.08
735.317	346.22
735.658	337.41
735.999	333.11
736.339	328.37
736.68	344.19
737.021	332.89
737.361	324.3
737.702	321.59
738.042	337.41
738.383	348.25
738.723	313.68
739.063	354.36
739.404	355.94
739.744	356.39
740.084	331.98
740.424	346.67
740.764	348.48
741.104	322.27
741.444	331.08
741.784	331.76
742.124	316.62
742.464	323.85
742.804	346.9
743.143	340.57
743.483	334.69
743.823	334.02
744.162	333.79
744.502	340.8
744.841	324.75
745.181	338.31
745.52	329.72
745.86	312.1
746.199	339.44
746.538	314.13
746.877	325.66
747.216	331.76
747.556	342.15
747.895	327.69
748.234	338.99
748.573	346.22
748.911	321.81
749.25	352.32
749.589	349.38
749.928	341.93
750.267	342.6
750.605	330.17
750.944	338.31
751.283	331.76
751.621	343.28
751.96	333.11
752.298	338.08
752.636	324.75
752.975	347.12
753.313	322.04
753.651	320.01
753.989	344.86
754.327	319.78
754.666	326.56
755.004	320.23
755.342	337.63
755.679	320.68
756.017	347.35
756.355	339.67
756.693	333.56
757.031	341.93
757.368	340.8
757.706	332.21
758.044	313.23
758.381	334.24
758.719	363.17
759.056	325.66
759.394	327.24
759.731	317.52
760.068	313
760.405	334.24
760.743	330.4
761.08	323.62
761.417	310.29
761.754	311.19
762.091	333.11
762.428	319.1
762.765	325.43
763.102	345.09
763.438	340.12
763.775	296.5
764.112	343.06
764.449	304.41
764.785	331.3
765.122	327.01
765.458	323.17
765.795	329.5
766.131	318.65
766.467	302.38
766.804	321.36
767.14	325.2
767.476	328.37
767.812	337.18
768.148	334.02
768.485	315.03
768.821	311.19
769.157	320.46
769.492	314.81
769.828	330.4
770.164	309.16
770.5	341.25
770.836	318.2
771.171	319.78
771.507	338.54
771.842	331.98
772.178	320.23
772.513	324.07
772.849	336.73
773.184	330.17
773.519	316.84
773.855	337.86
774.19	341.93
774.525	313.23
774.86	343.96
775.195	313.9
775.53	341.7
775.865	329.5
776.2	332.21
776.535	339.21
776.87	342.15
777.205	319.1
777.539	336.5
777.874	309.61
778.209	314.36
778.543	346.22
778.878	320.68
779.212	319.55
779.547	311.64
779.881	312.55
780.215	342.15
780.55	332.89
780.884	321.14
781.218	341.25
781.552	327.01
781.886	323.4
782.22	330.4
782.554	331.53
782.888	322.04
783.222	314.36
783.556	344.86
783.889	333.11
784.223	341.47
784.557	312.1
784.89	332.43
785.224	361.81
785.557	323.17
785.891	316.84
786.224	308.25
786.558	305.09
786.891	309.61
787.224	318.42
787.557	312.1
787.891	322.49
788.224	301.7
788.557	318.88
788.89	329.72
789.223	318.88
789.556	328.82
789.888	334.69
790.221	336.5
790.554	335.37
790.887	328.59
791.219	319.55
791.552	329.72
791.884	332.21
792.217	318.2
792.549	326.11
792.882	336.73
793.214	334.47
793.546	319.1
793.879	316.62
794.211	319.78
794.543	317.75
794.875	321.36
795.207	326.33
795.539	330.17
795.871	340.12
796.203	309.38
796.535	319.78
796.867	336.05
797.198	339.21
797.53	321.59
797.862	309.61
798.193	317.29
798.525	338.08
798.856	318.2
799.188	330.63
799.519	321.59
799.85	329.27
800.182	321.14
800.513	306.67
800.844	305.99
801.175	329.5
801.506	334.47
801.837	336.5
802.168	336.73
802.499	306.45
802.83	327.24
803.161	322.27
803.491	328.14
803.822	333.34
804.153	337.41
804.483	321.59
804.814	320.68
805.145	309.16
805.475	325.88
805.805	310.97
806.136	334.24
806.466	317.29
806.796	313.23
807.126	334.02
807.457	317.52
807.787	316.16
808.117	316.39
808.447	315.03
808.777	313.23
809.107	333.11
809.436	319.78
809.766	330.17
810.096	286.56
810.426	354.13
810.755	332.89
811.085	341.7
811.414	320.01
811.744	323.62
812.073	315.26
812.403	305.99
812.732	301.02
813.061	321.81
813.39	328.59
813.719	322.94
814.049	313.45
814.378	338.08
814.707	347.58
815.036	309.16
815.365	323.4
815.693	320.91
816.022	322.72
816.351	323.85
816.68	334.02
817.008	332.66
817.337	321.59
817.665	324.3
817.994	311.64
818.322	331.98
818.651	325.88
818.979	303.28
819.307	326.79
819.636	327.46
819.964	339.21
820.292	332.66
820.62	343.28
820.948	318.2
821.276	320.91
821.604	334.24
821.932	310.06
822.259	342.15
822.587	314.13
822.915	341.47
823.243	330.63
823.57	328.82
823.898	320.23
824.225	322.04
824.553	307.58
824.88	320.01
825.207	310.97
825.535	335.6
825.862	323.17
826.189	322.72
826.516	330.85
826.843	308.25
827.17	351.19
827.497	322.94
827.824	311.19
828.151	329.05
828.478	325.66
828.805	338.31
829.131	313
829.458	338.76
829.785	324.98
830.111	319.55
830.438	324.53
830.764	323.62
831.09	334.69
831.417	313.9
831.743	327.46
832.069	331.76
832.395	328.14
832.722	327.92
833.048	311.19
833.374	320.68
833.7	335.82
834.026	332.89
834.351	309.38
834.677	316.39
835.003	322.72
835.329	313.45
835.654	318.42
835.98	302.61
836.306	311.87
836.631	327.46
836.956	328.59
837.282	321.81
837.607	330.4
837.932	331.08
838.258	317.29
838.583	312.77
838.908	323.17
839.233	345.32
839.558	331.76
839.883	323.4
840.208	335.82
840.533	319.1
840.858	336.73
841.182	316.16
841.507	317.52
841.832	319.78
842.156	326.33
842.481	318.88
842.805	316.39
843.13	325.43
843.454	338.08
843.778	337.41
844.103	320.46
844.427	320.23
844.751	352.1
845.075	334.47
845.399	327.46
845.723	322.49
846.047	324.53
846.371	319.33
846.695	323.4
847.019	308.25
847.343	328.37
847.666	323.4
847.99	326.33
848.313	317.29
848.637	316.84
848.96	318.2
849.284	343.51
849.607	323.85
849.931	332.21
850.254	305.77
850.577	320.46
850.9	317.29
851.223	315.71
851.546	295.6
851.869	316.39
852.192	321.14
852.515	331.08
852.838	310.06
853.161	322.94
853.483	313.9
853.806	321.59
854.129	329.27
854.451	328.37
854.774	315.71
855.096	294.47
855.419	320.46
855.741	316.39
856.063	304.41
856.385	315.71
856.708	306.45
857.03	341.47
857.352	309.61
857.674	320.46
857.996	329.72
858.318	335.6
858.64	312.1
858.961	322.49
859.283	327.01
859.605	328.59
859.926	327.01
860.248	316.16
860.57	319.33
860.891	326.79
861.212	326.11
861.534	314.36
861.855	329.72
862.176	336.05
862.498	333.56
862.819	321.36
863.14	303.06
863.461	336.28
863.782	323.4
864.103	313
864.424	329.5
864.745	336.5
865.065	336.05
865.386	331.76
865.707	358.42
866.027	318.42
866.348	326.56
866.668	334.47
866.989	314.81
867.309	315.26
867.63	343.96
867.95	331.76
868.27	335.6
868.59	312.55
868.91	308.25
869.23	327.46
869.55	331.3
869.87	340.8
870.19	334.24
870.51	313
870.83	324.07
871.15	336.95
871.469	341.93
871.789	337.41
872.109	306.67
872.428	338.31
872.748	333.56
873.067	308.93
873.386	337.18
873.706	331.98
874.025	331.98
874.344	334.69
874.663	330.17
874.982	322.27
875.301	322.49
875.62	319.1
875.939	316.16
876.258	324.3
876.577	310.06
876.896	307.12
877.214	316.62
877.533	322.27
877.852	316.16
878.17	308.48
878.489	339.67
878.807	329.95
879.125	322.49
879.444	345.09
879.762	333.11
880.08	321.14
880.398	323.62
880.716	312.32
881.034	322.04
881.352	309.61
881.67	325.2
881.988	325.88
882.306	332.89
882.624	318.65
882.941	321.36
883.259	336.5
883.577	283.17
883.894	309.84
884.212	306.22
884.529	321.14
884.846	324.75
885.164	317.07
885.481	333.56
885.798	310.97
886.115	300.35
886.432	308.48
886.75	318.88
887.067	317.52
887.383	317.75
887.7	308.48
888.017	319.33
888.334	329.27
888.651	320.01
888.967	318.65
889.284	327.69
889.6	316.84
889.917	319.78
890.233	315.71
890.55	301.02
890.866	323.62
891.182	323.4
891.498	336.5
891.815	326.11
892.131	333.79
892.447	306.9
892.763	325.43
893.079	334.69
893.395	310.06
893.71	325.88
894.026	338.31
894.342	310.51
894.657	300.8
894.973	308.48
895.289	303.73
895.604	310.06
895.92	313.23
896.235	322.72
896.55	317.97
896.865	327.24
897.181	321.81
897.496	314.81
897.811	320.46
898.126	318.42
898.441	321.81
898.756	328.14
899.071	313.45
899.386	313.23
899.7	314.13
900.015	316.16
900.33	333.34
900.644	309.38
900.959	322.49
901.273	328.82
901.588	309.16
901.902	320.68
902.216	319.33
902.531	334.92
902.845	315.94
903.159	333.79
903.473	314.58
903.787	315.26
904.101	321.14
904.415	310.74
904.729	316.62
905.042	305.99
905.356	317.75
905.67	336.05
905.984	304.41
906.297	327.46
906.611	322.49
906.924	303.96
907.237	320.91
907.551	320.91
907.864	307.12
908.177	309.38
908.491	330.4
908.804	320.68
909.117	313
909.43	331.98
909.743	319.55
910.056	341.93
910.368	331.98
910.681	329.5
910.994	299.44
911.307	321.81
911.619	341.02
911.932	325.88
912.244	332.66
912.557	317.07
912.869	344.41
913.181	308.25
913.494	330.17
913.806	311.19
914.118	314.58
914.43	332.66
914.742	326.11
915.054	320.01
915.366	325.2
915.678	302.61
915.99	314.36
916.302	305.99
916.613	307.35
916.925	332.89
917.236	317.97
917.548	318.42
917.859	340.57
918.171	331.76
918.482	347.12
918.794	304.19
919.105	323.4
919.416	302.15
919.727	338.31
920.038	313.45
920.349	333.34
920.66	324.98
920.971	334.24
921.282	311.42
921.593	317.52
921.903	332.43
922.214	316.84
922.525	322.94
922.835	327.69
923.146	312.77
923.456	324.53
923.767	302.61
924.077	321.81
924.387	310.06
924.697	311.64
925.008	298.31
925.318	320.01
925.628	327.24
925.938	317.29
926.248	314.13
926.558	329.5
926.867	319.78
927.177	336.95
927.487	314.13
927.796	322.94
928.106	310.97
928.416	327.69
928.725	327.01
929.034	312.55
929.344	311.64
929.653	322.27
929.962	308.03
930.271	306.9
930.581	312.32
930.89	320.23
931.199	310.74
931.508	336.95
931.817	310.74
932.125	322.04
932.434	293.79
932.743	331.53
933.051	304.41
933.36	326.11
933.669	331.3
933.977	305.99
934.286	325.66
934.594	308.03
934.902	313.23
935.21	312.1
935.519	289.95
935.827	303.28
936.135	299.67
936.443	320.01
936.751	316.16
937.059	323.17
937.367	322.94
937.674	321.14
937.982	314.13
938.29	318.65
938.597	303.51
938.905	307.58
939.213	312.77
939.52	312.55
939.827	341.02
940.135	316.39
940.442	320.91
940.749	318.65
941.056	302.15
941.363	304.64
941.67	305.77
941.977	313.45
942.284	327.46
942.591	295.37
942.898	304.19
943.205	315.94
943.511	315.94
943.818	329.72
944.125	308.71
944.431	327.46
944.738	327.46
945.044	344.86
945.35	322.94
945.657	323.17
945.963	309.38
946.269	322.04
946.575	308.48
946.881	326.56
947.187	310.51
947.493	310.06
947.799	320.01
948.105	301.7
948.41	302.83
948.716	314.81
949.022	320.01
949.327	292.66
949.633	298.31
949.938	324.98
950.244	324.07
950.549	326.79
950.854	314.36
951.16	313.68
951.465	332.43
951.77	313.45
952.075	309.38
952.38	311.42
952.685	307.8
952.99	310.74
953.294	327.69
953.599	331.08
953.904	290.18
954.209	324.53
954.513	319.55
954.818	321.36
955.122	299.89
955.426	316.39
955.731	323.62
956.035	320.91
956.339	302.38
956.643	310.29
956.948	320.46
957.252	322.04
957.556	322.72
957.86	322.04
958.163	323.17
958.467	296.73
958.771	318.2
959.075	335.37
959.378	334.47
959.682	313
959.985	296.28
960.289	328.14
960.592	294.7
960.896	330.17
961.199	326.33
961.502	327.01
961.805	305.09
962.108	315.71
962.411	315.71
962.714	299.22
963.017	317.97
963.32	320.01
963.623	313.9
963.926	310.06
964.228	329.95
964.531	326.33
964.833	314.13
965.136	315.49
965.438	315.94
965.741	323.85
966.043	328.59
966.345	315.03
966.648	333.11
966.95	322.94
967.252	310.06
967.554	312.55
967.856	306.22
968.158	325.43
968.46	328.14
968.761	326.79
969.063	314.81
969.365	324.3
969.666	293.11
969.968	313.23
970.269	305.54
970.571	305.99
970.872	327.46
971.174	327.24
971.475	302.15
971.776	312.1
972.077	319.33
972.378	305.99
972.679	308.48
972.98	321.59
973.281	340.8
973.582	330.85
973.883	327.46
974.183	327.69
974.484	312.1
974.785	323.85
975.085	343.06
975.386	338.08
975.686	305.99
975.986	297.41
976.287	320.01
976.587	322.27
976.887	306.9
977.187	330.4
977.487	315.03
977.787	344.19
978.087	317.75
978.387	325.2
978.687	324.53
978.987	312.77
979.286	334.69
979.586	328.82
979.885	323.85
980.185	305.99
980.484	322.49
980.784	322.94
981.083	304.64
981.382	322.49
981.682	297.63
981.981	301.48
982.28	330.4
982.579	325.2
982.878	313
983.177	310.29
983.475	306.22
983.774	325.2
984.073	320.23
984.372	320.01
984.67	330.17
984.969	301.48
985.267	329.05
985.566	320.68
985.864	311.19
986.162	325.88
986.461	324.98
986.759	318.65
987.057	302.15
987.355	326.11
987.653	302.15
987.951	313.9
988.249	330.63
988.547	290.4
988.844	312.77
989.142	319.33
989.44	325.88
989.737	324.98
990.035	329.72
990.332	311.19
990.63	309.84
990.927	310.51
991.224	307.58
991.521	334.02
991.819	314.81
992.116	329.27
992.413	321.36
992.71	344.19
993.006	312.32
993.303	309.61
993.6	318.65
993.897	318.2
994.193	313.68
994.49	288.14
994.787	293.11
995.083	312.1
995.379	309.16
995.676	321.59
995.972	300.57
996.268	326.56
996.565	322.04
996.861	316.84
997.157	311.42
997.453	307.8
997.749	315.26
998.044	317.29
998.34	307.35
998.636	313
998.932	316.62
999.227	306.22
999.523	321.36
999.818	317.07
1000.114	324.53
1000.409	330.17
1000.704	325.2
1001	312.32
1001.295	305.09
1001.59	301.48
1001.885	310.06
1002.18	311.64
1002.475	306.45
1002.77	326.79
1003.065	320.68
1003.359	296.28
1003.654	323.62
1003.949	320.91
1004.243	330.85
1004.538	287.24
1004.832	301.25
1005.127	329.27
1005.421	311.87
1005.715	337.18
1006.009	313.23
1006.304	299.89
1006.598	327.24
1006.892	335.37
1007.186	324.3
1007.48	314.81
1007.773	311.42
1008.067	341.7
1008.361	316.16
1008.655	316.84
1008.948	315.71
1009.242	312.55
1009.535	295.37
1009.829	312.32
1010.122	305.77
1010.415	316.39
1010.708	317.29
1011.001	324.53
1011.295	311.87
1011.588	315.49
1011.881	320.01
1012.173	329.95
1012.466	320.46
1012.759	319.55
1013.052	322.94
1013.344	321.59
1013.637	300.35
1013.93	301.93
1014.222	317.52
1014.514	313.68
1014.807	319.78
1015.099	309.38
1015.391	323.17
1015.683	323.85
1015.976	321.81
1016.268	324.98
1016.56	323.85
1016.851	340.34
1017.143	314.36
1017.435	301.48
1017.727	322.94
1018.018	316.62
1018.31	305.77
1018.602	289.5
1018.893	315.26
1019.185	305.77
1019.476	304.64
1019.767	291.08
1020.058	325.88
1020.35	309.61
1020.641	330.63
1020.932	315.94
1021.223	329.05
1021.514	312.55
1021.804	326.11
1022.095	287.24
1022.386	306.9
1022.677	310.29
1022.967	319.33
1023.258	323.4
1023.548	322.72
1023.839	338.54
1024.129	330.85
1024.419	327.92
1024.709	316.39
1025	325.66
1025.29	313
1025.58	318.88
1025.87	310.06
1026.16	306.9
1026.449	299.67
1026.739	325.66
1027.029	325.43
1027.319	322.04
1027.608	299.89
1027.898	322.49
1028.187	312.77
1028.477	308.25
1028.766	315.49
1029.055	299.44
1029.344	298.09
1029.634	329.5
1029.923	304.19
1030.212	299.22
1030.501	348.93
1030.79	306.9
1031.078	326.56
1031.367	329.05
1031.656	317.97
1031.945	332.21
1032.233	320.91
1032.522	332.66
1032.81	323.62
1033.099	313.23
1033.387	312.1
1033.675	299.67
1033.963	315.71
1034.251	318.2
1034.54	315.94
1034.828	322.72
1035.116	322.72
1035.403	326.33
1035.691	297.86
1035.979	308.03
1036.267	312.32
1036.554	320.91
1036.842	324.75
1037.129	324.75
1037.417	318.2
1037.704	315.26
1037.992	308.25
1038.279	317.29
1038.566	303.06
1038.853	303.06
1039.14	303.06
