Data from No_light_on_white_reflection_standard_FLMS001491_030.txt Node
Date: Tue Feb 07 10:32:58 GMT 2017
User: dcchb
Spectrometer: FLMS00149
Trigger mode: 0
Integration Time (sec): 2.000000E-2
Scans to average: 10
Electric dark correction enabled: true
Nonlinearity correction enabled: false
Boxcar width: 0
XAxis mode: Wavelengths
Number of Pixels in Spectrum: 2048
>>>>>Begin Spectral Data<<<<<
341.393	-15.85
341.776	-15.85
342.16	-15.85
342.543	-67.37
342.927	-71.89
343.31	-68.28
343.693	-63.76
344.077	-75.05
344.46	-54.04
344.843	-39.35
345.226	-27.37
345.61	-29.18
345.993	-13.81
346.376	-16.98
346.759	7.66
347.142	11.27
347.525	26.64
347.908	59.18
348.291	82.68
348.674	97.14
349.057	103.25
349.44	117.71
349.823	132.4
350.206	147.31
350.588	182.34
350.971	192.74
351.354	211.72
351.737	205.62
352.119	223.02
352.502	243.81
352.884	226.41
353.267	258.27
353.65	251.26
354.032	252.39
354.414	268.44
354.797	294.88
355.179	292.85
355.562	298.72
355.944	297.82
356.326	297.14
356.709	307.08
357.091	300.75
357.473	302.79
357.855	300.98
358.238	285.39
358.62	319.51
359.002	280.42
359.384	302.34
359.766	310.47
360.148	299.62
360.53	301.66
360.912	310.25
361.294	323.35
361.676	292.17
362.057	312.28
362.439	307.31
362.821	301.88
363.203	286.07
363.584	295.11
363.966	297.14
364.348	296.46
364.729	288.33
365.111	288.78
365.493	295.56
365.874	267.08
366.256	267.99
366.637	294.88
367.019	270.93
367.4	289.68
367.781	270.25
368.163	261.43
368.544	279.29
368.925	276.57
369.306	283.35
369.688	272.96
370.069	292.17
370.45	283.81
370.831	264.82
371.212	264.37
371.593	265.5
371.974	268.67
372.355	270.25
372.736	266.41
373.117	283.13
373.498	257.14
373.879	272.28
374.26	255.11
374.641	283.13
375.021	282.9
375.402	272.51
375.783	274.09
376.163	284.71
376.544	280.87
376.925	268.21
377.305	280.42
377.686	251.72
378.066	262.79
378.447	283.81
378.827	277.25
379.208	264.15
379.588	283.81
379.968	280.19
380.349	267.54
380.729	308.44
381.109	270.93
381.489	288.1
381.87	301.66
382.25	286.74
382.63	305.27
383.01	298.27
383.39	269.8
383.77	277.93
384.15	284.03
384.53	268.21
384.91	278.38
385.29	287.65
385.67	276.57
386.049	301.88
386.429	289
386.809	296.91
387.189	296.01
387.568	268.21
387.948	280.42
388.328	303.69
388.707	299.62
389.087	275.22
389.466	295.56
389.846	283.35
390.225	286.29
390.605	274.54
390.984	295.78
391.363	290.13
391.743	307.76
392.122	291.49
392.501	300.08
392.881	298.27
393.26	280.87
393.639	296.24
394.018	264.82
394.397	302.56
394.776	284.94
395.155	293.52
395.534	279.51
395.913	303.92
396.292	296.01
396.671	276.35
397.05	301.88
397.429	296.46
397.808	276.35
398.186	286.74
398.565	290.59
398.944	300.08
399.323	311.83
399.701	292.85
400.08	298.72
400.458	296.46
400.837	289.46
401.215	302.11
401.594	282
401.972	297.37
402.351	304.82
402.729	297.14
403.107	292.62
403.486	272.05
403.864	314.31
404.242	294.43
404.62	284.26
404.999	292.17
405.377	280.19
405.755	306.63
406.133	298.04
406.511	309.12
406.889	305.73
407.267	302.79
407.645	307.31
408.023	307.53
408.401	285.39
408.779	289.46
409.156	304.6
409.534	299.17
409.912	307.53
410.29	314.09
410.667	295.33
411.045	282
411.422	291.49
411.8	315.44
412.178	306.18
412.555	314.77
412.933	286.74
413.31	311.6
413.687	322.22
414.065	310.92
414.442	271.38
414.819	306.63
415.197	316.57
415.574	303.69
415.951	288.1
416.328	300.75
416.705	284.71
417.082	307.76
417.46	293.3
417.837	301.43
418.214	325.61
418.591	312.51
418.967	310.92
419.344	307.76
419.721	297.59
420.098	317.7
420.475	302.79
420.852	317.25
421.228	293.75
421.605	319.29
421.982	306.86
422.358	299.62
422.735	307.99
423.111	318.16
423.488	299.62
423.864	323.58
424.241	318.83
424.617	304.37
424.994	301.66
425.37	300.08
425.746	302.79
426.123	305.27
426.499	309.57
426.875	312.28
427.251	292.17
427.627	293.75
428.003	319.29
428.379	301.21
428.756	324.71
429.132	315.44
429.507	312.05
429.883	315.44
430.259	319.29
430.635	316.57
431.011	302.11
431.387	293.98
431.763	321.09
432.138	317.7
432.514	314.09
432.89	308.66
433.265	329.91
433.641	315.9
434.016	303.24
434.392	340.98
434.767	327.42
435.143	315.67
435.518	297.14
435.894	314.31
436.269	334.43
436.644	312.51
437.02	341.21
437.395	311.38
437.77	311.6
438.145	344.82
438.52	334.43
438.895	352.73
439.271	317.25
439.646	331.49
440.021	327.87
440.395	296.46
440.77	330.81
441.145	336.23
441.52	334.65
441.895	331.04
442.27	329.68
442.645	339.85
443.019	333.52
443.394	329
443.769	322.9
444.143	328.78
444.518	334.43
444.892	331.49
445.267	334.43
445.641	349.57
446.016	359.06
446.39	340.53
446.764	358.15
447.139	371.71
447.513	340.08
447.887	350.25
448.262	364.93
448.636	354.99
449.01	336.23
449.384	354.76
449.758	382.79
450.132	349.34
450.506	365.61
450.88	351.6
451.254	371.04
451.628	356.12
452.002	373.3
452.376	386.4
452.75	364.03
453.123	363.58
453.497	368.78
453.871	355.22
454.244	372.17
454.618	362
454.992	364.48
455.365	363.13
455.739	372.62
456.112	357.93
456.486	368.1
456.859	399.28
457.232	374.43
457.606	365.16
457.979	355.67
458.352	362.67
458.725	355.44
459.099	365.84
459.472	354.54
459.845	350.47
460.218	336.46
460.591	365.39
460.964	360.19
461.337	394.09
461.71	345.5
462.083	353.86
462.456	377.14
462.829	350.92
463.201	343.01
463.574	331.94
463.947	370.58
464.32	359.74
464.692	346.86
465.065	363.58
465.438	342.11
465.81	347.08
466.183	363.35
466.555	356.35
466.928	359.74
467.3	346.63
467.672	350.02
468.045	337.36
468.417	331.04
468.789	344.14
469.161	345.27
469.534	359.28
469.906	348.66
470.278	345.05
470.65	356.57
471.022	356.35
471.394	341.43
471.766	376.23
472.138	349.79
472.51	355.89
472.882	334.65
473.253	355.22
473.625	361.77
473.997	349.34
474.369	331.26
474.74	343.01
475.112	353.63
475.484	337.36
475.855	347.31
476.227	339.85
476.598	338.95
476.97	344.14
477.341	337.59
477.713	347.08
478.084	343.69
478.455	327.19
478.827	356.8
479.198	349.57
479.569	350.47
479.94	370.58
480.311	376.91
480.682	355.44
481.053	364.03
481.424	350.92
481.795	351.37
482.166	348.44
482.537	370.36
482.908	344.82
483.279	359.28
483.65	359.74
484.021	354.31
484.391	361.09
484.762	347.99
485.133	371.71
485.503	353.63
485.874	360.41
486.244	354.09
486.615	357.25
486.985	366.06
487.356	367.19
487.726	348.89
488.097	374.2
488.467	353.86
488.837	359.96
489.207	362.9
489.578	355.67
489.948	363.13
490.318	378.72
490.688	366.29
491.058	377.36
491.428	385.27
491.798	366.52
492.168	375.78
492.538	378.49
492.908	389.79
493.278	373.3
493.648	379.62
494.017	374.2
494.387	385.72
494.757	404.25
495.126	361.54
495.496	377.59
495.866	391.37
496.235	381.66
496.605	379.17
496.974	371.94
497.344	376.23
497.713	380.3
498.082	383.92
498.452	379.4
498.821	386.85
499.19	384.14
499.559	401.77
499.928	395.44
500.298	410.36
500.667	368.55
501.036	404.93
501.405	399.06
501.774	381.43
502.143	406.29
502.512	403.58
502.88	409.9
503.249	415.1
503.618	403.8
503.987	431.6
504.356	416.23
504.724	400.87
505.093	405.61
505.462	413.75
505.83	414.88
506.199	427.98
506.567	417.81
506.936	404.93
507.304	405.38
507.672	420.3
508.041	416.91
508.409	406.51
508.777	409.45
509.145	435.89
509.514	425.5
509.882	426.63
510.25	417.81
510.618	413.75
510.986	419.62
511.354	438.83
511.722	443.35
512.09	445.84
512.458	418.04
512.826	427.08
513.193	432.5
513.561	447.87
513.929	429.11
514.297	451.03
514.664	443.58
515.032	434.08
515.4	440.86
515.767	436.12
516.135	440.64
516.502	465.95
516.869	438.6
517.237	439.51
517.604	445.38
517.972	452.62
518.339	459.39
518.706	423.69
519.073	465.5
519.44	476.34
519.808	458.26
520.175	455.78
520.542	474.31
520.909	452.16
521.276	456.46
521.643	473.41
522.009	447.42
522.376	439.51
522.743	457.36
523.11	478.83
523.477	472.28
523.843	477.7
524.21	471.82
524.577	446.97
524.943	453.75
525.31	465.95
525.676	475.44
526.043	470.69
526.409	481.54
526.776	482.9
527.142	479.51
527.508	472.28
527.874	485.83
528.241	461.43
528.607	498.49
528.973	488.55
529.339	479.51
529.705	499.17
530.071	460.52
530.437	507.98
530.803	482.22
531.169	482.22
531.535	496.23
531.901	476.57
532.267	500.75
532.632	467.08
532.998	492.84
533.364	507.3
533.73	508.21
534.095	484.93
534.461	502.11
534.826	489.45
535.192	487.64
535.557	483.12
535.923	495.33
536.288	493.74
536.653	501.88
537.019	483.35
537.384	491.03
537.749	494.87
538.114	504.14
538.479	518.15
538.845	473.18
539.21	513.63
539.575	502.33
539.94	497.13
540.305	503.69
540.67	512.95
541.034	503.69
541.399	489.9
541.764	491.94
542.129	478.15
542.494	496.68
542.858	493.97
543.223	508.66
543.587	504.14
543.952	495.55
544.316	500.3
544.681	490.35
545.045	502.11
545.41	529.9
545.774	538.26
546.138	532.61
546.503	508.66
546.867	505.95
547.231	511.82
547.595	531.71
547.959	498.26
548.324	558.38
548.688	509.79
549.052	518.83
549.416	525.16
549.779	532.84
550.143	509.79
550.507	509.56
550.871	536.91
551.235	521.99
551.599	530.13
551.962	544.59
552.326	538.26
552.689	518.83
553.053	500.75
553.417	537.81
553.78	538.94
554.143	524.25
554.507	496.91
554.87	527.87
555.234	533.97
555.597	504.14
555.96	526.74
556.323	527.19
556.686	542.78
557.05	541.88
557.413	534.19
557.776	531.26
558.139	544.36
558.502	540.52
558.865	530.81
559.228	537.58
559.59	549.56
559.953	544.82
560.316	529.45
560.679	537.13
561.041	538.04
561.404	558.38
561.767	543.23
562.129	531.71
562.492	542.33
562.854	554.99
563.217	552.27
563.579	547.98
563.941	546.85
564.304	545.72
564.666	563.57
565.028	573.06
565.39	561.76
565.753	562.67
566.115	549.56
566.477	572.39
566.839	552.5
567.201	553.4
567.563	553.86
567.925	558.38
568.287	543.91
568.648	558.6
569.01	549.79
569.372	551.14
569.734	587.98
570.095	568.32
570.457	544.59
570.819	555.21
571.18	583.91
571.542	543.23
571.903	563.8
572.265	587.98
572.626	571.26
572.987	575.1
573.349	585.27
573.71	562.44
574.071	584.59
574.432	565.83
574.794	594.31
575.155	571.26
575.516	574.65
575.877	583.69
576.238	594.08
576.599	601.99
576.96	579.17
577.32	566.96
577.681	571.48
578.042	579.62
578.403	578.49
578.763	570.35
579.124	573.06
579.485	581.43
579.845	597.24
580.206	583.23
580.566	584.14
580.927	573.74
581.287	576.91
581.648	569.45
582.008	569.67
582.368	572.39
582.728	563.12
583.089	575.32
583.449	576.68
583.809	582.1
584.169	585.72
584.529	561.31
584.889	571.03
585.249	575.55
585.609	561.31
585.969	579.62
586.329	580.75
586.688	573.52
587.048	572.16
587.408	578.04
587.768	578.94
588.127	559.05
588.487	602.67
588.846	573.29
589.206	564.7
589.565	565.83
589.925	557.02
590.284	562.44
590.643	591.37
591.003	591.14
591.362	557.25
591.721	563.8
592.08	563.35
592.44	576
592.799	554.53
593.158	565.83
593.517	573.74
593.876	568.32
594.235	573.97
594.593	557.47
594.952	572.61
595.311	553.4
595.67	594.08
596.029	576
596.387	570.8
596.746	587.53
597.104	558.15
597.463	541.43
597.822	549.34
598.18	584.59
598.538	564.48
598.897	578.49
599.255	579.84
599.613	574.65
599.972	577.58
600.33	567.19
600.688	563.12
601.046	551.37
601.404	552.5
601.762	546.85
602.12	549.79
602.478	554.76
602.836	567.19
603.194	557.7
603.552	563.8
603.91	545.04
604.268	543.23
604.625	561.31
604.983	554.53
605.341	533.07
605.698	544.14
606.056	555.89
606.413	561.09
606.771	556.79
607.128	544.14
607.485	550.01
607.843	544.36
608.2	540.75
608.557	560.86
608.914	538.94
609.272	542.78
609.629	560.63
609.986	554.53
610.343	563.8
610.7	557.47
611.057	531.94
611.414	542.1
611.771	550.24
612.127	538.04
612.484	556.79
612.841	557.47
613.198	546.85
613.554	526.74
613.911	533.07
614.267	539.39
614.624	527.64
614.98	553.86
615.337	532.84
615.693	534.19
616.05	528.77
616.406	558.83
616.762	527.64
617.118	537.81
617.475	519.73
617.831	516.57
618.187	530.58
618.543	526.29
618.899	540.75
619.255	529.9
619.611	531.26
619.967	540.52
620.323	521.54
620.678	552.5
621.034	521.99
621.39	487.64
621.746	524.93
622.101	507.08
622.457	512.27
622.812	538.49
623.168	526.06
623.523	523.35
623.879	520.64
624.234	540.07
624.589	510.69
624.945	513.63
625.3	514.31
625.655	503.01
626.01	509.11
626.365	501.65
626.72	489.45
627.075	517.02
627.43	487.87
627.785	493.97
628.14	496.23
628.495	482.9
628.85	489.68
629.205	502.33
629.559	493.74
629.914	493.29
630.269	488.55
630.623	503.24
630.978	480.64
631.332	487.19
631.687	503.46
632.041	491.03
632.396	484.25
632.75	481.77
633.104	475.21
633.459	487.87
633.813	493.74
634.167	460.75
634.521	478.83
634.875	476.8
635.229	479.96
635.583	496.91
635.937	477.93
636.291	485.16
636.645	473.18
636.999	482.22
637.352	478.38
637.706	489.68
638.06	459.17
638.413	449
638.767	449.45
639.121	465.27
639.474	465.04
639.828	470.69
640.181	454.2
640.534	470.24
640.888	456.68
641.241	459.85
641.594	475.89
641.947	453.97
642.301	453.52
642.654	481.32
643.007	450.13
643.36	463.46
643.713	448.77
644.066	434.76
644.419	436.57
644.771	436.12
645.124	442.22
645.477	469.11
645.83	461.2
646.182	439.06
646.535	444.48
646.888	441.99
647.24	453.75
647.593	428.66
647.945	440.19
648.298	428.89
648.65	434.54
649.002	430.24
649.355	446.06
649.707	427.76
650.059	425.95
650.411	448.55
650.763	422.11
651.115	430.92
651.467	428.66
651.819	437.7
652.171	461.43
652.523	401.09
652.875	405.38
653.227	423.24
653.578	415.78
653.93	415.1
654.282	413.07
654.633	431.15
654.985	423.01
655.337	402
655.688	409.68
656.039	436.8
656.391	409.68
656.742	425.5
657.094	420.98
657.445	423.24
657.796	413.97
658.147	423.46
658.498	404.03
658.849	414.65
659.2	407.87
659.551	422.11
659.902	407.64
660.253	390.7
660.604	412.62
660.955	401.32
661.306	392.73
661.656	419.4
662.007	412.62
662.358	406.06
662.708	390.92
663.059	404.03
663.409	394.99
663.76	381.88
664.11	399.74
664.461	403.8
664.811	382.11
665.161	390.7
665.511	407.64
665.862	383.24
666.212	404.48
666.562	414.88
666.912	367.87
667.262	408.77
667.612	384.14
667.962	389.34
668.312	379.4
668.662	402.9
669.011	391.83
669.361	367.19
669.711	390.24
670.06	390.47
670.41	363.58
670.76	392.5
671.109	367.42
671.459	394.76
671.808	371.94
672.157	372.84
672.507	375.56
672.856	400.19
673.205	366.97
673.554	384.14
673.904	396.35
674.253	390.7
674.602	381.2
674.951	376.01
675.3	373.07
675.649	364.71
675.998	350.47
676.346	367.87
676.695	393.18
677.044	375.78
677.393	375.33
677.741	380.3
678.09	367.65
678.438	375.78
678.787	386.63
679.135	384.82
679.484	381.43
679.832	360.87
680.181	381.88
680.529	384.14
680.877	365.39
681.225	383.01
681.573	374.65
681.922	375.56
682.27	370.13
682.618	364.03
682.966	372.62
683.314	362.45
683.661	360.19
684.009	371.94
684.357	355.89
684.705	365.39
685.053	373.3
685.4	350.7
685.748	378.94
686.095	367.19
686.443	366.29
686.79	373.97
687.138	370.13
687.485	374.43
687.832	368.32
688.18	375.78
688.527	370.81
688.874	351.15
689.221	352.28
689.568	388.21
689.915	364.26
690.262	358.83
690.609	364.26
690.956	359.96
691.303	367.42
691.65	344.82
691.997	333.97
692.344	354.76
692.69	331.94
693.037	343.01
693.383	367.19
693.73	378.72
694.077	345.27
694.423	370.81
694.769	355.22
695.116	349.12
695.462	347.99
695.808	346.63
696.155	363.13
696.501	352.73
696.847	350.02
697.193	358.38
697.539	352.28
697.885	374.65
698.231	354.99
698.577	355.22
698.923	337.36
699.269	342.34
699.614	367.42
699.96	341.88
700.306	326.74
700.651	344.6
700.997	339.4
701.342	362
701.688	349.57
702.033	363.58
702.379	358.61
702.724	344.37
703.069	338.49
703.415	374.43
703.76	336.46
704.105	351.6
704.45	338.95
704.795	343.92
705.14	359.06
705.485	338.49
705.83	352.96
706.175	338.49
706.52	351.15
706.865	340.53
707.209	354.54
707.554	334.2
707.899	350.7
708.243	361.09
708.588	319.51
708.932	319.74
709.277	325.61
709.621	358.83
709.966	342.11
710.31	340.75
710.654	338.04
710.998	342.34
711.342	355.67
711.687	334.65
712.031	331.71
712.375	356.12
712.719	336.69
713.063	349.57
713.407	329.23
713.75	330.81
714.094	319.29
714.438	339.85
714.782	352.5
715.125	347.99
715.469	364.26
715.812	330.36
716.156	326.29
716.499	332.62
716.843	334.88
717.186	345.05
717.53	336.23
717.873	355.22
718.216	340.98
718.559	338.95
718.902	334.65
719.246	331.71
719.589	329.91
719.932	356.35
720.275	343.01
720.617	332.17
720.96	336.23
721.303	330.13
721.646	331.94
721.989	337.59
722.331	320.19
722.674	343.92
723.016	338.72
723.359	338.27
723.701	330.13
724.044	330.58
724.386	335.1
724.729	323.58
725.071	350.02
725.413	345.95
725.755	333.75
726.097	325.61
726.439	313.18
726.782	336.23
727.124	313.86
727.465	329.23
727.807	331.49
728.149	328.32
728.491	333.97
728.833	342.56
729.175	329.45
729.516	337.82
729.858	301.66
730.199	324.03
730.541	323.58
730.882	333.3
731.224	323.13
731.565	318.83
731.906	312.05
732.248	333.07
732.589	329.23
732.93	347.31
733.271	309.57
733.612	334.65
733.953	340.75
734.294	329.91
734.635	333.75
734.976	356.12
735.317	328.1
735.658	323.81
735.999	343.92
736.339	350.7
736.68	314.99
737.021	345.73
737.361	334.88
737.702	345.05
738.042	353.41
738.383	354.09
738.723	354.54
739.063	324.03
739.404	326.52
739.744	339.62
740.084	328.32
740.424	321.09
740.764	334.2
741.104	326.06
741.444	330.36
741.784	331.49
742.124	320.64
742.464	334.65
742.804	333.75
743.143	330.13
743.483	337.36
743.823	340.53
744.162	336.69
744.502	327.87
744.841	329.23
745.181	327.65
745.52	317.93
745.86	334.43
746.199	307.99
746.538	340.53
746.877	343.24
747.216	333.3
747.556	325.39
747.895	333.3
748.234	326.06
748.573	336.91
748.911	340.75
749.25	335.1
749.589	342.79
749.928	329
750.267	332.39
750.605	330.13
750.944	335.1
751.283	339.17
751.621	320.42
751.96	329.23
752.298	327.87
752.636	343.24
752.975	357.25
753.313	313.18
753.651	343.47
753.989	331.94
754.327	354.31
754.666	334.2
755.004	319.96
755.342	319.74
755.679	333.75
756.017	343.47
756.355	325.84
756.693	343.24
757.031	326.06
757.368	310.7
757.706	340.53
758.044	334.2
758.381	333.07
758.719	328.32
759.056	306.86
759.394	334.65
759.731	329.23
760.068	324.48
760.405	317.03
760.743	314.54
761.08	325.39
761.417	332.39
761.754	310.7
762.091	318.61
762.428	325.84
762.765	313.64
763.102	338.72
763.438	319.29
763.775	339.85
764.112	322
764.449	308.66
764.785	318.16
765.122	327.42
765.458	322.9
765.795	314.09
766.131	322
766.467	331.26
766.804	317.25
767.14	313.41
767.476	352.73
767.812	328.78
768.148	325.84
768.485	307.08
768.821	306.18
769.157	325.39
769.492	307.99
769.828	325.39
770.164	324.48
770.5	331.71
770.836	318.61
771.171	317.03
771.507	339.62
771.842	323.13
772.178	344.6
772.513	331.49
772.849	320.42
773.184	327.87
773.519	323.35
773.855	315.9
774.19	323.35
774.525	311.6
774.86	327.65
775.195	329.45
775.53	328.55
775.865	333.3
776.2	326.52
776.535	312.05
776.87	316.12
777.205	331.71
777.539	319.74
777.874	321.32
778.209	321.55
778.543	345.73
778.878	339.85
779.212	323.35
779.547	316.12
779.881	320.19
780.215	325.16
780.55	312.51
780.884	329.68
781.218	332.84
781.552	328.78
781.886	335.56
782.22	336.01
782.554	327.65
782.888	321.77
783.222	355.67
783.556	335.78
783.889	324.03
784.223	341.88
784.557	307.31
784.89	337.82
785.224	332.17
785.557	333.07
785.891	320.87
786.224	331.94
786.558	333.75
786.891	343.92
787.224	317.25
787.557	317.03
787.891	327.42
788.224	326.06
788.557	322.9
788.89	322
789.223	327.87
789.556	333.75
789.888	329
790.221	314.99
790.554	326.29
790.887	325.16
791.219	322
791.552	326.29
791.884	340.08
792.217	314.54
792.549	313.18
792.882	336.46
793.214	331.26
793.546	330.81
793.879	320.42
794.211	325.61
794.543	326.74
794.875	318.83
795.207	318.16
795.539	320.42
795.871	316.12
796.203	320.64
796.535	326.06
796.867	320.19
797.198	315.9
797.53	323.13
797.862	315.44
798.193	345.73
798.525	315.9
798.856	323.81
799.188	322
799.519	313.18
799.85	328.78
800.182	312.96
800.513	312.51
800.844	335.56
801.175	315.9
801.506	326.74
801.837	344.6
802.168	324.48
802.499	325.84
802.83	322.45
803.161	307.08
803.491	314.09
803.822	317.7
804.153	321.55
804.483	315.44
804.814	313.64
805.145	347.99
805.475	324.71
805.805	322
806.136	324.93
806.466	318.16
806.796	331.04
807.126	337.82
807.457	319.74
807.787	332.62
808.117	327.42
808.447	319.96
808.777	309.12
809.107	324.26
809.436	333.3
809.766	318.38
810.096	317.48
810.426	315.9
810.755	336.46
811.085	331.71
811.414	324.71
811.744	324.26
812.073	327.42
812.403	318.61
812.732	328.1
813.061	329
813.39	324.71
813.719	320.42
814.049	317.03
814.378	332.17
814.707	338.49
815.036	312.28
815.365	315.22
815.693	308.66
816.022	312.51
816.351	350.47
816.68	314.09
817.008	315.44
817.337	335.56
817.665	329.91
817.994	319.29
818.322	312.28
818.651	319.96
818.979	321.09
819.307	333.52
819.636	329.91
819.964	333.97
820.292	319.06
820.62	329.91
820.948	341.88
821.276	323.13
821.604	306.86
821.932	297.59
822.259	313.64
822.587	336.23
822.915	322
823.243	314.99
823.57	312.96
823.898	312.96
824.225	285.16
824.553	302.11
824.88	334.2
825.207	325.39
825.535	314.54
825.862	312.05
826.189	328.78
826.516	329.23
826.843	306.18
827.17	320.42
827.497	307.08
827.824	320.19
828.151	318.61
828.478	331.94
828.805	342.79
829.131	331.94
829.458	314.77
829.785	298.04
830.111	316.57
830.438	318.38
830.764	321.32
831.09	313.86
831.417	331.94
831.743	305.27
832.069	318.83
832.395	308.89
832.722	321.32
833.048	329.68
833.374	315.9
833.7	315.9
834.026	332.84
834.351	317.7
834.677	334.65
835.003	335.56
835.329	305.73
835.654	320.19
835.98	309.34
836.306	314.54
836.631	332.39
836.956	324.71
837.282	318.38
837.607	344.6
837.932	317.7
838.258	304.37
838.583	316.57
838.908	305.5
839.233	329.23
839.558	322.45
839.883	342.56
840.208	322.9
840.533	319.06
840.858	297.59
841.182	322.9
841.507	314.77
841.832	325.84
842.156	319.74
842.481	320.87
842.805	322.9
843.13	329.68
843.454	318.16
843.778	325.16
844.103	328.32
844.427	318.61
844.751	308.89
845.075	305.95
845.399	320.64
845.723	299.4
846.047	331.04
846.371	322
846.695	330.13
847.019	322
847.343	317.48
847.666	319.96
847.99	324.93
848.313	298.95
848.637	319.96
848.96	334.43
849.284	312.05
849.607	303.69
849.931	326.74
850.254	326.97
850.577	302.11
850.9	315.67
851.223	322.9
851.546	321.55
851.869	311.6
852.192	314.54
852.515	328.1
852.838	339.62
853.161	325.39
853.483	322
853.806	305.73
854.129	324.71
854.451	318.38
854.774	336.23
855.096	334.88
855.419	305.27
855.741	316.57
856.063	312.05
856.385	328.32
856.708	318.38
857.03	310.25
857.352	333.3
857.674	304.14
857.996	327.65
858.318	316.57
858.64	317.03
858.961	307.99
859.283	324.03
859.605	312.28
859.926	310.25
860.248	306.63
860.57	332.17
860.891	307.99
861.212	308.66
861.534	327.42
861.855	319.06
862.176	317.7
862.498	316.12
862.819	304.14
863.14	324.48
863.461	312.51
863.782	323.35
864.103	316.12
864.424	303.92
864.745	319.06
865.065	318.16
865.386	308.89
865.707	327.65
866.027	327.65
866.348	315.44
866.668	310.47
866.989	325.16
867.309	312.73
867.63	319.29
867.95	322.45
868.27	316.8
868.59	316.35
868.91	307.76
869.23	348.21
869.55	316.57
869.87	329.68
870.19	333.3
870.51	307.08
870.83	296.01
871.15	333.07
871.469	327.87
871.789	291.94
872.109	317.25
872.428	320.64
872.748	318.83
873.067	312.96
873.386	330.36
873.706	311.15
874.025	310.47
874.344	313.41
874.663	316.35
874.982	298.95
875.301	323.81
875.62	304.6
875.939	333.52
876.258	305.95
876.577	328.1
876.896	333.97
877.214	308.89
877.533	323.35
877.852	324.03
878.17	315.9
878.489	304.82
878.807	322.9
879.125	315.67
879.444	320.19
879.762	317.7
880.08	323.13
880.398	310.47
880.716	304.82
881.034	306.86
881.352	312.28
881.67	300.53
881.988	317.7
882.306	336.91
882.624	314.31
882.941	327.65
883.259	324.48
883.577	307.53
883.894	324.26
884.212	303.24
884.529	317.25
884.846	281.77
885.164	329.91
885.481	307.08
885.798	324.93
886.115	321.32
886.432	319.29
886.75	301.43
887.067	341.66
887.383	318.16
887.7	333.07
888.017	328.78
888.334	307.08
888.651	333.52
888.967	315.67
889.284	320.42
889.6	308.21
889.917	334.2
890.233	328.1
890.55	318.38
890.866	312.73
891.182	322.45
891.498	298.72
891.815	321.09
892.131	312.96
892.447	322.68
892.763	321.32
893.079	306.63
893.395	312.51
893.71	306.63
894.026	312.05
894.342	297.82
894.657	307.53
894.973	328.1
895.289	315.44
895.604	320.64
895.92	343.24
896.235	313.64
896.55	317.93
896.865	315.22
897.181	346.86
897.496	324.93
897.811	307.76
898.126	314.09
898.441	319.06
898.756	309.12
899.071	312.05
899.386	307.08
899.7	304.6
900.015	331.94
900.33	308.21
900.644	301.43
900.959	312.51
901.273	301.88
901.588	344.14
901.902	317.7
902.216	315.22
902.531	317.93
902.845	304.14
903.159	289.46
903.473	315.22
903.787	314.31
904.101	313.18
904.415	313.64
904.729	300.53
905.042	322.22
905.356	320.19
905.67	317.03
905.984	336.23
906.297	331.71
906.611	326.97
906.924	323.81
907.237	316.8
907.551	319.74
907.864	319.29
908.177	303.01
908.491	313.64
908.804	315.44
909.117	319.51
909.43	318.83
909.743	321.55
910.056	340.08
910.368	310.7
910.681	327.19
910.994	313.64
911.307	333.07
911.619	310.47
911.932	319.29
912.244	312.73
912.557	329
912.869	341.43
913.181	333.97
913.494	315.22
913.806	338.49
914.118	312.51
914.43	308.44
914.742	320.64
915.054	316.35
915.366	324.48
915.678	311.38
915.99	306.86
916.302	326.74
916.613	298.72
916.925	318.16
917.236	319.29
917.548	320.42
917.859	305.95
918.171	305.05
918.482	332.39
918.794	310.92
919.105	312.51
919.416	316.57
919.727	294.43
920.038	316.12
920.349	286.97
920.66	330.81
920.971	323.13
921.282	313.41
921.593	329.91
921.903	315.44
922.214	339.4
922.525	311.38
922.835	320.19
923.146	318.83
923.456	313.41
923.767	312.05
924.077	324.03
924.387	325.61
924.697	303.92
925.008	319.96
925.318	320.42
925.628	303.01
925.938	307.31
926.248	293.98
926.558	311.83
926.867	325.61
927.177	314.09
927.487	314.09
927.796	316.8
928.106	322.22
928.416	307.99
928.725	319.29
929.034	330.81
929.344	321.09
929.653	298.72
929.962	323.58
930.271	322.68
930.581	307.08
930.89	305.95
931.199	336.46
931.508	317.03
931.817	309.79
932.125	320.42
932.434	302.56
932.743	328.78
933.051	318.16
933.36	296.01
933.669	310.92
933.977	315.44
934.286	303.01
934.594	330.36
934.902	321.09
935.21	332.17
935.519	324.93
935.827	329.68
936.135	307.99
936.443	317.7
936.751	306.18
937.059	333.97
937.367	308.21
937.674	306.18
937.982	315.44
938.29	298.04
938.597	315.9
938.905	298.27
939.213	301.66
939.52	336.91
939.827	306.63
940.135	293.3
940.442	313.64
940.749	317.03
941.056	315.9
941.363	306.63
941.67	300.53
941.977	306.86
942.284	318.83
942.591	329.68
942.898	329.91
943.205	323.35
943.511	321.55
943.818	298.27
944.125	309.34
944.431	323.81
944.738	320.64
945.044	307.31
945.35	304.6
945.657	316.12
945.963	312.96
946.269	337.14
946.575	305.95
946.881	333.52
947.187	324.93
947.493	294.88
947.799	317.93
948.105	322.68
948.41	306.86
948.716	298.04
949.022	327.87
949.327	305.05
949.633	308.89
949.938	324.71
950.244	316.12
950.549	314.77
950.854	331.49
951.16	300.3
951.465	322.68
951.77	314.54
952.075	302.79
952.38	319.29
952.685	311.83
952.99	310.7
953.294	305.05
953.599	335.78
953.904	308.44
954.209	312.73
954.513	319.06
954.818	321.09
955.122	324.48
955.426	312.05
955.731	311.83
956.035	321.09
956.339	321.55
956.643	322
956.948	324.48
957.252	302.56
957.556	335.56
957.86	298.49
958.163	314.09
958.467	330.81
958.771	315.44
959.075	321.32
959.378	319.29
959.682	330.81
959.985	314.54
960.289	298.04
960.592	325.16
960.896	344.14
961.199	309.79
961.502	294.88
961.805	310.7
962.108	315.44
962.411	303.24
962.714	333.97
963.017	303.92
963.32	309.12
963.623	324.48
963.926	310.25
964.228	317.48
964.531	310.47
964.833	294.65
965.136	300.98
965.438	320.87
965.741	297.59
966.043	316.8
966.345	314.31
966.648	329.68
966.95	322.9
967.252	310.47
967.554	308.21
967.856	307.99
968.158	323.81
968.46	315.67
968.761	309.12
969.063	315.44
969.365	313.18
969.666	317.25
969.968	323.35
970.269	329.23
970.571	328.78
970.872	329.45
971.174	309.34
971.475	310.92
971.776	325.84
972.077	322.9
972.378	313.64
972.679	322
972.98	325.84
973.281	313.86
973.582	307.76
973.883	302.79
974.183	330.36
974.484	326.97
974.785	326.74
975.085	315.9
975.386	299.62
975.686	325.39
975.986	313.64
976.287	317.03
976.587	303.24
976.887	313.18
977.187	309.57
977.487	302.79
977.787	295.33
978.087	315.44
978.387	304.37
978.687	313.41
978.987	311.15
979.286	331.71
979.586	315.44
979.885	314.99
980.185	310.02
980.484	320.19
980.784	321.32
981.083	312.73
981.382	319.74
981.682	314.31
981.981	321.32
982.28	341.43
982.579	335.1
982.878	327.65
983.177	306.18
983.475	303.01
983.774	305.05
984.073	323.35
984.372	317.7
984.67	306.63
984.969	322.68
985.267	314.77
985.566	331.26
985.864	286.97
986.162	327.19
986.461	312.28
986.759	279.51
987.057	307.31
987.355	318.83
987.653	315.22
987.951	305.73
988.249	318.61
988.547	325.61
988.844	310.7
989.142	311.6
989.44	308.89
989.737	312.51
990.035	336.01
990.332	316.12
990.63	330.58
990.927	328.55
991.224	298.27
991.521	291.49
991.819	323.58
992.116	310.92
992.413	321.55
992.71	295.11
993.006	306.18
993.303	311.38
993.6	305.27
993.897	305.5
994.193	310.7
994.49	312.28
994.787	309.57
995.083	298.49
995.379	304.82
995.676	302.34
995.972	312.96
996.268	325.16
996.565	323.81
996.861	324.26
997.157	320.64
997.453	308.66
997.749	290.59
998.044	313.18
998.34	307.08
998.636	312.05
998.932	320.42
999.227	287.65
999.523	336.69
999.818	310.92
1000.114	318.61
1000.409	319.06
1000.704	325.39
1001	310.92
1001.295	312.05
1001.59	334.2
1001.885	303.69
1002.18	317.93
1002.475	326.97
1002.77	317.93
1003.065	324.48
1003.359	312.51
1003.654	310.7
1003.949	303.69
1004.243	319.51
1004.538	319.06
1004.832	301.43
1005.127	315.44
1005.421	312.05
1005.715	322.45
1006.009	335.33
1006.304	324.26
1006.598	309.57
1006.892	323.35
1007.186	316.12
1007.48	325.16
1007.773	304.14
1008.067	299.17
1008.361	310.25
1008.655	319.74
1008.948	323.35
1009.242	313.64
1009.535	316.35
1009.829	308.44
1010.122	314.77
1010.415	314.77
1010.708	309.57
1011.001	304.6
1011.295	315.22
1011.588	304.37
1011.881	306.4
1012.173	318.16
1012.466	303.47
1012.759	326.52
1013.052	304.6
1013.344	310.92
1013.637	306.63
1013.93	326.29
1014.222	320.87
1014.514	306.4
1014.807	319.29
1015.099	318.16
1015.391	337.59
1015.683	321.77
1015.976	300.53
1016.268	310.25
1016.56	305.5
1016.851	305.5
1017.143	333.97
1017.435	325.39
1017.727	327.87
1018.018	345.73
1018.31	311.6
1018.602	300.08
1018.893	317.48
1019.185	322.68
1019.476	311.6
1019.767	313.18
1020.058	313.86
1020.35	319.29
1020.641	316.57
1020.932	327.65
1021.223	309.12
1021.514	336.01
1021.804	306.18
1022.095	330.36
1022.386	313.86
1022.677	288.78
1022.967	326.52
1023.258	317.48
1023.548	308.21
1023.839	298.95
1024.129	284.26
1024.419	322
1024.709	297.82
1025	318.16
1025.29	342.56
1025.58	308.21
1025.87	304.6
1026.16	310.47
1026.449	321.77
1026.739	305.27
1027.029	305.5
1027.319	329
1027.608	305.05
1027.898	316.12
1028.187	295.11
1028.477	321.55
1028.766	308.89
1029.055	292.85
1029.344	341.66
1029.634	299.85
1029.923	306.63
1030.212	312.05
1030.501	300.98
1030.79	313.18
1031.078	322.22
1031.367	312.96
1031.656	299.62
1031.945	312.05
1032.233	311.15
1032.522	291.72
1032.81	315.22
1033.099	309.57
1033.387	317.03
1033.675	307.99
1033.963	305.05
1034.251	316.35
1034.54	307.08
1034.828	301.88
1035.116	298.04
1035.403	296.24
1035.691	292.85
1035.979	347.76
1036.267	315.9
1036.554	291.94
1036.842	314.54
1037.129	320.87
1037.417	319.96
1037.704	312.73
1037.992	310.25
1038.279	292.85
1038.566	311.15
1038.853	311.15
1039.14	311.15
