Data from No_light_on_white_reflection_standard_FLMS001491_056.txt Node
Date: Tue Feb 07 10:33:03 GMT 2017
User: dcchb
Spectrometer: FLMS00149
Trigger mode: 0
Integration Time (sec): 2.000000E-2
Scans to average: 10
Electric dark correction enabled: true
Nonlinearity correction enabled: false
Boxcar width: 0
XAxis mode: Wavelengths
Number of Pixels in Spectrum: 2048
>>>>>Begin Spectral Data<<<<<
341.393	-22.7
341.776	-22.7
342.16	-22.7
342.543	-48.01
342.927	-81.9
343.31	-77.61
343.693	-78.06
344.077	-61.57
344.46	-44.84
344.843	-47.56
345.226	-26.54
345.61	-33.09
345.993	-27.44
346.376	-21.34
346.759	-10.04
347.142	34.02
347.525	54.36
347.908	67.02
348.291	80.58
348.674	82.16
349.057	109.95
349.44	135.94
349.823	170.74
350.206	161.03
350.588	154.02
350.971	180.69
351.354	188.37
351.737	226.34
352.119	230.18
352.502	240.8
352.884	247.35
353.267	242.83
353.65	253.23
354.032	253.45
354.414	289.84
354.797	266.33
355.179	273.79
355.562	307.24
355.944	308.37
356.326	302.49
356.709	321.25
357.091	305.66
357.473	327.12
357.855	315.6
358.238	312.66
358.62	305.88
359.002	310.85
359.384	296.84
359.766	313.79
360.148	299.1
360.53	302.94
360.912	300.91
361.294	304.3
361.676	308.59
362.057	292.55
362.439	302.04
362.821	286
363.203	286.9
363.584	294.13
363.966	298.88
364.348	299.1
364.729	303.85
365.111	295.94
365.493	278.76
365.874	275.37
366.256	293.9
366.637	269.05
367.019	286.9
367.4	271.31
367.781	276.96
368.163	274.92
368.544	242.61
368.925	274.47
369.306	284.41
369.688	284.41
370.069	290.29
370.45	272.66
370.831	264.3
371.212	272.89
371.593	271.76
371.974	282.61
372.355	279.89
372.736	268.37
373.117	293.9
373.498	266.33
373.879	274.24
374.26	296.39
374.641	278.09
375.021	280.35
375.402	268.59
375.783	271.53
376.163	288.93
376.544	290.29
376.925	288.03
377.305	270.4
377.686	268.82
378.066	276.28
378.447	308.14
378.827	302.72
379.208	283.06
379.588	280.8
379.968	277.41
380.349	276.28
380.729	274.92
381.109	294.81
381.489	285.54
381.87	273.34
382.25	296.39
382.63	242.83
383.01	310.4
383.39	283.96
383.77	289.39
384.15	298.42
384.53	274.7
384.91	304.53
385.29	281.7
385.67	289.61
386.049	311.08
386.429	300.01
386.809	318.31
387.189	286.9
387.568	304.98
387.948	284.41
388.328	286.9
388.707	283.28
389.087	304.07
389.466	291.64
389.846	314.24
390.225	315.15
390.605	297.97
390.984	280.8
391.363	271.53
391.743	300.23
392.122	313.57
392.501	272.66
392.881	292.1
393.26	308.82
393.639	302.72
394.018	282.38
394.397	274.92
394.776	278.99
395.155	295.26
395.534	293.45
395.913	296.39
396.292	294.58
396.671	306.79
397.05	296.39
397.429	300.23
397.808	303.85
398.186	293.45
398.565	288.93
398.944	309.5
399.323	294.58
399.701	299.78
400.08	301.36
400.458	308.82
400.837	288.93
401.215	320.8
401.594	291.64
401.972	295.26
402.351	316.05
402.729	297.75
403.107	313.34
403.486	306.56
403.864	296.84
404.242	301.14
404.62	284.87
404.999	296.62
405.377	303.17
405.755	318.76
406.133	304.3
406.511	311.98
406.889	318.54
407.267	301.14
407.645	309.27
408.023	295.03
408.401	283.74
408.779	292.1
409.156	271.08
409.534	302.27
409.912	296.39
410.29	300.91
410.667	278.54
411.045	300.68
411.422	316.73
411.8	312.66
412.178	313.57
412.555	310.85
412.933	312.21
413.31	292.55
413.687	317.41
414.065	305.43
414.442	291.42
414.819	302.49
415.197	321.47
415.574	300.46
415.951	302.72
416.328	294.58
416.705	306.56
417.082	295.03
417.46	295.03
417.837	297.29
418.214	305.66
418.591	300.46
418.967	264.07
419.344	310.63
419.721	312.21
420.098	309.27
420.475	324.19
420.852	308.14
421.228	314.02
421.605	308.37
421.982	307.46
422.358	297.75
422.735	293.9
423.111	305.43
423.488	319.21
423.864	314.02
424.241	303.85
424.617	315.6
424.994	319.67
425.37	314.47
425.746	314.47
426.123	283.51
426.499	302.49
426.875	310.85
427.251	311.98
427.627	321.7
428.003	337.52
428.379	291.87
428.756	316.73
429.132	299.55
429.507	306.56
429.883	323.96
430.259	323.73
430.635	309.05
431.011	322.15
431.387	309.27
431.763	314.24
432.138	329.16
432.514	326.45
432.89	318.54
433.265	311.53
433.641	323.73
434.016	321.93
434.392	313.57
434.767	323.73
435.143	324.86
435.518	300.91
435.894	314.7
436.269	311.76
436.644	330.51
437.02	316.28
437.395	322.6
437.77	322.83
438.145	318.54
438.52	317.41
438.895	327.35
439.271	326.67
439.646	325.32
440.021	323.28
440.395	340.01
440.77	344.75
441.145	334.13
441.52	337.07
441.895	348.37
442.27	350.85
442.645	354.92
443.019	347.46
443.394	343.17
443.769	333.45
444.143	361.02
444.518	340.23
444.892	355.82
445.267	344.98
445.641	352.43
446.016	357.86
446.39	359.67
446.764	364.86
447.139	349.27
447.513	348.37
447.887	372.55
448.262	344.3
448.636	362.6
449.01	375.48
449.384	341.59
449.758	358.08
450.132	364.64
450.506	375.03
450.88	371.64
451.254	370.51
451.628	381.36
452.002	390.17
452.376	381.36
452.75	358.54
453.123	380.68
453.497	358.54
453.871	369.16
454.244	358.99
454.618	381.13
454.992	388.82
455.365	370.96
455.739	371.42
456.112	379.55
456.486	364.64
456.859	368.93
457.232	364.41
457.606	350.17
457.979	367.35
458.352	366.45
458.725	367.8
459.099	369.16
459.472	376.39
459.845	370.06
460.218	368.7
460.591	376.39
460.964	359.44
461.337	375.94
461.71	369.83
462.083	358.08
462.456	366.9
462.829	356.5
463.201	382.49
463.574	351.3
463.947	368.93
464.32	331.42
464.692	359.67
465.065	359.89
465.438	365.77
465.81	359.67
466.183	333.68
466.555	360.34
466.928	359.67
467.3	337.07
467.672	364.19
468.045	357.41
468.417	357.41
468.789	356.05
469.161	357.63
469.534	361.47
469.906	345.88
470.278	364.64
470.65	347.46
471.022	355.37
471.394	334.36
471.766	344.98
472.138	355.82
472.51	340.23
472.882	331.87
473.253	360.57
473.625	352.89
473.997	346.11
474.369	336.62
474.74	344.3
475.112	354.24
475.484	347.69
475.855	371.19
476.227	348.82
476.598	347.01
476.97	354.69
477.341	347.24
477.713	356.05
478.084	324.64
478.455	350.4
478.827	368.25
479.198	358.31
479.569	366.45
479.94	370.29
480.311	351.08
480.682	355.6
481.053	351.08
481.424	372.55
481.795	347.91
482.166	363.51
482.537	348.37
482.908	342.49
483.279	366.45
483.65	365.77
484.021	382.94
484.391	386.33
484.762	359.89
485.133	360.8
485.503	350.85
485.874	366.9
486.244	354.47
486.615	370.06
486.985	344.75
487.356	334.58
487.726	373
488.097	354.92
488.467	356.05
488.837	365.54
489.207	361.25
489.578	398.76
489.948	365.09
490.318	359.44
490.688	352.66
491.058	380.46
491.428	366.22
491.798	386.11
492.168	360.8
492.538	374.13
492.908	393.56
493.278	382.72
493.648	382.94
494.017	396.5
494.387	395.37
494.757	363.96
495.126	394.02
495.496	379.55
495.866	393.79
496.235	378.42
496.605	389.27
496.974	387.46
497.344	417.52
497.713	391.53
498.082	410.29
498.452	403.51
498.821	399.89
499.19	410.29
499.559	409.38
499.928	393.11
500.298	412.77
500.667	436.73
501.036	400.57
501.405	403.73
501.774	389.72
502.143	407.35
502.512	386.33
502.88	399.89
503.249	398.76
503.618	404.86
503.987	426.1
504.356	401.02
504.724	410.96
505.093	406.22
505.462	419.55
505.83	414.81
506.199	415.03
506.567	419.78
506.936	433.56
507.304	424.3
507.672	437.86
508.041	437.86
508.409	433.11
508.777	444.86
509.145	424.07
509.514	412.55
509.882	420.68
510.25	467.69
510.618	450.74
510.986	429.04
511.354	436.05
511.722	445.54
512.09	438.76
512.458	469.49
512.826	438.08
513.193	437.86
513.561	447.8
513.929	440.34
514.297	438.08
514.664	447.12
515.032	447.57
515.4	434.92
515.767	435.6
516.135	463.84
516.502	457.06
516.869	452.09
517.237	465.65
517.604	461.13
517.972	458.42
518.339	450.74
518.706	451.64
519.073	474.24
519.44	479.89
519.808	464.3
520.175	462.49
520.542	469.49
520.909	479.21
521.276	449.61
521.643	467.23
522.009	483.5
522.376	482.37
522.743	465.65
523.11	474.46
523.477	465.43
523.843	475.59
524.21	485.31
524.577	492.54
524.943	481.47
525.31	474.01
525.676	500.23
526.043	499.77
526.409	478.08
526.776	484.41
527.142	511.53
527.508	515.82
527.874	484.86
528.241	494.8
528.607	493.45
528.973	498.42
529.339	501.81
529.705	487.12
530.071	499.55
530.437	514.92
530.803	511.3
531.169	506.55
531.535	477.4
531.901	501.58
532.267	485.31
532.632	512.88
532.998	503.39
533.364	496.16
533.73	512.43
534.095	519.44
534.461	505.2
534.826	528.25
535.192	507.46
535.557	497.74
535.923	517.85
536.288	531.41
536.653	527.12
537.019	530.51
537.384	508.59
537.749	486.67
538.114	511.75
538.479	525.09
538.845	516.27
539.21	515.82
539.575	512.43
539.94	525.31
540.305	515.14
540.67	514.46
541.034	517.4
541.399	516.5
541.764	530.06
542.129	506.33
542.494	523.28
542.858	537.74
543.223	518.98
543.587	514.92
543.952	552.2
544.316	549.49
544.681	514.69
545.045	518.76
545.41	528.47
545.774	529.38
546.138	517.18
546.503	534.35
546.867	523.5
547.231	540.9
547.595	510.17
547.959	520.11
548.324	511.3
548.688	521.7
549.052	548.81
549.416	544.07
549.779	519.44
550.143	548.36
550.507	511.98
550.871	527.8
551.235	515.14
551.599	536.16
551.962	534.12
552.326	539.32
552.689	536.16
553.053	542.71
553.417	532.54
553.78	534.35
554.143	547.91
554.507	560.34
554.87	562.6
555.234	537.51
555.597	537.97
555.96	530.28
556.323	550.17
556.686	547.46
557.05	543.39
557.413	565.08
557.776	540
558.139	532.77
558.502	534.58
558.865	542.94
559.228	547.01
559.59	550.17
559.953	547.68
560.316	559.21
560.679	540.45
561.041	546.78
561.404	559.89
561.767	573.45
562.129	554.24
562.492	565.08
562.854	568.7
563.217	564.41
563.579	552.88
563.941	554.24
564.304	566.21
564.666	579.77
565.028	578.42
565.39	574.8
565.753	554.69
566.115	576.38
566.477	569.6
566.839	574.12
567.201	561.02
567.563	576.84
567.925	581.81
568.287	589.72
568.648	570.96
569.01	569.38
569.372	577.74
569.734	571.19
570.095	564.18
570.457	582.26
570.819	594.91
571.18	588.13
571.542	569.38
571.903	582.03
572.265	598.3
572.626	580.45
572.987	582.71
573.349	587.46
573.71	570.51
574.071	590.39
574.432	600.34
574.794	581.13
575.155	590.17
575.516	600.56
575.877	603.28
576.238	590.39
576.599	593.33
576.96	597.17
577.32	576.84
577.681	596.27
578.042	597.17
578.403	587.46
578.763	601.69
579.124	607.34
579.485	565.54
579.845	578.19
580.206	564.63
580.566	604.41
580.927	582.71
581.287	587.46
581.648	582.48
582.008	577.51
582.368	612.54
582.728	578.64
583.089	597.63
583.449	585.87
583.809	580.68
584.169	588.13
584.529	597.85
584.889	591.3
585.249	608.7
585.609	603.5
585.969	568.02
586.329	595.37
586.688	601.47
587.048	614.8
587.408	579.09
587.768	599.66
588.127	578.64
588.487	599.66
588.846	560.34
589.206	576.84
589.565	587.23
589.925	589.49
590.284	591.75
590.643	574.58
591.003	604.41
591.362	601.02
591.721	584.97
592.08	595.14
592.44	595.37
592.799	587.23
593.158	577.74
593.517	592.2
593.876	588.13
594.235	576.38
594.593	587.68
594.952	617.06
595.311	587
595.67	586.1
596.029	596.5
596.387	593.11
596.746	584.74
597.104	582.94
597.463	577.74
597.822	603.5
598.18	582.94
598.538	577.97
598.897	581.58
599.255	587.68
599.613	561.24
599.972	570.51
600.33	562.82
600.688	555.82
601.046	573.67
601.404	577.06
601.762	554.46
602.12	584.74
602.478	579.32
602.836	571.19
603.194	564.18
603.552	580.9
603.91	566.44
604.268	573.22
604.625	579.77
604.983	581.13
605.341	560.34
605.698	550.17
606.056	573.45
606.413	578.19
606.771	566.89
607.128	553.78
607.485	567.12
607.843	554.24
608.2	552.65
608.557	551.75
608.914	569.83
609.272	558.3
609.629	560.34
609.986	589.94
610.343	578.42
610.7	551.3
611.057	575.48
611.414	557.4
611.771	544.29
612.127	540.45
612.484	571.41
612.841	560.56
613.198	576.84
613.554	537.97
613.911	548.14
614.267	537.51
614.624	547.23
614.98	548.81
615.337	541.13
615.693	539.55
616.05	557.4
616.406	554.91
616.762	553.78
617.118	542.49
617.475	549.49
617.831	551.07
618.187	553.78
618.543	558.53
618.899	552.2
619.255	559.21
619.611	566.89
619.967	542.49
620.323	528.25
620.678	521.02
621.034	550.17
621.39	549.49
621.746	535.25
622.101	540.9
622.457	548.36
622.812	528.93
623.168	545.42
623.523	522.37
623.879	530.51
624.234	526.21
624.589	528.02
624.945	504.75
625.3	513.79
625.655	521.02
626.01	546.78
626.365	525.54
626.72	514.01
627.075	488.02
627.43	528.47
627.785	490.06
628.14	501.81
628.495	502.26
628.85	517.4
629.205	506.1
629.559	496.84
629.914	499.1
630.269	515.37
630.623	503.39
630.978	511.98
631.332	496.39
631.687	483.28
632.041	499.1
632.396	493.67
632.75	483.96
633.104	485.09
633.459	495.93
633.813	485.76
634.167	474.01
634.521	490.06
634.875	503.39
635.229	470.62
635.583	495.71
635.937	459.78
636.291	461.36
636.645	480.11
636.999	467.46
637.352	493.45
637.706	478.31
638.06	458.42
638.413	487.8
638.767	466.1
639.121	474.46
639.474	457.06
639.828	483.28
640.181	489.38
640.534	483.73
640.888	480.34
641.241	468.14
641.594	476.27
641.947	466.1
642.301	445.54
642.654	488.02
643.007	426.33
643.36	471.08
643.713	455.71
644.066	462.04
644.419	443.05
644.771	452.32
645.124	436.05
645.477	452.32
645.83	448.7
646.182	462.49
646.535	447.35
646.888	448.02
647.24	446.9
647.593	462.26
647.945	455.93
648.298	444.64
648.65	447.12
649.002	450.51
649.355	435.37
649.707	447.12
650.059	446.44
650.411	431.98
650.763	433.34
651.115	436.73
651.467	446.22
651.819	452.77
652.171	448.7
652.523	429.04
652.875	429.04
653.227	440.34
653.578	443.28
653.93	421.81
654.282	445.54
654.633	416.39
654.985	427.23
655.337	425.65
655.688	431.3
656.039	418.87
656.391	408.25
656.742	440.57
657.094	419.1
657.445	412.09
657.796	408.93
658.147	398.31
658.498	402.83
658.849	423.62
659.2	437.63
659.551	415.26
659.902	404.18
660.253	420.68
660.604	432.21
660.955	403.28
661.306	424.07
661.656	401.25
662.007	439.44
662.358	423.17
662.708	393.11
663.059	398.99
663.409	399.89
663.76	387.91
664.11	408.25
664.461	398.31
664.811	394.69
665.161	405.09
665.511	394.47
665.862	410.74
666.212	410.96
666.562	405.09
666.912	405.77
667.262	397.86
667.612	388.14
667.962	390.63
668.312	414.13
668.662	389.04
669.011	382.94
669.361	382.49
669.711	385.43
670.06	364.19
670.41	410.29
670.76	419.55
671.109	407.35
671.459	396.5
671.808	396.95
672.157	390.17
672.507	384.07
672.856	384.52
673.205	374.35
673.554	391.08
673.904	382.26
674.253	387.01
674.602	378.65
674.951	397.18
675.3	384.75
675.649	395.6
675.998	400.79
676.346	403.05
676.695	389.04
677.044	386.78
677.393	374.58
677.741	376.61
678.09	354.02
678.438	367.12
678.787	380.68
679.135	399.66
679.484	366.45
679.832	383.17
680.181	378.42
680.529	380.68
680.877	345.2
681.225	386.56
681.573	381.81
681.922	383.17
682.27	367.12
682.618	362.83
682.966	358.31
683.314	358.99
683.661	384.98
684.009	366.67
684.357	381.59
684.705	370.51
685.053	369.61
685.4	362.6
685.748	389.27
686.095	362.15
686.443	371.42
686.79	353.79
687.138	368.48
687.485	370.74
687.832	355.15
688.18	372.09
688.527	371.42
688.874	379.1
689.221	378.87
689.568	379.1
689.915	361.93
690.262	364.64
690.609	346.11
690.956	358.31
691.303	370.06
691.65	375.71
691.997	368.25
692.344	366.45
692.69	356.28
693.037	359.21
693.383	334.58
693.73	372.55
694.077	374.35
694.423	344.52
694.769	354.69
695.116	376.16
695.462	375.03
695.808	370.96
696.155	346.78
696.501	351.98
696.847	366.9
697.193	351.98
697.539	350.63
697.885	351.76
698.231	354.24
698.577	353.34
698.923	317.18
699.269	360.8
699.614	370.06
699.96	356.95
700.306	353.79
700.651	356.95
700.997	344.98
701.342	346.56
701.688	358.54
702.033	350.63
702.379	357.63
702.724	356.05
703.069	355.82
703.415	374.58
703.76	356.5
704.105	360.12
704.45	362.38
704.795	351.76
705.14	350.17
705.485	314.24
705.83	341.14
706.175	353.34
706.52	353.56
706.865	370.29
707.209	347.91
707.554	362.83
707.899	357.63
708.243	330.29
708.588	357.18
708.932	341.14
709.277	357.18
709.621	356.28
709.966	355.82
710.31	357.63
710.654	349.5
710.998	347.69
711.342	333.45
711.687	350.4
712.031	349.27
712.375	340.46
712.719	341.59
713.063	352.66
713.407	333.23
713.75	351.98
714.094	338.88
714.438	343.62
714.782	338.42
715.125	334.13
715.469	368.25
715.812	338.42
716.156	360.34
716.499	360.8
716.843	323.73
717.186	347.01
717.53	354.02
717.873	346.11
718.216	336.62
718.559	330.29
718.902	341.36
719.246	329.84
719.589	330.06
719.932	338.2
720.275	342.27
720.617	340.46
720.96	356.5
721.303	337.97
721.646	335.94
721.989	334.81
722.331	335.26
722.674	317.86
723.016	331.87
723.359	333
723.701	325.32
724.044	331.87
724.386	335.03
724.729	342.72
725.071	349.27
725.413	328.25
725.755	315.83
726.097	330.51
726.439	342.27
726.782	323.51
727.124	336.39
727.465	349.72
727.807	334.13
728.149	349.27
728.491	346.33
728.833	340.91
729.175	322.15
729.516	343.85
729.858	352.89
730.199	338.88
730.541	330.06
730.882	340.23
731.224	327.8
731.565	314.92
731.906	340.01
732.248	321.47
732.589	323.73
732.93	335.26
733.271	325.54
733.612	355.82
733.953	345.65
734.294	324.41
734.635	344.3
734.976	347.69
735.317	343.62
735.658	339.55
735.999	343.17
736.339	339.33
736.68	324.86
737.021	348.14
737.361	331.87
737.702	330.29
738.042	323.28
738.383	347.01
738.723	328.71
739.063	324.19
739.404	338.65
739.744	336.62
740.084	339.1
740.424	318.76
740.764	329.38
741.104	318.08
741.444	354.69
741.784	339.55
742.124	336.84
742.464	335.49
742.804	316.95
743.143	324.19
743.483	332.1
743.823	340.91
744.162	311.08
744.502	328.03
744.841	340.01
745.181	334.81
745.52	339.33
745.86	337.29
746.199	333.23
746.538	336.16
746.877	330.97
747.216	327.35
747.556	321.25
747.895	336.62
748.234	339.33
748.573	323.28
748.911	319.67
749.25	317.41
749.589	333.23
749.928	333.23
750.267	329.84
750.605	321.7
750.944	343.62
751.283	329.38
751.621	360.57
751.96	340.68
752.298	344.75
752.636	346.33
752.975	343.85
753.313	324.41
753.651	336.39
753.989	329.38
754.327	340.23
754.666	321.25
755.004	357.86
755.342	320.57
755.679	343.62
756.017	325.99
756.355	352.21
756.693	332.32
757.031	333.9
757.368	321.7
757.706	344.98
758.044	328.25
758.381	348.82
758.719	326.67
759.056	329.38
759.394	330.06
759.731	319.89
760.068	328.25
760.405	336.62
760.743	336.62
761.08	330.74
761.417	320.34
761.754	324.86
762.091	312.44
762.428	329.84
762.765	327.8
763.102	319.21
763.438	316.5
763.775	340.68
764.112	331.64
764.449	311.53
764.785	325.09
765.122	326.22
765.458	314.7
765.795	322.6
766.131	342.72
766.467	333.23
766.804	330.51
767.14	350.17
767.476	317.41
767.812	330.06
768.148	315.83
768.485	321.02
768.821	321.25
769.157	345.2
769.492	332.32
769.828	325.77
770.164	310.63
770.5	336.62
770.836	320.12
771.171	323.73
771.507	330.97
771.842	339.78
772.178	341.81
772.513	336.16
772.849	328.03
773.184	335.49
773.519	311.08
773.855	327.12
774.19	328.71
774.525	344.98
774.86	323.96
775.195	324.86
775.53	320.8
775.865	338.42
776.2	340.46
776.535	324.86
776.87	316.73
777.205	337.97
777.539	354.02
777.874	320.12
778.209	312.89
778.543	343.39
778.878	340.91
779.212	328.71
779.547	342.94
779.881	321.93
780.215	342.49
780.55	327.12
780.884	303.4
781.218	309.95
781.552	327.58
781.886	322.6
782.22	345.2
782.554	309.72
782.888	336.39
783.222	336.62
783.556	321.02
783.889	327.12
784.223	326.67
784.557	324.64
784.89	328.25
785.224	323.73
785.557	300.23
785.891	344.98
786.224	341.59
786.558	330.74
786.891	328.93
787.224	330.74
787.557	337.29
787.891	325.77
788.224	309.5
788.557	321.25
788.89	330.29
789.223	344.52
789.556	324.41
789.888	320.57
790.221	340.46
790.554	320.8
790.887	312.21
791.219	328.71
791.552	328.93
791.884	317.18
792.217	329.61
792.549	334.13
792.882	312.66
793.214	333.9
793.546	303.85
793.879	329.16
794.211	330.51
794.543	330.74
794.875	339.55
795.207	336.16
795.539	333
795.871	340.01
796.203	331.64
796.535	329.16
796.867	335.26
797.198	332.32
797.53	315.83
797.862	330.74
798.193	305.66
798.525	324.41
798.856	322.6
799.188	316.73
799.519	317.63
799.85	330.06
800.182	319.89
800.513	322.38
800.844	339.78
801.175	335.03
801.506	330.97
801.837	345.88
802.168	332.1
802.499	345.88
802.83	322.15
803.161	304.98
803.491	345.65
803.822	338.2
804.153	317.41
804.483	331.87
804.814	320.12
805.145	326.67
805.475	317.18
805.805	334.36
806.136	328.48
806.466	333.68
806.796	324.86
807.126	340.46
807.457	317.63
807.787	333.68
808.117	328.25
808.447	327.35
808.777	324.41
809.107	327.35
809.436	332.77
809.766	331.64
810.096	327.8
810.426	346.56
810.755	321.02
811.085	315.6
811.414	318.76
811.744	325.09
812.073	338.88
812.403	309.27
812.732	342.27
813.061	316.95
813.39	331.19
813.719	321.47
814.049	316.73
814.378	328.25
814.707	333.68
815.036	344.98
815.365	336.62
815.693	330.06
816.022	323.73
816.351	326.67
816.68	327.58
817.008	310.85
817.337	323.51
817.665	333.68
817.994	330.97
818.322	325.32
818.651	320.12
818.979	328.03
819.307	320.57
819.636	328.48
819.964	316.73
820.292	348.59
820.62	325.99
820.948	327.58
821.276	337.75
821.604	321.47
821.932	333
822.259	309.27
822.587	321.47
822.915	342.94
823.243	327.12
823.57	323.96
823.898	331.42
824.225	323.28
824.553	315.37
824.88	353.56
825.207	330.97
825.535	310.4
825.862	326.22
826.189	325.09
826.516	328.25
826.843	330.51
827.17	328.48
827.497	321.25
827.824	333.68
828.151	310.4
828.478	336.16
828.805	331.19
829.131	309.95
829.458	320.34
829.785	309.05
830.111	314.47
830.438	306.11
830.764	317.86
831.09	326.9
831.417	325.54
831.743	324.41
832.069	337.07
832.395	323.06
832.722	328.93
833.048	311.53
833.374	324.41
833.7	335.49
834.026	319.67
834.351	331.42
834.677	334.13
835.003	320.34
835.329	314.02
835.654	320.34
835.98	335.03
836.306	321.25
836.631	309.5
836.956	318.08
837.282	336.16
837.607	342.27
837.932	333.68
838.258	331.42
838.583	309.05
838.908	341.36
839.233	316.05
839.558	322.83
839.883	320.34
840.208	321.02
840.533	297.29
840.858	323.73
841.182	332.1
841.507	327.35
841.832	310.85
842.156	327.8
842.481	323.28
842.805	322.38
843.13	328.25
843.454	313.11
843.778	336.16
844.103	324.64
844.427	321.25
844.751	325.54
845.075	310.63
845.399	330.06
845.723	322.83
846.047	309.95
846.371	336.16
846.695	315.6
847.019	322.83
847.343	324.86
847.666	343.62
847.99	300.68
848.313	325.09
848.637	323.73
848.96	340.91
849.284	322.38
849.607	313.57
849.931	302.94
850.254	321.25
850.577	345.88
850.9	328.25
851.223	312.21
851.546	314.47
851.869	322.83
852.192	326.22
852.515	335.49
852.838	339.78
853.161	308.37
853.483	311.98
853.806	321.25
854.129	329.16
854.451	333.9
854.774	291.87
855.096	322.15
855.419	325.99
855.741	346.56
856.063	318.54
856.385	320.8
856.708	319.67
857.03	339.33
857.352	312.89
857.674	311.53
857.996	304.07
858.318	323.51
858.64	335.49
858.961	338.42
859.283	333.9
859.605	319.21
859.926	344.07
860.248	301.59
860.57	314.47
860.891	311.31
861.212	325.32
861.534	310.18
861.855	327.12
862.176	322.83
862.498	339.1
862.819	321.25
863.14	328.03
863.461	320.12
863.782	324.64
864.103	323.96
864.424	347.24
864.745	331.19
865.065	347.01
865.386	317.86
865.707	344.75
866.027	314.92
866.348	315.37
866.668	324.86
866.989	307.92
867.309	310.18
867.63	321.47
867.95	319.21
868.27	316.05
868.59	299.78
868.91	337.07
869.23	334.13
869.55	308.59
869.87	323.96
870.19	307.46
870.51	319.44
870.83	319.21
871.15	316.28
871.469	323.51
871.789	327.8
872.109	322.6
872.428	316.73
872.748	307.69
873.067	338.42
873.386	326.9
873.706	327.12
874.025	337.75
874.344	323.73
874.663	316.5
874.982	326.22
875.301	322.15
875.62	324.86
875.939	320.12
876.258	332.55
876.577	309.27
876.896	320.34
877.214	328.93
877.533	335.71
877.852	314.7
878.17	323.28
878.489	318.08
878.807	317.63
879.125	341.59
879.444	311.31
879.762	328.25
880.08	300.46
880.398	328.25
880.716	316.28
881.034	337.75
881.352	323.06
881.67	319.67
881.988	320.12
882.306	335.94
882.624	302.49
882.941	325.09
883.259	324.41
883.577	321.02
883.894	295.26
884.212	318.99
884.529	314.7
884.846	307.01
885.164	320.12
885.481	327.58
885.798	321.02
886.115	321.47
886.432	302.72
886.75	313.34
887.067	318.08
887.383	335.94
887.7	325.99
888.017	325.99
888.334	317.86
888.651	323.28
888.967	318.54
889.284	323.73
889.6	318.08
889.917	330.74
890.233	331.87
890.55	317.18
890.866	323.06
891.182	300.46
891.498	330.29
891.815	324.41
892.131	307.01
892.447	327.35
892.763	329.38
893.079	297.75
893.395	314.47
893.71	330.74
894.026	339.1
894.342	311.98
894.657	312.21
894.973	316.5
895.289	304.98
895.604	328.93
895.92	321.93
896.235	306.79
896.55	332.32
896.865	341.59
897.181	344.3
897.496	315.83
897.811	318.99
898.126	335.94
898.441	324.86
898.756	327.58
899.071	316.05
899.386	323.73
899.7	319.44
900.015	312.44
900.33	313.79
900.644	323.06
900.959	329.61
901.273	286.67
901.588	337.07
901.902	319.89
902.216	323.28
902.531	307.24
902.845	325.32
903.159	297.29
903.473	318.31
903.787	331.42
904.101	324.86
904.415	317.86
904.729	333.9
905.042	340.91
905.356	306.33
905.67	321.7
905.984	340.68
906.297	311.08
906.611	323.96
906.924	316.73
907.237	315.37
907.551	324.41
907.864	306.33
908.177	318.99
908.491	318.99
908.804	293.45
909.117	309.95
909.43	318.54
909.743	322.15
910.056	321.02
910.368	312.89
910.681	317.41
910.994	314.02
911.307	327.12
911.619	308.37
911.932	322.38
912.244	323.28
912.557	317.63
912.869	311.53
913.181	332.32
913.494	317.18
913.806	307.69
914.118	306.11
914.43	312.66
914.742	317.63
915.054	323.51
915.366	297.75
915.678	352.66
915.99	299.55
916.302	331.64
916.613	305.66
916.925	323.73
917.236	299.33
917.548	326.9
917.859	306.11
918.171	316.05
918.482	321.7
918.794	342.27
919.105	321.93
919.416	300.68
919.727	308.59
920.038	307.24
920.349	329.84
920.66	331.87
920.971	318.08
921.282	306.33
921.593	312.21
921.903	308.37
922.214	324.41
922.525	316.5
922.835	340.68
923.146	311.76
923.456	318.54
923.767	325.99
924.077	310.63
924.387	320.34
924.697	329.38
925.008	319.89
925.318	316.05
925.628	322.15
925.938	314.47
926.248	332.77
926.558	305.66
926.867	314.7
927.177	311.53
927.487	311.53
927.796	321.25
928.106	320.34
928.416	304.3
928.725	325.54
929.034	337.07
929.344	316.95
929.653	315.6
929.962	326.22
930.271	337.75
930.581	319.67
930.89	311.53
931.199	319.44
931.508	326.9
931.817	313.79
932.125	314.24
932.434	318.99
932.743	315.83
933.051	327.58
933.36	328.25
933.669	336.39
933.977	316.73
934.286	323.51
934.594	316.95
934.902	317.86
935.21	319.44
935.519	316.05
935.827	338.88
936.135	319.89
936.443	327.58
936.751	323.51
937.059	313.57
937.367	316.73
937.674	310.18
937.982	310.18
938.29	329.84
938.597	301.81
938.905	318.76
939.213	335.03
939.52	301.59
939.827	309.72
940.135	315.15
940.442	322.83
940.749	327.58
941.056	311.08
941.363	331.64
941.67	325.99
941.977	324.41
942.284	313.11
942.591	326.45
942.898	329.38
943.205	318.31
943.511	307.69
943.818	326.67
944.125	314.02
944.431	330.06
944.738	312.44
945.044	335.26
945.35	326.9
945.657	314.02
945.963	311.53
946.269	313.79
946.575	321.25
946.881	302.72
947.187	308.59
947.493	314.7
947.799	304.98
948.105	297.97
948.41	309.72
948.716	328.25
949.022	309.95
949.327	299.1
949.633	323.96
949.938	299.78
950.244	314.7
950.549	329.84
950.854	315.15
951.16	317.86
951.465	326.45
951.77	322.6
952.075	331.64
952.38	324.64
952.685	305.2
952.99	320.8
953.294	319.44
953.599	315.15
953.904	326.45
954.209	332.32
954.513	321.25
954.818	321.02
955.122	314.92
955.426	316.05
955.731	305.66
956.035	301.14
956.339	323.28
956.643	314.7
956.948	302.49
957.252	302.72
957.556	325.32
957.86	307.69
958.163	346.33
958.467	335.49
958.771	345.43
959.075	321.7
959.378	307.01
959.682	340.68
959.985	329.61
960.289	331.19
960.592	335.03
960.896	302.49
961.199	303.85
961.502	310.85
961.805	315.15
962.108	325.09
962.411	308.14
962.714	312.89
963.017	319.44
963.32	322.6
963.623	328.48
963.926	316.05
964.228	332.77
964.531	319.67
964.833	313.79
965.136	328.71
965.438	314.24
965.741	318.31
966.043	307.24
966.345	306.11
966.648	319.67
966.95	298.42
967.252	319.21
967.554	305.88
967.856	317.86
968.158	300.23
968.46	315.37
968.761	312.66
969.063	292.32
969.365	328.03
969.666	302.94
969.968	314.02
970.269	311.53
970.571	325.54
970.872	315.15
971.174	312.89
971.475	324.86
971.776	329.84
972.077	309.05
972.378	295.03
972.679	317.41
972.98	313.11
973.281	312.66
973.582	307.01
973.883	328.93
974.183	313.34
974.484	310.4
974.785	321.7
975.085	314.02
975.386	306.11
975.686	309.72
975.986	316.73
976.287	332.77
976.587	314.47
976.887	318.31
977.187	321.7
977.487	310.18
977.787	301.81
978.087	323.73
978.387	322.38
978.687	313.34
978.987	328.48
979.286	339.55
979.586	320.8
979.885	324.41
980.185	313.57
980.484	303.62
980.784	302.49
981.083	347.69
981.382	305.43
981.682	311.98
981.981	285.32
982.28	302.94
982.579	315.83
982.878	318.54
983.177	311.98
983.475	329.16
983.774	302.49
984.073	296.16
984.372	330.51
984.67	326.45
984.969	320.34
985.267	331.87
985.566	330.06
985.864	338.42
986.162	328.71
986.461	326.67
986.759	324.64
987.057	314.02
987.355	308.82
987.653	299.78
987.951	314.02
988.249	323.96
988.547	314.92
988.844	309.72
989.142	336.84
989.44	328.25
989.737	304.98
990.035	309.72
990.332	314.7
990.63	307.24
990.927	323.06
991.224	308.14
991.521	300.68
991.819	324.41
992.116	323.51
992.413	333.45
992.71	328.48
993.006	311.98
993.303	287.13
993.6	311.53
993.897	307.92
994.193	319.44
994.49	318.99
994.787	305.2
995.083	328.25
995.379	305.2
995.676	305.66
995.972	312.44
996.268	310.18
996.565	309.5
996.861	315.83
997.157	308.14
997.453	321.02
997.749	329.61
998.044	313.34
998.34	318.99
998.636	309.5
998.932	307.92
999.227	313.11
999.523	303.4
999.818	313.79
1000.114	319.67
1000.409	327.12
1000.704	326.9
1001	317.41
1001.295	323.96
1001.59	322.83
1001.885	302.94
1002.18	315.37
1002.475	302.72
1002.77	302.72
1003.065	313.79
1003.359	304.75
1003.654	316.5
1003.949	305.2
1004.243	307.92
1004.538	335.94
1004.832	302.49
1005.127	315.6
1005.421	311.76
1005.715	330.74
1006.009	346.33
1006.304	312.21
1006.598	299.78
1006.892	297.97
1007.186	321.7
1007.48	315.83
1007.773	321.7
1008.067	304.53
1008.361	303.17
1008.655	309.95
1008.948	318.31
1009.242	312.89
1009.535	309.72
1009.829	334.13
1010.122	333.23
1010.415	314.02
1010.708	306.33
1011.001	309.5
1011.295	322.6
1011.588	297.75
1011.881	320.57
1012.173	325.09
1012.466	331.19
1012.759	325.77
1013.052	300.23
1013.344	302.27
1013.637	292.77
1013.93	338.2
1014.222	291.64
1014.514	328.48
1014.807	306.33
1015.099	320.34
1015.391	309.72
1015.683	324.64
1015.976	348.59
1016.268	338.88
1016.56	300.91
1016.851	306.11
1017.143	329.16
1017.435	310.18
1017.727	329.38
1018.018	318.08
1018.31	319.67
1018.602	312.44
1018.893	320.8
1019.185	328.25
1019.476	291.42
1019.767	311.76
1020.058	311.76
1020.35	301.81
1020.641	331.42
1020.932	293.23
1021.223	308.82
1021.514	327.35
1021.804	303.85
1022.095	311.53
1022.386	312.44
1022.677	312.44
1022.967	315.6
1023.258	309.5
1023.548	298.88
1023.839	309.27
1024.129	313.34
1024.419	292.55
1024.709	299.1
1025	308.82
1025.29	304.07
1025.58	314.47
1025.87	308.82
1026.16	332.55
1026.449	326.45
1026.739	298.65
1027.029	333.23
1027.319	306.33
1027.608	321.47
1027.898	300.01
1028.187	316.5
1028.477	311.76
1028.766	330.74
1029.055	316.28
1029.344	311.76
1029.634	344.52
1029.923	322.6
1030.212	304.53
1030.501	309.72
1030.79	300.91
1031.078	315.15
1031.367	312.21
1031.656	302.94
1031.945	321.7
1032.233	320.8
1032.522	323.51
1032.81	303.85
1033.099	309.27
1033.387	328.25
1033.675	312.89
1033.963	308.82
1034.251	293
1034.54	298.88
1034.828	315.6
1035.116	291.87
1035.403	308.37
1035.691	323.06
1035.979	322.38
1036.267	333.9
1036.554	313.57
1036.842	322.6
1037.129	311.31
1037.417	298.88
1037.704	310.18
1037.992	335.94
1038.279	316.05
1038.566	314.92
1038.853	314.92
1039.14	314.92
