Data from No_light_on_white_reflection_standard_FLMS001491_087.txt Node
Date: Tue Feb 07 10:33:09 GMT 2017
User: dcchb
Spectrometer: FLMS00149
Trigger mode: 0
Integration Time (sec): 2.000000E-2
Scans to average: 10
Electric dark correction enabled: true
Nonlinearity correction enabled: false
Boxcar width: 0
XAxis mode: Wavelengths
Number of Pixels in Spectrum: 2048
>>>>>Begin Spectral Data<<<<<
341.393	-10.56
341.776	-10.56
342.16	-10.56
342.543	-61.64
342.927	-60.28
343.31	-72.71
343.693	-56.67
344.077	-71.81
344.46	-68.42
344.843	-46.5
345.226	-34.07
345.61	-26.16
345.993	-1.75
346.376	23.11
346.759	-2.66
347.142	32.15
347.525	19.72
347.908	67.85
348.291	68.98
348.674	88.64
349.057	80.28
349.44	112.82
349.823	153.05
350.206	142.88
350.588	167.74
350.971	167.96
351.354	195.98
351.737	199.83
352.119	218.58
352.502	222.88
352.884	242.76
353.267	247.28
353.65	246.38
354.032	246.38
354.414	272.37
354.797	265.36
355.179	280.5
355.562	279.15
355.944	301.52
356.326	292.25
356.709	290.22
357.091	323.66
357.473	306.04
357.855	319.37
358.238	314.62
358.62	283.89
359.002	287.05
359.384	325.7
359.766	310.56
360.148	295.87
360.53	314.4
360.912	302.87
361.294	305.81
361.676	297.45
362.057	304.91
362.439	292.7
362.821	304.23
363.203	284.57
363.584	302.87
363.966	270.11
364.348	289.54
364.729	287.28
365.111	290.22
365.493	255.64
365.874	281.18
366.256	280.73
366.637	267.39
367.019	284.57
367.4	276.21
367.781	266.26
368.163	266.04
368.544	272.14
368.925	276.43
369.306	265.13
369.688	262.87
370.069	262.65
370.45	276.66
370.831	271.46
371.212	277.34
371.593	285.02
371.974	252.25
372.355	283.44
372.736	265.59
373.117	287.96
373.498	264
373.879	276.89
374.26	258.58
374.641	268.3
375.021	270.11
375.402	286.15
375.783	283.66
376.163	260.39
376.544	269.2
376.925	261.52
377.305	269.88
377.686	298.13
378.066	292.93
378.447	273.95
378.827	278.47
379.208	294.96
379.588	292.93
379.968	286.6
380.349	284.34
380.729	269.43
381.109	282.31
381.489	301.74
381.87	283.21
382.25	291.35
382.63	294.96
383.01	286.6
383.39	270.56
383.77	279.6
384.15	271.46
384.53	285.25
384.91	301.97
385.29	282.31
385.67	287.73
386.049	288.64
386.429	278.47
386.809	294.51
387.189	267.62
387.568	261.29
387.948	319.82
388.328	294.51
388.707	282.99
389.087	283.21
389.466	287.96
389.846	293.83
390.225	311.01
390.605	286.38
390.984	282.76
391.363	274.85
391.743	284.12
392.122	282.76
392.501	269.88
392.881	282.53
393.26	300.61
393.639	308.07
394.018	297.9
394.397	295.19
394.776	292.03
395.155	282.31
395.534	267.17
395.913	285.92
396.292	287.73
396.671	291.57
397.05	284.12
397.429	279.15
397.808	284.79
398.186	313.95
398.565	291.12
398.944	301.52
399.323	303.78
399.701	285.47
400.08	295.87
400.458	312.59
400.837	289.54
401.215	298.35
401.594	283.89
401.972	314.17
402.351	301.74
402.729	276.89
403.107	295.64
403.486	310.56
403.864	304
404.242	303.78
404.62	277.79
404.999	288.18
405.377	300.84
405.755	319.82
406.133	292.7
406.511	309.43
406.889	315.08
407.267	304.46
407.645	301.97
408.023	290.67
408.401	301.52
408.779	282.08
409.156	300.84
409.534	306.49
409.912	280.73
410.29	297.9
410.667	301.97
411.045	290.22
411.422	296.77
411.8	324.12
412.178	291.8
412.555	292.7
412.933	301.97
413.31	288.18
413.687	296.55
414.065	275.53
414.442	320.73
414.819	278.69
415.197	300.16
415.574	288.64
415.951	302.42
416.328	311.69
416.705	301.52
417.082	300.84
417.46	291.57
417.837	315.3
418.214	319.82
418.591	289.31
418.967	309.88
419.344	313.04
419.721	306.94
420.098	289.09
420.475	289.77
420.852	312.59
421.228	302.65
421.605	305.36
421.982	302.87
422.358	334.51
422.735	310.78
423.111	299.71
423.488	305.59
423.864	298.13
424.241	310.1
424.617	304.68
424.994	306.49
425.37	320.95
425.746	306.94
426.123	312.36
426.499	308.07
426.875	294.06
427.251	314.85
427.627	287.28
428.003	330.67
428.379	301.74
428.756	300.16
429.132	311.46
429.507	311.69
429.883	312.36
430.259	310.1
430.635	328.18
431.011	298.13
431.387	325.25
431.763	294.06
432.138	309.43
432.514	317.11
432.89	311.69
433.265	337.67
433.641	299.94
434.016	318.92
434.392	336.09
434.767	301.07
435.143	322.31
435.518	331.8
435.894	328.86
436.269	313.04
436.644	314.4
437.02	325.47
437.395	315.53
437.77	329.77
438.145	336.09
438.52	341.52
438.895	321.4
439.271	336.32
439.646	342.65
440.021	316.43
440.395	332.03
440.77	319.37
441.145	342.87
441.52	326.83
441.895	347.39
442.27	334.74
442.645	354.85
443.019	331.35
443.394	330.44
443.769	333.61
444.143	342.19
444.518	375.19
444.892	361.18
445.267	356.21
445.641	334.51
446.016	361.4
446.39	343.1
446.764	358.01
447.139	353.04
447.513	367.5
447.887	350.78
448.262	370.44
448.636	339.93
449.01	368.41
449.384	372.93
449.758	351.23
450.132	364.11
450.506	369.54
450.88	378.58
451.254	350.33
451.628	371.12
452.002	386.71
452.376	366.37
452.75	377.22
453.123	382.65
453.497	369.54
453.871	351.46
454.244	358.47
454.618	371.35
454.992	370.44
455.365	362.53
455.739	356.43
456.112	341.97
456.486	364.79
456.859	365.47
457.232	365.47
457.606	370.22
457.979	365.02
458.352	362.98
458.725	395.98
459.099	373.83
459.472	359.82
459.845	362.08
460.218	359.14
460.591	350.78
460.964	379.26
461.337	348.75
461.71	348.3
462.083	352.36
462.456	359.37
462.829	356.43
463.201	344.68
463.574	356.43
463.947	336.09
464.32	361.4
464.692	346.49
465.065	369.99
465.438	348.75
465.81	354.62
466.183	359.6
466.555	368.86
466.928	327.05
467.3	340.39
467.672	359.6
468.045	360.05
468.417	339.48
468.789	354.17
469.161	361.4
469.534	345.13
469.906	358.47
470.278	350.78
470.65	346.71
471.022	361.85
471.394	365.47
471.766	362.08
472.138	354.62
472.51	344.68
472.882	355.53
473.253	350.1
473.625	366.37
473.997	338.35
474.369	347.39
474.74	353.04
475.112	348.3
475.484	364.79
475.855	349.43
476.227	348.75
476.598	350.1
476.97	349.2
477.341	329.77
477.713	362.98
478.084	342.65
478.455	352.14
478.827	339.48
479.198	375.64
479.569	341.29
479.94	347.39
480.311	362.31
480.682	360.95
481.053	345.81
481.424	351.91
481.795	341.06
482.166	350.1
482.537	351.46
482.908	334.51
483.279	366.83
483.65	366.15
484.021	373.15
484.391	372.7
484.762	370.67
485.133	342.65
485.503	360.95
485.874	363.89
486.244	349.43
486.615	363.89
486.985	364.57
487.356	371.8
487.726	360.5
488.097	354.85
488.467	364.34
488.837	344
489.207	368.86
489.578	358.69
489.948	347.39
490.318	359.37
490.688	369.54
491.058	369.76
491.428	366.37
491.798	384.23
492.168	377
492.538	388.52
492.908	374.06
493.278	372.48
493.648	389.88
494.017	370.44
494.387	383.55
494.757	404.11
495.126	391.46
495.496	401.4
495.866	398.24
496.235	394.62
496.605	404.11
496.974	390.55
497.344	402.53
497.713	375.64
498.082	418.58
498.452	390.78
498.821	392.14
499.19	404.11
499.559	390.1
499.928	398.69
500.298	400.27
500.667	400.72
501.036	409.54
501.405	403.44
501.774	424.68
502.143	399.82
502.512	393.27
502.88	382.42
503.249	400.05
503.618	403.66
503.987	396.2
504.356	421.97
504.724	418.35
505.093	413.38
505.462	394.17
505.83	402.53
506.199	412.02
506.567	428.75
506.936	408.63
507.304	418.8
507.672	433.94
508.041	422.64
508.409	436.66
508.777	429.88
509.145	440.5
509.514	426.94
509.882	429.65
510.25	411.35
510.618	418.58
510.986	421.29
511.354	430.78
511.722	436.43
512.09	433.04
512.458	421.74
512.826	433.04
513.193	443.21
513.561	447.5
513.929	433.27
514.297	440.04
514.664	443.89
515.032	448.41
515.4	459.93
515.767	450.21
516.135	438.69
516.502	471.46
516.869	449.08
517.237	431.68
517.604	442.98
517.972	456.99
518.339	445.69
518.706	442.08
519.073	451.57
519.44	435.98
519.808	452.47
520.175	483.89
520.542	464.9
520.909	459.25
521.276	451.57
521.643	430.55
522.009	458.8
522.376	467.61
522.743	476.2
523.11	489.54
523.477	440.04
523.843	473.49
524.21	470.1
524.577	495.86
524.943	474.62
525.31	483.21
525.676	482.98
526.043	480.5
526.409	476.65
526.776	504.22
527.142	478.46
527.508	486.37
527.874	496.99
528.241	482.3
528.607	494.28
528.973	477.11
529.339	489.54
529.705	479.82
530.071	498.8
530.437	499.03
530.803	503.77
531.169	507.84
531.535	479.82
531.901	496.54
532.267	487.05
532.632	457.45
532.998	495.41
533.364	486.15
533.73	467.84
534.095	481.17
534.461	494.05
534.826	503.77
535.192	504.45
535.557	504.9
535.923	493.38
536.288	506.26
536.653	508.07
537.019	492.47
537.384	497.44
537.749	510.1
538.114	506.03
538.479	515.52
538.845	515.07
539.21	501.06
539.575	494.96
539.94	523.21
540.305	534.05
540.67	501.29
541.034	512.13
541.399	498.35
541.764	521.4
542.129	522.98
542.494	499.93
542.858	511.23
543.223	517.56
543.587	515.52
543.952	547.16
544.316	516.88
544.681	503.77
545.045	519.59
545.41	533.38
545.774	531.57
546.138	530.89
546.503	517.33
546.867	520.04
547.231	524.56
547.595	538.35
547.959	530.44
548.324	535.86
548.688	540.38
549.052	523.88
549.416	527.73
549.779	537.44
550.143	522.75
550.507	525.24
550.871	551.91
551.235	500.61
551.599	533.38
551.962	527.5
552.326	532.02
552.689	535.86
553.053	533.6
553.417	537.44
553.78	539.25
554.143	532.7
554.507	556.88
554.87	550.55
555.234	523.66
555.597	534.73
555.96	546.71
556.323	535.41
556.686	544.22
557.05	570.44
557.413	545.8
557.776	555.52
558.139	565.47
558.502	544.22
558.865	536.31
559.228	560.27
559.59	540.38
559.953	547.61
560.316	555.52
560.679	555.97
561.041	552.36
561.404	531.79
561.767	592.13
562.129	539.48
562.492	548.06
562.854	550.32
563.217	555.75
563.579	556.65
563.941	576.31
564.304	574.73
564.666	567.95
565.028	579.48
565.39	546.26
565.753	567.05
566.115	567.05
566.477	560.95
566.839	563.66
567.201	576.76
567.563	563.21
567.925	565.69
568.287	569.99
568.648	587.16
569.01	564.11
569.372	562.3
569.734	573.83
570.095	567.73
570.457	572.47
570.819	574.5
571.18	592.81
571.542	596.42
571.903	549.65
572.265	576.54
572.626	561.17
572.987	580.61
573.349	570.21
573.71	583.77
574.071	558.69
574.432	564.56
574.794	579.02
575.155	565.01
575.516	578.8
575.877	579.02
576.238	575.18
576.599	589.65
576.96	566.37
577.32	577.89
577.681	588.06
578.042	564.34
578.403	584.45
578.763	589.87
579.124	574.96
579.485	581.51
579.845	588.74
580.206	593.71
580.566	582.87
580.927	616.09
581.287	614.5
581.648	600.49
582.008	582.64
582.368	600.72
582.728	600.27
583.089	595.97
583.449	587.61
583.809	600.04
584.169	579.02
584.529	591.45
584.889	586.93
585.249	562.08
585.609	589.87
585.969	574.96
586.329	595.75
586.688	570.66
587.048	592.58
587.408	607.05
587.768	581.28
588.127	584.45
588.487	585.13
588.846	598.91
589.206	596.42
589.565	589.19
589.925	584.67
590.284	584
590.643	574.5
591.003	582.64
591.362	577.89
591.721	576.76
592.08	587.16
592.44	573.15
592.799	566.6
593.158	582.64
593.517	566.82
593.876	584.45
594.235	569.53
594.593	556.43
594.952	576.54
595.311	568.86
595.67	587.16
596.029	595.52
596.387	577.67
596.746	589.65
597.104	592.58
597.463	567.05
597.822	586.26
598.18	594.84
598.538	559.59
598.897	571.79
599.255	570.89
599.613	586.03
599.972	545.8
600.33	556.43
600.688	570.89
601.046	578.35
601.404	558.01
601.762	567.73
602.12	588.29
602.478	566.6
602.836	577.67
603.194	578.57
603.552	577.44
603.91	568.4
604.268	575.41
604.625	564.56
604.983	584.45
605.341	578.12
605.698	574.5
606.056	553.49
606.413	557.78
606.771	577.44
607.128	579.7
607.485	561.4
607.843	556.88
608.2	541.74
608.557	549.65
608.914	551.68
609.272	554.17
609.629	564.79
609.986	567.95
610.343	586.48
610.7	549.42
611.057	540.61
611.414	550.78
611.771	564.11
612.127	576.99
612.484	562.3
612.841	565.47
613.198	563.88
613.554	561.17
613.911	553.71
614.267	542.19
614.624	553.71
614.98	547.61
615.337	561.62
615.693	553.26
616.05	544.45
616.406	544.9
616.762	539.25
617.118	542.42
617.475	549.65
617.831	547.16
618.187	521.62
618.543	534.96
618.899	533.38
619.255	534.05
619.611	519.82
619.967	543.32
620.323	527.5
620.678	524.11
621.034	520.04
621.39	525.24
621.746	521.85
622.101	519.14
622.457	537.9
622.812	519.36
623.168	518.69
623.523	516.43
623.879	519.59
624.234	504.68
624.589	526.37
624.945	507.16
625.3	523.43
625.655	508.07
626.01	487.05
626.365	517.56
626.72	474.62
627.075	489.99
627.43	480.95
627.785	521.85
628.14	507.61
628.495	511.23
628.85	509.42
629.205	487.95
629.559	494.28
629.914	515.98
630.269	488.41
630.623	488.63
630.978	483.43
631.332	508.52
631.687	488.63
632.041	474.39
632.396	472.13
632.75	498.12
633.104	477.33
633.459	510.78
633.813	479.59
634.167	503.77
634.521	493.83
634.875	513.94
635.229	486.15
635.583	485.47
635.937	468.07
636.291	487.5
636.645	481.4
636.999	471
637.352	500.38
637.706	469.2
638.06	467.61
638.413	479.59
638.767	465.81
639.121	484.56
639.474	474.85
639.828	459.93
640.181	473.72
640.534	462.64
640.888	454.28
641.241	474.62
641.594	479.37
641.947	454.28
642.301	456.09
642.654	468.07
643.007	457.67
643.36	453.83
643.713	456.54
644.066	455.86
644.419	447.73
644.771	468.29
645.124	459.25
645.477	426.94
645.83	442.98
646.182	453.6
646.535	425.81
646.888	430.78
647.24	449.76
647.593	438.24
647.945	442.3
648.298	463.1
648.65	431.68
649.002	434.17
649.355	426.49
649.707	430.1
650.059	437.79
650.411	430.55
650.763	432.59
651.115	422.87
651.467	441.63
651.819	433.72
652.171	433.94
652.523	449.08
652.875	429.42
653.227	435.98
653.578	443.66
653.93	428.07
654.282	419.48
654.633	407.96
654.985	433.04
655.337	429.88
655.688	428.52
656.039	430.78
656.391	422.19
656.742	434.62
657.094	407.5
657.445	413.15
657.796	416.09
658.147	408.41
658.498	409.54
658.849	403.44
659.2	410.89
659.551	406.83
659.902	417.67
660.253	395.98
660.604	396.88
660.955	425.36
661.306	409.76
661.656	398.92
662.007	407.73
662.358	405.24
662.708	406.15
663.059	388.52
663.409	391.91
663.76	412.02
664.11	380.84
664.461	395.07
664.811	393.27
665.161	404.34
665.511	393.04
665.862	393.94
666.212	403.89
666.562	397.11
666.912	400.95
667.262	379.93
667.612	404.57
667.962	386.71
668.312	395.75
668.662	390.33
669.011	400.95
669.361	399.14
669.711	378.13
670.06	396.66
670.41	369.54
670.76	398.24
671.109	383.78
671.459	392.14
671.808	392.59
672.157	393.49
672.507	391.01
672.856	401.63
673.205	387.84
673.554	392.36
673.904	385.81
674.253	393.94
674.602	387.39
674.951	369.99
675.3	372.02
675.649	385.13
675.998	385.36
676.346	380.61
676.695	384.68
677.044	359.37
677.393	361.85
677.741	385.58
678.09	357.11
678.438	377.45
678.787	358.47
679.135	376.77
679.484	355.75
679.832	376.54
680.181	391.01
680.529	372.25
680.877	360.27
681.225	378.13
681.573	388.07
681.922	368.86
682.27	384.45
682.618	368.63
682.966	343.1
683.314	376.77
683.661	375.41
684.009	379.03
684.357	355.08
684.705	366.15
685.053	380.16
685.4	353.72
685.748	345.13
686.095	366.15
686.443	374.51
686.79	376.09
687.138	372.25
687.485	376.32
687.832	377.9
688.18	367.96
688.527	375.87
688.874	346.26
689.221	365.92
689.568	369.99
689.915	366.37
690.262	358.24
690.609	369.99
690.956	350.56
691.303	358.69
691.65	357.56
691.997	367.28
692.344	344
692.69	349.88
693.037	347.84
693.383	342.65
693.73	353.27
694.077	346.04
694.423	373.38
694.769	348.97
695.116	361.4
695.462	376.32
695.808	345.81
696.155	358.24
696.501	339.71
696.847	333.16
697.193	366.83
697.539	358.92
697.885	348.3
698.231	378.58
698.577	362.76
698.923	341.52
699.269	344.91
699.614	375.87
699.96	356.21
700.306	371.8
700.651	349.2
700.997	334.74
701.342	337.67
701.688	364.11
702.033	369.09
702.379	336.32
702.724	350.1
703.069	343.55
703.415	340.61
703.76	338.8
704.105	368.63
704.45	354.62
704.795	336.54
705.14	352.14
705.485	358.01
705.83	358.24
706.175	344
706.52	359.6
706.865	353.49
707.209	357.79
707.554	336.77
707.899	349.43
708.243	360.05
708.588	319.6
708.932	337.67
709.277	351.46
709.621	351.46
709.966	337.9
710.31	335.64
710.654	344
710.998	342.19
711.342	318.92
711.687	351.23
712.031	351.91
712.375	339.26
712.719	344
713.063	352.59
713.407	350.56
713.75	326.15
714.094	344
714.438	371.12
714.782	349.43
715.125	344
715.469	345.58
715.812	327.05
716.156	339.26
716.499	323.44
716.843	341.52
717.186	337.67
717.53	344.91
717.873	356.88
718.216	348.52
718.559	355.3
718.902	343.78
719.246	337.45
719.589	325.92
719.932	325.7
720.275	330.67
720.617	329.99
720.96	350.1
721.303	338.13
721.646	328.86
721.989	334.96
722.331	345.36
722.674	324.79
723.016	339.48
723.359	360.27
723.701	340.39
724.044	340.16
724.386	337.45
724.729	311.46
725.071	336.77
725.413	339.71
725.755	339.26
726.097	339.26
726.439	322.53
726.782	337.67
727.124	348.75
727.465	329.77
727.807	329.77
728.149	337
728.491	319.82
728.833	337.22
729.175	330.9
729.516	341.29
729.858	335.64
730.199	334.74
730.541	334.74
730.882	343.78
731.224	353.49
731.565	322.76
731.906	331.8
732.248	328.41
732.589	329.99
732.93	356.88
733.271	332.7
733.612	313.72
733.953	340.61
734.294	331.8
734.635	325.25
734.976	331.57
735.317	341.29
735.658	330.67
735.999	343.78
736.339	339.93
736.68	340.84
737.021	327.28
737.361	338.13
737.702	334.96
738.042	307.39
738.383	335.64
738.723	339.48
739.063	335.87
739.404	332.7
739.744	356.21
740.084	337.9
740.424	334.06
740.764	335.87
741.104	329.31
741.444	322.99
741.784	321.18
742.124	311.46
742.464	320.73
742.804	335.19
743.143	314.4
743.483	351.46
743.823	344.23
744.162	316.43
744.502	330.9
744.841	344.68
745.181	341.97
745.52	313.04
745.86	329.54
746.199	327.96
746.538	318.47
746.877	340.84
747.216	332.48
747.556	332.7
747.895	353.27
748.234	330.22
748.573	305.36
748.911	326.83
749.25	311.46
749.589	325.92
749.928	335.64
750.267	317.11
750.605	330.9
750.944	345.58
751.283	320.73
751.621	347.62
751.96	346.71
752.298	327.96
752.636	325.92
752.975	329.99
753.313	325.92
753.651	336.54
753.989	341.06
754.327	333.83
754.666	337.9
755.004	324.12
755.342	329.09
755.679	331.12
756.017	339.03
756.355	310.56
756.693	326.83
757.031	336.32
757.368	318.69
757.706	327.28
758.044	337.9
758.381	328.41
758.719	347.39
759.056	334.28
759.394	330.44
759.731	327.05
760.068	317.56
760.405	331.57
760.743	325.92
761.08	317.34
761.417	333.61
761.754	339.93
762.091	324.34
762.428	337.22
762.765	332.25
763.102	323.89
763.438	331.57
763.775	323.44
764.112	329.54
764.449	313.95
764.785	313.49
765.122	326.15
765.458	308.75
765.795	324.12
766.131	327.73
766.467	339.71
766.804	321.4
767.14	308.52
767.476	337
767.812	331.8
768.148	331.35
768.485	349.88
768.821	330.44
769.157	313.49
769.492	338.13
769.828	339.71
770.164	316.66
770.5	327.05
770.836	329.54
771.171	333.16
771.507	312.82
771.842	326.6
772.178	318.92
772.513	321.4
772.849	325.92
773.184	344.91
773.519	326.38
773.855	308.3
774.19	328.41
774.525	324.12
774.86	314.4
775.195	338.35
775.53	315.98
775.865	344.45
776.2	305.36
776.535	324.12
776.87	341.52
777.205	334.06
777.539	320.73
777.874	317.79
778.209	319.6
778.543	308.3
778.878	330.44
779.212	330.44
779.547	314.62
779.881	326.6
780.215	324.57
780.55	322.31
780.884	328.41
781.218	338.35
781.552	328.18
781.886	321.18
782.22	334.06
782.554	328.86
782.888	326.15
783.222	326.83
783.556	321.18
783.889	317.11
784.223	331.8
784.557	348.97
784.89	334.96
785.224	333.16
785.557	317.11
785.891	324.57
786.224	307.17
786.558	329.77
786.891	345.13
787.224	324.12
787.557	313.04
787.891	322.08
788.224	316.21
788.557	313.27
788.89	324.34
789.223	334.74
789.556	339.48
789.888	319.6
790.221	339.71
790.554	332.93
790.887	304.46
791.219	337
791.552	308.07
791.884	334.51
792.217	329.54
792.549	311.23
792.882	336.32
793.214	346.94
793.546	300.16
793.879	308.07
794.211	313.72
794.543	329.09
794.875	304.91
795.207	337
795.539	323.21
795.871	308.75
796.203	317.56
796.535	312.14
796.867	329.31
797.198	315.98
797.53	311.69
797.862	337.22
798.193	321.4
798.525	323.44
798.856	319.82
799.188	322.31
799.519	324.12
799.85	313.49
800.182	320.73
800.513	325.47
800.844	323.21
801.175	323.66
801.506	312.82
801.837	324.34
802.168	332.93
802.499	330.9
802.83	335.19
803.161	304.68
803.491	317.56
803.822	326.83
804.153	315.98
804.483	319.14
804.814	309.88
805.145	328.18
805.475	310.78
805.805	330.67
806.136	329.99
806.466	319.82
806.796	309.65
807.126	337.9
807.457	306.49
807.787	318.01
808.117	308.3
808.447	315.08
808.777	311.69
809.107	325.47
809.436	327.73
809.766	325.25
810.096	315.75
810.426	334.06
810.755	312.82
811.085	326.83
811.414	328.41
811.744	333.16
812.073	311.91
812.403	338.35
812.732	312.36
813.061	335.64
813.39	323.89
813.719	318.47
814.049	325.47
814.378	315.53
814.707	320.05
815.036	320.95
815.365	335.87
815.693	326.6
816.022	325.25
816.351	335.19
816.68	313.95
817.008	316.66
817.337	318.24
817.665	307.17
817.994	300.61
818.322	336.77
818.651	324.12
818.979	314.4
819.307	324.79
819.636	313.95
819.964	309.88
820.292	329.54
820.62	315.3
820.948	315.98
821.276	328.64
821.604	316.88
821.932	315.53
822.259	303.55
822.587	321.18
822.915	327.28
823.243	304.23
823.57	319.6
823.898	330.22
824.225	323.89
824.553	325.47
824.88	321.18
825.207	314.17
825.535	332.48
825.862	332.25
826.189	323.66
826.516	333.61
826.843	320.5
827.17	293.16
827.497	311.01
827.824	344.68
828.151	334.51
828.478	323.89
828.805	315.53
829.131	313.49
829.458	322.76
829.785	326.83
830.111	303.55
830.438	327.28
830.764	319.6
831.09	328.64
831.417	325.02
831.743	328.41
832.069	314.4
832.395	323.21
832.722	325.92
833.048	333.16
833.374	320.27
833.7	322.31
834.026	306.26
834.351	329.54
834.677	336.54
835.003	323.21
835.329	297.9
835.654	324.57
835.98	321.4
836.306	308.3
836.631	320.95
836.956	329.77
837.282	323.89
837.607	309.88
837.932	313.04
838.258	311.91
838.583	319.37
838.908	329.09
839.233	329.09
839.558	320.73
839.883	320.95
840.208	316.43
840.533	308.3
840.858	319.37
841.182	317.34
841.507	323.66
841.832	313.27
842.156	319.14
842.481	328.41
842.805	311.91
843.13	350.56
843.454	308.07
843.778	315.3
844.103	311.91
844.427	318.69
844.751	319.14
845.075	315.3
845.399	311.01
845.723	320.73
846.047	319.14
846.371	327.51
846.695	305.36
847.019	336.09
847.343	336.09
847.666	319.6
847.99	336.32
848.313	338.35
848.637	329.31
848.96	297.45
849.284	326.15
849.607	339.48
849.931	316.21
850.254	327.73
850.577	310.78
850.9	311.01
851.223	317.34
851.546	314.62
851.869	318.69
852.192	323.21
852.515	321.63
852.838	316.43
853.161	313.27
853.483	331.35
853.806	323.44
854.129	303.33
854.451	299.48
854.774	315.08
855.096	315.53
855.419	324.79
855.741	299.26
856.063	314.85
856.385	327.96
856.708	320.95
857.03	320.05
857.352	312.36
857.674	307.85
857.996	321.4
858.318	324.79
858.64	326.38
858.961	331.12
859.283	321.63
859.605	329.99
859.926	324.79
860.248	308.52
860.57	295.64
860.891	338.58
861.212	325.25
861.534	333.61
861.855	314.17
862.176	318.01
862.498	317.56
862.819	325.7
863.14	322.31
863.461	322.99
863.782	318.47
864.103	292.03
864.424	321.86
864.745	315.75
865.065	326.15
865.386	335.87
865.707	315.75
866.027	335.87
866.348	308.52
866.668	330.22
866.989	327.51
867.309	315.3
867.63	320.27
867.95	322.31
868.27	293.16
868.59	322.99
868.91	334.74
869.23	322.99
869.55	311.46
869.87	320.05
870.19	331.8
870.51	319.82
870.83	324.79
871.15	326.6
871.469	320.05
871.789	332.03
872.109	319.14
872.428	300.39
872.748	326.6
873.067	318.69
873.386	328.64
873.706	324.34
874.025	317.79
874.344	314.85
874.663	308.52
874.982	315.08
875.301	302.65
875.62	315.75
875.939	306.04
876.258	292.7
876.577	326.83
876.896	309.2
877.214	307.85
877.533	317.79
877.852	337.22
878.17	308.3
878.489	325.92
878.807	311.23
879.125	307.85
879.444	328.18
879.762	307.62
880.08	321.18
880.398	320.05
880.716	325.7
881.034	327.51
881.352	328.18
881.67	330.22
881.988	320.27
882.306	312.59
882.624	336.54
882.941	318.01
883.259	317.56
883.577	311.01
883.894	325.25
884.212	329.99
884.529	313.04
884.846	324.79
885.164	335.64
885.481	320.27
885.798	322.31
886.115	315.3
886.432	313.04
886.75	324.79
887.067	314.17
887.383	334.28
887.7	324.79
888.017	326.15
888.334	327.05
888.651	315.3
888.967	325.25
889.284	317.79
889.6	314.4
889.917	318.92
890.233	318.92
890.55	325.47
890.866	324.79
891.182	307.39
891.498	311.01
891.815	316.21
892.131	322.76
892.447	300.84
892.763	302.87
893.079	322.08
893.395	322.08
893.71	306.49
894.026	324.12
894.342	332.48
894.657	329.77
894.973	346.71
895.289	323.44
895.604	317.56
895.92	312.59
896.235	310.1
896.55	333.83
896.865	323.89
897.181	335.41
897.496	325.02
897.811	315.75
898.126	322.31
898.441	319.82
898.756	333.83
899.071	303.1
899.386	318.69
899.7	311.46
900.015	328.18
900.33	312.59
900.644	322.08
900.959	314.17
901.273	335.19
901.588	323.66
901.902	310.33
902.216	310.78
902.531	298.13
902.845	310.1
903.159	318.24
903.473	311.69
903.787	331.57
904.101	335.64
904.415	334.51
904.729	331.57
905.042	305.36
905.356	322.31
905.67	301.29
905.984	328.18
906.297	329.54
906.611	311.46
906.924	312.82
907.237	321.86
907.551	324.12
907.864	319.82
908.177	313.04
908.491	303.78
908.804	323.21
909.117	310.78
909.43	325.02
909.743	327.73
910.056	323.66
910.368	308.07
910.681	324.57
910.994	331.35
911.307	319.14
911.619	309.88
911.932	287.28
912.244	331.12
912.557	303.55
912.869	332.7
913.181	330.67
913.494	316.88
913.806	311.69
914.118	313.95
914.43	325.7
914.742	314.17
915.054	309.65
915.366	323.89
915.678	326.83
915.99	287.28
916.302	312.14
916.613	312.59
916.925	311.01
917.236	315.53
917.548	325.7
917.859	337
918.171	322.76
918.482	306.04
918.794	314.17
919.105	323.21
919.416	312.14
919.727	319.14
920.038	316.66
920.349	315.53
920.66	298.35
920.971	322.99
921.282	326.38
921.593	314.17
921.903	311.46
922.214	308.97
922.525	321.63
922.835	329.99
923.146	314.85
923.456	308.3
923.767	312.82
924.077	325.47
924.387	316.21
924.697	311.46
925.008	316.66
925.318	315.08
925.628	312.82
925.938	325.7
926.248	302.87
926.558	307.62
926.867	318.24
927.177	320.95
927.487	302.2
927.796	306.72
928.106	336.09
928.416	313.49
928.725	305.13
929.034	322.31
929.344	318.69
929.653	319.82
929.962	306.26
930.271	301.52
930.581	312.14
930.89	334.51
931.199	312.36
931.508	315.75
931.817	321.4
932.125	315.53
932.434	322.53
932.743	318.01
933.051	318.92
933.36	315.08
933.669	301.07
933.977	318.92
934.286	314.85
934.594	294.29
934.902	322.31
935.21	308.52
935.519	304.68
935.827	315.53
936.135	318.69
936.443	318.69
936.751	310.1
937.059	317.56
937.367	305.36
937.674	329.54
937.982	322.99
938.29	315.75
938.597	310.78
938.905	319.37
939.213	327.51
939.52	293.83
939.827	307.39
940.135	307.85
940.442	304.23
940.749	306.72
941.056	321.4
941.363	317.56
941.67	333.16
941.977	316.66
942.284	300.84
942.591	303.55
942.898	332.25
943.205	304.46
943.511	313.95
943.818	305.13
944.125	301.52
944.431	317.11
944.738	308.07
945.044	348.75
945.35	325.47
945.657	320.73
945.963	313.49
946.269	318.24
946.575	306.49
946.881	312.36
947.187	318.01
947.493	312.36
947.799	311.23
948.105	325.47
948.41	307.85
948.716	307.85
949.022	327.51
949.327	291.57
949.633	305.13
949.938	317.56
950.244	330.67
950.549	311.23
950.854	301.97
951.16	316.66
951.465	304.23
951.77	290.67
952.075	330.9
952.38	311.69
952.685	315.75
952.99	318.92
953.294	320.5
953.599	322.76
953.904	320.95
954.209	327.05
954.513	301.97
954.818	303.78
955.122	309.88
955.426	325.47
955.731	313.72
956.035	319.37
956.339	321.18
956.643	304.46
956.948	303.33
957.252	316.43
957.556	299.26
957.86	296.77
958.163	309.65
958.467	326.15
958.771	327.28
959.075	330.9
959.378	332.7
959.682	330.44
959.985	321.4
960.289	322.31
960.592	333.16
960.896	348.52
961.199	315.3
961.502	344.23
961.805	312.14
962.108	310.78
962.411	303.55
962.714	321.18
963.017	325.02
963.32	322.31
963.623	325.02
963.926	329.09
964.228	305.59
964.531	322.31
964.833	326.15
965.136	314.62
965.438	321.86
965.741	312.59
966.043	325.02
966.345	313.04
966.648	310.78
966.95	306.72
967.252	294.06
967.554	306.26
967.856	323.66
968.158	301.52
968.46	317.79
968.761	311.69
969.063	319.37
969.365	305.36
969.666	304.68
969.968	331.8
970.269	315.53
970.571	318.01
970.872	282.76
971.174	330.67
971.475	317.34
971.776	316.21
972.077	289.99
972.378	299.48
972.679	312.59
972.98	325.47
973.281	319.37
973.582	336.32
973.883	319.82
974.183	314.85
974.484	305.59
974.785	299.26
975.085	317.79
975.386	305.13
975.686	322.31
975.986	318.24
976.287	335.41
976.587	319.6
976.887	315.98
977.187	299.26
977.487	312.82
977.787	321.4
978.087	329.54
978.387	292.7
978.687	289.54
978.987	301.52
979.286	295.42
979.586	303.33
979.885	307.62
980.185	326.83
980.484	319.6
980.784	308.07
981.083	323.44
981.382	308.3
981.682	320.5
981.981	329.31
982.28	325.7
982.579	313.04
982.878	314.4
983.177	332.93
983.475	301.74
983.774	317.11
984.073	300.84
984.372	316.21
984.67	308.52
984.969	328.18
985.267	313.72
985.566	310.78
985.864	314.4
986.162	307.85
986.461	308.3
986.759	310.1
987.057	317.56
987.355	317.11
987.653	313.27
987.951	304
988.249	289.77
988.547	322.99
988.844	318.69
989.142	314.62
989.44	319.82
989.737	320.27
990.035	293.61
990.332	312.14
990.63	306.26
990.927	311.23
991.224	302.65
991.521	302.87
991.819	318.69
992.116	298.58
992.413	302.87
992.71	320.27
993.006	315.08
993.303	308.3
993.6	312.82
993.897	309.65
994.193	314.85
994.49	313.04
994.787	301.07
995.083	328.64
995.379	313.27
995.676	317.56
995.972	303.1
996.268	317.79
996.565	313.27
996.861	318.47
997.157	322.99
997.453	310.33
997.749	305.81
998.044	311.91
998.34	311.91
998.636	313.95
998.932	306.26
999.227	310.1
999.523	326.83
999.818	306.72
1000.114	308.3
1000.409	313.95
1000.704	317.34
1001	329.54
1001.295	301.29
1001.59	315.98
1001.885	324.57
1002.18	302.42
1002.475	314.17
1002.77	286.38
1003.065	312.82
1003.359	344.68
1003.654	276.66
1003.949	315.53
1004.243	316.66
1004.538	306.49
1004.832	319.14
1005.127	322.99
1005.421	317.34
1005.715	334.28
1006.009	338.58
1006.304	307.17
1006.598	324.34
1006.892	305.13
1007.186	304.68
1007.48	304.46
1007.773	289.09
1008.067	334.28
1008.361	315.75
1008.655	301.07
1008.948	299.03
1009.242	320.95
1009.535	314.85
1009.829	309.65
1010.122	320.05
1010.415	316.66
1010.708	318.01
1011.001	304.91
1011.295	283.66
1011.588	310.78
1011.881	333.38
1012.173	317.79
1012.466	300.16
1012.759	312.36
1013.052	315.3
1013.344	332.93
1013.637	318.69
1013.93	299.48
1014.222	306.04
1014.514	317.79
1014.807	302.65
1015.099	315.08
1015.391	308.97
1015.683	316.88
1015.976	324.57
1016.268	311.01
1016.56	291.35
1016.851	332.93
1017.143	317.34
1017.435	319.6
1017.727	310.33
1018.018	318.92
1018.31	289.54
1018.602	315.08
1018.893	306.94
1019.185	301.97
1019.476	290.67
1019.767	297.45
1020.058	310.78
1020.35	309.43
1020.641	311.01
1020.932	316.66
1021.223	320.27
1021.514	312.59
1021.804	316.88
1022.095	292.03
1022.386	319.37
1022.677	313.27
1022.967	313.72
1023.258	321.86
1023.548	315.75
1023.839	315.98
1024.129	325.7
1024.419	315.53
1024.709	323.21
1025	302.87
1025.29	319.6
1025.58	312.36
1025.87	336.54
1026.16	303.55
1026.449	310.1
1026.739	324.12
1027.029	336.54
1027.319	324.34
1027.608	311.69
1027.898	301.07
1028.187	327.28
1028.477	320.05
1028.766	289.09
1029.055	298.58
1029.344	322.99
1029.634	325.92
1029.923	315.08
1030.212	296.77
1030.501	305.59
1030.79	325.47
1031.078	297.22
1031.367	319.14
1031.656	297.68
1031.945	319.37
1032.233	320.5
1032.522	312.36
1032.81	321.18
1033.099	300.61
1033.387	299.48
1033.675	308.75
1033.963	320.05
1034.251	329.09
1034.54	292.48
1034.828	305.13
1035.116	302.87
1035.403	280.73
1035.691	322.76
1035.979	305.59
1036.267	334.96
1036.554	319.82
1036.842	319.82
1037.129	303.55
1037.417	327.05
1037.704	312.14
1037.992	294.29
1038.279	303.55
1038.566	317.11
1038.853	317.11
1039.14	317.11
