Data from No_light_on_white_reflection_standard_FLMS001491_015.txt Node
Date: Tue Feb 07 10:32:55 GMT 2017
User: dcchb
Spectrometer: FLMS00149
Trigger mode: 0
Integration Time (sec): 2.000000E-2
Scans to average: 10
Electric dark correction enabled: true
Nonlinearity correction enabled: false
Boxcar width: 0
XAxis mode: Wavelengths
Number of Pixels in Spectrum: 2048
>>>>>Begin Spectral Data<<<<<
341.393	-19.94
341.776	-19.94
342.16	-19.94
342.543	-56.1
342.927	-63.78
343.31	-63.78
343.693	-74.86
344.077	-55.42
344.46	-63.56
344.843	-51.81
345.226	-49.09
345.61	-24.69
345.993	-6.61
346.376	-15.88
346.759	23.67
347.142	23.9
347.525	24.35
347.908	50.34
348.291	85.82
348.674	79.04
349.057	118.58
349.44	124.91
349.823	152.48
350.206	150.9
350.588	161.07
350.971	182.31
351.354	189.09
351.737	206.94
352.119	220.5
352.502	234.06
352.884	242.65
353.267	251.01
353.65	270.9
354.032	265.47
354.414	267.73
354.797	280.16
355.179	287.62
355.562	297.34
355.944	297.11
356.326	295.75
356.709	287.17
357.091	309.77
357.473	308.41
357.855	305.02
358.238	312.25
358.62	323.1
359.002	298.92
359.384	309.31
359.766	292.37
360.148	297.79
360.53	311.35
360.912	306.83
361.294	293.95
361.676	309.54
362.057	302.76
362.439	299.14
362.821	295.3
363.203	296.43
363.584	278.13
363.966	288.75
364.348	281.97
364.729	294.4
365.111	280.61
365.493	305.7
365.874	260.95
366.256	276.55
366.637	266.6
367.019	253.04
367.4	262.99
367.781	290.11
368.163	266.83
368.544	266.15
368.925	280.16
369.306	273.61
369.688	274.74
370.069	266.83
370.45	284.46
370.831	271.12
371.212	276.09
371.593	261.86
371.974	271.12
372.355	279.71
372.736	253.72
373.117	270.9
373.498	273.61
373.879	264.8
374.26	269.09
374.641	298.47
375.021	271.57
375.402	272.03
375.783	261.86
376.163	291.24
376.544	284.23
376.925	299.37
377.305	283.1
377.686	284.91
378.066	274.06
378.447	274.74
378.827	288.98
379.208	279.94
379.588	268.41
379.968	268.64
380.349	288.52
380.729	286.26
381.109	266.38
381.489	257.11
381.87	278.35
382.25	295.53
382.63	281.29
383.01	304.79
383.39	274.06
383.77	276.55
384.15	293.04
384.53	277.9
384.91	281.29
385.29	270.44
385.67	292.59
386.049	302.76
386.429	292.59
386.809	279.71
387.189	302.08
387.568	283.1
387.948	274.51
388.328	287.17
388.707	261.41
389.087	292.82
389.466	286.72
389.846	293.27
390.225	272.93
390.605	298.24
390.984	289.65
391.363	291.91
391.743	273.38
392.122	285.59
392.501	306.15
392.881	281.97
393.26	266.15
393.639	304.34
394.018	294.17
394.397	282.87
394.776	288.52
395.155	316.77
395.534	291.01
395.913	290.78
396.292	281.52
396.671	286.72
397.05	287.62
397.429	297.34
397.808	292.14
398.186	287.39
398.565	302.08
398.944	300.5
399.323	302.08
399.701	293.95
400.08	283.1
400.458	284.91
400.837	292.37
401.215	293.95
401.594	282.2
401.972	291.69
402.351	275.42
402.729	295.3
403.107	329.2
403.486	312.93
403.864	302.08
404.242	317.9
404.62	288.07
404.999	298.69
405.377	307.96
405.755	307.96
406.133	304.34
406.511	290.11
406.889	309.99
407.267	294.63
407.645	307.73
408.023	281.74
408.401	312.7
408.779	313.38
409.156	295.53
409.534	297.56
409.912	299.37
410.29	295.53
410.667	312.03
411.045	317.45
411.422	298.47
411.8	318.81
412.178	307.51
412.555	300.27
412.933	297.11
413.31	298.24
413.687	293.04
414.065	294.4
414.442	309.09
414.819	303.21
415.197	301.4
415.574	305.02
415.951	306.15
416.328	295.98
416.705	297.56
417.082	318.58
417.46	292.37
417.837	335.3
418.214	288.07
418.591	305.25
418.967	311.12
419.344	295.75
419.721	303.21
420.098	316.55
420.475	321.07
420.852	317.45
421.228	301.18
421.605	322.19
421.982	301.18
422.358	301.63
422.735	323.32
423.111	309.54
423.488	307.28
423.864	303.89
424.241	297.34
424.617	305.25
424.994	306.38
425.37	324
425.746	310.67
426.123	310.44
426.499	295.53
426.875	310.9
427.251	323.1
427.627	318.35
428.003	301.86
428.379	305.7
428.756	312.48
429.132	310.44
429.507	306.6
429.883	302.76
430.259	302.99
430.635	327.84
431.011	310.9
431.387	326.26
431.763	307.73
432.138	323.32
432.514	327.84
432.89	333.95
433.265	313.61
433.641	315.64
434.016	320.61
434.392	324.23
434.767	336.43
435.143	303.66
435.518	348.63
435.894	327.62
436.269	317
436.644	338.01
437.02	322.87
437.395	318.35
437.77	321.97
438.145	336.66
438.52	325.81
438.895	328.75
439.271	338.24
439.646	308.18
440.021	317.22
440.395	327.62
440.77	338.47
441.145	339.6
441.52	366.04
441.895	338.24
442.27	371.46
442.645	345.7
443.019	336.88
443.394	353.38
443.769	354.51
444.143	347.05
444.518	376.88
444.892	331.23
445.267	341.18
445.641	356.32
446.016	337.56
446.39	371.01
446.764	335.75
447.139	333.27
447.513	347.96
447.887	368.97
448.262	342.08
448.636	372.36
449.01	343.66
449.384	350.22
449.758	356.77
450.132	345.7
450.506	352.48
450.88	348.18
451.254	348.63
451.628	387.05
452.002	376.43
452.376	361.06
452.75	354.06
453.123	379.14
453.497	378.01
453.871	383.66
454.244	383.89
454.618	382.98
454.992	379.14
455.365	365.13
455.739	356.77
456.112	362.87
456.486	359.26
456.859	352.25
457.232	364.45
457.606	352.25
457.979	371.01
458.352	360.16
458.725	354.51
459.099	378.92
459.472	343.89
459.845	348.41
460.218	368.3
460.591	367.39
460.964	360.84
461.337	355.41
461.71	351.57
462.083	355.19
462.456	357.45
462.829	370.78
463.201	343.21
463.574	351.57
463.947	376.2
464.32	368.52
464.692	339.6
465.065	340.05
465.438	357
465.81	345.7
466.183	365.13
466.555	356.09
466.928	359.93
467.3	358.8
467.672	382.53
468.045	335.75
468.417	350.67
468.789	348.18
469.161	340.73
469.534	344.34
469.906	339.6
470.278	361.97
470.65	337.11
471.022	349.31
471.394	343.89
471.766	343.21
472.138	358.13
472.51	346.38
472.882	362.42
473.253	345.47
473.625	351.12
473.997	336.21
474.369	369.65
474.74	343.66
475.112	362.42
475.484	336.88
475.855	360.16
476.227	344.79
476.598	344.57
476.97	351.35
477.341	359.03
477.713	344.12
478.084	348.63
478.455	335.98
478.827	361.74
479.198	342.53
479.569	353.61
479.94	354.74
480.311	361.06
480.682	343.89
481.053	342.53
481.424	349.09
481.795	350.22
482.166	345.47
482.537	340.27
482.908	349.31
483.279	354.51
483.65	349.31
484.021	338.92
484.391	355.41
484.762	364.45
485.133	364.23
485.503	376.88
485.874	363.55
486.244	368.97
486.615	353.15
486.985	380.27
487.356	364.68
487.726	349.99
488.097	352.93
488.467	359.48
488.837	366.04
489.207	392.48
489.578	370.1
489.948	372.14
490.318	350.67
490.688	345.7
491.058	374.85
491.428	372.59
491.798	373.49
492.168	363.1
492.538	351.35
492.908	352.48
493.278	387.5
493.648	383.21
494.017	385.24
494.387	394.06
494.757	390.44
495.126	379.82
495.496	383.21
495.866	404.68
496.235	380.5
496.605	380.05
496.974	373.72
497.344	396.32
497.713	385.02
498.082	380.05
498.452	390.89
498.821	396.09
499.19	399.71
499.559	373.72
499.928	400.38
500.298	411.01
500.667	375.75
501.036	392.7
501.405	393.38
501.774	413.94
502.143	412.14
502.512	379.14
502.88	409.65
503.249	407.39
503.618	390.67
503.987	411.23
504.356	381.4
504.724	384.34
505.093	423.44
505.462	435.86
505.83	418.24
506.199	410.55
506.567	424.57
506.936	429.31
507.304	427.95
507.672	405.13
508.041	429.31
508.409	410.1
508.777	427.5
509.145	413.27
509.514	429.99
509.882	398.58
510.25	433.6
510.618	438.8
510.986	420.27
511.354	434.28
511.722	418.92
512.09	429.31
512.458	455.52
512.826	434.96
513.193	431.34
513.561	446.49
513.929	442.64
514.297	451.46
514.664	459.37
515.032	447.39
515.4	446.49
515.767	425.47
516.135	477.9
516.502	447.84
516.869	462.3
517.237	437.45
517.604	445.36
517.972	460.27
518.339	434.51
518.706	450.1
519.073	456.65
519.44	445.58
519.808	458.46
520.175	468.41
520.542	457.11
520.909	457.33
521.276	460.04
521.643	447.16
522.009	456.2
522.376	461.4
522.743	453.72
523.11	458.24
523.477	469.31
523.843	479.7
524.21	477.67
524.577	464.34
524.943	455.52
525.31	492.59
525.676	485.81
526.043	463.66
526.409	467.28
526.776	478.57
527.142	480.61
527.508	472.25
527.874	470.44
528.241	485.13
528.607	493.04
528.973	488.97
529.339	481.29
529.705	478.8
530.071	481.74
530.437	488.74
530.803	491.23
531.169	475.41
531.535	498.01
531.901	482.64
532.267	467.5
532.632	483.77
532.998	490.33
533.364	496.43
533.73	502.53
534.095	495.07
534.461	505.92
534.826	499.14
535.192	484.45
535.557	512.25
535.923	488.74
536.288	511.79
536.653	507.73
537.019	472.93
537.384	504.79
537.749	494.85
538.114	500.04
538.479	518.8
538.845	507.05
539.21	489.65
539.575	501.63
539.94	516.31
540.305	507.95
540.67	517.44
541.034	504.11
541.399	519.03
541.764	522.87
542.129	511.12
542.494	503.21
542.858	514.28
543.223	525.58
543.587	492.36
543.952	501.4
544.316	502.08
544.681	500.95
545.045	502.76
545.41	507.5
545.774	499.37
546.138	507.27
546.503	506.37
546.867	516.31
547.231	533.04
547.595	516.77
547.959	521.51
548.324	539.14
548.688	523.55
549.052	518.57
549.416	513.83
549.779	514.05
550.143	512.47
550.507	496.43
550.871	525.81
551.235	505.92
551.599	524
551.962	531.45
552.326	500.95
552.689	514.51
553.053	512.7
553.417	509.08
553.78	535.07
554.143	537.1
554.507	527.84
554.87	516.54
555.234	532.58
555.597	532.13
555.96	524.22
556.323	523.32
556.686	527.16
557.05	549.99
557.413	524.9
557.776	547.5
558.139	540.49
558.502	545.47
558.865	515.41
559.228	521.06
559.59	552.47
559.953	570.78
560.316	543.43
560.679	548.86
561.041	521.96
561.404	550.21
561.767	549.99
562.129	546.6
562.492	548.63
562.854	554.73
563.217	558.8
563.579	544.56
563.941	552.47
564.304	564
564.666	533.49
565.028	561.51
565.39	562.19
565.753	537.56
566.115	555.64
566.477	566.71
566.839	563.77
567.201	577.78
567.563	564.45
567.925	582.08
568.287	558.12
568.648	570.1
569.01	567.84
569.372	552.92
569.734	569.42
570.095	575.75
570.457	559.02
570.819	556.31
571.18	569.19
571.542	570.55
571.903	572.81
572.265	566.26
572.626	580.27
572.987	569.65
573.349	552.47
573.71	568.29
574.071	552.47
574.432	583.66
574.794	582.3
575.155	574.62
575.516	569.19
575.877	558.57
576.238	568.97
576.599	604.67
576.96	562.64
577.32	593.83
577.681	578.91
578.042	592.47
578.403	601.06
578.763	557.89
579.124	590.66
579.485	583.88
579.845	593.37
580.206	578.01
580.566	579.82
580.927	585.92
581.287	578.46
581.648	605.58
582.008	569.65
582.368	554.28
582.728	573.26
583.089	575.97
583.449	587.72
583.809	566.71
584.169	576.65
584.529	580.72
584.889	591.79
585.249	560.61
585.609	571
585.969	558.8
586.329	576.43
586.688	561.74
587.048	578.23
587.408	578.69
587.768	588.85
588.127	569.65
588.487	563.77
588.846	574.39
589.206	591.79
589.565	584.11
589.925	554.28
590.284	565.35
590.643	582.98
591.003	571.91
591.362	565.13
591.721	565.8
592.08	561.74
592.44	570.78
592.799	597.89
593.158	574.84
593.517	589.31
593.876	578.23
594.235	569.65
594.593	563.09
594.952	556.54
595.311	576.88
595.67	569.65
596.029	571
596.387	582.3
596.746	580.04
597.104	568.74
597.463	548.4
597.822	592.02
598.18	562.19
598.538	558.57
598.897	579.59
599.255	559.48
599.613	594.96
599.972	568.97
600.33	565.35
600.688	556.54
601.046	564.67
601.404	552.02
601.762	568.06
602.12	566.26
602.478	561.96
602.836	566.93
603.194	538.46
603.552	558.12
603.91	581.4
604.268	559.7
604.625	571.45
604.983	581.85
605.341	569.19
605.698	564.9
606.056	557.67
606.413	534.62
606.771	551.34
607.128	572.36
607.485	553.6
607.843	556.31
608.2	550.66
608.557	549.76
608.914	551.79
609.272	547.73
609.629	525.58
609.986	553.6
610.343	544.79
610.7	521.51
611.057	530.55
611.414	552.25
611.771	535.3
612.127	538.01
612.484	550.89
612.841	548.4
613.198	525.35
613.554	552.7
613.911	529.2
614.267	543.21
614.624	541.62
614.98	555.86
615.337	517.67
615.693	528.07
616.05	545.69
616.406	531
616.762	534.84
617.118	531.91
617.475	522.87
617.831	563.32
618.187	510.66
618.543	513.15
618.899	548.86
619.255	514.28
619.611	538.69
619.967	546.37
620.323	526.71
620.678	536.65
621.034	511.34
621.39	541.17
621.746	515.64
622.101	526.48
622.457	515.18
622.812	500.95
623.168	505.69
623.523	523.55
623.879	500.72
624.234	505.69
624.589	499.14
624.945	524.22
625.3	508.63
625.655	497.78
626.01	499.59
626.365	501.63
626.72	504.11
627.075	517.22
627.43	502.08
627.785	503.43
628.14	484
628.495	503.89
628.85	488.52
629.205	507.73
629.559	484.45
629.914	484.45
630.269	495.75
630.623	490.33
630.978	479.7
631.332	492.59
631.687	492.59
632.041	486.48
632.396	504.11
632.75	475.64
633.104	465.47
633.459	471.12
633.813	479.03
634.167	466.82
634.521	465.69
634.875	478.35
635.229	495.07
635.583	466.82
635.937	475.86
636.291	476.09
636.645	476.54
636.999	483.55
637.352	462.08
637.706	478.8
638.06	455.98
638.413	468.86
638.767	453.26
639.121	477.45
639.474	458.46
639.828	460.27
640.181	465.92
640.534	455.52
640.888	454.17
641.241	460.72
641.594	460.04
641.947	467.05
642.301	458.46
642.654	449.2
643.007	447.84
643.36	452.36
643.713	451.01
644.066	450.78
644.419	425.24
644.771	432.7
645.124	437.67
645.477	436.77
645.83	433.6
646.182	427.73
646.535	449.2
646.888	426.6
647.24	425.47
647.593	424.79
647.945	452.36
648.298	446.03
648.65	419.37
649.002	437.9
649.355	427.73
649.707	438.8
650.059	419.59
650.411	451.23
650.763	415.3
651.115	427.5
651.467	414.62
651.819	425.7
652.171	433.15
652.523	441.51
652.875	409.65
653.227	416.66
653.578	427.73
653.93	440.38
654.282	424.79
654.633	418.01
654.985	412.81
655.337	420.5
655.688	428.63
656.039	413.94
656.391	426.37
656.742	430.44
657.094	428.41
657.445	401.06
657.796	408.52
658.147	411.01
658.498	406.03
658.849	398.58
659.2	414.62
659.551	409.65
659.902	410.78
660.253	403.55
660.604	410.33
660.955	399.03
661.306	407.16
661.656	424.57
662.007	413.27
662.358	391.35
662.708	392.02
663.059	407.62
663.409	397.22
663.76	416.2
664.11	387.5
664.461	380.72
664.811	387.96
665.161	393.38
665.511	398.13
665.862	400.38
666.212	392.93
666.562	402.42
666.912	406.49
667.262	396.54
667.612	401.97
667.962	409.42
668.312	406.71
668.662	408.29
669.011	411.01
669.361	380.05
669.711	363.78
670.06	378.01
670.41	377.11
670.76	398.13
671.109	375.75
671.459	389.99
671.808	397.22
672.157	379.59
672.507	379.59
672.856	373.49
673.205	383.66
673.554	369.65
673.904	386.15
674.253	393.15
674.602	361.97
674.951	397.9
675.3	375.3
675.649	366.04
675.998	390.44
676.346	377.11
676.695	362.42
677.044	377.11
677.393	376.43
677.741	382.98
678.09	373.27
678.438	387.96
678.787	376.2
679.135	370.56
679.484	372.14
679.832	386.83
680.181	368.97
680.529	365.13
680.877	346.83
681.225	374.85
681.573	356.77
681.922	362.65
682.27	360.39
682.618	369.88
682.966	369.2
683.314	371.69
683.661	347.05
684.009	371.69
684.357	371.23
684.705	369.2
685.053	385.02
685.4	367.39
685.748	357
686.095	382.31
686.443	379.37
686.79	355.87
687.138	346.83
687.485	354.28
687.832	378.24
688.18	357.45
688.527	357.45
688.874	342.76
689.221	340.27
689.568	362.19
689.915	354.51
690.262	359.48
690.609	379.14
690.956	351.8
691.303	361.52
691.65	353.83
691.997	361.74
692.344	379.37
692.69	355.64
693.037	370.1
693.383	372.14
693.73	352.7
694.077	353.83
694.423	359.71
694.769	351.12
695.116	359.26
695.462	345.7
695.808	355.64
696.155	353.15
696.501	358.8
696.847	370.33
697.193	353.38
697.539	378.46
697.885	350.22
698.231	345.7
698.577	346.83
698.923	340.27
699.269	354.51
699.614	348.18
699.96	362.42
700.306	360.39
700.651	349.31
700.997	340.5
701.342	347.5
701.688	356.32
702.033	340.27
702.379	345.25
702.724	352.7
703.069	335.08
703.415	360.39
703.76	354.28
704.105	341.86
704.45	352.02
704.795	342.08
705.14	352.48
705.485	345.25
705.83	353.15
706.175	331.91
706.52	349.09
706.865	340.27
707.209	338.69
707.554	348.63
707.899	339.14
708.243	356.09
708.588	349.76
708.932	353.83
709.277	348.86
709.621	338.92
709.966	342.76
710.31	346.83
710.654	321.29
710.998	351.12
711.342	360.61
711.687	340.05
712.031	358.35
712.375	347.73
712.719	357
713.063	341.86
713.407	358.8
713.75	346.6
714.094	341.18
714.438	364.23
714.782	353.15
715.125	346.38
715.469	356.09
715.812	364.68
716.156	355.19
716.499	334.85
716.843	352.25
717.186	326.49
717.53	348.86
717.873	336.66
718.216	340.95
718.559	349.76
718.902	349.31
719.246	338.92
719.589	345.47
719.932	338.01
720.275	325.36
720.617	321.29
720.96	349.76
721.303	329.2
721.646	334.4
721.989	360.39
722.331	331.23
722.674	359.26
723.016	340.05
723.359	355.64
723.701	324.91
724.044	331.91
724.386	354.74
724.729	328.97
725.071	336.43
725.413	350.22
725.755	335.53
726.097	351.8
726.439	326.04
726.782	339.37
727.124	339.37
727.465	329.2
727.807	352.7
728.149	330.33
728.491	322.87
728.833	320.84
729.175	318.35
729.516	346.15
729.858	331.69
730.199	334.17
730.541	348.18
730.882	330.1
731.224	345.92
731.565	334.62
731.906	347.73
732.248	337.79
732.589	335.53
732.93	323.78
733.271	321.29
733.612	355.87
733.953	326.26
734.294	333.04
734.635	333.95
734.976	329.2
735.317	350.22
735.658	348.63
735.999	318.35
736.339	328.07
736.68	337.11
737.021	334.4
737.361	337.34
737.702	342.76
738.042	334.4
738.383	320.39
738.723	346.38
739.063	331.01
739.404	339.6
739.744	324.23
740.084	322.87
740.424	339.6
740.764	334.4
741.104	314.74
741.444	326.71
741.784	337.34
742.124	332.59
742.464	332.14
742.804	320.16
743.143	338.92
743.483	329.65
743.823	334.17
744.162	354.28
744.502	345.7
744.841	354.74
745.181	340.73
745.52	325.13
745.86	320.84
746.199	325.13
746.538	335.3
746.877	344.79
747.216	330.56
747.556	321.07
747.895	309.31
748.234	346.6
748.573	343.66
748.911	335.75
749.25	338.47
749.589	341.18
749.928	325.58
750.267	317.45
750.605	333.27
750.944	326.26
751.283	335.98
751.621	343.21
751.96	330.33
752.298	329.43
752.636	328.75
752.975	342.53
753.313	344.57
753.651	337.11
753.989	314.51
754.327	329.2
754.666	345.47
755.004	341.18
755.342	340.27
755.679	352.93
756.017	336.43
756.355	327.17
756.693	345.47
757.031	338.01
757.368	326.26
757.706	345.25
758.044	336.21
758.381	316.77
758.719	334.62
759.056	333.27
759.394	342.31
759.731	315.42
760.068	329.2
760.405	337.79
760.743	322.65
761.08	329.88
761.417	340.05
761.754	335.53
762.091	333.04
762.428	347.28
762.765	318.13
763.102	317.68
763.438	326.26
763.775	317
764.112	318.58
764.449	328.07
764.785	329.2
765.122	311.8
765.458	338.24
765.795	347.73
766.131	328.07
766.467	308.18
766.804	329.43
767.14	337.11
767.476	319.26
767.812	338.69
768.148	321.97
768.485	320.84
768.821	317.45
769.157	319.94
769.492	340.5
769.828	330.56
770.164	344.79
770.5	345.47
770.836	318.13
771.171	326.71
771.507	326.04
771.842	332.82
772.178	329.2
772.513	326.49
772.849	332.14
773.184	320.61
773.519	325.58
773.855	296.88
774.19	330.33
774.525	336.43
774.86	313.61
775.195	318.58
775.53	323.55
775.865	318.58
776.2	330.1
776.535	332.14
776.87	342.99
777.205	330.1
777.539	317
777.874	338.24
778.209	323.1
778.543	340.95
778.878	340.95
779.212	326.26
779.547	330.78
779.881	315.64
780.215	310.44
780.55	339.14
780.884	331.46
781.218	326.04
781.552	319.03
781.886	338.24
782.22	328.75
782.554	342.76
782.888	334.4
783.222	315.19
783.556	320.39
783.889	320.16
784.223	343.21
784.557	320.61
784.89	339.82
785.224	326.26
785.557	334.85
785.891	331.91
786.224	337.34
786.558	330.56
786.891	316.77
787.224	346.83
787.557	343.21
787.891	329.88
788.224	318.35
788.557	314.06
788.89	337.56
789.223	316.55
789.556	326.04
789.888	317.22
790.221	326.26
790.554	323.32
790.887	327.62
791.219	298.69
791.552	311.12
791.884	339.37
792.217	316.32
792.549	335.3
792.882	339.82
793.214	319.48
793.546	319.03
793.879	312.7
794.211	336.21
794.543	326.04
794.875	331.91
795.207	331.46
795.539	331.46
795.871	321.74
796.203	312.48
796.535	308.86
796.867	306.38
797.198	326.04
797.53	328.07
797.862	313.83
798.193	331.91
798.525	342.31
798.856	342.31
799.188	326.49
799.519	342.76
799.85	333.49
800.182	324.23
800.513	327.39
800.844	320.16
801.175	330.56
801.506	336.43
801.837	313.16
802.168	314.06
802.499	314.96
802.83	318.81
803.161	333.49
803.491	343.66
803.822	327.39
804.153	339.14
804.483	328.3
804.814	324.91
805.145	319.94
805.475	355.41
805.805	319.03
806.136	322.87
806.466	314.74
806.796	331.01
807.126	335.3
807.457	316.09
807.787	336.43
808.117	317.22
808.447	323.78
808.777	316.09
809.107	349.76
809.436	313.61
809.766	313.16
810.096	335.3
810.426	342.76
810.755	322.65
811.085	347.28
811.414	306.83
811.744	337.34
812.073	313.16
812.403	313.16
812.732	320.16
813.061	332.36
813.39	309.54
813.719	312.03
814.049	310.44
814.378	328.97
814.707	319.71
815.036	335.98
815.365	337.34
815.693	330.1
816.022	317.45
816.351	319.26
816.68	325.81
817.008	333.04
817.337	320.61
817.665	332.59
817.994	302.99
818.322	339.82
818.651	331.69
818.979	318.58
819.307	321.74
819.636	325.13
819.964	337.34
820.292	311.8
820.62	321.52
820.948	336.88
821.276	324
821.604	310.67
821.932	311.12
822.259	318.13
822.587	313.16
822.915	311.57
823.243	318.81
823.57	294.4
823.898	339.82
824.225	332.14
824.553	314.29
824.88	335.53
825.207	325.81
825.535	330.78
825.862	298.47
826.189	332.14
826.516	313.38
826.843	320.84
827.17	308.18
827.497	315.19
827.824	317
828.151	316.55
828.478	307.96
828.805	326.49
829.131	341.86
829.458	344.57
829.785	307.73
830.111	313.38
830.438	313.61
830.764	312.25
831.09	328.52
831.417	311.35
831.743	315.64
832.069	324.91
832.395	323.78
832.722	307.73
833.048	326.94
833.374	304.79
833.7	315.87
834.026	317.22
834.351	328.3
834.677	321.07
835.003	311.8
835.329	318.13
835.654	329.65
835.98	315.19
836.306	327.39
836.631	329.65
836.956	317.68
837.282	327.39
837.607	328.97
837.932	307.05
838.258	320.84
838.583	327.84
838.908	324.91
839.233	320.61
839.558	301.4
839.883	312.7
840.208	325.36
840.533	321.97
840.858	328.3
841.182	323.1
841.507	314.29
841.832	329.88
842.156	322.42
842.481	328.97
842.805	323.78
843.13	311.8
843.454	340.73
843.778	329.2
844.103	314.51
844.427	313.38
844.751	347.05
845.075	332.59
845.399	305.02
845.723	302.31
846.047	309.54
846.371	332.14
846.695	320.84
847.019	331.91
847.343	324.45
847.666	321.29
847.99	330.33
848.313	312.48
848.637	323.32
848.96	314.51
849.284	324
849.607	315.87
849.931	337.56
850.254	337.11
850.577	326.04
850.9	309.77
851.223	345.92
851.546	297.34
851.869	314.06
852.192	328.75
852.515	328.97
852.838	317
853.161	324.68
853.483	305.7
853.806	323.32
854.129	335.75
854.451	301.18
854.774	308.41
855.096	308.18
855.419	340.73
855.741	332.59
856.063	317.9
856.385	330.33
856.708	313.16
857.03	307.51
857.352	333.27
857.674	298.69
857.996	320.39
858.318	314.06
858.64	328.07
858.961	345.25
859.283	333.72
859.605	317.9
859.926	317.68
860.248	319.71
860.57	322.19
860.891	320.61
861.212	334.85
861.534	324.23
861.855	308.86
862.176	308.86
862.498	309.99
862.819	323.55
863.14	313.61
863.461	313.83
863.782	323.78
864.103	318.35
864.424	316.77
864.745	305.7
865.065	304.57
865.386	307.28
865.707	324.68
866.027	296.21
866.348	314.96
866.668	301.86
866.989	322.87
867.309	334.17
867.63	328.97
867.95	306.83
868.27	313.16
868.59	318.13
868.91	318.81
869.23	342.53
869.55	321.74
869.87	313.61
870.19	312.25
870.51	291.46
870.83	312.25
871.15	309.09
871.469	334.85
871.789	322.87
872.109	314.51
872.428	323.32
872.748	305.7
873.067	315.42
873.386	313.38
873.706	326.71
874.025	311.12
874.344	319.94
874.663	308.86
874.982	317.22
875.301	337.11
875.62	307.51
875.939	325.36
876.258	318.81
876.577	321.97
876.896	312.7
877.214	322.42
877.533	314.29
877.852	321.07
878.17	334.62
878.489	326.49
878.807	309.54
879.125	314.29
879.444	312.25
879.762	316.09
880.08	308.86
880.398	313.38
880.716	318.58
881.034	342.08
881.352	323.1
881.67	334.4
881.988	319.94
882.306	322.42
882.624	325.13
882.941	324.23
883.259	318.58
883.577	326.94
883.894	303.44
884.212	331.91
884.529	296.21
884.846	318.13
885.164	325.58
885.481	313.83
885.798	329.43
886.115	314.29
886.432	316.32
886.75	315.42
887.067	331.91
887.383	327.62
887.7	310.44
888.017	311.8
888.334	334.4
888.651	324.68
888.967	312.93
889.284	312.25
889.6	336.66
889.917	331.23
890.233	312.7
890.55	322.87
890.866	316.09
891.182	319.48
891.498	319.26
891.815	314.51
892.131	316.55
892.447	307.51
892.763	312.03
893.079	313.83
893.395	324.45
893.71	313.38
894.026	320.16
894.342	308.41
894.657	306.15
894.973	338.92
895.289	321.52
895.604	311.8
895.92	316.77
896.235	313.38
896.55	326.26
896.865	308.64
897.181	318.35
897.496	337.11
897.811	309.54
898.126	322.87
898.441	317
898.756	308.64
899.071	333.49
899.386	303.44
899.7	316.32
900.015	290.78
900.33	312.25
900.644	326.04
900.959	318.81
901.273	329.43
901.588	309.77
901.902	326.26
902.216	317.45
902.531	336.21
902.845	317.9
903.159	317.9
903.473	319.26
903.787	327.84
904.101	314.74
904.415	317.9
904.729	328.75
905.042	326.04
905.356	319.48
905.67	315.19
905.984	319.48
906.297	308.41
906.611	331.91
906.924	314.06
907.237	307.73
907.551	313.61
907.864	298.47
908.177	295.75
908.491	321.52
908.804	322.19
909.117	303.66
909.43	305.92
909.743	339.37
910.056	307.05
910.368	324.91
910.681	307.96
910.994	335.53
911.307	321.97
911.619	321.52
911.932	321.07
912.244	351.57
912.557	308.86
912.869	320.39
913.181	302.76
913.494	313.83
913.806	325.13
914.118	327.17
914.43	310.9
914.742	319.94
915.054	330.78
915.366	325.81
915.678	328.52
915.99	309.09
916.302	321.74
916.613	295.3
916.925	309.09
917.236	319.26
917.548	309.54
917.859	317
918.171	310.44
918.482	316.55
918.794	317.9
919.105	329.88
919.416	307.96
919.727	326.71
920.038	314.74
920.349	337.34
920.66	314.96
920.971	309.31
921.282	317.68
921.593	324.91
921.903	322.42
922.214	331.91
922.525	321.52
922.835	318.35
923.146	336.43
923.456	327.62
923.767	315.64
924.077	312.7
924.387	310.9
924.697	309.99
925.008	319.94
925.318	297.79
925.628	322.42
925.938	320.16
926.248	304.34
926.558	313.61
926.867	305.02
927.177	303.89
927.487	321.97
927.796	309.31
928.106	338.92
928.416	293.5
928.725	305.25
929.034	331.69
929.344	322.19
929.653	308.86
929.962	294.85
930.271	313.16
930.581	313.38
930.89	318.58
931.199	324.68
931.508	320.39
931.817	298.47
932.125	312.03
932.434	338.01
932.743	326.71
933.051	340.73
933.36	326.26
933.669	331.69
933.977	321.52
934.286	325.36
934.594	306.83
934.902	322.65
935.21	314.29
935.519	314.74
935.827	321.52
936.135	317.22
936.443	315.64
936.751	333.95
937.059	323.78
937.367	320.61
937.674	329.88
937.982	341.18
938.29	322.65
938.597	323.55
938.905	318.81
939.213	330.1
939.52	311.35
939.827	324.91
940.135	308.86
940.442	312.03
940.749	339.82
941.056	313.38
941.363	312.93
941.67	298.69
941.977	333.95
942.284	330.33
942.591	311.8
942.898	293.72
943.205	300.27
943.511	314.06
943.818	336.66
944.125	324.23
944.431	324.23
944.738	315.42
945.044	330.78
945.35	316.09
945.657	330.78
945.963	326.26
946.269	301.63
946.575	324
946.881	321.07
947.187	316.77
947.493	305.25
947.799	320.61
948.105	307.51
948.41	296.66
948.716	306.83
949.022	316.77
949.327	312.03
949.633	311.57
949.938	321.29
950.244	294.4
950.549	321.52
950.854	331.01
951.16	328.07
951.465	324.23
951.77	309.99
952.075	320.61
952.38	289.88
952.685	307.05
952.99	326.04
953.294	306.6
953.599	300.05
953.904	316.32
954.209	314.96
954.513	304.34
954.818	316.32
955.122	311.12
955.426	311.35
955.731	307.73
956.035	321.97
956.339	309.09
956.643	326.49
956.948	329.65
957.252	318.35
957.556	311.35
957.86	314.96
958.163	314.29
958.467	316.32
958.771	310.9
959.075	316.55
959.378	314.51
959.682	301.63
959.985	317.45
960.289	315.87
960.592	308.64
960.896	324
961.199	277
961.502	309.31
961.805	327.62
962.108	340.73
962.411	311.57
962.714	318.35
963.017	300.73
963.32	297.34
963.623	293.95
963.926	325.81
964.228	323.55
964.531	303.66
964.833	333.27
965.136	319.71
965.438	324.68
965.741	330.1
966.043	327.84
966.345	319.03
966.648	320.16
966.95	303.44
967.252	305.92
967.554	306.38
967.856	307.96
968.158	311.35
968.46	319.71
968.761	321.97
969.063	319.26
969.365	324.45
969.666	323.1
969.968	310.44
970.269	320.61
970.571	309.99
970.872	326.04
971.174	323.1
971.475	318.13
971.776	296.88
972.077	309.09
972.378	328.75
972.679	339.6
972.98	305.02
973.281	331.46
973.582	314.29
973.883	307.96
974.183	309.54
974.484	310.67
974.785	303.89
975.085	314.96
975.386	288.52
975.686	295.08
975.986	333.49
976.287	328.07
976.587	320.84
976.887	324
977.187	317.45
977.487	302.76
977.787	313.16
978.087	305.25
978.387	327.17
978.687	319.26
978.987	319.48
979.286	304.12
979.586	310.67
979.885	311.12
980.185	298.47
980.484	327.62
980.784	306.38
981.083	326.49
981.382	302.99
981.682	288.98
981.981	329.2
982.28	309.99
982.579	310.67
982.878	323.1
983.177	319.26
983.475	319.71
983.774	310.9
984.073	307.96
984.372	307.96
984.67	308.86
984.969	299.37
985.267	306.83
985.566	308.18
985.864	315.19
986.162	297.56
986.461	307.73
986.759	298.69
987.057	298.69
987.355	326.26
987.653	288.07
987.951	313.61
988.249	320.39
988.547	302.08
988.844	322.19
989.142	317.45
989.44	307.28
989.737	314.51
990.035	322.87
990.332	321.97
990.63	313.38
990.927	310.67
991.224	298.69
991.521	319.71
991.819	317.22
992.116	327.17
992.413	330.1
992.71	324
993.006	321.97
993.303	317.22
993.6	308.64
993.897	323.78
994.193	305.02
994.49	308.41
994.787	333.72
995.083	308.41
995.379	312.03
995.676	324
995.972	314.06
996.268	314.74
996.565	329.65
996.861	338.47
997.157	319.03
997.453	313.83
997.749	311.8
998.044	308.41
998.34	328.97
998.636	309.77
998.932	279.48
999.227	325.13
999.523	327.62
999.818	324.91
1000.114	313.38
1000.409	314.74
1000.704	315.19
1001	304.12
1001.295	328.75
1001.59	294.63
1001.885	325.13
1002.18	325.81
1002.475	306.38
1002.77	314.29
1003.065	324.45
1003.359	311.57
1003.654	319.94
1003.949	330.1
1004.243	338.24
1004.538	286.04
1004.832	324
1005.127	319.48
1005.421	322.87
1005.715	308.18
1006.009	318.13
1006.304	308.64
1006.598	335.98
1006.892	298.69
1007.186	317.22
1007.48	311.8
1007.773	325.13
1008.067	304.57
1008.361	304.57
1008.655	293.27
1008.948	298.01
1009.242	307.96
1009.535	297.56
1009.829	323.1
1010.122	302.31
1010.415	305.02
1010.708	317.9
1011.001	312.48
1011.295	324.91
1011.588	299.6
1011.881	309.54
1012.173	298.01
1012.466	316.09
1012.759	306.38
1013.052	330.33
1013.344	311.12
1013.637	318.35
1013.93	317.22
1014.222	306.38
1014.514	316.55
1014.807	329.65
1015.099	316.77
1015.391	324
1015.683	310.9
1015.976	324
1016.268	318.58
1016.56	325.36
1016.851	325.36
1017.143	314.51
1017.435	315.87
1017.727	294.85
1018.018	309.54
1018.31	331.69
1018.602	296.43
1018.893	310.9
1019.185	312.48
1019.476	301.86
1019.767	302.53
1020.058	291.91
1020.35	308.41
1020.641	323.1
1020.932	340.05
1021.223	328.97
1021.514	293.5
1021.804	330.33
1022.095	314.51
1022.386	305.25
1022.677	297.11
1022.967	299.37
1023.258	303.89
1023.548	307.51
1023.839	331.91
1024.129	313.16
1024.419	308.41
1024.709	324.23
1025	302.76
1025.29	307.51
1025.58	319.48
1025.87	306.15
1026.16	292.82
1026.449	314.96
1026.739	323.1
1027.029	325.81
1027.319	308.18
1027.608	306.38
1027.898	318.13
1028.187	338.01
1028.477	326.04
1028.766	328.75
1029.055	302.31
1029.344	296.88
1029.634	324.68
1029.923	305.25
1030.212	319.26
1030.501	302.31
1030.79	308.41
1031.078	323.32
1031.367	312.48
1031.656	310.67
1031.945	325.81
1032.233	285.13
1032.522	319.48
1032.81	333.27
1033.099	314.51
1033.387	289.43
1033.675	308.41
1033.963	312.93
1034.251	293.95
1034.54	307.05
1034.828	321.29
1035.116	308.18
1035.403	336.43
1035.691	329.43
1035.979	326.49
1036.267	296.88
1036.554	326.71
1036.842	304.12
1037.129	331.91
1037.417	311.12
1037.704	312.25
1037.992	317.9
1038.279	322.65
1038.566	301.4
1038.853	301.4
1039.14	301.4
