Data from No_light_on_white_reflection_standard_FLMS001491_097.txt Node
Date: Tue Feb 07 10:33:11 GMT 2017
User: dcchb
Spectrometer: FLMS00149
Trigger mode: 0
Integration Time (sec): 2.000000E-2
Scans to average: 10
Electric dark correction enabled: true
Nonlinearity correction enabled: false
Boxcar width: 0
XAxis mode: Wavelengths
Number of Pixels in Spectrum: 2048
>>>>>Begin Spectral Data<<<<<
341.393	-11.82
341.776	-11.82
342.16	-11.82
342.543	-63.57
342.927	-70.13
343.31	-87.07
343.693	-86.85
344.077	-71.03
344.46	-63.35
344.843	-33.52
345.226	-45.27
345.61	-10.92
345.993	-7.3
346.376	-12.73
346.759	19.36
347.142	30.89
347.525	59.36
347.908	39.48
348.291	77.89
348.674	82.41
349.057	108.63
349.44	118.12
349.823	134.62
350.206	151.11
350.588	170.77
350.971	191.56
351.354	209.19
351.737	217.55
352.119	225.91
352.502	259.13
352.884	252.58
353.267	260.04
353.65	262.3
354.032	259.58
354.414	283.54
354.797	303.42
355.179	314.27
355.562	274.27
355.944	298.23
356.326	295.06
356.709	311.56
357.091	319.24
357.473	318.34
357.855	294.38
358.238	303.2
358.62	289.87
359.002	312.24
359.384	298.45
359.766	319.92
360.148	307.72
360.53	303.42
360.912	301.39
361.294	295.06
361.676	309.98
362.057	286.7
362.439	272.46
362.821	295.29
363.203	282.18
363.584	301.16
363.966	300.49
364.348	301.39
364.729	290.09
365.111	300.49
365.493	279.7
365.874	273.82
366.256	279.92
366.637	281.05
367.019	293.48
367.4	292.8
367.781	271.56
368.163	280.15
368.544	283.09
368.925	268.17
369.306	262.3
369.688	266.36
370.069	278.34
370.45	272.01
370.831	278.57
371.212	281.96
371.593	290.32
371.974	284.22
372.355	281.96
372.736	264.33
373.117	257.55
373.498	266.36
373.879	274.5
374.26	291.22
374.641	280.15
375.021	270.88
375.402	289.19
375.783	294.16
376.163	268.62
376.544	264.78
376.925	284.22
377.305	268.4
377.686	263.43
378.066	280.83
378.447	281.05
378.827	280.6
379.208	282.18
379.588	283.99
379.968	288.28
380.349	277.44
380.729	298
381.109	292.8
381.489	273.14
381.87	278.79
382.25	281.05
382.63	295.97
383.01	282.41
383.39	288.51
383.77	276.53
384.15	279.47
384.53	297.1
384.91	293.03
385.29	272.69
385.67	276.53
386.049	291.67
386.429	286.93
386.809	299.36
387.189	285.35
387.568	285.8
387.948	281.96
388.328	305.23
388.707	274.72
389.087	292.13
389.466	274.05
389.846	274.72
390.225	290.09
390.605	258.68
390.984	288.74
391.363	274.5
391.743	294.61
392.122	304.33
392.501	276.08
392.881	288.51
393.26	291.45
393.639	272.69
394.018	306.81
394.397	302.97
394.776	299.13
395.155	304.1
395.534	293.48
395.913	281.5
396.292	301.84
396.671	307.04
397.05	288.74
397.429	287.83
397.808	295.29
398.186	294.38
398.565	305.91
398.944	300.26
399.323	289.87
399.701	281.96
400.08	293.71
400.458	305.01
400.837	307.27
401.215	321.73
401.594	289.64
401.972	288.74
402.351	284.22
402.729	307.72
403.107	306.36
403.486	293.48
403.864	270.43
404.242	293.93
404.62	312.46
404.999	309.3
405.377	333.71
405.755	299.36
406.133	286.25
406.511	295.51
406.889	275.85
407.267	308.4
407.645	305.68
408.023	318.79
408.401	286.48
408.779	304.55
409.156	302.52
409.534	277.21
409.912	309.3
410.29	323.31
410.667	300.26
411.045	293.93
411.422	277.21
411.8	286.93
412.178	284.67
412.555	299.58
412.933	297.1
413.31	310.66
413.687	281.28
414.065	288.96
414.442	295.29
414.819	299.58
415.197	318.79
415.574	310.66
415.951	296.42
416.328	289.87
416.705	317.21
417.082	318.57
417.46	323.31
417.837	302.75
418.214	298.68
418.591	293.03
418.967	311.11
419.344	320.6
419.721	303.42
420.098	314.05
420.475	302.29
420.852	309.53
421.228	305.91
421.605	308.17
421.982	310.43
422.358	301.16
422.735	313.82
423.111	300.03
423.488	329.19
423.864	323.76
424.241	330.09
424.617	310.2
424.994	309.53
425.37	330.99
425.746	294.84
426.123	302.97
426.499	315.18
426.875	325.12
427.251	301.84
427.627	300.03
428.003	316.98
428.379	296.87
428.756	311.33
429.132	323.08
429.507	301.16
429.883	313.82
430.259	302.97
430.635	306.36
431.011	317.21
431.387	313.82
431.763	328.73
432.138	340.94
432.514	304.1
432.89	318.34
433.265	330.77
433.641	322.41
434.016	298.9
434.392	336.64
434.767	323.31
435.143	305.23
435.518	328.96
435.894	320.82
436.269	326.93
436.644	317.44
437.02	322.86
437.395	340.26
437.77	340.26
438.145	322.63
438.52	342.07
438.895	319.47
439.271	338
439.646	318.79
440.021	339.36
440.395	328.96
440.77	348.85
441.145	336.42
441.52	326.25
441.895	337.55
442.27	330.09
442.645	341.84
443.019	355.4
443.394	354.95
443.769	340.49
444.143	345.23
444.518	345.01
444.892	355.63
445.267	348.39
445.641	352.46
446.016	347.94
446.39	361.05
446.764	359.92
447.139	339.13
447.513	358.11
447.887	350.65
448.262	346.36
448.636	367.15
449.01	383.65
449.384	378.68
449.758	362.18
450.132	336.87
450.506	350.88
450.88	366.93
451.254	374.61
451.628	371.22
452.002	357.66
452.376	370.54
452.75	375.74
453.123	368.73
453.497	367.15
453.871	368.28
454.244	367.6
454.618	354.5
454.992	367.83
455.365	353.82
455.739	372.35
456.112	380.94
456.486	368.51
456.859	372.12
457.232	346.81
457.606	349.75
457.979	379.81
458.352	347.49
458.725	361.5
459.099	367.38
459.472	371.45
459.845	359.47
460.218	375.51
460.591	361.28
460.964	359.47
461.337	352.46
461.71	359.24
462.083	340.71
462.456	352.01
462.829	340.94
463.201	364.89
463.574	348.39
463.947	370.09
464.32	368.51
464.692	366.02
465.065	368.73
465.438	347.04
465.81	352.01
466.183	357.66
466.555	338
466.928	368.51
467.3	356.98
467.672	355.4
468.045	363.31
468.417	344.55
468.789	363.76
469.161	356.76
469.534	352.69
469.906	340.26
470.278	351.11
470.65	348.62
471.022	353.37
471.394	356.53
471.766	345.46
472.138	352.46
472.51	346.36
472.882	363.54
473.253	361.28
473.625	368.73
473.997	340.03
474.369	347.94
474.74	339.13
475.112	353.82
475.484	334.38
475.855	362.41
476.227	350.2
476.598	342.97
476.97	347.49
477.341	355.17
477.713	352.69
478.084	334.16
478.455	332.12
478.827	332.8
479.198	346.81
479.569	361.28
479.94	341.39
480.311	354.04
480.682	366.93
481.053	354.5
481.424	351.56
481.795	357.43
482.166	372.57
482.537	377.77
482.908	352.91
483.279	363.76
483.65	347.26
484.021	361.95
484.391	342.75
484.762	369.86
485.133	370.77
485.503	358.11
485.874	367.38
486.244	363.76
486.615	369.86
486.985	354.5
487.356	355.85
487.726	372.35
488.097	371.67
488.467	363.54
488.837	375.51
489.207	378.9
489.578	395.4
489.948	372.12
490.318	384.78
490.688	389.3
491.058	382.52
491.428	372.35
491.798	381.39
492.168	379.35
492.538	397.21
492.908	394.27
493.278	393.14
493.648	396.08
494.017	376.42
494.387	377.32
494.757	380.26
495.126	371.9
495.496	361.5
495.866	380.94
496.235	393.37
496.605	392.46
496.974	377.55
497.344	376.19
497.713	387.72
498.082	395.4
498.452	396.08
498.821	396.76
499.19	396.08
499.559	398.11
499.928	403.53
500.298	381.61
500.667	395.17
501.036	402.63
501.405	393.14
501.774	432.01
502.143	417.09
502.512	414.61
502.88	428.62
503.249	401.95
503.618	389.3
503.987	395.85
504.356	409.41
504.724	408.51
505.093	416.19
505.462	430.88
505.83	426.13
506.199	423.42
506.567	412.8
506.936	440.37
507.304	441.05
507.672	423.42
508.041	410.09
508.409	428.62
508.777	432.91
509.145	420.48
509.514	435.17
509.882	435.17
510.25	436.3
510.618	423.87
510.986	434.27
511.354	435.62
511.722	441.73
512.09	438.34
512.458	447.38
512.826	442.86
513.193	444.89
513.561	446.92
513.929	465.68
514.297	451.67
514.664	469.75
515.032	448.28
515.4	451.22
515.767	470.88
516.135	448.96
516.502	458.67
516.869	437.21
517.237	426.81
517.604	452.35
517.972	460.71
518.339	472.91
518.706	458.9
519.073	467.49
519.44	453.25
519.808	436.98
520.175	468.39
520.542	489.63
520.909	456.87
521.276	485.79
521.643	449.86
522.009	476.75
522.376	469.3
522.743	488.5
523.11	465.91
523.477	486.02
523.843	481.72
524.21	483.53
524.577	469.97
524.943	493.93
525.31	477.88
525.676	471.1
526.043	466.58
526.409	470.65
526.776	490.76
527.142	503.64
527.508	468.17
527.874	515.62
528.241	468.39
528.607	474.04
528.973	513.59
529.339	494.38
529.705	500.03
530.071	477.43
530.437	493.93
530.803	474.49
531.169	489.63
531.535	473.82
531.901	504.55
532.267	509.97
532.632	483.08
532.998	484.21
533.364	500.26
533.73	500.71
534.095	477.66
534.461	507.26
534.826	497.54
535.192	520.82
535.557	509.75
535.923	522.18
536.288	529.41
536.653	521.27
537.019	516.07
537.384	503.42
537.749	524.21
538.114	515.4
538.479	526.24
538.845	513.36
539.21	494.61
539.575	514.72
539.94	510.65
540.305	516.3
540.67	536.86
541.034	501.39
541.399	536.86
541.764	526.24
542.129	506.13
542.494	502.52
542.858	528.96
543.223	522.85
543.587	505.68
543.952	514.72
544.316	500.93
544.681	498.45
545.045	536.86
545.41	526.92
545.774	520.59
546.138	517.88
546.503	524.21
546.867	545.23
547.231	528.5
547.595	536.41
547.959	524.44
548.324	532.12
548.688	517.2
549.052	507.94
549.416	532.34
549.779	507.49
550.143	518.79
550.507	551.55
550.871	524.44
551.235	538.9
551.599	539.35
551.962	502.97
552.326	517.88
552.689	538.9
553.053	522.18
553.417	552.23
553.78	548.84
554.143	537.99
554.507	548.84
554.87	536.86
555.234	529.18
555.597	531.21
555.96	535.73
556.323	550.65
556.686	543.19
557.05	554.94
557.413	551.78
557.776	540.03
558.139	555.62
558.502	542.29
558.865	563.08
559.228	543.19
559.59	545.68
559.953	547.26
560.316	554.04
560.679	560.59
561.041	562.63
561.404	558.78
561.767	548.84
562.129	552.01
562.492	548.62
562.854	551.78
563.217	557.65
563.579	559.24
563.941	579.35
564.304	578.9
564.666	565.34
565.028	573.02
565.39	576.64
565.753	570.54
566.115	572.57
566.477	568.73
566.839	574.15
567.201	563.08
567.563	559.01
567.925	586.35
568.287	575.06
568.648	589.52
569.01	569.63
569.372	583.87
569.734	589.52
570.095	595.17
570.457	576.64
570.819	591.1
571.18	562.17
571.542	572.57
571.903	581.38
572.265	580.48
572.626	581.61
572.987	568.73
573.349	588.16
573.71	605.11
574.071	588.61
574.432	592.91
574.794	579.58
575.155	585.9
575.516	580.25
575.877	597.65
576.238	571.67
576.599	610.53
576.96	559.24
577.32	596.52
577.681	588.16
578.042	582.51
578.403	591.78
578.763	601.5
579.124	604.43
579.485	615.28
579.845	594.72
580.206	592
580.566	580.03
580.927	591.78
581.287	602.63
581.648	583.19
582.008	603.98
582.368	567.15
582.728	599.24
583.089	586.81
583.449	604.43
583.809	575.96
584.169	579.35
584.529	601.27
584.889	582.74
585.249	587.26
585.609	578.9
585.969	595.17
586.329	597.88
586.688	597.88
587.048	591.1
587.408	598.56
587.768	593.13
588.127	592.91
588.487	610.76
588.846	610.53
589.206	576.64
589.565	599.01
589.925	584.09
590.284	579.35
590.643	586.13
591.003	593.59
591.362	571.67
591.721	581.16
592.08	590.2
592.44	582.29
592.799	576.41
593.158	571.21
593.517	596.07
593.876	567.15
594.235	573.93
594.593	587.71
594.952	584.09
595.311	582.96
595.67	592.91
596.029	568.28
596.387	589.52
596.746	583.87
597.104	569.63
597.463	570.54
597.822	586.13
598.18	576.41
598.538	581.61
598.897	558.78
599.255	576.41
599.613	567.82
599.972	584.32
600.33	566.69
600.688	564.89
601.046	572.8
601.404	566.24
601.762	573.02
602.12	562.85
602.478	568.95
602.836	595.17
603.194	579.12
603.552	577.99
603.91	560.14
604.268	582.51
604.625	543.42
604.983	572.8
605.341	593.59
605.698	560.59
606.056	565.11
606.413	573.93
606.771	568.95
607.128	576.86
607.485	560.37
607.843	560.37
608.2	570.31
608.557	596.07
608.914	576.64
609.272	566.92
609.629	544.32
609.986	562.4
610.343	572.34
610.7	574.15
611.057	563.3
611.414	568.28
611.771	568.05
612.127	556.3
612.484	575.73
612.841	547.49
613.198	529.18
613.554	561.04
613.911	537.99
614.267	528.28
614.624	534.6
614.98	549.29
615.337	555.17
615.693	516.75
616.05	549.97
616.406	548.39
616.762	539.35
617.118	554.04
617.475	536.86
617.831	549.07
618.187	572.34
618.543	538.45
618.899	531.21
619.255	535.28
619.611	527.83
619.967	516.98
620.323	536.86
620.678	532.34
621.034	548.84
621.39	511.1
621.746	523.08
622.101	540.25
622.457	528.73
622.812	503.64
623.168	521.05
623.523	510.65
623.879	503.42
624.234	520.37
624.589	517.2
624.945	522.18
625.3	510.2
625.655	530.99
626.01	524.66
626.365	515.62
626.72	512.01
627.075	535.28
627.43	520.59
627.785	509.75
628.14	492.57
628.495	512.23
628.85	500.71
629.205	496.41
629.559	510.2
629.914	508.16
630.269	485.57
630.623	504.1
630.978	499.8
631.332	499.58
631.687	493.93
632.041	474.95
632.396	501.61
632.75	482.18
633.104	486.24
633.459	487.15
633.813	490.31
634.167	492.8
634.521	465.23
634.875	469.52
635.229	481.5
635.583	496.41
635.937	476.75
636.291	483.53
636.645	482.85
636.999	478.56
637.352	473.14
637.706	477.66
638.06	465.23
638.413	467.26
638.767	471.33
639.121	471.1
639.474	500.71
639.828	490.54
640.181	452.35
640.534	460.26
640.888	468.39
641.241	462.06
641.594	467.49
641.947	459.58
642.301	473.14
642.654	451.67
643.007	462.06
643.36	476.53
643.713	482.85
644.066	466.81
644.419	454.83
644.771	440.82
645.124	443.99
645.477	460.48
645.83	460.48
646.182	445.34
646.535	446.25
646.888	455.74
647.24	461.61
647.593	454.15
647.945	446.02
648.298	436.98
648.65	427.26
649.002	438.34
649.355	447.6
649.707	441.05
650.059	452.8
650.411	435.4
650.763	413.48
651.115	454.61
651.467	425.45
651.819	452.8
652.171	456.19
652.523	443.53
652.875	432.91
653.227	419.81
653.578	442.86
653.93	430.43
654.282	454.15
654.633	426.58
654.985	429.97
655.337	438.79
655.688	422.07
656.039	412.57
656.391	420.26
656.742	424.55
657.094	415.74
657.445	432.46
657.796	403.76
658.147	417.32
658.498	413.25
658.849	417.77
659.2	407.38
659.551	415.96
659.902	414.83
660.253	396.08
660.604	410.99
660.955	405.79
661.306	422.52
661.656	425.68
662.007	384.78
662.358	394.27
662.708	400.6
663.059	395.17
663.409	401.05
663.76	394.04
664.11	399.69
664.461	402.18
664.811	420.94
665.161	394.27
665.511	390.65
665.862	411.22
666.212	401.73
666.562	408.28
666.912	382.52
667.262	380.71
667.612	384.1
667.962	392.46
668.312	403.31
668.662	417.77
669.011	387.72
669.361	387.26
669.711	401.73
670.06	374.61
670.41	394.04
670.76	389.75
671.109	381.61
671.459	385.46
671.808	375.29
672.157	390.43
672.507	397.66
672.856	377.55
673.205	415.29
673.554	389.52
673.904	375.51
674.253	382.97
674.602	380.03
674.951	382.29
675.3	389.07
675.649	384.78
675.998	371.22
676.346	390.88
676.695	380.03
677.044	400.37
677.393	376.42
677.741	388.39
678.09	378
678.438	370.99
678.787	385.91
679.135	371.22
679.484	370.32
679.832	384.1
680.181	406.02
680.529	359.92
680.877	388.39
681.225	387.49
681.573	384.55
681.922	364.67
682.27	373.93
682.618	364.89
682.966	367.38
683.314	366.93
683.661	354.72
684.009	376.19
684.357	372.35
684.705	384.1
685.053	370.77
685.4	364.67
685.748	384.1
686.095	366.25
686.443	369.19
686.79	354.95
687.138	362.41
687.485	346.36
687.832	371.67
688.18	361.73
688.527	376.42
688.874	345.91
689.221	357.43
689.568	365.57
689.915	344.55
690.262	378.22
690.609	368.51
690.956	360.15
691.303	348.85
691.65	363.31
691.997	365.34
692.344	355.85
692.69	369.86
693.037	374.83
693.383	349.52
693.73	357.21
694.077	354.95
694.423	340.71
694.769	352.46
695.116	358.79
695.462	372.12
695.808	343.42
696.155	378.68
696.501	364.44
696.847	352.01
697.193	372.57
697.539	368.06
697.885	349.07
698.231	357.89
698.577	352.91
698.923	350.43
699.269	366.02
699.614	354.72
699.96	360.15
700.306	352.46
700.651	362.18
700.997	366.7
701.342	358.56
701.688	367.15
702.033	366.47
702.379	347.49
702.724	343.42
703.069	370.54
703.415	369.86
703.76	347.26
704.105	351.78
704.45	345.01
704.795	349.3
705.14	331.45
705.485	347.94
705.83	350.2
706.175	362.86
706.52	349.07
706.865	340.49
707.209	365.8
707.554	354.27
707.899	340.94
708.243	353.37
708.588	359.24
708.932	332.58
709.277	328.28
709.621	361.95
709.966	353.82
710.31	339.81
710.654	352.24
710.998	354.27
711.342	354.27
711.687	363.76
712.031	353.14
712.375	328.96
712.719	339.58
713.063	364.21
713.407	363.54
713.75	368.28
714.094	347.49
714.438	341.62
714.782	343.42
715.125	348.85
715.469	345.46
715.812	352.91
716.156	337.32
716.499	343.42
716.843	348.39
717.186	348.62
717.53	342.29
717.873	354.27
718.216	341.62
718.559	347.26
718.902	337.77
719.246	346.59
719.589	337.1
719.932	366.25
720.275	359.24
720.617	338.45
720.96	360.6
721.303	354.72
721.646	342.29
721.989	359.69
722.331	344.1
722.674	349.98
723.016	336.64
723.359	322.86
723.701	320.37
724.044	332.58
724.386	332.35
724.729	327.38
725.071	347.49
725.413	350.43
725.755	361.95
726.097	340.94
726.439	315.4
726.782	347.72
727.124	338.9
727.465	325.12
727.807	330.54
728.149	329.64
728.491	334.84
728.833	346.81
729.175	341.16
729.516	328.73
729.858	329.86
730.199	346.36
730.541	324.67
730.882	330.09
731.224	343.42
731.565	347.26
731.906	325.12
732.248	355.63
732.589	341.39
732.93	322.86
733.271	323.08
733.612	341.62
733.953	336.64
734.294	321.28
734.635	354.27
734.976	350.2
735.317	317.89
735.658	343.88
735.999	347.94
736.339	345.01
736.68	339.36
737.021	341.16
737.361	323.54
737.702	351.11
738.042	338.23
738.383	331.22
738.723	331.67
739.063	336.87
739.404	327.83
739.744	335.97
740.084	334.16
740.424	330.54
740.764	353.14
741.104	338.45
741.444	325.34
741.784	362.63
742.124	329.19
742.464	336.42
742.804	339.81
743.143	320.6
743.483	335.06
743.823	334.61
744.162	329.64
744.502	337.32
744.841	331.22
745.181	333.25
745.52	336.64
745.86	325.57
746.199	310.2
746.538	319.24
746.877	325.34
747.216	344.33
747.556	330.99
747.895	330.99
748.234	346.81
748.573	336.64
748.911	347.49
749.25	337.77
749.589	338.9
749.928	315.4
750.267	327.6
750.605	312.01
750.944	327.38
751.283	323.08
751.621	319.24
751.96	353.14
752.298	333.03
752.636	336.42
752.975	330.32
753.313	332.58
753.651	342.75
753.989	340.26
754.327	333.48
754.666	342.52
755.004	329.64
755.342	329.41
755.679	343.88
756.017	306.81
756.355	336.19
756.693	337.77
757.031	330.54
757.368	320.6
757.706	342.97
758.044	331.22
758.381	332.58
758.719	311.56
759.056	327.38
759.394	319.24
759.731	335.97
760.068	323.31
760.405	307.27
760.743	315.18
761.08	331.45
761.417	321.05
761.754	329.64
762.091	320.37
762.428	343.42
762.765	330.09
763.102	328.73
763.438	335.29
763.775	327.38
764.112	331.22
764.449	318.57
764.785	354.27
765.122	305.46
765.458	344.33
765.795	331.22
766.131	336.19
766.467	317.66
766.804	339.36
767.14	339.13
767.476	344.1
767.812	330.77
768.148	327.38
768.485	325.57
768.821	310.88
769.157	313.37
769.492	340.26
769.828	332.58
770.164	334.16
770.5	323.99
770.836	325.57
771.171	322.41
771.507	329.41
771.842	329.19
772.178	316.76
772.513	319.69
772.849	319.24
773.184	319.24
773.519	335.51
773.855	327.38
774.19	323.76
774.525	341.16
774.86	335.74
775.195	332.8
775.53	345.46
775.865	324.21
776.2	319.69
776.535	348.17
776.87	332.12
777.205	324.21
777.539	349.52
777.874	339.13
778.209	332.58
778.543	331.9
778.878	328.73
779.212	336.42
779.547	340.26
779.881	333.48
780.215	330.99
780.55	337.1
780.884	320.15
781.218	328.73
781.552	316.98
781.886	328.96
782.22	326.7
782.554	332.8
782.888	305.46
783.222	334.38
783.556	330.99
783.889	333.25
784.223	329.41
784.557	330.99
784.89	337.32
785.224	342.97
785.557	319.02
785.891	335.51
786.224	338.23
786.558	325.8
786.891	351.11
787.224	310.43
787.557	323.76
787.891	309.75
788.224	332.12
788.557	323.31
788.89	335.74
789.223	327.15
789.556	331.67
789.888	307.94
790.221	321.05
790.554	330.09
790.887	327.38
791.219	322.18
791.552	325.12
791.884	311.11
792.217	314.27
792.549	321.95
792.882	319.02
793.214	306.14
793.546	332.12
793.879	319.24
794.211	332.12
794.543	319.47
794.875	323.99
795.207	317.21
795.539	313.37
795.871	337.32
796.203	332.12
796.535	327.83
796.867	336.19
797.198	326.25
797.53	338.9
797.862	339.36
798.193	325.12
798.525	323.99
798.856	333.25
799.188	319.69
799.519	330.77
799.85	316.08
800.182	355.17
800.513	312.92
800.844	313.59
801.175	332.12
801.506	321.73
801.837	359.92
802.168	326.25
802.499	326.02
802.83	323.99
803.161	324.44
803.491	330.99
803.822	330.99
804.153	331.22
804.483	325.57
804.814	330.77
805.145	332.8
805.475	319.02
805.805	292.13
806.136	327.15
806.466	320.6
806.796	348.62
807.126	314.72
807.457	326.25
807.787	326.7
808.117	328.06
808.447	326.93
808.777	321.28
809.107	336.64
809.436	302.52
809.766	323.54
810.096	313.14
810.426	315.63
810.755	312.46
811.085	329.86
811.414	322.86
811.744	322.86
812.073	321.73
812.403	331.22
812.732	319.02
813.061	327.6
813.39	331.67
813.719	328.96
814.049	331.9
814.378	310.88
814.707	335.74
815.036	317.66
815.365	314.95
815.693	340.26
816.022	314.27
816.351	299.36
816.68	340.94
817.008	324.67
817.337	307.94
817.665	335.97
817.994	341.16
818.322	335.97
818.651	294.84
818.979	332.35
819.307	314.72
819.636	333.93
819.964	313.14
820.292	326.93
820.62	318.79
820.948	308.85
821.276	323.54
821.604	308.85
821.932	324.21
822.259	329.41
822.587	308.4
822.915	346.36
823.243	326.7
823.57	317.66
823.898	310.43
824.225	321.5
824.553	340.49
824.88	325.57
825.207	317.21
825.535	337.77
825.862	321.5
826.189	337.55
826.516	316.98
826.843	328.51
827.17	332.58
827.497	342.75
827.824	324.44
828.151	324.89
828.478	319.02
828.805	288.96
829.131	308.4
829.458	337.32
829.785	314.72
830.111	333.71
830.438	311.56
830.764	315.85
831.09	322.63
831.417	332.58
831.743	314.05
832.069	318.11
832.395	305.91
832.722	324.67
833.048	312.46
833.374	320.15
833.7	316.53
834.026	308.62
834.351	331.9
834.677	316.53
835.003	318.79
835.329	309.75
835.654	345.68
835.98	314.95
836.306	320.37
836.631	303.2
836.956	335.51
837.282	310.2
837.607	331.9
837.932	311.33
838.258	341.16
838.583	328.96
838.908	322.86
839.233	310.66
839.558	312.01
839.883	323.08
840.208	317.21
840.533	316.31
840.858	331.45
841.182	337.55
841.507	316.08
841.832	338.23
842.156	328.51
842.481	316.53
842.805	327.15
843.13	314.5
843.454	331.67
843.778	309.75
844.103	330.32
844.427	328.96
844.751	321.73
845.075	308.17
845.399	311.79
845.723	313.14
846.047	298.68
846.371	311.79
846.695	322.18
847.019	334.84
847.343	316.76
847.666	325.34
847.99	324.89
848.313	319.69
848.637	331.22
848.96	328.73
849.284	304.78
849.607	323.31
849.931	332.12
850.254	330.54
850.577	333.93
850.9	340.71
851.223	329.19
851.546	314.72
851.869	326.7
852.192	325.57
852.515	326.93
852.838	330.09
853.161	322.41
853.483	321.05
853.806	313.37
854.129	330.09
854.451	318.34
854.774	339.13
855.096	330.99
855.419	307.27
855.741	315.63
856.063	327.15
856.385	334.16
856.708	317.21
857.03	319.92
857.352	312.92
857.674	338
857.996	333.71
858.318	319.24
858.64	323.99
858.961	333.71
859.283	318.79
859.605	341.39
859.926	312.24
860.248	333.25
860.57	344.55
860.891	317.89
861.212	328.73
861.534	323.31
861.855	316.53
862.176	322.41
862.498	315.4
862.819	309.75
863.14	326.7
863.461	327.6
863.782	333.48
864.103	307.04
864.424	324.21
864.745	322.41
865.065	329.86
865.386	341.39
865.707	313.37
866.027	335.06
866.348	290.32
866.668	307.27
866.989	343.42
867.309	312.01
867.63	321.95
867.95	317.66
868.27	326.02
868.59	305.68
868.91	328.28
869.23	330.54
869.55	320.82
869.87	309.3
870.19	313.14
870.51	337.32
870.83	328.06
871.15	325.34
871.469	335.29
871.789	313.14
872.109	302.29
872.428	320.6
872.748	308.85
873.067	335.74
873.386	312.92
873.706	318.11
874.025	318.11
874.344	321.95
874.663	314.05
874.982	312.01
875.301	316.53
875.62	322.86
875.939	321.73
876.258	342.29
876.577	311.79
876.896	326.93
877.214	325.8
877.533	325.8
877.852	318.57
878.17	322.86
878.489	323.08
878.807	305.23
879.125	321.05
879.444	312.69
879.762	308.17
880.08	317.89
880.398	317.44
880.716	304.1
881.034	328.73
881.352	328.73
881.67	305.68
881.988	308.62
882.306	338.68
882.624	303.2
882.941	336.19
883.259	335.51
883.577	309.07
883.894	323.54
884.212	323.54
884.529	316.98
884.846	312.69
885.164	311.79
885.481	326.93
885.798	315.85
886.115	340.03
886.432	311.56
886.75	318.11
887.067	321.5
887.383	323.08
887.7	311.11
888.017	301.16
888.334	319.69
888.651	341.16
888.967	329.41
889.284	316.08
889.6	303.65
889.917	327.83
890.233	328.73
890.55	324.21
890.866	322.41
891.182	336.19
891.498	319.47
891.815	308.4
892.131	306.59
892.447	328.73
892.763	317.44
893.079	313.59
893.395	325.12
893.71	330.99
894.026	312.01
894.342	312.69
894.657	329.86
894.973	318.79
895.289	313.59
895.604	328.51
895.92	311.33
896.235	331.9
896.55	302.97
896.865	336.19
897.181	340.94
897.496	326.7
897.811	319.69
898.126	311.33
898.441	296.87
898.756	318.79
899.071	310.43
899.386	324.44
899.7	299.36
900.015	305.01
900.33	314.27
900.644	330.54
900.959	329.41
901.273	323.99
901.588	329.86
901.902	306.14
902.216	326.93
902.531	343.65
902.845	317.21
903.159	317.66
903.473	319.47
903.787	330.99
904.101	324.67
904.415	313.59
904.729	324.89
905.042	321.73
905.356	312.01
905.67	312.01
905.984	316.53
906.297	327.83
906.611	314.27
906.924	334.61
907.237	313.14
907.551	299.36
907.864	314.27
908.177	321.28
908.491	328.51
908.804	317.21
909.117	305.01
909.43	314.95
909.743	319.47
910.056	323.99
910.368	333.48
910.681	325.8
910.994	330.77
911.307	326.47
911.619	301.84
911.932	315.85
912.244	305.91
912.557	312.69
912.869	308.62
913.181	337.32
913.494	326.02
913.806	308.85
914.118	330.32
914.43	316.53
914.742	298.45
915.054	333.71
915.366	311.79
915.678	319.47
915.99	316.98
916.302	329.64
916.613	326.47
916.925	304.33
917.236	330.54
917.548	316.08
917.859	288.06
918.171	324.44
918.482	310.66
918.794	308.85
919.105	323.54
919.416	331.45
919.727	312.01
920.038	315.4
920.349	307.27
920.66	317.21
920.971	319.47
921.282	302.07
921.593	329.19
921.903	303.65
922.214	296.42
922.525	320.82
922.835	303.88
923.146	318.11
923.456	309.07
923.767	314.72
924.077	313.37
924.387	325.12
924.697	307.94
925.008	319.92
925.318	318.79
925.628	333.71
925.938	326.02
926.248	332.35
926.558	313.37
926.867	316.53
927.177	303.2
927.487	322.18
927.796	312.92
928.106	309.98
928.416	295.06
928.725	330.54
929.034	303.2
929.344	319.92
929.653	288.28
929.962	324.67
930.271	316.08
930.581	320.6
930.89	305.91
931.199	309.53
931.508	313.82
931.817	332.12
932.125	316.53
932.434	318.79
932.743	320.37
933.051	310.2
933.36	304.78
933.669	319.24
933.977	308.17
934.286	319.47
934.594	312.92
934.902	321.95
935.21	333.71
935.519	310.66
935.827	304.33
936.135	311.11
936.443	312.69
936.751	309.98
937.059	325.34
937.367	333.93
937.674	309.53
937.982	330.32
938.29	300.71
938.597	326.47
938.905	327.15
939.213	318.79
939.52	304.33
939.827	343.2
940.135	322.41
940.442	312.69
940.749	321.73
941.056	322.63
941.363	336.87
941.67	312.69
941.977	324.89
942.284	324.21
942.591	335.51
942.898	311.56
943.205	322.18
943.511	324.44
943.818	301.39
944.125	323.76
944.431	330.54
944.738	305.23
945.044	320.37
945.35	325.8
945.657	321.05
945.963	323.31
946.269	306.14
946.575	310.43
946.881	313.82
947.187	312.24
947.493	322.63
947.799	334.38
948.105	295.06
948.41	330.54
948.716	322.86
949.022	314.72
949.327	326.25
949.633	320.82
949.938	309.07
950.244	336.19
950.549	305.01
950.854	289.19
951.16	319.47
951.465	343.88
951.77	302.75
952.075	318.57
952.38	330.54
952.685	316.76
952.99	307.27
953.294	289.19
953.599	321.95
953.904	308.62
954.209	326.47
954.513	317.66
954.818	325.57
955.122	325.34
955.426	318.11
955.731	310.43
956.035	312.69
956.339	336.19
956.643	307.72
956.948	323.76
957.252	311.56
957.556	333.25
957.86	304.33
958.163	313.82
958.467	309.3
958.771	312.01
959.075	323.54
959.378	308.4
959.682	319.69
959.985	336.19
960.289	301.39
960.592	322.86
960.896	312.24
961.199	317.21
961.502	330.32
961.805	313.59
962.108	300.26
962.411	320.82
962.714	316.98
963.017	314.72
963.32	302.07
963.623	309.07
963.926	316.31
964.228	314.95
964.531	330.99
964.833	311.11
965.136	316.98
965.438	324.21
965.741	311.33
966.043	312.46
966.345	298
966.648	302.07
966.95	309.53
967.252	313.82
967.554	307.94
967.856	318.79
968.158	306.81
968.46	327.38
968.761	309.07
969.063	317.89
969.365	315.4
969.666	329.19
969.968	319.92
970.269	319.02
970.571	330.77
970.872	317.66
971.174	312.69
971.475	300.49
971.776	327.6
972.077	315.63
972.378	308.62
972.679	298.9
972.98	326.47
973.281	314.5
973.582	305.46
973.883	321.05
974.183	312.46
974.484	318.57
974.785	312.24
975.085	328.73
975.386	316.76
975.686	324.44
975.986	333.93
976.287	315.85
976.587	313.59
976.887	341.39
977.187	319.47
977.487	324.67
977.787	334.61
978.087	306.59
978.387	297.1
978.687	328.51
978.987	309.75
979.286	316.31
979.586	312.46
979.885	321.5
980.185	314.05
980.484	326.02
980.784	325.8
981.083	298.9
981.382	317.66
981.682	313.37
981.981	333.71
982.28	346.36
982.579	316.31
982.878	306.59
983.177	324.21
983.475	305.46
983.774	314.72
984.073	323.54
984.372	302.07
984.67	314.05
984.969	319.69
985.267	312.24
985.566	309.75
985.864	333.93
986.162	306.81
986.461	320.6
986.759	305.23
987.057	321.5
987.355	332.58
987.653	305.91
987.951	305.91
988.249	307.27
988.547	296.19
988.844	317.66
989.142	319.02
989.44	330.99
989.737	314.27
990.035	321.95
990.332	316.08
990.63	328.51
990.927	302.75
991.224	311.79
991.521	309.07
991.819	303.65
992.116	320.37
992.413	322.18
992.71	306.14
993.006	319.69
993.303	313.59
993.6	329.86
993.897	312.69
994.193	326.25
994.49	322.63
994.787	320.15
995.083	323.99
995.379	328.28
995.676	307.94
995.972	307.04
996.268	305.01
996.565	318.57
996.861	317.44
997.157	308.62
997.453	305.91
997.749	307.27
998.044	294.38
998.34	326.93
998.636	320.6
998.932	324.21
999.227	303.2
999.523	319.92
999.818	309.75
1000.114	313.14
1000.409	304.1
1000.704	319.24
1001	302.07
1001.295	328.51
1001.59	301.62
1001.885	324.89
1002.18	315.63
1002.475	307.72
1002.77	310.43
1003.065	291.45
1003.359	327.83
1003.654	296.19
1003.949	332.35
1004.243	313.14
1004.538	301.39
1004.832	306.36
1005.127	309.07
1005.421	319.69
1005.715	321.73
1006.009	310.88
1006.304	321.05
1006.598	318.79
1006.892	313.37
1007.186	316.53
1007.48	316.31
1007.773	320.15
1008.067	314.72
1008.361	313.59
1008.655	314.05
1008.948	313.59
1009.242	307.04
1009.535	308.17
1009.829	299.13
1010.122	343.42
1010.415	288.28
1010.708	319.47
1011.001	319.47
1011.295	317.66
1011.588	317.89
1011.881	310.43
1012.173	315.18
1012.466	328.28
1012.759	306.59
1013.052	313.59
1013.344	312.24
1013.637	346.81
1013.93	326.25
1014.222	317.44
1014.514	323.31
1014.807	307.04
1015.099	305.46
1015.391	326.25
1015.683	313.59
1015.976	334.61
1016.268	315.18
1016.56	311.33
1016.851	325.57
1017.143	305.23
1017.435	312.92
1017.727	312.92
1018.018	323.08
1018.31	315.18
1018.602	306.36
1018.893	312.92
1019.185	323.54
1019.476	311.79
1019.767	298.68
1020.058	309.75
1020.35	311.56
1020.641	311.33
1020.932	319.24
1021.223	314.05
1021.514	322.18
1021.804	313.14
1022.095	319.02
1022.386	317.21
1022.677	328.06
1022.967	289.41
1023.258	312.92
1023.548	324.21
1023.839	302.29
1024.129	305.68
1024.419	309.07
1024.709	329.19
1025	335.74
1025.29	301.84
1025.58	298.23
1025.87	308.4
1026.16	295.97
1026.449	320.82
1026.739	305.91
1027.029	326.47
1027.319	330.09
1027.608	323.08
1027.898	315.18
1028.187	322.63
1028.477	321.05
1028.766	296.19
1029.055	322.86
1029.344	306.36
1029.634	300.94
1029.923	320.37
1030.212	326.25
1030.501	299.81
1030.79	339.36
1031.078	323.99
1031.367	314.05
1031.656	314.72
1031.945	323.08
1032.233	304.55
1032.522	314.72
1032.81	309.3
1033.099	320.37
1033.387	299.58
1033.675	317.66
1033.963	312.01
1034.251	346.81
1034.54	316.76
1034.828	311.79
1035.116	322.41
1035.403	321.28
1035.691	317.21
1035.979	335.74
1036.267	317.21
1036.554	297.1
1036.842	302.29
1037.129	314.27
1037.417	298.45
1037.704	329.41
1037.992	307.72
1038.279	313.37
1038.566	311.11
1038.853	311.11
1039.14	311.11
