Data from No_light_on_white_reflection_standard_FLMS001491_060.txt Node
Date: Tue Feb 07 10:33:04 GMT 2017
User: dcchb
Spectrometer: FLMS00149
Trigger mode: 0
Integration Time (sec): 2.000000E-2
Scans to average: 10
Electric dark correction enabled: true
Nonlinearity correction enabled: false
Boxcar width: 0
XAxis mode: Wavelengths
Number of Pixels in Spectrum: 2048
>>>>>Begin Spectral Data<<<<<
341.393	-10.4
341.776	-10.4
342.16	-10.4
342.543	-49.04
342.927	-61.24
343.31	-91.3
343.693	-63.73
344.077	-60.79
344.46	-65.53
344.843	-63.05
345.226	-40.9
345.61	-19.66
345.993	-2.49
346.376	-22.6
346.759	26.67
347.142	54.01
347.525	42.48
347.908	41.13
348.291	65.31
348.674	96.49
349.057	103.95
349.44	140.34
349.823	125.87
350.206	165.42
350.588	150.05
350.971	184.85
351.354	190.96
351.737	192.76
352.119	229.15
352.502	237.51
352.884	260.11
353.267	255.36
353.65	270.5
354.032	263.04
354.414	272.31
354.797	272.54
355.179	304.17
355.562	292.65
355.944	278.64
356.326	289.03
356.709	295.36
357.091	300.11
357.473	300.78
357.855	312.08
358.238	294
358.62	323.38
359.002	315.02
359.384	296.49
359.766	309.6
360.148	300.56
360.53	308.01
360.912	297.62
361.294	314.34
361.676	308.01
362.057	306.66
362.439	300.11
362.821	275.7
363.203	300.56
363.584	285.42
363.966	291.29
364.348	258.98
364.729	280.67
365.111	277.28
365.493	304.62
365.874	301.24
366.256	275.47
366.637	294.23
367.019	272.76
367.4	286.55
367.781	271.18
368.163	265.3
368.544	281.35
368.925	265.76
369.306	284.74
369.688	263.5
370.069	258.75
370.45	286.77
370.831	281.57
371.212	275.25
371.593	285.64
371.974	267.11
372.355	265.3
372.736	272.76
373.117	271.18
373.498	251.52
373.879	265.53
374.26	287
374.641	270.95
375.021	277.73
375.402	284.06
375.783	263.95
376.163	275.47
376.544	290.16
376.925	283.38
377.305	261.91
377.686	284.96
378.066	292.42
378.447	283.83
378.827	268.92
379.208	288.13
379.588	280.67
379.968	282.03
380.349	281.8
380.729	286.32
381.109	279.31
381.489	283.16
381.87	304.62
382.25	264.63
382.63	280.44
383.01	281.8
383.39	277.73
383.77	295.13
384.15	310.5
384.53	293.1
384.91	286.09
385.29	311.63
385.67	302.14
386.049	302.36
386.429	289.03
386.809	305.53
387.189	307.34
387.568	296.04
387.948	289.48
388.328	284.06
388.707	299.43
389.087	283.83
389.466	301.69
389.846	278.18
390.225	306.43
390.605	305.53
390.984	293.55
391.363	284.29
391.743	305.75
392.122	299.2
392.501	282.48
392.881	274.12
393.26	283.16
393.639	294.68
394.018	283.61
394.397	293.55
394.776	278.64
395.155	301.46
395.534	289.03
395.913	303.27
396.292	308.24
396.671	287.9
397.05	282.93
397.429	285.64
397.808	298.98
398.186	279.99
398.565	288.58
398.944	304.62
399.323	309.82
399.701	294.46
400.08	276.6
400.458	314.57
400.837	297.17
401.215	309.37
401.594	294.68
401.972	300.78
402.351	290.39
402.729	295.36
403.107	279.77
403.486	280.67
403.864	309.37
404.242	294.68
404.62	312.99
404.999	310.95
405.377	266.89
405.755	301.24
406.133	295.13
406.511	301.91
406.889	292.42
407.267	296.49
407.645	296.26
408.023	293.1
408.401	295.36
408.779	299.65
409.156	317.96
409.534	305.98
409.912	280.44
410.29	300.78
410.667	303.04
411.045	305.08
411.422	315.92
411.8	314.57
412.178	311.18
412.555	314.34
412.933	314.57
413.31	307.34
413.687	322.25
414.065	298.07
414.442	288.13
414.819	299.2
415.197	315.92
415.574	284.06
415.951	291.97
416.328	319.09
416.705	316.83
417.082	295.13
417.46	297.62
417.837	312.31
418.214	301.01
418.591	302.59
418.967	313.21
419.344	315.02
419.721	310.5
420.098	310.95
420.475	290.16
420.852	304.62
421.228	292.65
421.605	305.53
421.982	294.23
422.358	308.24
422.735	312.31
423.111	312.08
423.488	304.62
423.864	308.01
424.241	312.99
424.617	307.56
424.994	315.02
425.37	321.57
425.746	322.7
426.123	314.34
426.499	307.11
426.875	314.79
427.251	317.51
427.627	322.48
428.003	300.11
428.379	302.14
428.756	319.31
429.132	301.24
429.507	312.76
429.883	303.04
430.259	308.92
430.635	319.54
431.011	319.31
431.387	323.61
431.763	326.55
432.138	303.72
432.514	321.57
432.89	329.03
433.265	318.64
433.641	305.3
434.016	330.39
434.392	333.55
434.767	305.3
435.143	328.58
435.518	347.34
435.894	327.45
436.269	304.17
436.644	318.41
437.02	322.93
437.395	328.58
437.77	313.21
438.145	304.4
438.52	322.03
438.895	317.05
439.271	328.35
439.646	335.36
440.021	324.96
440.395	338.07
440.77	343.95
441.145	343.49
441.52	336.94
441.895	334.23
442.27	347.34
442.645	306.21
443.019	328.35
443.394	327
443.769	338.97
444.143	350.95
444.518	340.1
444.892	340.1
445.267	359.54
445.641	376.71
446.016	362.48
446.39	354.11
446.764	355.24
447.139	354.79
447.513	355.92
447.887	335.36
448.262	357.96
448.636	367
449.01	369.03
449.384	343.27
449.758	361.12
450.132	350.27
450.506	364.74
450.88	371.74
451.254	366.77
451.628	367.67
452.002	361.12
452.376	379.43
452.75	372.19
453.123	366.54
453.497	364.51
453.871	360.89
454.244	380.1
454.618	360.89
454.992	364.28
455.365	376.26
455.739	375.36
456.112	366.77
456.486	366.32
456.859	361.57
457.232	359.31
457.606	377.84
457.979	361.8
458.352	339.43
458.725	375.58
459.099	373.78
459.472	364.74
459.845	377.39
460.218	362.93
460.591	355.02
460.964	363.61
461.337	362.7
461.71	354.57
462.083	355.02
462.456	355.47
462.829	358.18
463.201	366.54
463.574	347.56
463.947	350.95
464.32	349.82
464.692	339.2
465.065	348.47
465.438	367.9
465.81	333.1
466.183	343.95
466.555	359.09
466.928	367.22
467.3	352.53
467.672	356.83
468.045	346.88
468.417	347.79
468.789	330.84
469.161	373.78
469.534	348.01
469.906	354.11
470.278	348.24
470.65	343.27
471.022	371.74
471.394	348.47
471.766	351.18
472.138	367.22
472.51	353.21
472.882	351.63
473.253	357.96
473.625	355.92
473.997	386.88
474.369	354.57
474.74	326.32
475.112	358.86
475.484	328.8
475.855	378.52
476.227	358.18
476.598	350.27
476.97	336.26
477.341	336.26
477.713	351.18
478.084	357.96
478.455	365.64
478.827	334.91
479.198	345.98
479.569	379.2
479.94	352.99
480.311	337.39
480.682	346.66
481.053	336.04
481.424	362.48
481.795	362.7
482.166	350.95
482.537	357.96
482.908	357.96
483.279	349.14
483.65	345.53
484.021	354.34
484.391	355.24
484.762	367.45
485.133	359.76
485.503	364.74
485.874	363.61
486.244	363.61
486.615	370.84
486.985	369.03
487.356	373.78
487.726	369.48
488.097	355.02
488.467	354.57
488.837	352.76
489.207	364.74
489.578	373.78
489.948	373.78
490.318	382.14
490.688	363.61
491.058	395.92
491.428	389.82
491.798	372.87
492.168	380.78
492.538	376.49
492.908	375.58
493.278	407.45
493.648	380.33
494.017	362.02
494.387	386.43
494.757	382.81
495.126	404.28
495.496	382.81
495.866	400.22
496.235	393.44
496.605	390.5
496.974	391.63
497.344	383.27
497.713	397.28
498.082	383.72
498.452	400.89
498.821	380.1
499.19	387.11
499.559	384.4
499.928	406.77
500.298	401.35
500.667	390.95
501.036	412.42
501.405	386.2
501.774	393.21
502.143	412.42
502.512	419.88
502.88	395.47
503.249	414.9
503.618	430.5
503.987	414.9
504.356	417.84
504.724	412.42
505.093	421.46
505.462	419.42
505.83	408.8
506.199	438.86
506.567	429.14
506.936	425.98
507.304	436.6
507.672	423.04
508.041	429.59
508.409	417.16
508.777	433.89
509.145	446.09
509.514	431.18
509.882	435.92
510.25	428.24
510.618	434.79
510.986	423.27
511.354	426.66
511.722	419.88
512.09	423.72
512.458	471.85
512.826	439.54
513.193	433.43
513.561	445.19
513.929	473.89
514.297	436.15
514.664	469.59
515.032	429.59
515.4	444.06
515.767	434.79
516.135	446.32
516.502	452.64
516.869	451.29
517.237	445.19
517.604	460.78
517.972	456.03
518.339	438.41
518.706	436.82
519.073	467.11
519.44	414
519.808	451.29
520.175	465.75
520.542	474.34
520.909	456.94
521.276	462.36
521.643	467.11
522.009	477.95
522.376	464.39
522.743	472.08
523.11	493.77
523.477	475.92
523.843	480.67
524.21	461.23
524.577	470.72
524.943	475.47
525.31	485.86
525.676	506.88
526.043	479.08
526.409	488.8
526.776	481.12
527.142	459.65
527.508	489.25
527.874	495.13
528.241	486.99
528.607	489.93
528.973	488.57
529.339	507.11
529.705	502.81
530.071	501.68
530.437	487.67
530.803	511.4
531.169	477.95
531.535	503.49
531.901	495.13
532.267	481.57
532.632	509.82
532.998	491.29
533.364	498.97
533.73	500.1
534.095	476.6
534.461	485.86
534.826	497.39
535.192	492.87
535.557	525.86
535.923	497.39
536.288	504.85
536.653	510.72
537.019	510.72
537.384	498.52
537.749	504.85
538.114	516.37
538.479	515.01
538.845	494.22
539.21	506.65
539.575	502.36
539.94	513.66
540.305	495.13
540.67	512.3
541.034	509.82
541.399	524.73
541.764	538.74
542.129	529.25
542.494	538.06
542.858	512.3
543.223	525.41
543.587	531.51
543.952	510.95
544.316	510.27
544.681	508.01
545.045	546.43
545.41	508.24
545.774	535.81
546.138	536.48
546.503	525.18
546.867	526.54
547.231	520.66
547.595	530.83
547.959	511.85
548.324	541.91
548.688	534.9
549.052	543.26
549.416	536.48
549.779	528.8
550.143	528.12
550.507	528.8
550.871	528.35
551.235	513.43
551.599	529.25
551.962	533.09
552.326	540.1
552.689	529.48
553.053	530.16
553.417	508.01
553.78	543.71
554.143	532.19
554.507	535.13
554.87	526.99
555.234	544.84
555.597	536.48
555.96	544.17
556.323	547.1
556.686	530.83
557.05	538.74
557.413	548.91
557.776	546.88
558.139	537.84
558.502	551.17
558.865	552.98
559.228	556.37
559.59	554.79
559.953	555.92
560.316	549.36
560.679	567.67
561.041	564.05
561.404	584.62
561.767	584.39
562.129	551.4
562.492	540.78
562.854	568.8
563.217	568.8
563.579	557.95
563.941	562.92
564.304	545.3
564.666	561.79
565.028	563.83
565.39	564.73
565.753	569.93
566.115	567.89
566.477	588.23
566.839	560.44
567.201	572.87
567.563	582.36
567.925	569.48
568.287	572.64
568.648	566.31
569.01	585.07
569.372	558.4
569.734	570.61
570.095	564.73
570.457	592.3
570.819	566.31
571.18	587.56
571.542	572.41
571.903	574.67
572.265	565.63
572.626	583.04
572.987	589.14
573.349	571.06
573.71	572.87
574.071	592.75
574.432	583.71
574.794	585.97
575.155	609.48
575.516	590.49
575.877	583.26
576.238	576.26
576.599	583.04
576.96	581.23
577.32	580.78
577.681	609.25
578.042	573.32
578.403	585.97
578.763	588.01
579.124	595.69
579.485	582.36
579.845	568.12
580.206	593.43
580.566	600.66
580.927	590.49
581.287	573.32
581.648	581.68
582.008	590.04
582.368	584.62
582.728	584.17
583.089	598.63
583.449	588.69
583.809	577.84
584.169	589.36
584.529	576.71
584.889	580.78
585.249	603.6
585.609	562.92
585.969	587.1
586.329	580.78
586.688	610.38
587.048	597.95
587.408	579.19
587.768	581
588.127	559.76
588.487	585.75
588.846	614.22
589.206	574.45
589.565	567.89
589.925	609.93
590.284	590.94
590.643	587.1
591.003	599.53
591.362	586.43
591.721	576.03
592.08	575.35
592.44	591.17
592.799	572.19
593.158	593.43
593.517	584.39
593.876	572.87
594.235	597.05
594.593	580.1
594.952	568.35
595.311	585.3
595.67	585.52
596.029	578.52
596.387	564.96
596.746	583.49
597.104	578.06
597.463	582.58
597.822	591.62
598.18	568.57
598.538	564.5
598.897	585.97
599.255	575.13
599.613	572.64
599.972	560.44
600.33	602.02
600.688	567.67
601.046	593.2
601.404	573.77
601.762	582.13
602.12	571.96
602.478	570.83
602.836	562.47
603.194	580.1
603.552	579.65
603.91	586.65
604.268	564.73
604.625	583.49
604.983	581.45
605.341	576.03
605.698	548.91
606.056	558.4
606.413	549.36
606.771	585.75
607.128	566.31
607.485	581.91
607.843	536.48
608.2	587.1
608.557	566.09
608.914	578.52
609.272	560.44
609.629	571.51
609.986	543.94
610.343	544.62
610.7	563.15
611.057	567.89
611.414	549.59
611.771	547.33
612.127	566.54
612.484	551.4
612.841	558.18
613.198	539.42
613.554	537.84
613.911	566.09
614.267	537.61
614.624	551.85
614.98	554.56
615.337	541.23
615.693	562.02
616.05	537.61
616.406	554.34
616.762	539.42
617.118	522.25
617.475	535.81
617.831	534.68
618.187	547.1
618.543	532.42
618.899	523.15
619.255	542.13
619.611	536.26
619.967	524.05
620.323	534
620.678	526.31
621.034	519.99
621.39	523.15
621.746	534.68
622.101	546.65
622.457	530.38
622.812	512.08
623.168	529.93
623.523	537.39
623.879	500.33
624.234	534.9
624.589	534.45
624.945	516.82
625.3	518.18
625.655	540.1
626.01	523.6
626.365	538.74
626.72	508.01
627.075	513.66
627.43	521.12
627.785	521.79
628.14	501.91
628.495	521.34
628.85	519.53
629.205	493.77
629.559	495.35
629.914	508.69
630.269	496.94
630.623	508.69
630.978	508.69
631.332	501.68
631.687	515.92
632.041	491.51
632.396	494.45
632.75	517.95
633.104	507.33
633.459	486.77
633.813	486.99
634.167	487.22
634.521	481.57
634.875	491.96
635.229	477.05
635.583	463.72
635.937	480.21
636.291	478.18
636.645	479.31
636.999	467.56
637.352	498.07
637.706	460.78
638.06	458.52
638.413	470.04
638.767	476.6
639.121	487.22
639.474	478.41
639.828	472.53
640.181	463.04
640.534	466.88
640.888	460.33
641.241	444.06
641.594	477.73
641.947	485.41
642.301	470.5
642.654	478.41
643.007	450.61
643.36	468.24
643.713	449.93
644.066	450.61
644.419	476.82
644.771	459.42
645.124	481.12
645.477	463.94
645.83	459.87
646.182	439.08
646.535	446.32
646.888	438.86
647.24	452.42
647.593	440.44
647.945	435.69
648.298	429.37
648.65	443.15
649.002	419.65
649.355	464.85
649.707	418.97
650.059	421.68
650.411	435.24
650.763	430.95
651.115	419.2
651.467	419.65
651.819	441.8
652.171	452.64
652.523	459.42
652.875	416.71
653.227	414.9
653.578	445.86
653.93	416.94
654.282	415.58
654.633	439.76
654.985	411.29
655.337	429.14
655.688	415.58
656.039	442.25
656.391	420.1
656.742	424.85
657.094	413.1
657.445	427.56
657.796	414.45
658.147	412.19
658.498	410.84
658.849	408.12
659.2	422.59
659.551	430.05
659.902	407.9
660.253	406.54
660.604	387.33
660.955	438.86
661.306	398.86
661.656	387.79
662.007	412.19
662.358	411.29
662.708	417.62
663.059	414.68
663.409	422.59
663.76	392.31
664.11	412.42
664.461	398.63
664.811	387.33
665.161	409.48
665.511	396.6
665.862	408.35
666.212	374.45
666.562	374
666.912	388.01
667.262	406.32
667.612	377.39
667.962	414
668.312	398.18
668.662	390.5
669.011	412.87
669.361	415.13
669.711	400.67
670.06	403.15
670.41	400.67
670.76	383.27
671.109	388.92
671.459	396.15
671.808	396.6
672.157	397.5
672.507	392.08
672.856	366.09
673.205	395.47
673.554	397.28
673.904	376.94
674.253	380.78
674.602	366.77
674.951	406.32
675.3	371.52
675.649	370.16
675.998	382.14
676.346	380.33
676.695	389.59
677.044	385.07
677.393	382.36
677.741	367.9
678.09	391.18
678.438	384.62
678.787	385.98
679.135	376.26
679.484	387.33
679.832	378.52
680.181	362.7
680.529	378.75
680.877	378.75
681.225	362.02
681.573	380.78
681.922	381.01
682.27	372.87
682.618	397.96
682.966	378.3
683.314	361.57
683.661	353.89
684.009	377.39
684.357	362.25
684.705	355.7
685.053	364.28
685.4	357.73
685.748	374.23
686.095	371.29
686.443	354.11
686.79	369.48
687.138	359.09
687.485	372.87
687.832	378.07
688.18	372.65
688.527	364.74
688.874	360.22
689.221	371.06
689.568	363.15
689.915	359.09
690.262	376.71
690.609	368.13
690.956	376.71
691.303	369.71
691.65	372.65
691.997	366.54
692.344	354.57
692.69	351.4
693.037	345.08
693.383	365.41
693.73	348.47
694.077	361.35
694.423	352.99
694.769	350.95
695.116	344.4
695.462	364.06
695.808	343.72
696.155	340.56
696.501	347.56
696.847	365.19
697.193	357.05
697.539	365.64
697.885	341.69
698.231	368.58
698.577	355.47
698.923	345.3
699.269	348.24
699.614	374.23
699.96	357.96
700.306	370.84
700.651	333.55
700.997	368.13
701.342	337.62
701.688	344.17
702.033	360.22
702.379	360.67
702.724	343.04
703.069	338.52
703.415	353.66
703.76	356.6
704.105	349.37
704.45	349.82
704.795	326.32
705.14	342.36
705.485	352.31
705.83	354.79
706.175	352.99
706.52	338.75
706.865	361.35
707.209	340.78
707.554	363.15
707.899	353.21
708.243	345.98
708.588	358.41
708.932	331.29
709.277	337.62
709.621	344.85
709.966	354.11
710.31	355.7
710.654	346.43
710.998	348.01
711.342	364.51
711.687	329.26
712.031	344.4
712.375	357.28
712.719	352.53
713.063	346.21
713.407	343.72
713.75	329.03
714.094	350.95
714.438	336.26
714.782	322.93
715.125	333.32
715.469	344.62
715.812	321.35
716.156	335.36
716.499	345.3
716.843	364.28
717.186	356.83
717.53	335.81
717.873	338.75
718.216	344.85
718.559	348.92
718.902	333.1
719.246	348.69
719.589	341.91
719.932	314.34
720.275	309.14
720.617	329.26
720.96	334.68
721.303	330.61
721.646	349.37
721.989	310.05
722.331	326.77
722.674	331.06
723.016	344.85
723.359	331.29
723.701	330.39
724.044	338.07
724.386	348.24
724.729	339.43
725.071	329.26
725.413	326.77
725.755	337.17
726.097	336.49
726.439	342.59
726.782	309.6
727.124	328.58
727.465	330.84
727.807	333.1
728.149	340.56
728.491	334.23
728.833	333.1
729.175	341.69
729.516	345.75
729.858	351.18
730.199	334.91
730.541	327
730.882	338.75
731.224	326.32
731.565	330.16
731.906	324.51
732.248	327
732.589	331.74
732.93	322.25
733.271	345.98
733.612	349.14
733.953	338.75
734.294	328.35
734.635	327.68
734.976	343.72
735.317	310.73
735.658	335.36
735.999	346.21
736.339	337.39
736.68	324.06
737.021	341.69
737.361	337.39
737.702	345.08
738.042	331.74
738.383	334.45
738.723	319.31
739.063	344.62
739.404	340.78
739.744	330.84
740.084	333.55
740.424	345.08
740.764	336.94
741.104	340.33
741.444	344.85
741.784	320.22
742.124	340.78
742.464	345.08
742.804	322.03
743.143	341.91
743.483	337.17
743.823	319.77
744.162	333.78
744.502	328.8
744.841	347.79
745.181	340.33
745.52	326.09
745.86	335.36
746.199	331.52
746.538	338.52
746.877	347.79
747.216	318.64
747.556	316.83
747.895	337.62
748.234	334
748.573	319.77
748.911	338.97
749.25	339.65
749.589	340.1
749.928	329.03
750.267	333.78
750.605	328.58
750.944	336.71
751.283	326.09
751.621	337.39
751.96	347.11
752.298	327
752.636	328.58
752.975	309.37
753.313	338.97
753.651	341.69
753.989	331.29
754.327	345.75
754.666	328.58
755.004	336.04
755.342	333.1
755.679	320.67
756.017	321.35
756.355	318.86
756.693	314.12
757.031	333.78
757.368	327.9
757.706	354.57
758.044	334.91
758.381	309.37
758.719	350.05
759.056	313.66
759.394	313.89
759.731	341.01
760.068	332.65
760.405	310.95
760.743	306.88
761.08	327.45
761.417	336.26
761.754	318.41
762.091	309.82
762.428	318.64
762.765	317.51
763.102	319.99
763.438	336.26
763.775	319.09
764.112	320.44
764.449	310.95
764.785	329.26
765.122	328.58
765.458	328.58
765.795	350.05
766.131	313.89
766.467	317.51
766.804	324.29
767.14	339.65
767.476	323.83
767.812	333.1
768.148	333.55
768.485	313.66
768.821	331.97
769.157	317.73
769.492	322.93
769.828	327.45
770.164	348.24
770.5	359.31
770.836	327.9
771.171	328.58
771.507	329.71
771.842	310.73
772.178	335.36
772.513	308.01
772.849	312.53
773.184	309.37
773.519	319.09
773.855	340.33
774.19	321.57
774.525	333.78
774.86	322.48
775.195	344.85
775.53	333.1
775.865	327.22
776.2	333.55
776.535	330.61
776.87	317.73
777.205	335.13
777.539	329.03
777.874	324.06
778.209	339.2
778.543	325.87
778.878	327.68
779.212	336.94
779.547	316.15
779.881	330.16
780.215	318.86
780.55	338.52
780.884	333.55
781.218	331.29
781.552	335.58
781.886	336.26
782.22	337.62
782.554	317.28
782.888	333.1
783.222	307.34
783.556	312.99
783.889	332.19
784.223	328.8
784.557	337.62
784.89	323.16
785.224	340.1
785.557	332.42
785.891	317.51
786.224	332.42
786.558	339.65
786.891	331.29
787.224	334.45
787.557	315.25
787.891	308.69
788.224	354.79
788.557	337.62
788.89	312.76
789.223	344.62
789.556	326.55
789.888	302.36
790.221	318.41
790.554	314.34
790.887	327.67
791.219	334.68
791.552	348.92
791.884	348.47
792.217	322.48
792.549	331.06
792.882	328.58
793.214	328.13
793.546	314.34
793.879	322.03
794.211	316.83
794.543	322.25
794.875	322.48
795.207	339.2
795.539	317.96
795.871	309.6
796.203	330.61
796.535	329.48
796.867	324.06
797.198	319.77
797.53	318.41
797.862	328.8
798.193	338.75
798.525	322.48
798.856	327.22
799.188	329.26
799.519	324.29
799.85	316.83
800.182	330.16
800.513	330.39
800.844	302.59
801.175	324.51
801.506	319.31
801.837	330.39
802.168	317.05
802.499	316.83
802.83	327.67
803.161	311.4
803.491	329.71
803.822	340.33
804.153	329.71
804.483	339.65
804.814	307.34
805.145	318.18
805.475	327.45
805.805	322.48
806.136	311.4
806.466	309.82
806.796	331.52
807.126	341.01
807.457	302.59
807.787	335.36
808.117	334.45
808.447	320.44
808.777	318.64
809.107	337.17
809.436	306.43
809.766	333.1
810.096	316.6
810.426	318.64
810.755	315.92
811.085	307.56
811.414	329.03
811.744	342.36
812.073	344.17
812.403	310.5
812.732	332.42
813.061	309.6
813.39	324.74
813.719	335.13
814.049	312.08
814.378	325.87
814.707	326.55
815.036	329.03
815.365	319.09
815.693	329.93
816.022	339.65
816.351	326.55
816.68	328.8
817.008	337.39
817.337	324.96
817.665	332.87
817.994	324.74
818.322	309.37
818.651	327.9
818.979	326.77
819.307	331.06
819.636	306.21
819.964	319.77
820.292	322.7
820.62	325.87
820.948	317.05
821.276	318.18
821.604	315.47
821.932	318.41
822.259	312.76
822.587	323.83
822.915	322.25
823.243	305.98
823.57	334.45
823.898	320.9
824.225	314.34
824.553	327.22
824.88	307.56
825.207	316.6
825.535	315.47
825.862	326.09
826.189	323.61
826.516	327
826.843	316.15
827.17	324.96
827.497	339.43
827.824	313.66
828.151	328.8
828.478	321.57
828.805	312.08
829.131	313.89
829.458	304.85
829.785	329.48
830.111	316.38
830.438	336.49
830.764	328.13
831.09	303.04
831.417	319.99
831.743	324.29
832.069	324.51
832.395	317.05
832.722	307.11
833.048	331.06
833.374	325.42
833.7	335.81
834.026	325.19
834.351	335.13
834.677	319.09
835.003	337.62
835.329	339.43
835.654	320.9
835.98	322.7
836.306	325.64
836.631	325.64
836.956	314.57
837.282	319.09
837.607	313.89
837.932	310.73
838.258	327.67
838.583	328.13
838.908	308.24
839.233	324.06
839.558	332.65
839.883	323.38
840.208	321.8
840.533	320.9
840.858	312.76
841.182	322.93
841.507	311.86
841.832	309.82
842.156	320.44
842.481	303.72
842.805	311.63
843.13	329.26
843.454	308.24
843.778	324.06
844.103	322.93
844.427	317.73
844.751	315.7
845.075	334
845.399	315.25
845.723	315.92
846.047	321.8
846.371	328.35
846.695	342.82
847.019	319.09
847.343	314.34
847.666	328.35
847.99	329.03
848.313	315.47
848.637	336.04
848.96	328.58
849.284	310.95
849.607	332.87
849.931	326.09
850.254	315.47
850.577	328.8
850.9	322.7
851.223	340.1
851.546	300.33
851.869	320.9
852.192	315.47
852.515	320.44
852.838	323.16
853.161	325.19
853.483	304.4
853.806	314.57
854.129	317.05
854.451	322.03
854.774	317.05
855.096	311.18
855.419	313.66
855.741	306.66
856.063	332.87
856.385	315.25
856.708	335.13
857.03	315.47
857.352	331.52
857.674	326.55
857.996	307.34
858.318	328.58
858.64	312.08
858.961	314.79
859.283	333.55
859.605	328.13
859.926	316.15
860.248	329.03
860.57	312.76
860.891	317.05
861.212	310.27
861.534	333.78
861.855	344.85
862.176	317.96
862.498	315.02
862.819	322.93
863.14	332.42
863.461	349.37
863.782	314.34
864.103	319.99
864.424	326.09
864.745	313.44
865.065	311.18
865.386	304.17
865.707	322.03
866.027	319.09
866.348	320.22
866.668	329.48
866.989	311.63
867.309	329.71
867.63	318.41
867.95	316.15
868.27	317.73
868.59	348.01
868.91	324.51
869.23	314.79
869.55	317.28
869.87	333.55
870.19	331.06
870.51	303.49
870.83	339.65
871.15	320.44
871.469	325.42
871.789	308.92
872.109	300.11
872.428	342.14
872.748	298.52
873.067	305.53
873.386	322.25
873.706	337.62
874.025	313.66
874.344	323.83
874.663	305.98
874.982	320.22
875.301	340.78
875.62	321.8
875.939	316.83
876.258	327.67
876.577	328.35
876.896	315.7
877.214	313.89
877.533	317.28
877.852	331.74
878.17	323.16
878.489	328.58
878.807	308.01
879.125	314.34
879.444	331.52
879.762	318.86
880.08	313.44
880.398	326.09
880.716	329.93
881.034	335.13
881.352	346.21
881.67	319.77
881.988	304.62
882.306	306.43
882.624	321.57
882.941	305.08
883.259	328.8
883.577	293.78
883.894	308.69
884.212	317.28
884.529	323.61
884.846	322.25
885.164	314.57
885.481	314.34
885.798	317.28
886.115	315.47
886.432	319.99
886.75	321.57
887.067	340.56
887.383	321.57
887.7	307.79
888.017	330.16
888.334	325.42
888.651	315.02
888.967	334.91
889.284	316.6
889.6	350.05
889.917	324.29
890.233	310.05
890.55	295.13
890.866	335.58
891.182	314.12
891.498	316.6
891.815	319.77
892.131	303.95
892.447	326.77
892.763	317.96
893.079	326.09
893.395	306.43
893.71	305.53
894.026	321.35
894.342	314.57
894.657	324.51
894.973	309.82
895.289	316.83
895.604	335.58
895.92	335.36
896.235	333.1
896.55	312.31
896.865	324.96
897.181	315.47
897.496	320.9
897.811	308.01
898.126	300.78
898.441	317.73
898.756	323.38
899.071	351.18
899.386	305.08
899.7	315.7
900.015	329.26
900.33	298.98
900.644	322.7
900.959	320.9
901.273	331.06
901.588	306.21
901.902	301.91
902.216	303.49
902.531	332.19
902.845	319.09
903.159	327
903.473	323.16
903.787	306.66
904.101	325.19
904.415	326.09
904.729	309.14
905.042	315.02
905.356	336.49
905.67	307.11
905.984	323.61
906.297	293.55
906.611	334.23
906.924	315.47
907.237	311.4
907.551	314.12
907.864	317.28
908.177	280.44
908.491	332.19
908.804	327.45
909.117	314.79
909.43	327.22
909.743	331.97
910.056	298.98
910.368	322.03
910.681	324.06
910.994	322.93
911.307	324.06
911.619	314.57
911.932	320.9
912.244	327.45
912.557	308.69
912.869	331.06
913.181	301.24
913.494	314.79
913.806	326.09
914.118	313.21
914.43	303.72
914.742	313.44
915.054	318.18
915.366	286.77
915.678	307.79
915.99	315.7
916.302	310.73
916.613	328.8
916.925	327
917.236	307.34
917.548	296.94
917.859	304.4
918.171	334
918.482	301.69
918.794	319.09
919.105	329.48
919.416	318.86
919.727	308.69
920.038	325.19
920.349	334.91
920.66	326.55
920.971	314.57
921.282	314.57
921.593	306.66
921.903	299.88
922.214	304.17
922.525	311.86
922.835	315.92
923.146	307.11
923.456	318.18
923.767	308.01
924.077	330.39
924.387	312.31
924.697	304.4
925.008	332.87
925.318	329.03
925.628	322.7
925.938	322.93
926.248	321.57
926.558	323.38
926.867	316.38
927.177	331.74
927.487	322.25
927.796	316.83
928.106	311.18
928.416	307.11
928.725	313.21
929.034	323.38
929.344	315.02
929.653	315.47
929.962	312.76
930.271	303.49
930.581	310.5
930.89	313.21
931.199	317.51
931.508	334.23
931.817	314.57
932.125	312.53
932.434	316.83
932.743	318.41
933.051	315.92
933.36	317.28
933.669	318.18
933.977	325.42
934.286	306.88
934.594	332.42
934.902	324.51
935.21	324.06
935.519	316.15
935.827	312.53
936.135	310.5
936.443	330.61
936.751	336.26
937.059	315.47
937.367	301.69
937.674	299.88
937.982	314.79
938.29	300.56
938.597	314.34
938.905	335.58
939.213	314.57
939.52	305.98
939.827	326.77
940.135	321.12
940.442	314.12
940.749	309.37
941.056	317.05
941.363	317.28
941.67	324.29
941.977	330.16
942.284	305.75
942.591	314.12
942.898	307.56
943.205	318.41
943.511	331.74
943.818	331.97
944.125	319.77
944.431	305.08
944.738	335.36
945.044	320.9
945.35	320.22
945.657	322.48
945.963	317.05
946.269	301.01
946.575	316.38
946.881	307.34
947.187	331.06
947.493	312.76
947.799	305.75
948.105	327.45
948.41	337.39
948.716	317.96
949.022	328.58
949.327	324.96
949.633	306.21
949.938	305.3
950.244	308.01
950.549	330.16
950.854	319.77
951.16	308.92
951.465	327.22
951.77	304.17
952.075	311.4
952.38	337.17
952.685	294.23
952.99	326.32
953.294	318.18
953.599	319.54
953.904	315.92
954.209	327.9
954.513	307.79
954.818	293.1
955.122	316.38
955.426	317.51
955.731	300.56
956.035	314.12
956.339	313.89
956.643	309.6
956.948	310.95
957.252	308.92
957.556	324.74
957.86	315.25
958.163	296.94
958.467	317.73
958.771	310.05
959.075	305.75
959.378	309.37
959.682	307.11
959.985	298.98
960.289	318.86
960.592	329.71
960.896	310.5
961.199	317.05
961.502	328.13
961.805	323.16
962.108	305.98
962.411	316.83
962.714	324.74
963.017	347.34
963.32	300.78
963.623	301.69
963.926	312.08
964.228	329.03
964.531	326.77
964.833	306.43
965.136	326.77
965.438	315.02
965.741	327.68
966.043	317.28
966.345	310.95
966.648	312.99
966.95	316.6
967.252	312.53
967.554	322.25
967.856	311.18
968.158	293.33
968.46	316.6
968.761	307.34
969.063	318.41
969.365	313.66
969.666	306.43
969.968	301.46
970.269	326.55
970.571	324.29
970.872	317.28
971.174	313.66
971.475	311.4
971.776	312.53
972.077	313.44
972.378	322.03
972.679	304.4
972.98	314.34
973.281	315.02
973.582	299.2
973.883	302.82
974.183	311.86
974.484	318.41
974.785	304.17
975.085	315.02
975.386	316.38
975.686	314.57
975.986	326.77
976.287	329.26
976.587	308.69
976.887	309.14
977.187	321.35
977.487	300.33
977.787	328.13
978.087	335.81
978.387	324.06
978.687	327.67
978.987	310.5
979.286	319.31
979.586	301.24
979.885	333.55
980.185	310.05
980.484	305.98
980.784	309.82
981.083	310.95
981.382	298.52
981.682	308.01
981.981	314.57
982.28	311.63
982.579	317.05
982.878	319.54
983.177	322.03
983.475	331.06
983.774	341.23
984.073	304.17
984.372	316.6
984.67	311.63
984.969	302.82
985.267	309.82
985.566	298.98
985.864	311.4
986.162	321.8
986.461	333.78
986.759	319.54
987.057	311.4
987.355	316.83
987.653	305.75
987.951	311.86
988.249	321.12
988.547	310.73
988.844	300.78
989.142	317.51
989.44	308.92
989.737	329.26
990.035	316.6
990.332	304.4
990.63	311.4
990.927	301.24
991.224	310.05
991.521	298.52
991.819	317.05
992.116	327.45
992.413	326.09
992.71	320.44
993.006	313.89
993.303	314.34
993.6	318.86
993.897	307.34
994.193	304.62
994.49	320.67
994.787	309.6
995.083	314.79
995.379	324.06
995.676	305.75
995.972	313.89
996.268	301.69
996.565	316.6
996.861	317.51
997.157	328.58
997.453	306.66
997.749	315.02
998.044	338.52
998.34	304.4
998.636	310.95
998.932	310.27
999.227	332.65
999.523	319.77
999.818	288.58
1000.114	312.31
1000.409	302.82
1000.704	301.46
1001	324.74
1001.295	319.77
1001.59	297.39
1001.885	320.9
1002.18	310.05
1002.475	305.3
1002.77	315.02
1003.065	314.79
1003.359	319.31
1003.654	317.28
1003.949	313.44
1004.243	329.48
1004.538	320.22
1004.832	333.78
1005.127	303.95
1005.421	312.76
1005.715	302.82
1006.009	309.14
1006.304	295.36
1006.598	311.63
1006.892	312.76
1007.186	300.56
1007.48	324.51
1007.773	320.44
1008.067	316.15
1008.361	310.95
1008.655	319.54
1008.948	328.13
1009.242	310.27
1009.535	334.45
1009.829	327.45
1010.122	307.11
1010.415	328.35
1010.708	300.56
1011.001	305.08
1011.295	306.21
1011.588	328.13
1011.881	327.22
1012.173	308.24
1012.466	318.64
1012.759	313.66
1013.052	310.95
1013.344	309.82
1013.637	329.93
1013.93	308.24
1014.222	296.72
1014.514	281.57
1014.807	308.92
1015.099	294.46
1015.391	298.75
1015.683	326.32
1015.976	322.03
1016.268	310.95
1016.56	300.78
1016.851	323.16
1017.143	334
1017.435	335.81
1017.727	317.96
1018.018	298.07
1018.31	319.77
1018.602	316.38
1018.893	309.82
1019.185	322.93
1019.476	276.83
1019.767	304.62
1020.058	331.97
1020.35	316.15
1020.641	303.95
1020.932	298.07
1021.223	324.06
1021.514	311.63
1021.804	299.43
1022.095	300.11
1022.386	319.77
1022.677	308.01
1022.967	322.7
1023.258	310.95
1023.548	313.89
1023.839	323.16
1024.129	335.36
1024.419	305.53
1024.709	314.57
1025	321.8
1025.29	320.67
1025.58	301.24
1025.87	313.21
1026.16	311.86
1026.449	287.22
1026.739	313.44
1027.029	324.51
1027.319	309.82
1027.608	332.65
1027.898	322.48
1028.187	286.77
1028.477	307.11
1028.766	295.36
1029.055	311.63
1029.344	322.48
1029.634	307.34
1029.923	313.89
1030.212	313.44
1030.501	315.25
1030.79	319.54
1031.078	312.53
1031.367	329.26
1031.656	311.86
1031.945	335.81
1032.233	312.53
1032.522	310.5
1032.81	317.05
1033.099	321.35
1033.387	312.53
1033.675	329.26
1033.963	307.34
1034.251	326.77
1034.54	315.25
1034.828	320.44
1035.116	322.48
1035.403	319.31
1035.691	315.7
1035.979	300.11
1036.267	319.31
1036.554	313.89
1036.842	291.07
1037.129	330.39
1037.417	316.15
1037.704	308.92
1037.992	307.56
1038.279	319.99
1038.566	318.41
1038.853	318.41
1039.14	318.41
