Data from No_light_on_white_reflection_standard_FLMS001491_045.txt Node
Date: Tue Feb 07 10:33:01 GMT 2017
User: dcchb
Spectrometer: FLMS00149
Trigger mode: 0
Integration Time (sec): 2.000000E-2
Scans to average: 10
Electric dark correction enabled: true
Nonlinearity correction enabled: false
Boxcar width: 0
XAxis mode: Wavelengths
Number of Pixels in Spectrum: 2048
>>>>>Begin Spectral Data<<<<<
341.393	1.33
341.776	1.33
342.16	1.33
342.543	-48.84
342.927	-63.76
343.31	-75.51
343.693	-65.11
344.077	-77.54
344.46	-42.51
344.843	-60.14
345.226	-19.46
345.61	-32.57
345.993	-19.91
346.376	-14.49
346.759	26.64
347.142	23.93
347.525	41.55
347.908	48.11
348.291	73.87
348.674	94.88
349.057	98.27
349.44	116.58
349.823	132.85
350.206	134.66
350.588	164.26
350.971	183.02
351.354	195.9
351.737	205.84
352.119	222.79
352.502	218.95
352.884	258.04
353.267	245.39
353.65	274.09
354.032	279.74
354.414	272.51
354.797	277.03
355.179	299.17
355.562	293.3
355.944	302.34
356.326	270.47
356.709	298.49
357.091	285.61
357.473	316.8
357.855	289.46
358.238	321.32
358.62	319.74
359.002	300.75
359.384	303.24
359.766	299.4
360.148	285.16
360.53	305.95
360.912	287.87
361.294	293.52
361.676	305.05
362.057	314.54
362.439	295.56
362.821	284.26
363.203	291.72
363.584	287.87
363.966	281.09
364.348	282.9
364.729	290.36
365.111	272.73
365.493	282.45
365.874	281.32
366.256	281.55
366.637	266.18
367.019	264.15
367.4	275.67
367.781	278.83
368.163	283.81
368.544	287.65
368.925	290.13
369.306	278.61
369.688	259.63
370.069	272.96
370.45	268.44
370.831	277.7
371.212	263.92
371.593	279.96
371.974	265.73
372.355	278.38
372.736	271.38
373.117	261.89
373.498	293.98
373.879	251.26
374.26	275.67
374.641	274.54
375.021	266.18
375.402	272.51
375.783	275.22
376.163	267.08
376.544	267.76
376.925	268.67
377.305	288.33
377.686	298.04
378.066	258.95
378.447	286.97
378.827	276.35
379.208	285.61
379.588	270.25
379.968	285.39
380.349	258.72
380.729	285.16
381.109	299.17
381.489	284.94
381.87	282.22
382.25	290.36
382.63	269.12
383.01	266.18
383.39	261.66
383.77	281.55
384.15	280.42
384.53	266.18
384.91	277.25
385.29	273.18
385.67	262.56
386.049	286.07
386.429	282.22
386.809	289.68
387.189	296.91
387.568	289.23
387.948	282.45
388.328	269.34
388.707	299.4
389.087	267.99
389.466	293.98
389.846	286.52
390.225	291.26
390.605	283.13
390.984	283.35
391.363	296.24
391.743	291.26
392.122	302.56
392.501	298.04
392.881	292.39
393.26	302.56
393.639	282.45
394.018	286.52
394.397	316.57
394.776	282.45
395.155	303.24
395.534	286.97
395.913	296.69
396.292	286.52
396.671	292.85
397.05	263.69
397.429	293.3
397.808	276.35
398.186	289.46
398.565	296.69
398.944	309.12
399.323	294.65
399.701	288.33
400.08	297.37
400.458	313.86
400.837	282.9
401.215	300.75
401.594	288.33
401.972	298.95
402.351	281.09
402.729	286.52
403.107	298.72
403.486	294.2
403.864	301.66
404.242	289.91
404.62	300.98
404.999	290.13
405.377	291.94
405.755	306.4
406.133	291.72
406.511	305.95
406.889	282.22
407.267	307.53
407.645	324.71
408.023	294.43
408.401	296.46
408.779	302.56
409.156	305.05
409.534	310.25
409.912	310.25
410.29	308.89
410.667	319.29
411.045	307.76
411.422	306.18
411.8	295.56
412.178	288.1
412.555	312.96
412.933	290.13
413.31	302.11
413.687	306.18
414.065	309.57
414.442	303.92
414.819	312.73
415.197	317.03
415.574	307.31
415.951	286.74
416.328	300.08
416.705	294.43
417.082	298.27
417.46	293.98
417.837	307.99
418.214	301.43
418.591	313.41
418.967	292.39
419.344	294.43
419.721	296.01
420.098	317.48
420.475	301.66
420.852	296.01
421.228	305.5
421.605	305.5
421.982	292.39
422.358	308.21
422.735	302.79
423.111	286.74
423.488	298.95
423.864	312.96
424.241	317.93
424.617	302.11
424.994	321.55
425.37	308.44
425.746	320.19
426.123	301.88
426.499	310.92
426.875	302.79
427.251	293.52
427.627	311.6
428.003	312.51
428.379	308.44
428.756	307.31
429.132	303.69
429.507	304.82
429.883	283.58
430.259	313.18
430.635	317.25
431.011	318.61
431.387	331.94
431.763	307.08
432.138	308.89
432.514	303.24
432.89	313.64
433.265	299.17
433.641	304.6
434.016	302.34
434.392	308.89
434.767	317.48
435.143	302.56
435.518	321.09
435.894	311.15
436.269	340.08
436.644	326.74
437.02	306.18
437.395	309.34
437.77	340.75
438.145	331.49
438.52	319.51
438.895	338.72
439.271	329.23
439.646	325.16
440.021	334.2
440.395	328.78
440.77	335.56
441.145	335.56
441.52	359.51
441.895	343.01
442.27	325.84
442.645	337.82
443.019	330.58
443.394	326.97
443.769	348.44
444.143	335.33
444.518	343.92
444.892	346.4
445.267	342.11
445.641	365.61
446.016	351.6
446.39	349.34
446.764	357.7
447.139	330.13
447.513	348.44
447.887	363.13
448.262	351.15
448.636	352.5
449.01	360.64
449.384	347.53
449.758	362.9
450.132	355.89
450.506	375.33
450.88	361.09
451.254	351.83
451.628	344.6
452.002	355.44
452.376	361.32
452.75	372.17
453.123	362.22
453.497	365.16
453.871	375.1
454.244	369
454.618	371.94
454.992	370.81
455.365	372.17
455.739	382.33
456.112	373.3
456.486	369.45
456.859	367.42
457.232	358.61
457.606	365.61
457.979	349.79
458.352	368.1
458.725	364.03
459.099	346.18
459.472	352.5
459.845	355.67
460.218	367.19
460.591	340.75
460.964	359.28
461.337	363.8
461.71	345.5
462.083	342.79
462.456	353.41
462.829	355.67
463.201	365.39
463.574	335.78
463.947	361.09
464.32	348.66
464.692	362
465.065	363.35
465.438	350.02
465.81	329.23
466.183	349.34
466.555	338.95
466.928	349.12
467.3	337.14
467.672	373.97
468.045	353.18
468.417	370.36
468.789	353.86
469.161	351.15
469.534	342.79
469.906	347.31
470.278	355.44
470.65	371.94
471.022	347.31
471.394	349.79
471.766	319.96
472.138	359.28
472.51	340.3
472.882	360.19
473.253	331.26
473.625	350.7
473.997	350.02
474.369	337.14
474.74	370.36
475.112	323.58
475.484	348.89
475.855	341.43
476.227	352.96
476.598	349.12
476.97	355.44
477.341	338.27
477.713	348.89
478.084	340.98
478.455	349.57
478.827	346.86
479.198	358.38
479.569	342.79
479.94	352.96
480.311	340.53
480.682	343.01
481.053	354.31
481.424	341.66
481.795	345.73
482.166	340.98
482.537	363.35
482.908	332.84
483.279	344.6
483.65	348.89
484.021	343.01
484.391	355.22
484.762	378.94
485.133	362.9
485.503	369
485.874	353.18
486.244	368.32
486.615	348.44
486.985	348.21
487.356	373.07
487.726	363.8
488.097	366.29
488.467	365.84
488.837	378.94
489.207	356.57
489.578	346.86
489.948	373.3
490.318	362.67
490.688	362.45
491.058	375.33
491.428	374.2
491.798	366.52
492.168	378.49
492.538	354.54
492.908	359.06
493.278	376.46
493.648	394.76
494.017	384.59
494.387	364.71
494.757	387.98
495.126	383.24
495.496	372.62
495.866	392.73
496.235	393.18
496.605	399.51
496.974	378.49
497.344	374.88
497.713	386.4
498.082	384.82
498.452	385.72
498.821	398.38
499.19	367.19
499.559	383.92
499.928	400.87
500.298	417.59
500.667	408.77
501.036	405.16
501.405	385.27
501.774	394.09
502.143	401.09
502.512	401.32
502.88	415.78
503.249	390.47
503.618	408.32
503.987	416.01
504.356	390.92
504.724	393.86
505.093	421.43
505.462	399.28
505.83	407.64
506.199	413.97
506.567	418.94
506.936	428.66
507.304	413.97
507.672	437.93
508.041	429.56
508.409	425.05
508.777	453.29
509.145	421.88
509.514	425.05
509.882	416.91
510.25	416.68
510.618	421.88
510.986	429.34
511.354	425.05
511.722	422.33
512.09	441.32
512.458	448.32
512.826	418.94
513.193	439.73
513.561	420.07
513.929	454.42
514.297	426.85
514.664	444.03
515.032	431.37
515.4	453.29
515.767	450.13
516.135	423.01
516.502	434.99
516.869	443.35
517.237	433.41
517.604	456.91
517.972	450.36
518.339	445.84
518.706	469.11
519.073	449
519.44	426.4
519.808	466.4
520.175	439.06
520.542	466.63
520.909	440.86
521.276	454.88
521.643	448.1
522.009	450.81
522.376	454.42
522.743	458.26
523.11	462.78
523.477	466.63
523.843	473.41
524.21	468.89
524.577	459.39
524.943	470.47
525.31	458.72
525.676	477.93
526.043	462.11
526.409	465.27
526.776	493.97
527.142	466.85
527.508	480.41
527.874	482.22
528.241	469.56
528.607	477.25
528.973	478.83
529.339	491.26
529.705	493.97
530.071	497.13
530.437	477.7
530.803	483.35
531.169	501.43
531.535	478.6
531.901	473.41
532.267	506.4
532.632	487.64
532.998	493.29
533.364	492.84
533.73	503.46
534.095	519.96
534.461	498.26
534.826	495.55
535.192	500.52
535.557	522.67
535.923	478.6
536.288	502.11
536.653	502.56
537.019	487.42
537.384	524.25
537.749	510.69
538.114	512.73
538.479	487.64
538.845	504.59
539.21	507.3
539.575	506.63
539.94	505.27
540.305	493.07
540.67	503.46
541.034	511.14
541.399	506.63
541.764	486.29
542.129	500.3
542.494	497.59
542.858	521.31
543.223	506.17
543.587	497.13
543.952	530.81
544.316	505.04
544.681	490.58
545.045	518.6
545.41	536.45
545.774	511.14
546.138	519.28
546.503	514.76
546.867	502.33
547.231	507.53
547.595	495.78
547.959	518.6
548.324	511.37
548.688	504.82
549.052	519.73
549.416	519.73
549.779	539.62
550.143	529.22
550.507	525.61
550.871	529.45
551.235	493.52
551.599	545.04
551.962	529.68
552.326	538.49
552.689	544.82
553.053	539.62
553.417	521.77
553.78	512.27
554.143	510.01
554.507	529.22
554.87	532.61
555.234	523.35
555.597	517.02
555.96	509.34
556.323	550.69
556.686	535.1
557.05	528.09
557.413	535.78
557.776	517.47
558.139	535.1
558.502	539.62
558.865	550.24
559.228	522.9
559.59	541.88
559.953	554.31
560.316	507.76
560.679	526.74
561.041	515.21
561.404	558.15
561.767	558.15
562.129	533.97
562.492	566.96
562.854	547.75
563.217	547.53
563.579	552.73
563.941	551.6
564.304	548.88
564.666	551.82
565.028	591.37
565.39	551.82
565.753	550.47
566.115	536.68
566.477	539.39
566.839	570.58
567.201	577.58
567.563	569
567.925	569
568.287	561.54
568.648	558.83
569.01	564.7
569.372	555.66
569.734	571.03
570.095	590.92
570.457	584.14
570.819	549.56
571.18	563.12
571.542	584.59
571.903	578.71
572.265	578.49
572.626	573.06
572.987	583.46
573.349	581.88
573.71	558.6
574.071	575.32
574.432	593.18
574.794	585.04
575.155	574.19
575.516	580.52
575.877	577.36
576.238	581.88
576.599	560.18
576.96	573.74
577.32	587.07
577.681	585.72
578.042	591.59
578.403	569.45
578.763	551.14
579.124	581.43
579.485	572.61
579.845	589.56
580.206	596.57
580.566	582.78
580.927	560.63
581.287	579.17
581.648	571.26
582.008	576.23
582.368	574.42
582.728	580.52
583.089	581.43
583.449	577.58
583.809	593.85
584.169	572.61
584.529	579.84
584.889	568.54
585.249	592.27
585.609	576
585.969	613.97
586.329	566.74
586.688	582.78
587.048	567.87
587.408	563.57
587.768	580.75
588.127	588.2
588.487	584.59
588.846	585.27
589.206	571.48
589.565	576
589.925	590.92
590.284	557.92
590.643	571.93
591.003	569.67
591.362	576.68
591.721	577.36
592.08	559.73
592.44	597.02
592.799	592.95
593.158	572.39
593.517	565.15
593.876	566.06
594.235	569.22
594.593	590.24
594.952	580.3
595.311	580.3
595.67	563.35
596.029	560.86
596.387	580.97
596.746	579.84
597.104	558.15
597.463	571.26
597.822	575.55
598.18	582.1
598.538	565.38
598.897	566.74
599.255	559.73
599.613	547.75
599.972	575.78
600.33	569.9
600.688	558.83
601.046	545.95
601.404	548.88
601.762	561.54
602.12	564.48
602.478	556.12
602.836	571.03
603.194	548.43
603.552	553.4
603.91	549.11
604.268	556.57
604.625	587.3
604.983	545.95
605.341	565.61
605.698	568.77
606.056	566.28
606.413	539.17
606.771	552.05
607.128	579.17
607.485	549.11
607.843	559.96
608.2	559.28
608.557	544.82
608.914	546.85
609.272	557.47
609.629	542.33
609.986	546.4
610.343	537.81
610.7	536
611.057	543.01
611.414	545.95
611.771	559.73
612.127	559.96
612.484	545.04
612.841	550.92
613.198	505.27
613.554	547.75
613.911	533.29
614.267	537.58
614.624	554.53
614.98	547.08
615.337	522.44
615.693	530.81
616.05	536.91
616.406	521.77
616.762	530.58
617.118	531.94
617.475	537.58
617.831	567.64
618.187	543.01
618.543	531.03
618.899	534.87
619.255	521.09
619.611	540.75
619.967	534.87
620.323	537.36
620.678	533.07
621.034	512.5
621.39	542.78
621.746	520.18
622.101	504.14
622.457	517.47
622.812	529
623.168	505.5
623.523	528.09
623.879	512.73
624.234	496
624.589	519.05
624.945	502.56
625.3	503.91
625.655	514.31
626.01	496.91
626.365	513.18
626.72	505.95
627.075	529.45
627.43	483.35
627.785	495.78
628.14	510.24
628.495	497.13
628.85	517.25
629.205	494.87
629.559	512.73
629.914	519.96
630.269	482.22
630.623	493.29
630.978	493.52
631.332	478.83
631.687	474.08
632.041	490.81
632.396	482.22
632.75	509.11
633.104	495.1
633.459	457.59
633.813	468.43
634.167	475.21
634.521	489.68
634.875	491.71
635.229	461.43
635.583	468.89
635.937	468.43
636.291	464.82
636.645	457.59
636.999	446.06
637.352	453.52
637.706	461.88
638.06	470.02
638.413	462.78
638.767	465.72
639.121	459.39
639.474	471.15
639.828	437.47
640.181	452.62
640.534	456.68
640.888	442.22
641.241	453.07
641.594	471.37
641.947	470.47
642.301	438.38
642.654	460.3
643.007	436.34
643.36	424.82
643.713	441.77
644.066	446.29
644.419	426.63
644.771	432.73
645.124	442.9
645.477	453.07
645.83	435.21
646.182	439.51
646.535	452.16
646.888	423.69
647.24	440.41
647.593	423.69
647.945	438.83
648.298	429.34
648.65	430.92
649.002	440.19
649.355	439.06
649.707	429.56
650.059	430.02
650.411	427.76
650.763	404.71
651.115	434.31
651.467	425.72
651.819	439.28
652.171	438.83
652.523	413.52
652.875	415.55
653.227	403.8
653.578	401.54
653.93	426.4
654.282	409.9
654.633	437.7
654.985	402.67
655.337	409.45
655.688	400.64
656.039	419.62
656.391	404.03
656.742	414.42
657.094	424.59
657.445	385.5
657.796	403.8
658.147	427.98
658.498	425.72
658.849	412.39
659.2	387.08
659.551	394.76
659.902	422.11
660.253	411.71
660.604	392.96
660.955	412.84
661.306	401.54
661.656	406.74
662.007	426.85
662.358	422.56
662.708	396.12
663.059	430.24
663.409	394.54
663.76	394.76
664.11	405.84
664.461	405.61
664.811	404.48
665.161	403.58
665.511	391.15
665.862	392.5
666.212	386.85
666.562	391.37
666.912	377.59
667.262	386.63
667.612	410.13
667.962	386.18
668.312	385.95
668.662	378.49
669.011	388.44
669.361	388.89
669.711	382.33
670.06	387.53
670.41	406.97
670.76	375.33
671.109	399.06
671.459	380.98
671.808	386.85
672.157	375.78
672.507	401.09
672.856	367.87
673.205	366.97
673.554	380.75
673.904	369.68
674.253	393.41
674.602	396.8
674.951	384.37
675.3	369
675.649	369.68
675.998	379.4
676.346	380.07
676.695	378.72
677.044	362.67
677.393	362.67
677.741	394.09
678.09	363.8
678.438	362.22
678.787	366.74
679.135	375.78
679.484	375.33
679.832	364.03
680.181	357.7
680.529	368.78
680.877	384.37
681.225	354.76
681.573	356.57
681.922	360.87
682.27	369.91
682.618	394.31
682.966	370.13
683.314	370.13
683.661	367.42
684.009	363.13
684.357	373.75
684.705	364.26
685.053	383.01
685.4	371.04
685.748	345.05
686.095	371.94
686.443	352.28
686.79	361.77
687.138	361.54
687.485	369.23
687.832	364.26
688.18	359.96
688.527	360.64
688.874	354.09
689.221	357.48
689.568	362
689.915	346.86
690.262	364.03
690.609	348.21
690.956	356.35
691.303	373.07
691.65	358.15
691.997	366.06
692.344	374.2
692.69	359.74
693.037	356.12
693.383	369.91
693.73	352.73
694.077	360.87
694.423	352.05
694.769	368.32
695.116	360.41
695.462	359.51
695.808	347.76
696.155	362.9
696.501	358.15
696.847	357.7
697.193	334.88
697.539	361.54
697.885	366.74
698.231	348.21
698.577	346.18
698.923	373.75
699.269	324.03
699.614	345.95
699.96	356.8
700.306	340.53
700.651	358.83
700.997	354.54
701.342	345.5
701.688	334.2
702.033	340.53
702.379	352.28
702.724	334.88
703.069	337.82
703.415	339.17
703.76	337.82
704.105	341.21
704.45	361.54
704.795	362
705.14	340.53
705.485	339.85
705.83	339.62
706.175	323.13
706.52	352.73
706.865	330.58
707.209	321.55
707.554	363.58
707.899	350.02
708.243	356.8
708.588	352.5
708.932	331.71
709.277	346.4
709.621	355.67
709.966	337.14
710.31	345.95
710.654	335.78
710.998	341.21
711.342	350.47
711.687	327.42
712.031	339.62
712.375	340.98
712.719	343.69
713.063	328.1
713.407	349.12
713.75	353.63
714.094	340.53
714.438	356.57
714.782	324.71
715.125	346.18
715.469	358.38
715.812	335.78
716.156	343.69
716.499	337.36
716.843	336.23
717.186	357.93
717.53	359.74
717.873	339.4
718.216	332.62
718.559	342.56
718.902	336.69
719.246	328.32
719.589	351.83
719.932	340.3
720.275	333.52
720.617	333.3
720.96	330.81
721.303	322.22
721.646	345.5
721.989	336.01
722.331	321.77
722.674	323.81
723.016	364.26
723.359	347.76
723.701	324.71
724.044	337.82
724.386	344.37
724.729	317.48
725.071	340.08
725.413	334.88
725.755	320.42
726.097	335.78
726.439	326.29
726.782	332.84
727.124	345.05
727.465	326.74
727.807	320.19
728.149	321.77
728.491	327.19
728.833	316.35
729.175	331.26
729.516	312.51
729.858	308.66
730.199	329
730.541	335.1
730.882	330.13
731.224	339.4
731.565	325.61
731.906	331.94
732.248	322.68
732.589	325.39
732.93	328.1
733.271	332.84
733.612	318.38
733.953	343.01
734.294	334.65
734.635	333.75
734.976	342.11
735.317	321.77
735.658	350.02
735.999	322.68
736.339	331.94
736.68	336.69
737.021	300.75
737.361	311.83
737.702	314.09
738.042	325.84
738.383	328.78
738.723	330.36
739.063	327.65
739.404	337.14
739.744	329.91
740.084	326.52
740.424	307.53
740.764	329.68
741.104	346.86
741.444	329.91
741.784	327.19
742.124	327.19
742.464	320.42
742.804	320.19
743.143	310.47
743.483	341.21
743.823	331.49
744.162	341.88
744.502	331.04
744.841	326.52
745.181	315.44
745.52	334.2
745.86	331.49
746.199	333.52
746.538	331.71
746.877	323.35
747.216	332.62
747.556	335.56
747.895	332.84
748.234	326.06
748.573	326.29
748.911	339.17
749.25	322.9
749.589	326.06
749.928	321.32
750.267	327.42
750.605	330.36
750.944	328.1
751.283	315.44
751.621	340.53
751.96	329.23
752.298	335.78
752.636	342.34
752.975	335.33
753.313	332.17
753.651	318.16
753.989	350.47
754.327	342.11
754.666	323.58
755.004	315.22
755.342	336.69
755.679	345.95
756.017	328.32
756.355	339.4
756.693	310.92
757.031	317.48
757.368	326.06
757.706	314.54
758.044	331.49
758.381	352.05
758.719	324.26
759.056	312.96
759.394	354.99
759.731	333.97
760.068	308.66
760.405	321.09
760.743	345.27
761.08	336.91
761.417	318.83
761.754	330.81
762.091	320.87
762.428	330.81
762.765	322.22
763.102	309.79
763.438	323.58
763.775	305.95
764.112	315.22
764.449	317.7
764.785	319.74
765.122	335.78
765.458	325.84
765.795	300.75
766.131	327.87
766.467	324.03
766.804	340.08
767.14	330.13
767.476	338.27
767.812	330.81
768.148	316.8
768.485	329.23
768.821	319.06
769.157	327.65
769.492	331.94
769.828	320.19
770.164	336.23
770.5	330.13
770.836	333.97
771.171	312.28
771.507	337.59
771.842	333.07
772.178	339.17
772.513	325.16
772.849	330.36
773.184	329.45
773.519	331.94
773.855	331.26
774.19	324.93
774.525	329.91
774.86	327.87
775.195	336.91
775.53	330.13
775.865	320.87
776.2	336.23
776.535	326.29
776.87	326.74
777.205	336.46
777.539	314.54
777.874	325.39
778.209	322.45
778.543	309.12
778.878	324.26
779.212	330.81
779.547	330.13
779.881	340.98
780.215	336.69
780.55	334.65
780.884	339.4
781.218	326.29
781.552	337.59
781.886	314.31
782.22	321.09
782.554	309.79
782.888	318.83
783.222	324.26
783.556	322.45
783.889	320.64
784.223	317.7
784.557	327.87
784.89	324.48
785.224	333.52
785.557	329
785.891	324.93
786.224	323.35
786.558	314.77
786.891	327.87
787.224	325.84
787.557	301.43
787.891	314.09
788.224	314.31
788.557	317.25
788.89	330.58
789.223	319.74
789.556	316.57
789.888	322.9
790.221	314.54
790.554	329.91
790.887	305.95
791.219	319.51
791.552	320.64
791.884	336.23
792.217	328.78
792.549	302.79
792.882	317.48
793.214	332.17
793.546	322.45
793.879	316.12
794.211	322
794.543	321.09
794.875	327.42
795.207	326.06
795.539	324.71
795.871	324.03
796.203	329.68
796.535	322.68
796.867	330.13
797.198	336.23
797.53	331.04
797.862	334.65
798.193	319.74
798.525	330.81
798.856	341.43
799.188	301.88
799.519	301.66
799.85	314.77
800.182	310.25
800.513	330.13
800.844	315.22
801.175	338.95
801.506	317.48
801.837	329
802.168	327.65
802.499	325.84
802.83	314.09
803.161	322.9
803.491	319.06
803.822	314.31
804.153	323.35
804.483	320.64
804.814	307.08
805.145	338.95
805.475	314.77
805.805	323.81
806.136	296.46
806.466	326.97
806.796	337.82
807.126	324.03
807.457	329.68
807.787	308.21
808.117	333.52
808.447	324.26
808.777	323.58
809.107	293.98
809.436	312.73
809.766	315.67
810.096	332.17
810.426	340.53
810.755	306.4
811.085	319.29
811.414	319.06
811.744	333.3
812.073	339.85
812.403	325.61
812.732	321.32
813.061	304.6
813.39	311.83
813.719	325.39
814.049	303.69
814.378	319.96
814.707	316.35
815.036	318.83
815.365	323.58
815.693	326.29
816.022	324.03
816.351	317.93
816.68	319.29
817.008	317.48
817.337	336.46
817.665	336.91
817.994	321.09
818.322	330.13
818.651	318.83
818.979	303.47
819.307	302.56
819.636	333.75
819.964	292.17
820.292	324.48
820.62	330.58
820.948	336.23
821.276	332.62
821.604	321.32
821.932	318.61
822.259	330.58
822.587	319.96
822.915	312.28
823.243	308.89
823.57	332.84
823.898	331.94
824.225	326.06
824.553	305.05
824.88	320.42
825.207	305.05
825.535	344.82
825.862	327.19
826.189	319.06
826.516	322.68
826.843	306.4
827.17	318.61
827.497	323.81
827.824	336.23
828.151	331.04
828.478	315.44
828.805	333.3
829.131	310.02
829.458	307.08
829.785	306.86
830.111	313.18
830.438	315.44
830.764	318.83
831.09	316.12
831.417	319.51
831.743	326.52
832.069	316.57
832.395	321.55
832.722	329.45
833.048	320.42
833.374	314.09
833.7	334.43
834.026	306.4
834.351	305.95
834.677	334.65
835.003	306.86
835.329	314.77
835.654	321.55
835.98	300.75
836.306	331.49
836.631	323.35
836.956	325.61
837.282	308.21
837.607	307.99
837.932	324.26
838.258	316.12
838.583	328.1
838.908	314.09
839.233	324.03
839.558	312.05
839.883	297.59
840.208	312.96
840.533	325.61
840.858	320.87
841.182	316.35
841.507	330.81
841.832	324.26
842.156	305.05
842.481	306.18
842.805	327.19
843.13	308.89
843.454	317.7
843.778	319.51
844.103	318.61
844.427	307.99
844.751	315.9
845.075	327.19
845.399	324.71
845.723	333.75
846.047	309.34
846.371	306.63
846.695	313.41
847.019	341.43
847.343	328.78
847.666	310.02
847.99	323.81
848.313	311.15
848.637	317.93
848.96	317.03
849.284	333.07
849.607	317.93
849.931	326.06
850.254	318.38
850.577	318.38
850.9	325.39
851.223	320.19
851.546	322.9
851.869	325.39
852.192	318.16
852.515	332.17
852.838	324.26
853.161	312.05
853.483	308.66
853.806	301.88
854.129	342.11
854.451	319.96
854.774	300.3
855.096	329.45
855.419	332.17
855.741	322.45
856.063	329.91
856.385	324.71
856.708	304.14
857.03	342.11
857.352	321.55
857.674	333.07
857.996	336.01
858.318	314.99
858.64	307.76
858.961	305.05
859.283	313.86
859.605	304.82
859.926	307.08
860.248	312.96
860.57	313.64
860.891	298.49
861.212	324.71
861.534	313.64
861.855	326.52
862.176	320.87
862.498	310.92
862.819	300.53
863.14	316.8
863.461	332.84
863.782	312.96
864.103	327.65
864.424	302.34
864.745	303.69
865.065	320.64
865.386	313.41
865.707	291.94
866.027	321.55
866.348	313.86
866.668	325.16
866.989	315.67
867.309	330.81
867.63	326.97
867.95	305.95
868.27	326.29
868.59	315.9
868.91	299.62
869.23	309.34
869.55	309.12
869.87	303.47
870.19	308.21
870.51	319.74
870.83	307.08
871.15	313.18
871.469	348.21
871.789	331.94
872.109	324.71
872.428	317.48
872.748	296.46
873.067	323.58
873.386	310.02
873.706	318.38
874.025	322.22
874.344	318.38
874.663	322.68
874.982	311.6
875.301	331.26
875.62	321.55
875.939	323.13
876.258	322.45
876.577	334.88
876.896	326.52
877.214	317.48
877.533	310.7
877.852	332.62
878.17	330.81
878.489	300.98
878.807	320.42
879.125	313.41
879.444	317.25
879.762	330.58
880.08	317.93
880.398	314.77
880.716	301.66
881.034	312.28
881.352	331.04
881.67	306.63
881.988	307.99
882.306	310.7
882.624	323.35
882.941	315.67
883.259	315.22
883.577	313.41
883.894	317.93
884.212	318.61
884.529	307.99
884.846	326.52
885.164	302.11
885.481	315.67
885.798	317.25
886.115	312.51
886.432	310.92
886.75	302.56
887.067	321.32
887.383	313.86
887.7	303.24
888.017	314.31
888.334	324.03
888.651	333.97
888.967	329.68
889.284	311.38
889.6	310.47
889.917	322.22
890.233	312.73
890.55	314.09
890.866	320.87
891.182	318.38
891.498	300.98
891.815	303.24
892.131	300.75
892.447	330.81
892.763	334.2
893.079	323.13
893.395	307.99
893.71	322
894.026	302.56
894.342	317.48
894.657	314.77
894.973	310.25
895.289	322
895.604	307.76
895.92	336.69
896.235	323.13
896.55	324.03
896.865	295.78
897.181	332.17
897.496	312.73
897.811	331.26
898.126	304.82
898.441	331.26
898.756	323.13
899.071	307.76
899.386	330.81
899.7	308.44
900.015	299.4
900.33	311.6
900.644	316.8
900.959	332.84
901.273	307.76
901.588	320.87
901.902	310.92
902.216	307.31
902.531	294.88
902.845	324.26
903.159	308.89
903.473	319.96
903.787	312.51
904.101	323.58
904.415	310.92
904.729	331.49
905.042	331.94
905.356	316.8
905.67	322.68
905.984	325.16
906.297	319.96
906.611	315.67
906.924	300.3
907.237	308.44
907.551	312.51
907.864	315.9
908.177	331.49
908.491	318.16
908.804	311.6
909.117	316.8
909.43	319.74
909.743	312.51
910.056	303.92
910.368	327.42
910.681	291.04
910.994	298.04
911.307	332.17
911.619	311.83
911.932	312.05
912.244	323.58
912.557	314.31
912.869	315.44
913.181	294.2
913.494	312.96
913.806	293.75
914.118	325.61
914.43	300.08
914.742	322
915.054	312.73
915.366	300.75
915.678	316.12
915.99	323.81
916.302	326.97
916.613	322.68
916.925	324.71
917.236	315.44
917.548	312.05
917.859	317.7
918.171	312.51
918.482	313.18
918.794	295.11
919.105	316.35
919.416	311.6
919.727	289.46
920.038	311.38
920.349	310.47
920.66	314.09
920.971	323.35
921.282	299.85
921.593	304.82
921.903	315.22
922.214	323.35
922.525	312.28
922.835	329.68
923.146	318.16
923.456	307.99
923.767	319.96
924.077	312.05
924.387	312.05
924.697	322.9
925.008	297.14
925.318	297.59
925.628	307.31
925.938	329.68
926.248	309.79
926.558	321.09
926.867	317.7
927.177	308.44
927.487	325.61
927.796	321.55
928.106	320.19
928.416	310.7
928.725	324.48
929.034	310.02
929.344	321.55
929.653	323.13
929.962	310.7
930.271	300.75
930.581	303.01
930.89	322
931.199	335.78
931.508	336.91
931.817	323.58
932.125	310.47
932.434	328.78
932.743	306.4
933.051	323.13
933.36	288.55
933.669	314.31
933.977	310.02
934.286	304.6
934.594	322
934.902	306.4
935.21	331.26
935.519	321.55
935.827	307.99
936.135	321.77
936.443	327.19
936.751	333.75
937.059	312.73
937.367	339.17
937.674	338.49
937.982	320.64
938.29	311.38
938.597	301.21
938.905	309.12
939.213	338.04
939.52	305.95
939.827	310.02
940.135	315.44
940.442	309.34
940.749	343.01
941.056	334.2
941.363	321.77
941.67	313.18
941.977	306.86
942.284	324.48
942.591	310.7
942.898	316.35
943.205	326.52
943.511	303.69
943.818	318.61
944.125	320.19
944.431	309.34
944.738	301.21
945.044	326.06
945.35	303.47
945.657	299.4
945.963	302.34
946.269	311.6
946.575	341.66
946.881	306.86
947.187	323.35
947.493	288.33
947.799	303.47
948.105	310.25
948.41	317.25
948.716	322.9
949.022	311.83
949.327	314.77
949.633	329.45
949.938	332.84
950.244	313.41
950.549	311.83
950.854	316.8
951.16	322.45
951.465	334.2
951.77	319.96
952.075	325.84
952.38	316.8
952.685	313.86
952.99	307.76
953.294	324.71
953.599	312.73
953.904	312.28
954.209	301.43
954.513	333.3
954.818	310.92
955.122	324.93
955.426	296.91
955.731	326.97
956.035	300.3
956.339	306.63
956.643	317.93
956.948	304.6
957.252	324.48
957.556	301.66
957.86	316.8
958.163	307.08
958.467	311.83
958.771	303.01
959.075	296.69
959.378	315.67
959.682	322.68
959.985	307.99
960.289	314.77
960.592	326.29
960.896	306.63
961.199	303.01
961.502	306.86
961.805	327.19
962.108	322
962.411	301.66
962.714	320.64
963.017	307.08
963.32	305.5
963.623	301.66
963.926	316.57
964.228	308.66
964.531	297.37
964.833	295.33
965.136	298.95
965.438	316.57
965.741	312.73
966.043	305.73
966.345	324.71
966.648	314.09
966.95	322.68
967.252	311.38
967.554	320.42
967.856	295.11
968.158	304.6
968.46	304.82
968.761	308.21
969.063	315.67
969.365	319.29
969.666	305.95
969.968	324.26
970.269	307.31
970.571	308.21
970.872	306.86
971.174	307.53
971.475	327.65
971.776	294.88
972.077	320.64
972.378	315.67
972.679	298.72
972.98	316.8
973.281	300.53
973.582	286.74
973.883	301.66
974.183	318.16
974.484	290.13
974.785	330.36
975.085	293.52
975.386	304.6
975.686	333.3
975.986	317.25
976.287	324.48
976.587	288.33
976.887	323.35
977.187	306.4
977.487	307.99
977.787	313.86
978.087	306.86
978.387	313.86
978.687	308.66
978.987	317.03
979.286	312.05
979.586	317.03
979.885	314.77
980.185	299.85
980.484	317.48
980.784	310.92
981.083	323.81
981.382	310.25
981.682	323.35
981.981	306.86
982.28	312.51
982.579	310.25
982.878	314.09
983.177	321.55
983.475	311.6
983.774	293.75
984.073	309.34
984.372	319.96
984.67	307.76
984.969	308.66
985.267	331.04
985.566	303.01
985.864	315.9
986.162	309.79
986.461	314.09
986.759	314.54
987.057	303.24
987.355	317.93
987.653	332.17
987.951	316.35
988.249	306.18
988.547	312.51
988.844	320.42
989.142	330.81
989.44	323.13
989.737	313.64
990.035	294.2
990.332	312.73
990.63	321.77
990.927	317.48
991.224	296.46
991.521	296.24
991.819	311.6
992.116	309.79
992.413	324.48
992.71	307.76
993.006	306.18
993.303	296.01
993.6	291.26
993.897	303.01
994.193	319.51
994.49	324.03
994.787	313.64
995.083	303.47
995.379	315.9
995.676	312.05
995.972	295.78
996.268	317.25
996.565	318.16
996.861	303.69
997.157	314.99
997.453	322.45
997.749	315.9
998.044	317.93
998.34	298.72
998.636	330.58
998.932	315.67
999.227	310.7
999.523	300.08
999.818	297.82
1000.114	313.41
1000.409	299.62
1000.704	305.5
1001	325.61
1001.295	312.96
1001.59	307.08
1001.885	320.87
1002.18	321.55
1002.475	314.09
1002.77	317.25
1003.065	337.82
1003.359	304.82
1003.654	306.86
1003.949	318.83
1004.243	307.31
1004.538	320.19
1004.832	314.77
1005.127	321.09
1005.421	322.68
1005.715	296.69
1006.009	318.38
1006.304	325.16
1006.598	332.17
1006.892	316.35
1007.186	308.66
1007.48	310.92
1007.773	303.92
1008.067	325.61
1008.361	322
1008.655	314.99
1008.948	322.45
1009.242	331.71
1009.535	315.9
1009.829	308.44
1010.122	303.69
1010.415	299.17
1010.708	294.88
1011.001	308.44
1011.295	286.52
1011.588	296.24
1011.881	316.12
1012.173	321.77
1012.466	326.74
1012.759	284.03
1013.052	323.35
1013.344	307.53
1013.637	298.49
1013.93	326.74
1014.222	315.22
1014.514	310.25
1014.807	306.18
1015.099	294.88
1015.391	336.69
1015.683	307.53
1015.976	320.87
1016.268	319.06
1016.56	318.16
1016.851	324.03
1017.143	298.72
1017.435	319.74
1017.727	313.18
1018.018	298.72
1018.31	297.37
1018.602	311.38
1018.893	307.08
1019.185	306.4
1019.476	323.35
1019.767	309.34
1020.058	289.68
1020.35	315.67
1020.641	297.37
1020.932	328.1
1021.223	320.19
1021.514	333.52
1021.804	310.25
1022.095	285.16
1022.386	310.25
1022.677	332.62
1022.967	304.82
1023.258	320.42
1023.548	311.38
1023.839	312.96
1024.129	293.75
1024.419	314.09
1024.709	307.08
1025	309.57
1025.29	321.09
1025.58	318.16
1025.87	319.29
1026.16	342.56
1026.449	308.66
1026.739	287.42
1027.029	292.17
1027.319	303.24
1027.608	302.34
1027.898	316.8
1028.187	331.49
1028.477	326.97
1028.766	331.04
1029.055	325.16
1029.344	316.57
1029.634	297.14
1029.923	322.68
1030.212	308.21
1030.501	299.17
1030.79	318.16
1031.078	304.14
1031.367	319.06
1031.656	320.19
1031.945	304.37
1032.233	311.15
1032.522	311.15
1032.81	307.76
1033.099	317.93
1033.387	300.75
1033.675	297.82
1033.963	311.38
1034.251	306.63
1034.54	325.61
1034.828	281.77
1035.116	312.96
1035.403	305.05
1035.691	318.61
1035.979	311.38
1036.267	315.67
1036.554	313.86
1036.842	303.47
1037.129	301.43
1037.417	308.21
1037.704	306.4
1037.992	305.73
1038.279	317.48
1038.566	306.63
1038.853	306.63
1039.14	306.63
