Data from No_light_on_white_reflection_standard_FLMS001491_091.txt Node
Date: Tue Feb 07 10:33:10 GMT 2017
User: dcchb
Spectrometer: FLMS00149
Trigger mode: 0
Integration Time (sec): 2.000000E-2
Scans to average: 10
Electric dark correction enabled: true
Nonlinearity correction enabled: false
Boxcar width: 0
XAxis mode: Wavelengths
Number of Pixels in Spectrum: 2048
>>>>>Begin Spectral Data<<<<<
341.393	-9.82
341.776	-9.82
342.16	-9.82
342.543	-55.24
342.927	-82.13
343.31	-73.54
343.693	-68.8
344.077	-59.76
344.46	-71.51
344.843	-61.57
345.226	-50.94
345.61	-42.81
345.993	-6.2
346.376	7.81
346.759	11.2
347.142	28.37
347.525	36.96
347.908	62.5
348.291	67.02
348.674	105.89
349.057	115.38
349.44	134.59
349.823	154.25
350.206	160.57
350.588	171.2
350.971	185.43
351.354	177.3
351.737	233.12
352.119	236.28
352.502	220.23
352.884	243.28
353.267	249.39
353.65	264.98
354.032	270.4
354.414	292.55
354.797	274.7
355.179	281.25
355.562	283.06
355.944	295.71
356.326	298.42
356.709	300.68
357.091	307.46
357.473	318.54
357.855	311.08
358.238	315.37
358.62	322.15
359.002	323.96
359.384	300.01
359.766	314.92
360.148	314.02
360.53	318.31
360.912	326.67
361.294	301.59
361.676	332.1
362.057	302.72
362.439	297.75
362.821	311.08
363.203	283.06
363.584	281.48
363.966	277.86
364.348	297.07
364.729	299.1
365.111	289.16
365.493	275.15
365.874	293.45
366.256	311.76
366.637	277.63
367.019	280.57
367.4	296.62
367.781	271.98
368.163	287.8
368.544	288.26
368.925	271.31
369.306	292.32
369.688	292.1
370.069	288.48
370.45	275.6
370.831	269.5
371.212	286.22
371.593	278.09
371.974	276.5
372.355	272.21
372.736	293.68
373.117	277.41
373.498	267.92
373.879	283.06
374.26	283.06
374.641	271.08
375.021	270.4
375.402	279.89
375.783	272.66
376.163	281.25
376.544	279.67
376.925	291.64
377.305	294.81
377.686	288.71
378.066	277.18
378.447	288.71
378.827	292.77
379.208	290.06
379.588	291.42
379.968	309.27
380.349	288.93
380.729	274.7
381.109	301.14
381.489	286
381.87	290.29
382.25	297.52
382.63	304.3
383.01	290.06
383.39	300.01
383.77	296.84
384.15	282.61
384.53	292.77
384.91	293
385.29	307.69
385.67	292.77
386.049	282.83
386.429	292.77
386.809	294.81
387.189	288.71
387.568	289.39
387.948	292.77
388.328	319.67
388.707	307.01
389.087	308.14
389.466	306.79
389.846	298.42
390.225	293.45
390.605	286
390.984	316.5
391.363	276.28
391.743	317.41
392.122	295.26
392.501	295.71
392.881	295.03
393.26	295.26
393.639	296.16
394.018	320.34
394.397	308.37
394.776	295.03
395.155	307.92
395.534	310.85
395.913	282.61
396.292	302.94
396.671	289.39
397.05	288.71
397.429	299.1
397.808	298.88
398.186	319.89
398.565	290.74
398.944	287.35
399.323	302.27
399.701	289.61
400.08	279.44
400.458	307.69
400.837	299.55
401.215	301.59
401.594	311.76
401.972	310.4
402.351	307.69
402.729	293.23
403.107	304.75
403.486	295.71
403.864	302.04
404.242	293.45
404.62	300.46
404.999	307.01
405.377	307.92
405.755	323.28
406.133	304.53
406.511	299.55
406.889	332.77
407.267	296.62
407.645	297.29
408.023	298.88
408.401	309.27
408.779	306.79
409.156	312.21
409.534	308.14
409.912	310.4
410.29	318.99
410.667	312.44
411.045	320.34
411.422	305.2
411.8	288.03
412.178	314.7
412.555	310.4
412.933	319.21
413.31	309.5
413.687	300.01
414.065	319.67
414.442	301.14
414.819	296.16
415.197	303.62
415.574	311.53
415.951	304.53
416.328	314.02
416.705	314.92
417.082	300.46
417.46	316.95
417.837	330.51
418.214	323.51
418.591	317.63
418.967	323.73
419.344	325.77
419.721	306.56
420.098	300.01
420.475	304.3
420.852	306.11
421.228	313.57
421.605	311.08
421.982	321.7
422.358	296.84
422.735	335.03
423.111	337.29
423.488	312.44
423.864	311.31
424.241	330.51
424.617	327.58
424.994	315.6
425.37	321.7
425.746	325.09
426.123	307.01
426.499	328.03
426.875	330.06
427.251	328.03
427.627	312.66
428.003	309.27
428.379	313.34
428.756	327.8
429.132	303.62
429.507	328.03
429.883	323.96
430.259	319.21
430.635	300.91
431.011	314.92
431.387	321.02
431.763	321.93
432.138	337.75
432.514	300.01
432.89	328.71
433.265	335.03
433.641	307.92
434.016	323.73
434.392	310.4
434.767	319.44
435.143	325.32
435.518	330.51
435.894	322.6
436.269	319.89
436.644	330.51
437.02	323.73
437.395	332.32
437.77	327.35
438.145	325.09
438.52	345.43
438.895	349.72
439.271	350.17
439.646	353.79
440.021	343.17
440.395	361.7
440.77	344.52
441.145	350.17
441.52	332.55
441.895	340.01
442.27	355.6
442.645	336.39
443.019	340.91
443.394	363.51
443.769	338.65
444.143	340.68
444.518	331.64
444.892	356.95
445.267	335.49
445.641	333.68
446.016	367.8
446.39	363.73
446.764	351.08
447.139	382.04
447.513	358.08
447.887	370.29
448.262	378.42
448.636	362.6
449.01	379.33
449.384	369.38
449.758	363.51
450.132	386.33
450.506	387.24
450.88	368.93
451.254	373.22
451.628	372.55
452.002	383.62
452.376	371.64
452.75	392.89
453.123	363.06
453.497	387.01
453.871	367.12
454.244	393.56
454.618	380.68
454.992	375.71
455.365	363.51
455.739	382.04
456.112	381.13
456.486	364.19
456.859	380.91
457.232	382.26
457.606	363.28
457.979	371.87
458.352	375.26
458.725	379.78
459.099	392.21
459.472	375.03
459.845	366.67
460.218	360.34
460.591	383.39
460.964	365.09
461.337	373
461.71	368.25
462.083	371.42
462.456	370.74
462.829	349.27
463.201	350.63
463.574	347.69
463.947	354.24
464.32	368.7
464.692	349.5
465.065	376.16
465.438	380.68
465.81	374.13
466.183	360.57
466.555	357.18
466.928	387.91
467.3	371.42
467.672	356.28
468.045	353.79
468.417	365.77
468.789	362.15
469.161	367.58
469.534	358.31
469.906	364.86
470.278	361.02
470.65	368.7
471.022	370.51
471.394	357.41
471.766	354.24
472.138	371.42
472.51	369.16
472.882	354.24
473.253	356.28
473.625	343.17
473.997	362.15
474.369	362.6
474.74	369.16
475.112	333.23
475.484	359.67
475.855	341.59
476.227	356.73
476.598	353.56
476.97	365.09
477.341	370.29
477.713	362.15
478.084	339.78
478.455	363.06
478.827	360.57
479.198	363.51
479.569	385.88
479.94	356.5
480.311	366.9
480.682	394.47
481.053	355.6
481.424	389.27
481.795	359.44
482.166	362.15
482.537	361.47
482.908	354.92
483.279	379.55
483.65	370.29
484.021	380.91
484.391	371.42
484.762	382.49
485.133	350.17
485.503	386.78
485.874	382.72
486.244	370.96
486.615	386.33
486.985	385.2
487.356	358.99
487.726	379.33
488.097	353.79
488.467	385.65
488.837	371.87
489.207	375.03
489.578	384.75
489.948	390.63
490.318	368.93
490.688	384.75
491.058	364.64
491.428	365.77
491.798	387.46
492.168	392.89
492.538	362.83
492.908	385.88
493.278	400.34
493.648	368.25
494.017	383.39
494.387	394.92
494.757	399.44
495.126	397.4
495.496	394.24
495.866	391.98
496.235	385.2
496.605	392.21
496.974	385.2
497.344	401.25
497.713	403.05
498.082	404.64
498.452	405.09
498.821	406.67
499.19	405.09
499.559	416.16
499.928	415.71
500.298	410.96
500.667	404.64
501.036	405.99
501.405	422.71
501.774	401.25
502.143	422.71
502.512	410.29
502.88	422.49
503.249	414.81
503.618	414.13
503.987	443.51
504.356	384.52
504.724	418.2
505.093	420.23
505.462	413.68
505.83	413.9
506.199	416.16
506.567	424.52
506.936	428.36
507.304	425.2
507.672	445.77
508.041	473.56
508.409	415.26
508.777	430.4
509.145	424.97
509.514	419.78
509.882	453.45
510.25	435.14
510.618	436.27
510.986	447.35
511.354	415.48
511.722	429.49
512.09	453
512.458	452.32
512.826	458.19
513.193	463.84
513.561	430.4
513.929	454.35
514.297	434.69
514.664	469.49
515.032	460
515.4	433.34
515.767	464.07
516.135	476.72
516.502	464.52
516.869	464.52
517.237	445.31
517.604	464.52
517.972	460
518.339	477.4
518.706	457.06
519.073	480.11
519.44	460.23
519.808	457.29
520.175	467.91
520.542	486.89
520.909	466.1
521.276	484.41
521.643	470.17
522.009	475.14
522.376	477.4
522.743	496.39
523.11	492.32
523.477	497.52
523.843	483.5
524.21	478.08
524.577	502.94
524.943	479.89
525.31	478.76
525.676	492.54
526.043	484.41
526.409	490.74
526.776	489.61
527.142	488.7
527.508	516.05
527.874	490.51
528.241	490.74
528.607	482.6
528.973	489.61
529.339	482.83
529.705	512.43
530.071	501.13
530.437	503.16
530.803	497.97
531.169	507.91
531.535	486.89
531.901	500.45
532.267	527.12
532.632	516.05
532.998	503.39
533.364	521.24
533.73	503.39
534.095	538.19
534.461	508.14
534.826	518.98
535.192	533.45
535.557	499.32
535.923	500.68
536.288	503.16
536.653	536.38
537.019	511.53
537.384	506.33
537.749	512.88
538.114	528.02
538.479	523.73
538.845	520.57
539.21	512.43
539.575	531.86
539.94	532.99
540.305	534.8
540.67	525.76
541.034	506.33
541.399	513.33
541.764	524.63
542.129	534.12
542.494	504.29
542.858	517.63
543.223	512.66
543.587	523.5
543.952	509.94
544.316	527.34
544.681	523.73
545.045	520.57
545.41	532.77
545.774	524.18
546.138	541.13
546.503	550.62
546.867	546.33
547.231	558.3
547.595	533.22
547.959	539.32
548.324	537.97
548.688	537.51
549.052	536.38
549.416	513.56
549.779	533.45
550.143	548.81
550.507	558.53
550.871	514.92
551.235	543.39
551.599	526.21
551.962	535.03
552.326	527.57
552.689	537.06
553.053	548.36
553.417	520.57
553.78	536.84
554.143	553.33
554.507	538.42
554.87	547.23
555.234	563.95
555.597	535.25
555.96	553.33
556.323	552.2
556.686	567.8
557.05	587.68
557.413	553.11
557.776	562.15
558.139	555.59
558.502	538.87
558.865	559.89
559.228	563.5
559.59	557.85
559.953	578.64
560.316	556.27
560.679	561.24
561.041	546.55
561.404	568.7
561.767	560.56
562.129	553.56
562.492	553.78
562.854	563.95
563.217	584.97
563.579	567.57
563.941	586.33
564.304	556.27
564.666	589.26
565.028	577.51
565.39	585.65
565.753	565.54
566.115	574.8
566.477	561.02
566.839	565.31
567.201	570.06
567.563	576.16
567.925	593.56
568.287	578.87
568.648	584.97
569.01	578.87
569.372	575.93
569.734	579.55
570.095	579.09
570.457	576.16
570.819	579.55
571.18	573.22
571.542	585.42
571.903	587.23
572.265	591.75
572.626	579.77
572.987	572.32
573.349	579.77
573.71	606.21
574.071	594.24
574.432	593.56
574.794	605.31
575.155	587.23
575.516	592.65
575.877	621.13
576.238	589.94
576.599	583.16
576.96	599.43
577.32	612.99
577.681	590.17
578.042	601.69
578.403	580.9
578.763	621.35
579.124	607.79
579.485	594.01
579.845	605.08
580.206	618.19
580.566	607.12
580.927	590.17
581.287	595.37
581.648	572.77
582.008	603.95
582.368	620.22
582.728	605.53
583.089	610.28
583.449	613.67
583.809	595.59
584.169	599.21
584.529	601.47
584.889	606.89
585.249	600.56
585.609	594.01
585.969	603.28
586.329	612.31
586.688	596.5
587.048	620.68
587.408	611.86
587.768	607.79
588.127	617.74
588.487	600.56
588.846	603.28
589.206	580
589.565	599.66
589.925	570.06
590.284	583.84
590.643	598.98
591.003	570.73
591.362	592.65
591.721	591.98
592.08	595.82
592.44	600.11
592.799	599.66
593.158	588.81
593.517	594.91
593.876	600.11
594.235	600.11
594.593	611.64
594.952	601.24
595.311	591.98
595.67	595.59
596.029	597.63
596.387	590.62
596.746	577.51
597.104	591.3
597.463	599.21
597.822	585.42
598.18	576.38
598.538	582.26
598.897	598.08
599.255	570.06
599.613	602.6
599.972	603.05
600.33	605.31
600.688	565.31
601.046	570.06
601.404	568.25
601.762	556.72
602.12	559.43
602.478	567.12
602.836	578.19
603.194	578.42
603.552	598.08
603.91	583.84
604.268	582.48
604.625	603.28
604.983	589.72
605.341	595.14
605.698	577.74
606.056	594.69
606.413	559.21
606.771	581.58
607.128	572.09
607.485	581.13
607.843	574.8
608.2	591.52
608.557	584.97
608.914	561.69
609.272	565.76
609.629	579.77
609.986	576.38
610.343	559.21
610.7	561.47
611.057	566.21
611.414	567.8
611.771	565.08
612.127	571.64
612.484	563.73
612.841	563.95
613.198	554.91
613.554	538.87
613.911	551.3
614.267	536.61
614.624	550.62
614.98	582.48
615.337	561.92
615.693	561.69
616.05	567.57
616.406	535.25
616.762	568.47
617.118	544.97
617.475	564.63
617.831	547.46
618.187	546.55
618.543	543.84
618.899	529.83
619.255	560.34
619.611	565.31
619.967	543.16
620.323	558.98
620.678	554.69
621.034	549.49
621.39	542.71
621.746	522.83
622.101	518.53
622.457	540.45
622.812	509.72
623.168	539.1
623.523	516.72
623.879	533.22
624.234	535.03
624.589	538.64
624.945	522.83
625.3	533.22
625.655	529.83
626.01	525.76
626.365	521.92
626.72	522.37
627.075	501.36
627.43	525.76
627.785	510.4
628.14	510.62
628.495	521.24
628.85	519.21
629.205	525.54
629.559	523.05
629.914	506.78
630.269	518.76
630.623	520.11
630.978	518.53
631.332	531.64
631.687	509.72
632.041	493
632.396	502.71
632.75	492.09
633.104	483.96
633.459	505.88
633.813	517.18
634.167	473.56
634.521	500
634.875	502.03
635.229	496.84
635.583	480.57
635.937	495.48
636.291	503.39
636.645	489.61
636.999	522.37
637.352	476.27
637.706	477.85
638.06	481.7
638.413	495.48
638.767	466.33
639.121	480.57
639.474	496.61
639.828	481.92
640.181	467.69
640.534	455.03
640.888	477.63
641.241	465.88
641.594	472.43
641.947	451.87
642.301	440.12
642.654	460.68
643.007	475.14
643.36	457.74
643.713	465.65
644.066	468.82
644.419	473.56
644.771	481.02
645.124	449.61
645.477	463.17
645.83	466.33
646.182	477.85
646.535	442.6
646.888	441.25
647.24	440.79
647.593	436.27
647.945	467.91
648.298	449.61
648.65	433.56
649.002	438.31
649.355	429.04
649.707	436.05
650.059	469.95
650.411	443.28
650.763	437.63
651.115	460.91
651.467	460
651.819	434.69
652.171	438.31
652.523	437.86
652.875	445.31
653.227	431.98
653.578	442.15
653.93	442.6
654.282	437.18
654.633	426.33
654.985	419.33
655.337	415.71
655.688	429.27
656.039	412.32
656.391	423.84
656.742	424.52
657.094	427.23
657.445	437.18
657.796	418.42
658.147	397.4
658.498	413.68
658.849	417.07
659.2	433.79
659.551	423.62
659.902	434.69
660.253	404.41
660.604	422.26
660.955	416.61
661.306	415.94
661.656	422.04
662.007	424.52
662.358	403.96
662.708	397.86
663.059	407.8
663.409	401.92
663.76	410.96
664.11	440.57
664.461	412.77
664.811	408.93
665.161	399.21
665.511	432.21
665.862	428.36
666.212	421.13
666.562	389.5
666.912	433.11
667.262	406.22
667.612	413
667.962	415.26
668.312	399.89
668.662	404.41
669.011	408.25
669.361	389.72
669.711	392.43
670.06	418.65
670.41	404.18
670.76	407.57
671.109	430.4
671.459	385.88
671.808	391.98
672.157	375.48
672.507	410.96
672.856	368.93
673.205	397.63
673.554	400.79
673.904	399.66
674.253	399.66
674.602	373.45
674.951	376.39
675.3	375.94
675.649	386.11
675.998	411.19
676.346	389.5
676.695	387.91
677.044	385.65
677.393	388.82
677.741	380.46
678.09	406.22
678.438	384.3
678.787	365.99
679.135	387.46
679.484	383.85
679.832	368.48
680.181	378.87
680.529	370.96
680.877	398.53
681.225	399.21
681.573	389.5
681.922	394.69
682.27	386.56
682.618	388.37
682.966	386.11
683.314	365.99
683.661	361.47
684.009	353.79
684.357	363.73
684.705	367.58
685.053	388.82
685.4	354.92
685.748	372.55
686.095	368.25
686.443	377.29
686.79	365.77
687.138	371.42
687.485	371.64
687.832	361.47
688.18	382.04
688.527	360.34
688.874	384.52
689.221	379.1
689.568	390.63
689.915	375.94
690.262	370.29
690.609	368.25
690.956	367.58
691.303	377.07
691.65	347.69
691.997	365.09
692.344	362.15
692.69	365.77
693.037	371.19
693.383	368.7
693.73	369.83
694.077	362.6
694.423	367.8
694.769	364.19
695.116	379.33
695.462	358.54
695.808	346.33
696.155	346.11
696.501	360.12
696.847	366.22
697.193	373.22
697.539	378.2
697.885	368.03
698.231	353.11
698.577	356.28
698.923	342.94
699.269	361.7
699.614	355.82
699.96	346.56
700.306	348.37
700.651	358.54
700.997	358.99
701.342	368.7
701.688	366.9
702.033	351.53
702.379	360.8
702.724	351.53
703.069	340.01
703.415	361.25
703.76	351.76
704.105	349.04
704.45	366.9
704.795	333
705.14	358.31
705.485	351.53
705.83	347.69
706.175	375.26
706.52	354.92
706.865	361.02
707.209	354.69
707.554	343.85
707.899	354.92
708.243	384.07
708.588	346.78
708.932	316.28
709.277	354.47
709.621	357.63
709.966	346.33
710.31	363.73
710.654	360.34
710.998	356.95
711.342	347.24
711.687	355.15
712.031	352.66
712.375	357.63
712.719	340.01
713.063	353.34
713.407	344.98
713.75	360.8
714.094	376.61
714.438	351.3
714.782	368.48
715.125	361.7
715.469	342.72
715.812	384.07
716.156	357.18
716.499	348.59
716.843	351.76
717.186	349.72
717.53	343.17
717.873	344.07
718.216	370.96
718.559	325.54
718.902	342.27
719.246	351.76
719.589	348.14
719.932	354.69
720.275	341.81
720.617	358.99
720.96	325.77
721.303	355.15
721.646	334.13
721.989	358.31
722.331	335.71
722.674	352.43
723.016	356.5
723.359	352.21
723.701	350.17
724.044	350.17
724.386	341.81
724.729	344.07
725.071	343.85
725.413	333.9
725.755	331.64
726.097	342.49
726.439	346.11
726.782	345.43
727.124	341.59
727.465	346.33
727.807	342.04
728.149	332.55
728.491	344.75
728.833	335.94
729.175	332.55
729.516	346.56
729.858	318.54
730.199	343.62
730.541	342.94
730.882	333.68
731.224	336.16
731.565	321.7
731.906	357.41
732.248	351.3
732.589	352.43
732.93	347.24
733.271	339.55
733.612	349.72
733.953	344.75
734.294	336.39
734.635	333
734.976	336.39
735.317	331.42
735.658	324.41
735.999	365.32
736.339	349.95
736.68	334.36
737.021	350.63
737.361	327.8
737.702	334.58
738.042	347.46
738.383	361.25
738.723	335.03
739.063	323.51
739.404	331.87
739.744	334.13
740.084	355.15
740.424	348.59
740.764	337.07
741.104	325.32
741.444	324.19
741.784	343.39
742.124	346.11
742.464	342.27
742.804	343.85
743.143	332.1
743.483	338.88
743.823	346.11
744.162	328.03
744.502	355.37
744.841	337.52
745.181	339.55
745.52	347.46
745.86	347.01
746.199	353.79
746.538	327.58
746.877	322.15
747.216	333
747.556	352.43
747.895	345.2
748.234	337.29
748.573	342.04
748.911	359.21
749.25	342.94
749.589	337.52
749.928	339.78
750.267	321.7
750.605	347.46
750.944	328.71
751.283	313.57
751.621	332.1
751.96	338.65
752.298	357.41
752.636	340.01
752.975	340.46
753.313	336.16
753.651	345.43
753.989	329.84
754.327	345.2
754.666	352.43
755.004	328.48
755.342	337.07
755.679	345.43
756.017	352.89
756.355	328.48
756.693	342.27
757.031	333.45
757.368	338.88
757.706	340.68
758.044	336.62
758.381	352.66
758.719	317.63
759.056	342.94
759.394	325.77
759.731	321.7
760.068	337.29
760.405	337.07
760.743	323.06
761.08	337.52
761.417	334.58
761.754	334.81
762.091	323.28
762.428	329.84
762.765	330.74
763.102	319.21
763.438	340.23
763.775	327.58
764.112	321.7
764.449	314.02
764.785	333.45
765.122	322.38
765.458	337.07
765.795	354.47
766.131	333.9
766.467	330.74
766.804	346.33
767.14	343.39
767.476	321.93
767.812	328.48
768.148	339.78
768.485	341.81
768.821	339.1
769.157	331.64
769.492	326.9
769.828	335.94
770.164	315.37
770.5	347.91
770.836	343.39
771.171	325.77
771.507	345.43
771.842	344.3
772.178	356.05
772.513	337.29
772.849	330.74
773.184	330.51
773.519	339.55
773.855	335.26
774.19	328.93
774.525	325.32
774.86	334.13
775.195	327.35
775.53	331.64
775.865	351.53
776.2	341.36
776.535	328.48
776.87	330.74
777.205	343.85
777.539	344.3
777.874	308.37
778.209	319.67
778.543	351.53
778.878	339.1
779.212	336.62
779.547	334.36
779.881	330.74
780.215	340.68
780.55	317.86
780.884	322.6
781.218	328.93
781.552	346.78
781.886	331.87
782.22	343.17
782.554	335.49
782.888	332.1
783.222	323.28
783.556	340.68
783.889	330.74
784.223	338.88
784.557	349.95
784.89	334.36
785.224	330.97
785.557	326.9
785.891	354.69
786.224	321.7
786.558	341.36
786.891	328.93
787.224	314.24
787.557	323.96
787.891	346.33
788.224	306.79
788.557	326.67
788.89	342.04
789.223	330.06
789.556	319.21
789.888	333
790.221	323.73
790.554	330.29
790.887	332.77
791.219	316.73
791.552	350.85
791.884	323.73
792.217	353.79
792.549	318.31
792.882	347.91
793.214	334.81
793.546	349.5
793.879	322.15
794.211	332.1
794.543	325.54
794.875	337.29
795.207	324.19
795.539	326.45
795.871	342.94
796.203	341.81
796.535	340.46
796.867	325.54
797.198	333.45
797.53	337.07
797.862	329.16
798.193	331.42
798.525	346.78
798.856	317.41
799.188	323.51
799.519	324.41
799.85	326.22
800.182	338.65
800.513	337.07
800.844	335.71
801.175	333
801.506	318.54
801.837	333
802.168	337.29
802.499	317.86
802.83	332.55
803.161	318.76
803.491	340.68
803.822	334.81
804.153	323.28
804.483	336.84
804.814	323.28
805.145	332.1
805.475	322.83
805.805	321.47
806.136	324.86
806.466	327.35
806.796	341.81
807.126	329.61
807.457	307.92
807.787	328.48
808.117	339.33
808.447	342.27
808.777	326.22
809.107	312.21
809.436	333.68
809.766	323.28
810.096	344.3
810.426	317.63
810.755	322.83
811.085	321.7
811.414	328.48
811.744	328.71
812.073	328.25
812.403	331.87
812.732	343.39
813.061	349.27
813.39	322.6
813.719	313.57
814.049	335.26
814.378	319.67
814.707	343.85
815.036	334.13
815.365	331.87
815.693	339.78
816.022	315.83
816.351	328.48
816.68	345.2
817.008	340.46
817.337	340.68
817.665	338.2
817.994	323.06
818.322	344.3
818.651	328.48
818.979	331.19
819.307	313.79
819.636	322.38
819.964	330.97
820.292	341.81
820.62	332.77
820.948	324.86
821.276	336.62
821.604	334.58
821.932	325.77
822.259	330.97
822.587	320.8
822.915	336.62
823.243	320.12
823.57	311.08
823.898	323.06
824.225	334.58
824.553	328.93
824.88	312.89
825.207	340.01
825.535	343.39
825.862	325.54
826.189	344.3
826.516	348.14
826.843	327.8
827.17	329.61
827.497	325.32
827.824	343.39
828.151	344.98
828.478	345.88
828.805	341.59
829.131	333
829.458	324.19
829.785	327.35
830.111	326.22
830.438	341.59
830.764	335.49
831.09	323.51
831.417	315.83
831.743	330.51
832.069	321.47
832.395	332.1
832.722	316.73
833.048	326.67
833.374	322.38
833.7	322.83
834.026	310.85
834.351	327.35
834.677	309.27
835.003	325.09
835.329	315.37
835.654	316.05
835.98	325.32
836.306	330.51
836.631	336.62
836.956	325.99
837.282	332.55
837.607	341.36
837.932	326.22
838.258	325.77
838.583	320.8
838.908	329.84
839.233	353.11
839.558	327.12
839.883	345.43
840.208	343.62
840.533	343.62
840.858	315.6
841.182	318.99
841.507	314.02
841.832	325.32
842.156	325.54
842.481	333.68
842.805	340.68
843.13	344.52
843.454	336.39
843.778	321.47
844.103	311.98
844.427	347.69
844.751	347.69
845.075	335.94
845.399	314.47
845.723	326.9
846.047	332.1
846.371	349.04
846.695	343.39
847.019	338.2
847.343	318.08
847.666	314.7
847.99	305.88
848.313	312.89
848.637	344.98
848.96	306.11
849.284	333.23
849.607	320.12
849.931	324.86
850.254	347.46
850.577	333
850.9	322.83
851.223	320.8
851.546	343.85
851.869	317.63
852.192	330.29
852.515	325.99
852.838	337.97
853.161	338.2
853.483	342.27
853.806	334.58
854.129	319.21
854.451	330.06
854.774	346.33
855.096	319.21
855.419	322.83
855.741	323.06
856.063	317.86
856.385	331.64
856.708	328.93
857.03	337.75
857.352	335.49
857.674	328.71
857.996	310.63
858.318	317.18
858.64	310.4
858.961	323.73
859.283	310.4
859.605	331.42
859.926	329.84
860.248	317.41
860.57	322.6
860.891	316.05
861.212	310.85
861.534	323.51
861.855	323.06
862.176	339.33
862.498	313.11
862.819	324.19
863.14	322.6
863.461	315.6
863.782	318.54
864.103	315.37
864.424	311.98
864.745	345.43
865.065	341.14
865.386	335.03
865.707	323.28
866.027	330.74
866.348	336.62
866.668	334.13
866.989	336.84
867.309	323.28
867.63	337.29
867.95	316.5
868.27	317.86
868.59	315.83
868.91	321.93
869.23	356.5
869.55	323.06
869.87	348.14
870.19	307.24
870.51	331.87
870.83	314.7
871.15	299.55
871.469	332.1
871.789	326.45
872.109	323.51
872.428	314.92
872.748	330.29
873.067	314.47
873.386	335.94
873.706	332.1
874.025	344.52
874.344	319.67
874.663	319.44
874.982	330.29
875.301	320.34
875.62	331.87
875.939	321.25
876.258	319.67
876.577	321.25
876.896	327.12
877.214	324.41
877.533	340.91
877.852	321.25
878.17	340.68
878.489	336.39
878.807	321.25
879.125	324.41
879.444	302.72
879.762	313.79
880.08	323.96
880.398	324.64
880.716	314.92
881.034	333.23
881.352	344.3
881.67	330.29
881.988	313.34
882.306	331.42
882.624	315.6
882.941	318.99
883.259	340.46
883.577	338.65
883.894	332.1
884.212	315.6
884.529	321.93
884.846	322.6
885.164	328.03
885.481	322.6
885.798	331.64
886.115	327.12
886.432	310.18
886.75	324.64
887.067	324.41
887.383	344.52
887.7	320.57
888.017	334.58
888.334	335.49
888.651	322.15
888.967	325.77
889.284	357.18
889.6	341.36
889.917	341.81
890.233	323.96
890.55	315.37
890.866	320.34
891.182	347.01
891.498	338.42
891.815	305.88
892.131	330.06
892.447	330.51
892.763	307.69
893.079	341.59
893.395	328.25
893.71	323.73
894.026	323.51
894.342	295.03
894.657	348.82
894.973	332.32
895.289	315.83
895.604	324.19
895.92	329.16
896.235	332.55
896.55	337.29
896.865	309.72
897.181	327.35
897.496	328.25
897.811	336.84
898.126	310.4
898.441	306.79
898.756	337.07
899.071	340.91
899.386	307.92
899.7	317.63
900.015	330.06
900.33	327.12
900.644	323.73
900.959	339.33
901.273	319.67
901.588	316.5
901.902	313.79
902.216	314.02
902.531	335.94
902.845	342.04
903.159	333
903.473	331.19
903.787	325.32
904.101	329.16
904.415	328.48
904.729	327.58
905.042	316.05
905.356	329.61
905.67	333.23
905.984	320.12
906.297	328.25
906.611	315.37
906.924	295.03
907.237	319.67
907.551	320.12
907.864	332.77
908.177	329.61
908.491	319.89
908.804	313.79
909.117	328.71
909.43	334.36
909.743	330.51
910.056	342.49
910.368	337.75
910.681	318.08
910.994	341.81
911.307	331.19
911.619	316.28
911.932	344.3
912.244	317.41
912.557	338.2
912.869	338.88
913.181	318.08
913.494	324.19
913.806	325.99
914.118	321.7
914.43	337.29
914.742	324.19
915.054	319.44
915.366	304.3
915.678	335.26
915.99	328.48
916.302	328.93
916.613	325.32
916.925	310.18
917.236	320.12
917.548	328.71
917.859	336.39
918.171	329.61
918.482	304.98
918.794	338.65
919.105	312.89
919.416	336.39
919.727	326.22
920.038	329.16
920.349	314.02
920.66	327.8
920.971	314.92
921.282	328.48
921.593	340.23
921.903	311.31
922.214	329.38
922.525	337.75
922.835	333.45
923.146	330.06
923.456	329.38
923.767	329.16
924.077	334.58
924.387	332.32
924.697	323.96
925.008	318.54
925.318	332.77
925.628	309.95
925.938	337.07
926.248	326.45
926.558	326.45
926.867	333.45
927.177	329.16
927.487	323.73
927.796	333.68
928.106	324.86
928.416	337.29
928.725	315.37
929.034	326.67
929.344	338.65
929.653	331.19
929.962	330.51
930.271	310.63
930.581	349.95
930.89	344.75
931.199	302.94
931.508	347.24
931.817	323.28
932.125	319.89
932.434	304.07
932.743	330.74
933.051	308.59
933.36	328.25
933.669	331.64
933.977	333.45
934.286	331.64
934.594	319.21
934.902	319.67
935.21	322.6
935.519	325.54
935.827	318.08
936.135	323.06
936.443	326.67
936.751	315.15
937.059	322.15
937.367	315.6
937.674	328.71
937.982	338.42
938.29	330.74
938.597	309.72
938.905	339.1
939.213	323.73
939.52	334.58
939.827	333.45
940.135	316.95
940.442	323.06
940.749	329.84
941.056	296.62
941.363	316.5
941.67	307.92
941.977	319.89
942.284	322.6
942.591	326.9
942.898	334.36
943.205	333.23
943.511	309.27
943.818	312.21
944.125	307.46
944.431	309.95
944.738	317.18
945.044	319.21
945.35	318.99
945.657	332.32
945.963	332.32
946.269	319.44
946.575	338.2
946.881	303.62
947.187	301.14
947.493	319.44
947.799	324.86
948.105	333.23
948.41	330.06
948.716	311.98
949.022	322.83
949.327	317.63
949.633	308.59
949.938	308.82
950.244	327.58
950.549	327.58
950.854	321.7
951.16	307.01
951.465	333.9
951.77	321.25
952.075	332.55
952.38	321.47
952.685	324.86
952.99	345.65
953.294	321.7
953.599	311.08
953.904	322.83
954.209	333.68
954.513	313.57
954.818	327.58
955.122	337.75
955.426	309.72
955.731	307.24
956.035	314.24
956.339	320.12
956.643	327.12
956.948	331.64
957.252	327.12
957.556	340.01
957.86	323.73
958.163	331.64
958.467	308.59
958.771	308.37
959.075	295.71
959.378	314.02
959.682	326.22
959.985	311.98
960.289	307.46
960.592	335.49
960.896	306.11
961.199	318.31
961.502	326.45
961.805	325.32
962.108	312.89
962.411	336.16
962.714	302.72
963.017	330.74
963.32	321.7
963.623	315.15
963.926	342.72
964.228	329.61
964.531	304.3
964.833	322.15
965.136	320.57
965.438	312.66
965.741	322.83
966.043	310.4
966.345	303.85
966.648	318.08
966.95	325.99
967.252	331.42
967.554	333.45
967.856	306.33
968.158	329.38
968.46	324.64
968.761	328.03
969.063	321.47
969.365	308.59
969.666	319.67
969.968	334.36
970.269	315.6
970.571	321.02
970.872	312.89
971.174	318.54
971.475	316.95
971.776	326.67
972.077	331.87
972.378	328.25
972.679	338.65
972.98	329.61
973.281	317.41
973.582	317.41
973.883	328.03
974.183	309.05
974.484	317.86
974.785	315.6
975.085	297.97
975.386	314.47
975.686	307.92
975.986	325.54
976.287	330.51
976.587	317.86
976.887	342.27
977.187	332.1
977.487	316.95
977.787	316.05
978.087	330.29
978.387	320.57
978.687	321.02
978.987	309.95
979.286	323.28
979.586	325.77
979.885	333
980.185	325.77
980.484	330.51
980.784	334.58
981.083	325.77
981.382	317.41
981.682	311.53
981.981	313.34
982.28	324.41
982.579	328.93
982.878	317.41
983.177	332.55
983.475	311.76
983.774	320.57
984.073	325.32
984.372	304.07
984.67	318.99
984.969	320.34
985.267	315.37
985.566	304.98
985.864	325.32
986.162	330.97
986.461	307.24
986.759	342.72
987.057	314.24
987.355	322.38
987.653	321.7
987.951	299.55
988.249	329.84
988.547	324.64
988.844	310.18
989.142	332.77
989.44	318.08
989.737	328.93
990.035	309.5
990.332	311.76
990.63	327.58
990.927	322.15
991.224	319.21
991.521	326.67
991.819	313.57
992.116	320.34
992.413	324.41
992.71	317.86
993.006	323.06
993.303	321.02
993.6	301.81
993.897	335.49
994.193	314.7
994.49	334.58
994.787	326.45
995.083	316.05
995.379	316.95
995.676	321.47
995.972	350.4
996.268	323.73
996.565	329.61
996.861	314.92
997.157	304.07
997.453	319.89
997.749	330.06
998.044	313.57
998.34	326.67
998.636	307.46
998.932	318.54
999.227	319.21
999.523	290.06
999.818	294.36
1000.114	325.54
1000.409	299.33
1000.704	310.4
1001	323.28
1001.295	303.17
1001.59	313.57
1001.885	316.73
1002.18	323.51
1002.475	325.77
1002.77	312.66
1003.065	312.21
1003.359	322.38
1003.654	319.67
1003.949	307.46
1004.243	322.38
1004.538	323.51
1004.832	332.1
1005.127	326.22
1005.421	324.41
1005.715	314.7
1006.009	335.03
1006.304	321.47
1006.598	322.6
1006.892	331.42
1007.186	332.32
1007.48	314.92
1007.773	344.98
1008.067	316.73
1008.361	311.08
1008.655	310.85
1008.948	314.47
1009.242	311.31
1009.535	330.74
1009.829	311.53
1010.122	302.94
1010.415	330.06
1010.708	311.31
1011.001	325.54
1011.295	331.42
1011.588	339.1
1011.881	337.07
1012.173	315.15
1012.466	330.06
1012.759	336.84
1013.052	331.87
1013.344	306.79
1013.637	323.06
1013.93	308.14
1014.222	299.1
1014.514	324.19
1014.807	307.92
1015.099	317.86
1015.391	323.51
1015.683	322.38
1015.976	321.7
1016.268	330.06
1016.56	321.47
1016.851	334.58
1017.143	324.19
1017.435	316.28
1017.727	319.44
1018.018	330.51
1018.31	314.7
1018.602	318.99
1018.893	316.28
1019.185	325.09
1019.476	330.74
1019.767	317.86
1020.058	324.64
1020.35	314.24
1020.641	322.15
1020.932	317.86
1021.223	338.2
1021.514	313.79
1021.804	328.25
1022.095	306.79
1022.386	298.42
1022.677	316.95
1022.967	327.12
1023.258	306.56
1023.548	319.44
1023.839	314.7
1024.129	325.99
1024.419	322.6
1024.709	311.53
1025	342.49
1025.29	329.61
1025.58	301.81
1025.87	307.24
1026.16	315.15
1026.449	330.29
1026.739	307.01
1027.029	326.45
1027.319	330.29
1027.608	316.73
1027.898	311.98
1028.187	328.93
1028.477	308.82
1028.766	302.27
1029.055	306.79
1029.344	333.45
1029.634	326.22
1029.923	339.1
1030.212	322.83
1030.501	319.89
1030.79	313.11
1031.078	302.27
1031.367	333.23
1031.656	331.42
1031.945	300.23
1032.233	318.99
1032.522	315.37
1032.81	333.45
1033.099	307.46
1033.387	326.22
1033.675	328.48
1033.963	335.03
1034.251	325.32
1034.54	343.85
1034.828	320.12
1035.116	328.25
1035.403	311.31
1035.691	311.08
1035.979	300.46
1036.267	339.1
1036.554	318.76
1036.842	337.07
1037.129	312.89
1037.417	346.78
1037.704	301.14
1037.992	312.44
1038.279	313.79
1038.566	332.32
1038.853	332.32
1039.14	332.32
