Data from No_light_on_white_reflection_standard_FLMS001491_092.txt Node
Date: Tue Feb 07 10:33:10 GMT 2017
User: dcchb
Spectrometer: FLMS00149
Trigger mode: 0
Integration Time (sec): 2.000000E-2
Scans to average: 10
Electric dark correction enabled: true
Nonlinearity correction enabled: false
Boxcar width: 0
XAxis mode: Wavelengths
Number of Pixels in Spectrum: 2048
>>>>>Begin Spectral Data<<<<<
341.393	-16.34
341.776	-16.34
342.16	-16.34
342.543	-56.57
342.927	-72.39
343.31	-71.03
343.693	-77.13
344.077	-53.18
344.46	-62.44
344.843	-47.53
345.226	-43.01
345.61	-13.4
345.993	-9.79
346.376	-5.72
346.759	25.47
347.142	11.91
347.525	51.91
347.908	42.64
348.291	66.82
348.674	103.88
349.057	80.61
349.44	115.63
349.823	133.94
350.206	163.09
350.588	159.7
350.971	173.26
351.354	185.46
351.737	200.15
352.119	219.58
352.502	222.75
352.884	251.9
353.267	258
353.65	261.62
354.032	275.63
354.414	265.69
354.797	257.55
355.179	274.05
355.562	291.67
355.944	292.35
356.326	288.96
356.709	317.66
357.091	276.76
357.473	314.27
357.855	298.9
358.238	309.53
358.62	297.77
359.002	318.11
359.384	316.98
359.766	304.1
360.148	310.88
360.53	295.51
360.912	296.42
361.294	297.77
361.676	301.16
362.057	283.99
362.439	312.69
362.821	299.36
363.203	297.55
363.584	295.06
363.966	267.04
364.348	280.37
364.729	304.78
365.111	298.23
365.493	259.36
365.874	269.98
366.256	273.37
366.637	272.46
367.019	264.78
367.4	266.14
367.781	276.98
368.163	281.28
368.544	269.98
368.925	277.89
369.306	268.17
369.688	280.83
370.069	291.9
370.45	250.32
370.831	270.88
371.212	260.94
371.593	289.41
371.974	256.42
372.355	272.92
372.736	269.53
373.117	281.5
373.498	265.46
373.879	286.02
374.26	267.72
374.641	275.4
375.021	276.31
375.402	281.96
375.783	261.39
376.163	268.62
376.544	249.87
376.925	272.01
377.305	260.49
377.686	272.69
378.066	281.28
378.447	269.53
378.827	278.34
379.208	278.11
379.588	262.07
379.968	268.85
380.349	249.19
380.729	278.79
381.109	272.24
381.489	278.34
381.87	276.08
382.25	286.02
382.63	275.18
383.01	269.07
383.39	271.11
383.77	278.34
384.15	274.05
384.53	296.64
384.91	296.19
385.29	281.5
385.67	273.59
386.049	289.19
386.429	281.96
386.809	261.84
387.189	294.16
387.568	307.04
387.948	279.24
388.328	304.78
388.707	305.68
389.087	300.71
389.466	278.34
389.846	277.44
390.225	289.87
390.605	305.46
390.984	309.75
391.363	291.45
391.743	296.19
392.122	284.44
392.501	279.92
392.881	263.88
393.26	291.45
393.639	287.38
394.018	283.09
394.397	281.5
394.776	286.25
395.155	289.87
395.534	303.88
395.913	295.97
396.292	289.64
396.671	287.83
397.05	266.82
397.429	265.23
397.808	296.87
398.186	286.48
398.565	276.31
398.944	287.61
399.323	281.5
399.701	276.98
400.08	288.28
400.458	287.61
400.837	299.58
401.215	291
401.594	286.02
401.972	308.62
402.351	317.21
402.729	283.09
403.107	283.76
403.486	300.71
403.864	291.9
404.242	291.9
404.62	280.15
404.999	291.45
405.377	296.87
405.755	298.9
406.133	304.33
406.511	287.83
406.889	290.09
407.267	284.22
407.645	302.97
408.023	273.37
408.401	292.8
408.779	317.66
409.156	297.55
409.534	298
409.912	281.05
410.29	299.81
410.667	298
411.045	300.03
411.422	310.66
411.8	294.16
412.178	296.87
412.555	290.32
412.933	290.09
413.31	293.93
413.687	298.45
414.065	314.05
414.442	298.23
414.819	302.52
415.197	298.23
415.574	310.88
415.951	293.71
416.328	297.55
416.705	298.9
417.082	297.77
417.46	306.81
417.837	296.42
418.214	316.53
418.591	293.03
418.967	298.9
419.344	280.83
419.721	296.64
420.098	303.2
420.475	295.29
420.852	314.27
421.228	307.49
421.605	309.53
421.982	304.78
422.358	298
422.735	329.41
423.111	304.33
423.488	316.08
423.864	302.52
424.241	304.55
424.617	307.27
424.994	301.84
425.37	300.71
425.746	304.55
426.123	292.35
426.499	309.07
426.875	310.43
427.251	298.68
427.627	306.14
428.003	310.66
428.379	315.4
428.756	313.82
429.132	314.72
429.507	308.62
429.883	324.89
430.259	291.67
430.635	322.86
431.011	323.76
431.387	293.93
431.763	321.95
432.138	300.49
432.514	311.79
432.89	310.88
433.265	314.5
433.641	310.88
434.016	308.85
434.392	326.93
434.767	309.07
435.143	325.57
435.518	330.54
435.894	338
436.269	328.06
436.644	310.2
437.02	299.36
437.395	316.08
437.77	326.93
438.145	328.51
438.52	330.99
438.895	320.82
439.271	328.96
439.646	338.68
440.021	344.55
440.395	330.77
440.77	313.14
441.145	333.93
441.52	340.49
441.895	327.83
442.27	337.55
442.645	347.94
443.019	335.06
443.394	335.97
443.769	340.49
444.143	350.43
444.518	332.58
444.892	351.78
445.267	335.29
445.641	347.04
446.016	334.16
446.39	363.31
446.764	360.37
447.139	357.43
447.513	350.43
447.887	346.81
448.262	359.24
448.636	348.62
449.01	365.12
449.384	364.21
449.758	370.99
450.132	350.2
450.506	348.62
450.88	401.27
451.254	344.55
451.628	374.61
452.002	355.63
452.376	363.54
452.75	357.89
453.123	376.19
453.497	381.84
453.871	353.59
454.244	356.3
454.618	349.52
454.992	377.32
455.365	359.24
455.739	364.67
456.112	368.06
456.486	375.74
456.859	354.04
457.232	362.41
457.606	378.9
457.979	338.9
458.352	353.59
458.725	378.68
459.099	361.28
459.472	364.21
459.845	358.79
460.218	350.88
460.591	355.85
460.964	363.99
461.337	349.75
461.71	328.06
462.083	341.16
462.456	343.65
462.829	356.98
463.201	351.56
463.574	365.57
463.947	372.35
464.32	367.38
464.692	357.89
465.065	348.85
465.438	356.08
465.81	373.48
466.183	361.5
466.555	354.72
466.928	365.12
467.3	338
467.672	362.86
468.045	335.06
468.417	350.88
468.789	344.33
469.161	343.88
469.534	344.33
469.906	355.17
470.278	360.15
470.65	344.78
471.022	358.11
471.394	350.43
471.766	357.89
472.138	354.5
472.51	362.18
472.882	338.23
473.253	348.62
473.625	355.85
473.997	356.08
474.369	345.91
474.74	329.64
475.112	356.08
475.484	369.86
475.855	359.02
476.227	341.62
476.598	340.71
476.97	354.04
477.341	355.63
477.713	366.02
478.084	361.73
478.455	347.72
478.827	348.17
479.198	352.01
479.569	363.31
479.94	360.37
480.311	359.92
480.682	349.98
481.053	347.04
481.424	369.86
481.795	359.02
482.166	344.78
482.537	363.99
482.908	367.6
483.279	360.82
483.65	356.76
484.021	345.01
484.391	364.44
484.762	361.05
485.133	346.36
485.503	349.07
485.874	363.08
486.244	363.08
486.615	373.25
486.985	361.05
487.356	351.56
487.726	360.15
488.097	387.04
488.467	355.63
488.837	366.93
489.207	361.5
489.578	374.83
489.948	362.63
490.318	363.99
490.688	368.51
491.058	371.22
491.428	382.29
491.798	368.96
492.168	364.44
492.538	366.25
492.908	376.42
493.278	371.67
493.648	393.82
494.017	379.13
494.387	371.67
494.757	360.6
495.126	378.22
495.496	395.4
495.866	375.74
496.235	385.46
496.605	389.3
496.974	393.37
497.344	387.26
497.713	391.78
498.082	389.98
498.452	374.16
498.821	388.39
499.19	384.78
499.559	397.21
499.928	397.89
500.298	410.09
500.667	378.68
501.036	400.37
501.405	401.5
501.774	413.7
502.143	410.09
502.512	391.56
502.88	406.7
503.249	401.05
503.618	382.29
503.987	412.12
504.356	399.69
504.724	406.25
505.093	407.83
505.462	418.22
505.83	424.78
506.199	421.61
506.567	420.94
506.936	423.87
507.304	415.29
507.672	414.61
508.041	401.05
508.409	430.88
508.777	443.99
509.145	432.46
509.514	402.4
509.882	422.07
510.25	423.87
510.618	429.97
510.986	443.31
511.354	430.88
511.722	416.19
512.09	435.4
512.458	422.74
512.826	447.15
513.193	429.75
513.561	441.73
513.929	464.32
514.297	444.66
514.664	440.37
515.032	420.94
515.4	449.41
515.767	432.23
516.135	439.24
516.502	451.44
516.869	435.85
517.237	460.93
517.604	453.48
517.972	448.28
518.339	445.34
518.706	448.51
519.073	451.22
519.44	458.22
519.808	433.82
520.175	482.18
520.542	449.41
520.909	472.69
521.276	456.87
521.643	471.56
522.009	492.8
522.376	468.84
522.743	475.17
523.11	468.84
523.477	465.91
523.843	481.05
524.21	475.4
524.577	472.23
524.943	451.67
525.31	468.39
525.676	479.92
526.043	481.72
526.409	475.85
526.776	469.3
527.142	471.78
527.508	486.7
527.874	482.63
528.241	472.69
528.607	468.62
528.973	486.47
529.339	477.43
529.705	494.15
530.071	488.5
530.437	493.93
530.803	476.08
531.169	484.21
531.535	489.41
531.901	501.39
532.267	500.26
532.632	506.81
532.998	516.3
533.364	500.26
533.73	487.37
534.095	498.45
534.461	499.35
534.826	512.91
535.192	497.32
535.557	485.11
535.923	501.16
536.288	509.97
536.653	493.7
537.019	502.97
537.384	511.55
537.749	498.45
538.114	488.5
538.479	500.71
538.845	519.46
539.21	545
539.575	502.74
539.94	536.19
540.305	491.22
540.67	514.72
541.034	540.25
541.399	500.93
541.764	541.61
542.129	510.65
542.494	501.39
542.858	531.89
543.223	526.02
543.587	508.39
543.952	538.9
544.316	525.34
544.681	542.97
545.045	504.1
545.41	535.51
545.774	519.24
546.138	519.46
546.503	499.58
546.867	512.91
547.231	519.01
547.595	570.31
547.959	528.5
548.324	520.82
548.688	509.29
549.052	538.45
549.416	526.47
549.779	534.15
550.143	534.15
550.507	530.76
550.871	542.29
551.235	525.34
551.599	521.5
551.962	521.95
552.326	525.57
552.689	525.11
553.053	540.71
553.417	535.51
553.78	547.26
554.143	531.21
554.507	514.27
554.87	534.83
555.234	545.23
555.597	509.29
555.96	524.21
556.323	537.99
556.686	525.79
557.05	544.77
557.413	536.41
557.776	551.1
558.139	549.07
558.502	556.3
558.865	548.39
559.228	554.04
559.59	542.74
559.953	539.8
560.316	570.31
560.679	553.81
561.041	574.38
561.404	553.36
561.767	562.4
562.129	557.88
562.492	545.23
562.854	550.42
563.217	550.2
563.579	550.65
563.941	558.56
564.304	554.27
564.666	554.04
565.028	563.08
565.39	580.25
565.753	567.37
566.115	563.98
566.477	573.25
566.839	575.51
567.201	569.63
567.563	549.29
567.925	567.37
568.287	576.86
568.648	576.19
569.01	581.61
569.372	580.71
569.734	556.07
570.095	577.54
570.457	573.7
570.819	577.54
571.18	567.82
571.542	574.6
571.903	577.77
572.265	580.03
572.626	568.95
572.987	583.19
573.349	575.73
573.71	612.79
574.071	592.68
574.432	576.64
574.794	609.4
575.155	583.42
575.516	576.41
575.877	582.74
576.238	564.66
576.599	563.08
576.96	563.98
577.32	586.58
577.681	583.42
578.042	588.61
578.403	575.73
578.763	586.58
579.124	585.22
579.485	590.42
579.845	578.45
580.206	599.91
580.566	578.45
580.927	599.01
581.287	598.78
581.648	576.41
582.008	621.61
582.368	597.2
582.728	564.89
583.089	602.85
583.449	582.96
583.809	583.19
584.169	559.01
584.529	589.29
584.889	596.98
585.249	576.19
585.609	607.15
585.969	572.57
586.329	596.3
586.688	587.26
587.048	589.74
587.408	600.14
587.768	583.19
588.127	572.12
588.487	574.83
588.846	590.65
589.206	596.98
589.565	579.8
589.925	602.17
590.284	580.25
590.643	593.81
591.003	590.65
591.362	573.93
591.721	583.42
592.08	587.26
592.44	578.67
592.799	587.03
593.158	589.52
593.517	596.52
593.876	576.86
594.235	603.76
594.593	563.76
594.952	597.65
595.311	575.73
595.67	575.06
596.029	612.57
596.387	577.32
596.746	585.22
597.104	570.99
597.463	577.77
597.822	569.41
598.18	556.98
598.538	571.44
598.897	583.87
599.255	559.69
599.613	594.94
599.972	577.54
600.33	585.22
600.688	560.14
601.046	574.15
601.404	564.43
601.762	572.57
602.12	577.99
602.478	559.01
602.836	570.54
603.194	580.48
603.552	561.95
603.91	573.25
604.268	576.19
604.625	582.51
604.983	557.43
605.341	542.51
605.698	559.24
606.056	568.73
606.413	569.63
606.771	554.27
607.128	566.02
607.485	570.08
607.843	558.78
608.2	544.55
608.557	574.6
608.914	565.34
609.272	556.07
609.629	541.38
609.986	557.2
610.343	556.52
610.7	536.86
611.057	549.52
611.414	559.91
611.771	552.91
612.127	539.58
612.484	568.05
612.841	550.65
613.198	550.88
613.554	555.4
613.911	536.19
614.267	541.61
614.624	542.97
614.98	531.21
615.337	565.11
615.693	556.52
616.05	547.71
616.406	556.07
616.762	553.14
617.118	551.78
617.475	545.9
617.831	544.32
618.187	542.06
618.543	509.52
618.899	551.55
619.255	544.1
619.611	542.74
619.967	539.8
620.323	533.02
620.678	553.36
621.034	516.3
621.39	502.29
621.746	517.66
622.101	519.24
622.457	529.18
622.812	510.42
623.168	515.85
623.523	523.98
623.879	538.67
624.234	514.04
624.589	520.14
624.945	523.08
625.3	524.21
625.655	503.87
626.01	520.14
626.365	508.39
626.72	537.09
627.075	503.42
627.43	510.2
627.785	490.09
628.14	493.93
628.495	506.13
628.85	500.93
629.205	517.2
629.559	499.13
629.914	507.03
630.269	495.74
630.623	509.07
630.978	525.11
631.332	511.1
631.687	507.03
632.041	482.4
632.396	483.53
632.75	485.34
633.104	485.79
633.459	484.66
633.813	473.59
634.167	490.99
634.521	489.41
634.875	491.44
635.229	481.05
635.583	479.69
635.937	476.53
636.291	481.5
636.645	464.78
636.999	480.37
637.352	485.79
637.706	470.88
638.06	467.71
638.413	460.71
638.767	472.01
639.121	490.99
639.474	471.33
639.828	449.18
640.181	453.93
640.534	473.36
640.888	469.52
641.241	456.87
641.594	466.13
641.947	490.31
642.301	465.45
642.654	470.43
643.007	453.48
643.36	471.33
643.713	462.06
644.066	448.05
644.419	460.71
644.771	431.56
645.124	436.53
645.477	447.83
645.83	465.68
646.182	440.6
646.535	438.34
646.888	433.82
647.24	455.51
647.593	432.01
647.945	453.02
648.298	458.67
648.65	422.74
649.002	421.61
649.355	441.73
649.707	448.96
650.059	419.58
650.411	407.15
650.763	431.56
651.115	428.62
651.467	439.69
651.819	439.01
652.171	455.06
652.523	413.93
652.875	435.62
653.227	432.91
653.578	421.16
653.93	411.9
654.282	414.61
654.633	408.05
654.985	419.58
655.337	408.28
655.688	436.08
656.039	422.74
656.391	411.67
656.742	401.27
657.094	410.77
657.445	431.78
657.796	403.53
658.147	409.86
658.498	408.51
658.849	415.51
659.2	429.52
659.551	427.49
659.902	424.78
660.253	398.79
660.604	427.49
660.955	410.54
661.306	401.95
661.656	394.5
662.007	389.52
662.358	420.94
662.708	419.13
663.059	406.02
663.409	395.63
663.76	397.89
664.11	406.7
664.461	400.6
664.811	383.65
665.161	394.95
665.511	398.34
665.862	363.08
666.212	413.48
666.562	400.37
666.912	389.52
667.262	406.47
667.612	409.86
667.962	384.33
668.312	390.65
668.662	382.29
669.011	404.21
669.361	375.29
669.711	379.13
670.06	394.72
670.41	378.22
670.76	415.74
671.109	384.78
671.459	409.18
671.808	380.94
672.157	375.74
672.507	395.85
672.856	394.72
673.205	381.61
673.554	382.74
673.904	378
674.253	405.79
674.602	380.48
674.951	389.52
675.3	380.26
675.649	373.7
675.998	386.13
676.346	387.94
676.695	390.65
677.044	366.25
677.393	387.94
677.741	382.07
678.09	367.38
678.438	387.04
678.787	362.18
679.135	395.4
679.484	373.93
679.832	377.55
680.181	382.29
680.529	374.16
680.877	360.82
681.225	368.06
681.573	357.21
681.922	389.52
682.27	375.74
682.618	366.02
682.966	378.22
683.314	356.3
683.661	377.32
684.009	372.12
684.357	366.47
684.705	364.44
685.053	354.95
685.4	373.03
685.748	351.11
686.095	366.7
686.443	346.36
686.79	372.57
687.138	378.45
687.485	356.76
687.832	374.83
688.18	347.04
688.527	369.41
688.874	369.19
689.221	356.98
689.568	363.76
689.915	353.59
690.262	355.63
690.609	363.54
690.956	349.07
691.303	365.34
691.65	345.23
691.997	358.79
692.344	342.52
692.69	336.42
693.037	341.62
693.383	361.95
693.73	362.18
694.077	364.44
694.423	353.37
694.769	357.66
695.116	372.12
695.462	357.21
695.808	344.33
696.155	351.78
696.501	341.16
696.847	348.17
697.193	349.75
697.539	344.33
697.885	350.88
698.231	344.33
698.577	364.44
698.923	350.2
699.269	362.86
699.614	320.82
699.96	337.1
700.306	356.53
700.651	327.83
700.997	355.4
701.342	339.58
701.688	355.63
702.033	349.07
702.379	331.9
702.724	348.62
703.069	332.58
703.415	352.01
703.76	368.51
704.105	342.97
704.45	352.46
704.795	357.43
705.14	332.8
705.485	348.62
705.83	357.21
706.175	345.68
706.52	347.04
706.865	346.81
707.209	343.42
707.554	351.78
707.899	366.7
708.243	346.59
708.588	362.41
708.932	339.36
709.277	357.89
709.621	357.66
709.966	352.69
710.31	358.79
710.654	351.11
710.998	333.48
711.342	335.97
711.687	345.01
712.031	351.78
712.375	340.71
712.719	321.28
713.063	334.38
713.407	336.19
713.75	349.75
714.094	350.2
714.438	345.91
714.782	354.04
715.125	339.81
715.469	334.16
715.812	324.67
716.156	350.2
716.499	324.44
716.843	333.25
717.186	340.71
717.53	350.2
717.873	354.5
718.216	335.29
718.559	347.49
718.902	322.18
719.246	347.04
719.589	331.22
719.932	320.37
720.275	332.58
720.617	339.81
720.96	338.68
721.303	331.45
721.646	337.77
721.989	327.6
722.331	351.11
722.674	344.55
723.016	330.99
723.359	326.02
723.701	345.46
724.044	351.11
724.386	324.21
724.729	344.1
725.071	334.61
725.413	322.41
725.755	345.46
726.097	318.34
726.439	328.51
726.782	334.16
727.124	321.5
727.465	346.36
727.807	340.94
728.149	328.28
728.491	332.12
728.833	323.99
729.175	326.25
729.516	338
729.858	321.28
730.199	335.97
730.541	324.44
730.882	337.1
731.224	326.93
731.565	332.58
731.906	325.12
732.248	338.23
732.589	328.51
732.93	322.86
733.271	352.24
733.612	318.79
733.953	333.93
734.294	345.01
734.635	330.09
734.976	354.27
735.317	337.77
735.658	326.02
735.999	331.22
736.339	330.32
736.68	332.58
737.021	340.94
737.361	327.83
737.702	344.78
738.042	332.8
738.383	330.99
738.723	343.2
739.063	316.08
739.404	311.79
739.744	333.71
740.084	333.71
740.424	333.71
740.764	311.56
741.104	328.51
741.444	316.31
741.784	342.29
742.124	332.8
742.464	330.54
742.804	338.68
743.143	344.55
743.483	338.68
743.823	323.99
744.162	327.6
744.502	322.63
744.841	346.13
745.181	362.63
745.52	348.62
745.86	337.77
746.199	310.43
746.538	334.16
746.877	333.48
747.216	334.16
747.556	347.72
747.895	341.16
748.234	338.68
748.573	340.71
748.911	336.19
749.25	320.6
749.589	328.96
749.928	323.99
750.267	346.36
750.605	324.67
750.944	330.09
751.283	328.06
751.621	334.38
751.96	342.52
752.298	317.44
752.636	349.75
752.975	319.92
753.313	329.86
753.651	338.45
753.989	331.9
754.327	351.11
754.666	327.6
755.004	330.99
755.342	322.86
755.679	319.24
756.017	307.72
756.355	319.69
756.693	339.58
757.031	322.86
757.368	337.32
757.706	329.19
758.044	334.84
758.381	324.44
758.719	342.07
759.056	326.25
759.394	331.22
759.731	318.11
760.068	317.89
760.405	314.72
760.743	326.7
761.08	325.12
761.417	314.95
761.754	333.25
762.091	305.23
762.428	329.19
762.765	314.5
763.102	341.62
763.438	333.03
763.775	335.06
764.112	307.94
764.449	322.18
764.785	307.49
765.122	319.24
765.458	319.02
765.795	320.82
766.131	318.57
766.467	317.89
766.804	291.22
767.14	326.93
767.476	324.44
767.812	326.25
768.148	305.68
768.485	343.2
768.821	312.69
769.157	328.06
769.492	341.39
769.828	301.84
770.164	315.4
770.5	343.88
770.836	337.1
771.171	325.34
771.507	328.06
771.842	312.92
772.178	306.14
772.513	322.41
772.849	324.67
773.184	331.22
773.519	313.14
773.855	325.34
774.19	338.9
774.525	337.1
774.86	313.59
775.195	304.1
775.53	328.73
775.865	334.84
776.2	320.15
776.535	315.85
776.87	330.09
777.205	327.38
777.539	343.2
777.874	318.57
778.209	318.79
778.543	321.05
778.878	337.32
779.212	338
779.547	334.38
779.881	313.59
780.215	333.25
780.55	323.54
780.884	314.5
781.218	305.91
781.552	316.08
781.886	330.09
782.22	314.72
782.554	310.2
782.888	322.18
783.222	331.45
783.556	314.95
783.889	323.99
784.223	340.26
784.557	327.83
784.89	334.84
785.224	324.89
785.557	322.86
785.891	345.46
786.224	332.12
786.558	312.24
786.891	309.07
787.224	320.37
787.557	329.86
787.891	311.56
788.224	328.28
788.557	340.26
788.89	313.14
789.223	333.48
789.556	338
789.888	337.32
790.221	315.4
790.554	321.05
790.887	328.51
791.219	326.93
791.552	327.6
791.884	335.29
792.217	329.64
792.549	315.18
792.882	325.57
793.214	309.98
793.546	329.64
793.879	324.89
794.211	317.21
794.543	330.99
794.875	311.56
795.207	326.7
795.539	332.58
795.871	303.42
796.203	324.44
796.535	326.7
796.867	321.95
797.198	320.82
797.53	335.97
797.862	329.41
798.193	324.44
798.525	306.36
798.856	298.68
799.188	323.31
799.519	307.04
799.85	334.38
800.182	319.47
800.513	315.4
800.844	302.07
801.175	312.69
801.506	317.44
801.837	319.69
802.168	314.5
802.499	325.57
802.83	333.03
803.161	321.05
803.491	335.97
803.822	333.25
804.153	324.21
804.483	320.15
804.814	307.27
805.145	324.89
805.475	314.27
805.805	328.51
806.136	310.66
806.466	315.85
806.796	343.88
807.126	318.34
807.457	323.99
807.787	346.59
808.117	322.18
808.447	304.78
808.777	322.18
809.107	321.05
809.436	321.5
809.766	324.21
810.096	329.41
810.426	319.02
810.755	317.44
811.085	315.4
811.414	322.86
811.744	321.95
812.073	311.79
812.403	318.11
812.732	315.63
813.061	322.41
813.39	344.33
813.719	313.14
814.049	321.5
814.378	319.69
814.707	329.64
815.036	316.08
815.365	314.5
815.693	331.67
816.022	309.75
816.351	324.89
816.68	320.15
817.008	319.47
817.337	323.54
817.665	316.76
817.994	321.05
818.322	348.62
818.651	303.65
818.979	317.44
819.307	312.92
819.636	320.37
819.964	318.79
820.292	324.44
820.62	333.25
820.948	306.81
821.276	322.86
821.604	326.7
821.932	313.14
822.259	327.38
822.587	309.07
822.915	319.92
823.243	319.69
823.57	304.33
823.898	299.13
824.225	333.48
824.553	322.41
824.88	294.61
825.207	319.02
825.535	327.6
825.862	322.86
826.189	334.61
826.516	307.04
826.843	315.18
827.17	321.05
827.497	328.51
827.824	328.51
828.151	325.8
828.478	317.66
828.805	332.58
829.131	329.19
829.458	317.89
829.785	314.72
830.111	324.21
830.438	320.6
830.764	323.54
831.09	309.3
831.417	320.37
831.743	319.69
832.069	330.99
832.395	307.49
832.722	314.05
833.048	330.32
833.374	305.46
833.7	327.6
834.026	302.97
834.351	316.53
834.677	335.29
835.003	340.26
835.329	314.5
835.654	313.37
835.98	311.56
836.306	327.6
836.631	311.79
836.956	326.7
837.282	328.73
837.607	321.05
837.932	316.31
838.258	311.56
838.583	341.16
838.908	309.53
839.233	325.57
839.558	324.44
839.883	330.77
840.208	325.34
840.533	320.82
840.858	293.93
841.182	317.66
841.507	303.65
841.832	329.64
842.156	313.14
842.481	324.44
842.805	322.63
843.13	295.97
843.454	317.89
843.778	302.29
844.103	319.92
844.427	330.77
844.751	319.02
845.075	311.11
845.399	326.02
845.723	316.76
846.047	331.45
846.371	311.11
846.695	336.42
847.019	309.3
847.343	316.31
847.666	304.33
847.99	328.06
848.313	327.38
848.637	318.34
848.96	312.46
849.284	330.54
849.607	331.9
849.931	310.88
850.254	328.28
850.577	300.49
850.9	326.02
851.223	317.89
851.546	304.55
851.869	308.85
852.192	312.69
852.515	317.21
852.838	317.89
853.161	310.66
853.483	316.53
853.806	322.63
854.129	311.11
854.451	336.19
854.774	327.83
855.096	313.14
855.419	314.05
855.741	335.06
856.063	324.44
856.385	325.12
856.708	310.2
857.03	335.74
857.352	330.09
857.674	304.1
857.996	323.54
858.318	299.36
858.64	325.57
858.961	311.11
859.283	322.63
859.605	318.34
859.926	312.92
860.248	319.92
860.57	319.02
860.891	309.07
861.212	326.93
861.534	322.18
861.855	309.53
862.176	333.93
862.498	330.09
862.819	313.37
863.14	321.95
863.461	315.85
863.782	326.02
864.103	312.01
864.424	315.18
864.745	319.02
865.065	315.18
865.386	315.63
865.707	296.87
866.027	323.99
866.348	312.24
866.668	334.61
866.989	307.49
867.309	322.86
867.63	342.07
867.95	316.31
868.27	309.98
868.59	325.57
868.91	326.93
869.23	331.22
869.55	325.34
869.87	313.14
870.19	299.13
870.51	333.03
870.83	315.18
871.15	317.89
871.469	317.21
871.789	332.12
872.109	323.31
872.428	325.57
872.748	307.04
873.067	302.75
873.386	348.85
873.706	325.8
874.025	318.11
874.344	306.36
874.663	320.82
874.982	304.55
875.301	311.79
875.62	320.82
875.939	326.7
876.258	327.83
876.577	319.02
876.896	323.54
877.214	288.51
877.533	311.56
877.852	328.51
878.17	303.65
878.489	322.41
878.807	321.28
879.125	310.2
879.444	318.57
879.762	311.79
880.08	314.05
880.398	312.69
880.716	330.32
881.034	305.68
881.352	319.24
881.67	315.63
881.988	326.93
882.306	317.89
882.624	347.26
882.941	321.05
883.259	322.63
883.577	314.72
883.894	299.81
884.212	314.72
884.529	309.53
884.846	315.63
885.164	324.89
885.481	322.41
885.798	334.16
886.115	304.1
886.432	342.52
886.75	316.98
887.067	321.28
887.383	316.08
887.7	321.95
888.017	315.4
888.334	317.21
888.651	308.62
888.967	314.27
889.284	326.93
889.6	321.95
889.917	321.05
890.233	298.68
890.55	311.11
890.866	336.87
891.182	312.69
891.498	301.39
891.815	309.3
892.131	306.81
892.447	335.29
892.763	315.63
893.079	318.79
893.395	298.68
893.71	301.16
894.026	330.54
894.342	314.5
894.657	313.82
894.973	326.47
895.289	336.19
895.604	322.63
895.92	319.92
896.235	337.55
896.55	317.21
896.865	324.21
897.181	327.15
897.496	334.61
897.811	326.02
898.126	338.68
898.441	308.62
898.756	310.66
899.071	316.98
899.386	309.3
899.7	318.79
900.015	309.53
900.33	314.72
900.644	309.75
900.959	321.5
901.273	310.2
901.588	336.87
901.902	325.57
902.216	304.78
902.531	319.47
902.845	298.23
903.159	293.03
903.473	307.04
903.787	322.63
904.101	324.67
904.415	311.79
904.729	297.55
905.042	301.39
905.356	321.73
905.67	302.07
905.984	323.76
906.297	315.4
906.611	323.76
906.924	308.62
907.237	329.64
907.551	315.63
907.864	298.23
908.177	312.01
908.491	336.87
908.804	313.82
909.117	320.6
909.43	341.62
909.743	328.51
910.056	307.49
910.368	323.54
910.681	320.6
910.994	311.11
911.307	324.44
911.619	311.33
911.932	316.76
912.244	325.12
912.557	308.85
912.869	322.63
913.181	336.87
913.494	298
913.806	297.77
914.118	298.68
914.43	315.18
914.742	319.69
915.054	314.72
915.366	299.81
915.678	327.6
915.99	324.21
916.302	318.11
916.613	323.08
916.925	330.54
917.236	308.4
917.548	322.63
917.859	306.59
918.171	315.63
918.482	333.93
918.794	328.06
919.105	316.76
919.416	323.54
919.727	318.34
920.038	319.24
920.349	322.41
920.66	303.42
920.971	310.43
921.282	309.75
921.593	309.07
921.903	306.81
922.214	303.42
922.525	325.34
922.835	311.11
923.146	315.4
923.456	299.36
923.767	335.06
924.077	319.47
924.387	308.85
924.697	330.09
925.008	314.72
925.318	290.77
925.628	326.7
925.938	324.44
926.248	326.47
926.558	307.27
926.867	324.44
927.177	319.47
927.487	326.02
927.796	316.76
928.106	319.24
928.416	314.05
928.725	300.71
929.034	329.19
929.344	319.69
929.653	323.54
929.962	303.65
930.271	313.14
930.581	333.71
930.89	316.08
931.199	325.12
931.508	302.52
931.817	321.73
932.125	321.95
932.434	314.95
932.743	304.55
933.051	313.82
933.36	304.33
933.669	305.68
933.977	319.47
934.286	322.63
934.594	331.9
934.902	333.93
935.21	296.42
935.519	295.51
935.827	313.37
936.135	321.28
936.443	309.98
936.751	307.72
937.059	324.44
937.367	309.07
937.674	318.11
937.982	284.67
938.29	308.85
938.597	304.55
938.905	299.81
939.213	317.21
939.52	336.42
939.827	317.44
940.135	313.14
940.442	308.17
940.749	308.62
941.056	326.25
941.363	311.56
941.67	331.45
941.977	309.3
942.284	299.58
942.591	310.43
942.898	290.77
943.205	305.68
943.511	299.58
943.818	321.5
944.125	306.14
944.431	302.07
944.738	306.14
945.044	312.24
945.35	303.88
945.657	324.44
945.963	333.93
946.269	321.28
946.575	311.11
946.881	334.61
947.187	332.58
947.493	315.4
947.799	324.67
948.105	316.76
948.41	293.26
948.716	316.76
949.022	312.24
949.327	304.55
949.633	310.66
949.938	301.84
950.244	283.54
950.549	284.44
950.854	288.51
951.16	297.77
951.465	312.01
951.77	315.85
952.075	306.14
952.38	309.98
952.685	308.85
952.99	321.28
953.294	319.02
953.599	327.6
953.904	326.02
954.209	305.46
954.513	314.27
954.818	301.16
955.122	310.66
955.426	293.71
955.731	321.5
956.035	319.24
956.339	318.57
956.643	308.4
956.948	323.99
957.252	317.89
957.556	325.8
957.86	308.62
958.163	309.3
958.467	311.79
958.771	317.66
959.075	312.24
959.378	346.13
959.682	321.73
959.985	301.62
960.289	322.63
960.592	317.66
960.896	293.93
961.199	306.36
961.502	300.71
961.805	313.14
962.108	314.05
962.411	316.53
962.714	318.34
963.017	293.48
963.32	318.34
963.623	304.1
963.926	296.42
964.228	312.24
964.531	312.92
964.833	325.57
965.136	318.34
965.438	311.11
965.741	296.87
966.043	328.73
966.345	327.83
966.648	320.37
966.95	321.5
967.252	300.71
967.554	309.75
967.856	323.76
968.158	303.65
968.46	319.02
968.761	308.85
969.063	288.96
969.365	326.25
969.666	311.79
969.968	300.71
970.269	300.49
970.571	317.21
970.872	322.18
971.174	313.14
971.475	325.8
971.776	304.55
972.077	309.3
972.378	313.14
972.679	316.53
972.98	321.05
973.281	306.14
973.582	313.82
973.883	308.85
974.183	336.19
974.484	291.67
974.785	309.07
975.085	321.73
975.386	310.66
975.686	310.43
975.986	294.84
976.287	315.4
976.587	310.2
976.887	323.76
977.187	315.63
977.487	321.28
977.787	321.5
978.087	307.94
978.387	306.14
978.687	328.96
978.987	298.9
979.286	334.38
979.586	311.56
979.885	299.58
980.185	288.51
980.484	304.33
980.784	313.14
981.083	315.63
981.382	318.11
981.682	302.97
981.981	325.57
982.28	316.08
982.579	299.58
982.878	321.73
983.177	309.53
983.475	318.34
983.774	296.87
984.073	312.24
984.372	329.19
984.67	321.5
984.969	300.03
985.267	309.07
985.566	323.76
985.864	297.32
986.162	308.62
986.461	317.66
986.759	309.98
987.057	328.28
987.355	307.94
987.653	320.6
987.951	310.88
988.249	319.92
988.547	303.42
988.844	306.36
989.142	318.11
989.44	295.51
989.737	290.54
990.035	305.01
990.332	318.79
990.63	290.77
990.927	307.49
991.224	293.71
991.521	294.38
991.819	295.06
992.116	316.08
992.413	304.33
992.71	304.33
993.006	301.39
993.303	307.49
993.6	293.71
993.897	295.06
994.193	304.1
994.49	312.69
994.787	314.5
995.083	307.04
995.379	329.64
995.676	307.49
995.972	324.89
996.268	306.14
996.565	313.82
996.861	305.46
997.157	314.05
997.453	326.25
997.749	317.66
998.044	312.92
998.34	326.25
998.636	309.98
998.932	322.41
999.227	321.28
999.523	318.11
999.818	316.98
1000.114	306.81
1000.409	335.06
1000.704	314.05
1001	333.25
1001.295	294.38
1001.59	323.99
1001.885	284.67
1002.18	299.13
1002.475	301.84
1002.77	313.82
1003.065	307.94
1003.359	297.55
1003.654	319.02
1003.949	309.98
1004.243	322.41
1004.538	304.55
1004.832	321.95
1005.127	295.74
1005.421	312.01
1005.715	307.49
1006.009	330.54
1006.304	308.4
1006.598	302.97
1006.892	339.36
1007.186	331.67
1007.48	311.79
1007.773	311.56
1008.067	298.45
1008.361	306.36
1008.655	310.88
1008.948	313.37
1009.242	317.66
1009.535	336.64
1009.829	308.17
1010.122	325.34
1010.415	300.03
1010.708	305.68
1011.001	323.76
1011.295	325.8
1011.588	312.46
1011.881	317.21
1012.173	302.07
1012.466	318.79
1012.759	315.63
1013.052	311.11
1013.344	304.1
1013.637	306.81
1013.93	323.99
1014.222	322.63
1014.514	308.62
1014.807	315.18
1015.099	324.89
1015.391	321.05
1015.683	312.01
1015.976	296.19
1016.268	299.58
1016.56	305.23
1016.851	319.69
1017.143	305.91
1017.435	281.5
1017.727	301.16
1018.018	300.71
1018.31	309.07
1018.602	315.4
1018.893	318.34
1019.185	318.57
1019.476	330.99
1019.767	317.66
1020.058	288.28
1020.35	312.69
1020.641	320.15
1020.932	313.82
1021.223	314.05
1021.514	315.63
1021.804	331.22
1022.095	297.55
1022.386	293.71
1022.677	308.17
1022.967	325.57
1023.258	315.63
1023.548	316.08
1023.839	318.11
1024.129	318.79
1024.419	323.54
1024.709	305.23
1025	291
1025.29	286.7
1025.58	309.3
1025.87	291.45
1026.16	305.91
1026.449	288.51
1026.739	302.29
1027.029	307.27
1027.319	316.76
1027.608	315.63
1027.898	308.85
1028.187	319.47
1028.477	318.57
1028.766	323.08
1029.055	317.44
1029.344	294.38
1029.634	311.79
1029.923	304.1
1030.212	314.05
1030.501	309.75
1030.79	307.27
1031.078	313.59
1031.367	318.11
1031.656	306.36
1031.945	293.93
1032.233	308.4
1032.522	291.9
1032.81	313.82
1033.099	325.12
1033.387	300.26
1033.675	286.02
1033.963	309.07
1034.251	317.21
1034.54	311.56
1034.828	324.89
1035.116	305.91
1035.403	312.69
1035.691	315.85
1035.979	304.33
1036.267	305.91
1036.554	285.12
1036.842	308.17
1037.129	298
1037.417	315.63
1037.704	295.06
1037.992	303.88
1038.279	315.85
1038.566	322.18
1038.853	322.18
1039.14	322.18
