Data from No_light_on_white_reflection_standard_FLMS001491_075.txt Node
Date: Tue Feb 07 10:33:07 GMT 2017
User: dcchb
Spectrometer: FLMS00149
Trigger mode: 0
Integration Time (sec): 2.000000E-2
Scans to average: 10
Electric dark correction enabled: true
Nonlinearity correction enabled: false
Boxcar width: 0
XAxis mode: Wavelengths
Number of Pixels in Spectrum: 2048
>>>>>Begin Spectral Data<<<<<
341.393	-17.43
341.776	-17.43
342.16	-17.43
342.543	-64.89
342.927	-66.92
343.31	-75.05
343.693	-63.3
344.077	-68.95
344.46	-50.2
344.843	-58.78
345.226	-45.68
345.61	-29.41
345.993	-18.33
346.376	19.41
346.759	9.24
347.142	24.38
347.525	34.55
347.908	38.16
348.291	73.87
348.674	88.56
349.057	121.55
349.44	122.45
349.823	139.63
350.206	157.03
350.588	181.44
350.971	174.2
351.354	209.46
351.737	206.75
352.119	216.92
352.502	237.25
352.884	220.76
353.267	260.98
353.65	258.04
354.032	249.68
354.414	285.16
354.797	290.81
355.179	279.29
355.562	292.39
355.944	296.46
356.326	291.72
356.709	319.51
357.091	302.34
357.473	299.62
357.855	310.02
358.238	319.29
358.62	299.17
359.002	311.83
359.384	305.5
359.766	294.43
360.148	298.49
360.53	317.7
360.912	297.82
361.294	314.77
361.676	313.18
362.057	287.65
362.439	289
362.821	304.6
363.203	287.87
363.584	282.45
363.966	291.26
364.348	279.74
364.729	305.95
365.111	275.44
365.493	294.88
365.874	285.16
366.256	304.82
366.637	265.28
367.019	294.43
367.4	257.82
367.781	278.83
368.163	267.99
368.544	263.47
368.925	287.2
369.306	294.65
369.688	272.28
370.069	291.72
370.45	282
370.831	263.69
371.212	280.42
371.593	288.78
371.974	271.15
372.355	284.26
372.736	270.93
373.117	276.35
373.498	270.47
373.879	273.41
374.26	268.67
374.641	241.55
375.021	258.04
375.402	281.09
375.783	267.31
376.163	268.67
376.544	300.53
376.925	272.05
377.305	284.71
377.686	282.22
378.066	279.74
378.447	272.28
378.827	270.02
379.208	272.73
379.588	272.73
379.968	263.24
380.349	278.38
380.729	255.33
381.109	282.45
381.489	291.94
381.87	275.22
382.25	278.83
382.63	270.47
383.01	271.83
383.39	313.41
383.77	280.19
384.15	273.18
384.53	291.94
384.91	288.1
385.29	271.6
385.67	275.22
386.049	272.51
386.429	294.43
386.809	305.95
387.189	278.61
387.568	293.75
387.948	298.04
388.328	307.08
388.707	299.62
389.087	268.44
389.466	296.91
389.846	300.3
390.225	281.32
390.605	293.07
390.984	304.6
391.363	287.42
391.743	269.8
392.122	270.25
392.501	272.28
392.881	289.68
393.26	277.93
393.639	290.13
394.018	296.24
394.397	291.49
394.776	283.81
395.155	287.65
395.534	281.55
395.913	268.89
396.292	283.81
396.671	280.42
397.05	289
397.429	276.57
397.808	299.17
398.186	281.55
398.565	292.39
398.944	287.87
399.323	282
399.701	290.13
400.08	288.33
400.458	283.58
400.837	305.95
401.215	294.43
401.594	289.91
401.972	293.3
402.351	291.04
402.729	286.29
403.107	290.36
403.486	292.62
403.864	301.66
404.242	285.84
404.62	278.38
404.999	287.42
405.377	302.79
405.755	305.27
406.133	307.31
406.511	291.04
406.889	298.49
407.267	291.26
407.645	288.1
408.023	323.35
408.401	286.74
408.779	316.35
409.156	296.69
409.534	292.39
409.912	306.63
410.29	293.52
410.667	306.4
411.045	313.41
411.422	307.31
411.8	279.29
412.178	287.2
412.555	284.03
412.933	304.6
413.31	304.14
413.687	285.61
414.065	315.9
414.442	304.82
414.819	281.32
415.197	295.33
415.574	300.08
415.951	322.22
416.328	289
416.705	299.85
417.082	296.91
417.46	292.17
417.837	307.31
418.214	295.56
418.591	312.51
418.967	303.92
419.344	293.98
419.721	297.82
420.098	305.73
420.475	313.86
420.852	291.94
421.228	306.18
421.605	286.07
421.982	308.66
422.358	320.64
422.735	309.57
423.111	303.69
423.488	304.6
423.864	304.14
424.241	315.44
424.617	287.2
424.994	294.2
425.37	291.72
425.746	289.46
426.123	322.68
426.499	302.11
426.875	321.09
427.251	305.5
427.627	307.31
428.003	312.28
428.379	305.73
428.756	309.34
429.132	305.73
429.507	310.25
429.883	292.39
430.259	331.49
430.635	312.96
431.011	301.21
431.387	298.04
431.763	338.04
432.138	306.63
432.514	294.43
432.89	302.34
433.265	336.91
433.641	329.91
434.016	317.03
434.392	345.5
434.767	337.82
435.143	317.03
435.518	302.56
435.894	321.32
436.269	306.4
436.644	324.03
437.02	319.06
437.395	307.31
437.77	317.48
438.145	326.29
438.52	287.65
438.895	333.3
439.271	320.42
439.646	314.77
440.021	302.79
440.395	336.01
440.77	329.23
441.145	321.55
441.52	334.65
441.895	310.92
442.27	334.88
442.645	354.99
443.019	321.32
443.394	340.98
443.769	332.39
444.143	343.47
444.518	343.01
444.892	347.08
445.267	333.3
445.641	331.04
446.016	333.52
446.39	348.21
446.764	341.21
447.139	340.08
447.513	349.12
447.887	350.47
448.262	349.34
448.636	360.64
449.01	326.06
449.384	359.74
449.758	348.66
450.132	358.38
450.506	374.2
450.88	358.61
451.254	347.31
451.628	370.58
452.002	392.5
452.376	374.43
452.75	373.3
453.123	357.02
453.497	360.64
453.871	375.1
454.244	349.12
454.618	358.15
454.992	376.91
455.365	377.36
455.739	374.43
456.112	361.09
456.486	365.16
456.859	372.84
457.232	341.43
457.606	378.49
457.979	371.49
458.352	357.48
458.725	367.65
459.099	348.21
459.472	366.97
459.845	378.04
460.218	354.99
460.591	326.52
460.964	345.05
461.337	343.92
461.71	357.48
462.083	351.83
462.456	346.18
462.829	371.94
463.201	330.13
463.574	333.07
463.947	373.07
464.32	347.76
464.692	350.02
465.065	332.62
465.438	342.11
465.81	345.73
466.183	378.49
466.555	366.06
466.928	347.76
467.3	348.44
467.672	348.21
468.045	341.43
468.417	363.13
468.789	355.22
469.161	362.67
469.534	358.38
469.906	369.68
470.278	329.23
470.65	336.46
471.022	355.89
471.394	342.34
471.766	331.94
472.138	335.33
472.51	354.09
472.882	345.73
473.253	343.47
473.625	318.16
473.997	340.3
474.369	357.02
474.74	341.88
475.112	355.67
475.484	349.34
475.855	353.86
476.227	332.39
476.598	354.31
476.97	373.75
477.341	337.36
477.713	359.74
478.084	350.92
478.455	340.53
478.827	350.7
479.198	348.89
479.569	364.48
479.94	332.84
480.311	358.38
480.682	368.55
481.053	338.95
481.424	363.13
481.795	351.15
482.166	355.89
482.537	350.92
482.908	358.38
483.279	356.8
483.65	358.61
484.021	373.75
484.391	350.7
484.762	359.96
485.133	355.89
485.503	356.35
485.874	358.61
486.244	354.31
486.615	348.21
486.985	366.29
487.356	363.35
487.726	370.81
488.097	361.09
488.467	366.74
488.837	350.47
489.207	357.48
489.578	367.42
489.948	371.94
490.318	364.26
490.688	347.76
491.058	375.33
491.428	377.59
491.798	372.62
492.168	369
492.538	375.1
492.908	369.45
493.278	395.89
493.648	384.14
494.017	364.93
494.387	376.01
494.757	398.83
495.126	382.11
495.496	392.96
495.866	394.76
496.235	389.11
496.605	394.54
496.974	374.43
497.344	376.69
497.713	402.22
498.082	413.97
498.452	380.75
498.821	400.41
499.19	385.95
499.559	390.47
499.928	385.72
500.298	401.54
500.667	413.07
501.036	362.67
501.405	404.93
501.774	418.27
502.143	405.16
502.512	391.6
502.88	412.62
503.249	406.06
503.618	418.49
503.987	436.34
504.356	409.9
504.724	394.99
505.093	413.29
505.462	432.95
505.83	424.14
506.199	407.64
506.567	405.16
506.936	407.87
507.304	421.43
507.672	411.71
508.041	427.08
508.409	440.64
508.777	418.27
509.145	446.29
509.514	415.78
509.882	416.23
510.25	424.14
510.618	435.67
510.986	432.5
511.354	439.96
511.722	447.42
512.09	421.2
512.458	439.73
512.826	451.26
513.193	454.42
513.561	443.12
513.929	434.76
514.297	446.51
514.664	450.58
515.032	426.4
515.4	447.87
515.767	446.97
516.135	442.9
516.502	437.02
516.869	440.19
517.237	423.92
517.604	449.45
517.972	437.93
518.339	440.86
518.706	442.22
519.073	453.07
519.44	449.45
519.808	450.81
520.175	471.6
520.542	456.91
520.909	469.11
521.276	456.91
521.643	470.47
522.009	461.88
522.376	470.47
522.743	463.24
523.11	477.7
523.477	473.41
523.843	442.22
524.21	460.98
524.577	470.24
524.943	490.58
525.31	469.79
525.676	469.11
526.043	477.02
526.409	474.54
526.776	489.22
527.142	482.22
527.508	500.52
527.874	491.94
528.241	489.68
528.607	499.85
528.973	491.26
529.339	479.51
529.705	485.16
530.071	488.77
530.437	486.96
530.803	489.22
531.169	489.68
531.535	500.75
531.901	493.97
532.267	473.86
532.632	481.54
532.998	512.27
533.364	481.77
533.73	499.85
534.095	481.99
534.461	505.27
534.826	498.94
535.192	507.98
535.557	491.26
535.923	485.16
536.288	511.6
536.653	511.6
537.019	502.11
537.384	505.27
537.749	484.48
538.114	495.33
538.479	498.04
538.845	503.24
539.21	505.5
539.575	503.01
539.94	492.61
540.305	527.64
540.67	500.75
541.034	512.05
541.399	500.3
541.764	493.52
542.129	512.73
542.494	513.18
542.858	549.34
543.223	521.99
543.587	528.09
543.952	518.83
544.316	512.27
544.681	507.3
545.045	533.29
545.41	512.73
545.774	519.51
546.138	507.76
546.503	504.59
546.867	510.69
547.231	519.73
547.595	518.6
547.959	508.43
548.324	516.34
548.688	519.51
549.052	534.42
549.416	523.35
549.779	505.04
550.143	519.73
550.507	522.9
550.871	568.09
551.235	515.21
551.599	527.19
551.962	522.9
552.326	545.95
552.689	533.97
553.053	532.16
553.417	555.66
553.78	543.91
554.143	541.43
554.507	548.43
554.87	543.69
555.234	525.61
555.597	542.56
555.96	544.82
556.323	540.97
556.686	525.38
557.05	559.05
557.413	541.43
557.776	538.94
558.139	523.8
558.502	545.72
558.865	535.1
559.228	538.94
559.59	551.37
559.953	531.26
560.316	555.66
560.679	547.98
561.041	569
561.404	555.44
561.767	568.32
562.129	574.87
562.492	568.77
562.854	550.92
563.217	565.61
563.579	559.28
563.941	563.57
564.304	573.29
564.666	550.69
565.028	555.89
565.39	555.21
565.753	576
566.115	573.29
566.477	547.3
566.839	570.35
567.201	564.93
567.563	570.35
567.925	562.67
568.287	562.89
568.648	573.52
569.01	578.04
569.372	575.78
569.734	555.66
570.095	580.97
570.457	563.57
570.819	583.46
571.18	569.9
571.542	562.44
571.903	591.37
572.265	603.12
572.626	589.56
572.987	573.29
573.349	568.77
573.71	589.56
574.071	569.9
574.432	570.35
574.794	587.98
575.155	567.64
575.516	579.17
575.877	595.44
576.238	574.87
576.599	593.63
576.96	587.3
577.32	592.95
577.681	568.54
578.042	586.17
578.403	605.83
578.763	607.41
579.124	583.01
579.485	578.94
579.845	589.33
580.206	588.43
580.566	580.07
580.927	580.97
581.287	574.65
581.648	576.91
582.008	602.89
582.368	597.47
582.728	571.71
583.089	572.84
583.449	587.98
583.809	599.73
584.169	593.63
584.529	582.33
584.889	611.26
585.249	589.11
585.609	592.05
585.969	569
586.329	578.94
586.688	574.19
587.048	590.01
587.408	587.07
587.768	578.71
588.127	606.74
588.487	574.42
588.846	586.17
589.206	581.2
589.565	592.72
589.925	568.09
590.284	579.39
590.643	576.23
591.003	566.74
591.362	570.58
591.721	577.81
592.08	569.22
592.44	579.39
592.799	573.06
593.158	583.23
593.517	588.43
593.876	565.83
594.235	577.58
594.593	584.82
594.952	573.97
595.311	556.12
595.67	561.54
596.029	570.58
596.387	576.91
596.746	564.48
597.104	577.13
597.463	598.83
597.822	578.26
598.18	577.36
598.538	566.74
598.897	546.17
599.255	549.56
599.613	596.11
599.972	569.45
600.33	559.96
600.688	565.38
601.046	559.73
601.404	579.62
601.762	582.33
602.12	584.36
602.478	565.61
602.836	563.35
603.194	557.25
603.552	563.12
603.91	581.65
604.268	560.63
604.625	559.96
604.983	558.6
605.341	559.05
605.698	550.92
606.056	553.18
606.413	567.87
606.771	558.38
607.128	550.92
607.485	545.72
607.843	561.76
608.2	540.3
608.557	558.38
608.914	568.09
609.272	550.01
609.629	564.93
609.986	573.06
610.343	561.99
610.7	566.51
611.057	538.94
611.414	544.59
611.771	544.59
612.127	532.84
612.484	557.02
612.841	557.92
613.198	560.86
613.554	555.66
613.911	534.42
614.267	541.43
614.624	541.43
614.98	553.86
615.337	545.72
615.693	531.48
616.05	536.45
616.406	533.97
616.762	556.12
617.118	538.71
617.475	532.39
617.831	523.12
618.187	524.7
618.543	549.56
618.899	550.01
619.255	519.28
619.611	526.06
619.967	530.13
620.323	529.68
620.678	532.39
621.034	505.5
621.39	521.31
621.746	523.57
622.101	533.97
622.457	518.83
622.812	494.65
623.168	522.9
623.523	510.92
623.879	517.02
624.234	525.83
624.589	521.99
624.945	544.36
625.3	502.56
625.655	516.34
626.01	510.47
626.365	526.29
626.72	518.38
627.075	497.36
627.43	515.89
627.785	498.26
628.14	504.59
628.495	511.37
628.85	499.39
629.205	500.75
629.559	483.12
629.914	497.36
630.269	495.78
630.623	478.38
630.978	479.96
631.332	494.87
631.687	498.04
632.041	473.63
632.396	502.56
632.75	496.23
633.104	483.57
633.459	471.82
633.813	492.84
634.167	459.17
634.521	493.07
634.875	473.41
635.229	477.02
635.583	464.59
635.937	457.13
636.291	470.24
636.645	477.25
636.999	467.76
637.352	472.28
637.706	484.48
638.06	492.39
638.413	467.3
638.767	466.85
639.121	470.69
639.474	450.58
639.828	471.6
640.181	452.62
640.534	465.27
640.888	453.52
641.241	450.36
641.594	448.32
641.947	477.47
642.301	454.42
642.654	474.31
643.007	473.63
643.36	449.9
643.713	448.1
644.066	436.8
644.419	450.36
644.771	455.55
645.124	453.75
645.477	442.22
645.83	429.34
646.182	453.07
646.535	442.22
646.888	456.23
647.24	439.51
647.593	433.86
647.945	428.66
648.298	441.99
648.65	434.08
649.002	446.29
649.355	431.15
649.707	424.14
650.059	400.64
650.411	435.67
650.763	446.51
651.115	439.06
651.467	437.25
651.819	413.07
652.171	457.59
652.523	406.29
652.875	440.19
653.227	426.4
653.578	419.17
653.93	420.3
654.282	414.65
654.633	430.24
654.985	407.87
655.337	410.81
655.688	421.43
656.039	418.49
656.391	412.16
656.742	413.75
657.094	411.03
657.445	411.49
657.796	413.75
658.147	414.2
658.498	418.49
658.849	406.06
659.2	432.95
659.551	419.17
659.902	400.64
660.253	394.54
660.604	434.54
660.955	430.92
661.306	380.07
661.656	396.57
662.007	423.69
662.358	408.55
662.708	414.88
663.059	402.22
663.409	410.81
663.76	418.49
664.11	377.14
664.461	409.23
664.811	397.25
665.161	401.32
665.511	423.24
665.862	401.54
666.212	382.79
666.562	400.64
666.912	393.63
667.262	369.23
667.612	389.34
667.962	387.98
668.312	394.76
668.662	373.07
669.011	385.27
669.361	381.66
669.711	379.85
670.06	386.18
670.41	378.27
670.76	376.91
671.109	374.43
671.459	405.61
671.808	380.53
672.157	407.64
672.507	384.82
672.856	366.06
673.205	393.41
673.554	382.33
673.904	403.8
674.253	388.44
674.602	397.25
674.951	386.18
675.3	382.56
675.649	379.62
675.998	387.31
676.346	361.32
676.695	368.1
677.044	360.87
677.393	373.97
677.741	378.94
678.09	366.06
678.438	373.75
678.787	373.07
679.135	377.81
679.484	355.89
679.832	394.99
680.181	368.55
680.529	380.3
680.877	356.12
681.225	373.75
681.573	357.02
681.922	389.79
682.27	368.1
682.618	360.41
682.966	383.01
683.314	399.28
683.661	357.48
684.009	349.12
684.357	361.54
684.705	343.92
685.053	360.41
685.4	377.14
685.748	362
686.095	351.6
686.443	352.28
686.79	347.76
687.138	352.5
687.485	356.57
687.832	332.17
688.18	339.62
688.527	345.05
688.874	366.52
689.221	355.22
689.568	353.86
689.915	349.79
690.262	334.88
690.609	350.47
690.956	349.12
691.303	365.61
691.65	361.77
691.997	364.71
692.344	354.09
692.69	346.4
693.037	365.16
693.383	353.18
693.73	361.54
694.077	338.72
694.423	357.93
694.769	347.31
695.116	355.22
695.462	357.02
695.808	351.6
696.155	358.83
696.501	344.6
696.847	345.73
697.193	358.83
697.539	360.87
697.885	362.67
698.231	347.53
698.577	329
698.923	350.02
699.269	371.71
699.614	347.53
699.96	338.95
700.306	361.77
700.651	348.66
700.997	364.93
701.342	347.08
701.688	359.28
702.033	342.11
702.379	331.26
702.724	343.47
703.069	356.8
703.415	357.48
703.76	364.48
704.105	354.31
704.45	351.83
704.795	352.73
705.14	352.73
705.485	332.17
705.83	363.13
706.175	343.92
706.52	353.63
706.865	339.85
707.209	351.83
707.554	323.58
707.899	340.98
708.243	355.22
708.588	352.5
708.932	342.56
709.277	327.19
709.621	326.74
709.966	328.78
710.31	340.53
710.654	347.08
710.998	343.69
711.342	332.62
711.687	345.27
712.031	361.54
712.375	346.4
712.719	339.85
713.063	344.37
713.407	334.2
713.75	341.21
714.094	349.79
714.438	324.48
714.782	346.63
715.125	325.39
715.469	335.33
715.812	328.1
716.156	343.24
716.499	307.31
716.843	340.53
717.186	341.88
717.53	338.04
717.873	344.82
718.216	338.72
718.559	355.89
718.902	327.19
719.246	339.17
719.589	325.39
719.932	319.06
720.275	328.78
720.617	341.43
720.96	333.3
721.303	333.75
721.646	336.46
721.989	347.99
722.331	334.2
722.674	338.72
723.016	346.4
723.359	330.13
723.701	335.33
724.044	318.83
724.386	333.97
724.729	327.42
725.071	317.03
725.413	323.58
725.755	326.97
726.097	348.89
726.439	346.4
726.782	332.84
727.124	337.59
727.465	346.4
727.807	322.9
728.149	352.5
728.491	350.7
728.833	346.4
729.175	331.94
729.516	332.62
729.858	343.69
730.199	335.1
730.541	347.08
730.882	327.42
731.224	335.78
731.565	340.98
731.906	333.52
732.248	330.81
732.589	331.04
732.93	341.43
733.271	339.62
733.612	319.96
733.953	325.39
734.294	331.94
734.635	343.69
734.976	323.35
735.317	339.17
735.658	328.32
735.999	328.55
736.339	321.09
736.68	334.88
737.021	321.09
737.361	315.22
737.702	320.64
738.042	329.23
738.383	312.96
738.723	342.11
739.063	331.26
739.404	340.3
739.744	335.56
740.084	315.22
740.424	346.63
740.764	338.95
741.104	337.14
741.444	343.92
741.784	338.72
742.124	333.97
742.464	324.93
742.804	350.47
743.143	303.01
743.483	338.95
743.823	350.92
744.162	352.05
744.502	344.37
744.841	300.75
745.181	313.18
745.52	315.67
745.86	336.01
746.199	343.47
746.538	321.77
746.877	328.55
747.216	335.78
747.556	336.23
747.895	307.08
748.234	319.96
748.573	328.1
748.911	328.78
749.25	336.69
749.589	325.61
749.928	336.01
750.267	340.98
750.605	323.13
750.944	315.67
751.283	317.03
751.621	318.16
751.96	332.39
752.298	322.9
752.636	308.89
752.975	310.02
753.313	322.9
753.651	313.41
753.989	319.06
754.327	346.18
754.666	330.58
755.004	325.16
755.342	313.64
755.679	329.23
756.017	328.32
756.355	333.3
756.693	307.53
757.031	336.69
757.368	340.53
757.706	338.04
758.044	340.75
758.381	325.61
758.719	327.42
759.056	331.49
759.394	320.64
759.731	317.48
760.068	331.26
760.405	324.03
760.743	328.78
761.08	318.83
761.417	326.97
761.754	324.93
762.091	332.39
762.428	312.73
762.765	335.1
763.102	322.45
763.438	310.25
763.775	296.91
764.112	327.87
764.449	302.34
764.785	320.19
765.122	341.21
765.458	322.45
765.795	322.9
766.131	320.42
766.467	328.1
766.804	319.74
767.14	345.5
767.476	329
767.812	317.7
768.148	320.64
768.485	312.28
768.821	326.74
769.157	316.35
769.492	330.58
769.828	324.93
770.164	317.25
770.5	340.53
770.836	320.87
771.171	334.88
771.507	313.86
771.842	308.21
772.178	318.16
772.513	327.19
772.849	326.74
773.184	323.35
773.519	330.13
773.855	324.93
774.19	322
774.525	326.29
774.86	302.11
775.195	339.85
775.53	308.89
775.865	318.83
776.2	332.39
776.535	320.42
776.87	334.88
777.205	325.16
777.539	332.39
777.874	319.29
778.209	314.31
778.543	310.25
778.878	340.53
779.212	336.46
779.547	317.03
779.881	323.58
780.215	316.12
780.55	333.52
780.884	315.44
781.218	325.16
781.552	329.68
781.886	320.42
782.22	312.73
782.554	319.06
782.888	303.24
783.222	330.13
783.556	315.9
783.889	319.51
784.223	329.45
784.557	306.18
784.89	340.3
785.224	343.01
785.557	325.61
785.891	333.3
786.224	325.61
786.558	318.38
786.891	286.29
787.224	305.05
787.557	314.77
787.891	323.58
788.224	326.52
788.557	306.63
788.89	314.99
789.223	318.38
789.556	325.39
789.888	323.58
790.221	343.24
790.554	330.36
790.887	310.7
791.219	331.94
791.552	316.35
791.884	321.32
792.217	332.84
792.549	322.45
792.882	324.71
793.214	313.18
793.546	313.18
793.879	331.94
794.211	339.62
794.543	324.03
794.875	305.73
795.207	335.33
795.539	346.63
795.871	303.92
796.203	316.12
796.535	314.31
796.867	304.6
797.198	297.59
797.53	331.49
797.862	326.52
798.193	314.54
798.525	322.45
798.856	335.1
799.188	331.71
799.519	317.48
799.85	319.06
800.182	326.74
800.513	307.76
800.844	317.7
801.175	304.82
801.506	317.25
801.837	327.87
802.168	334.65
802.499	324.93
802.83	332.39
803.161	315.67
803.491	309.57
803.822	322.68
804.153	347.08
804.483	318.38
804.814	322.45
805.145	336.69
805.475	317.7
805.805	338.27
806.136	316.12
806.466	338.72
806.796	317.03
807.126	333.97
807.457	323.81
807.787	335.78
808.117	314.31
808.447	308.66
808.777	307.08
809.107	333.97
809.436	314.77
809.766	323.81
810.096	324.26
810.426	314.77
810.755	329.23
811.085	327.19
811.414	302.34
811.744	306.4
812.073	318.61
812.403	319.74
812.732	326.74
813.061	324.71
813.39	332.62
813.719	314.09
814.049	322
814.378	330.36
814.707	317.48
815.036	312.73
815.365	322.22
815.693	327.65
816.022	307.76
816.351	334.43
816.68	303.69
817.008	334.2
817.337	321.32
817.665	302.11
817.994	326.52
818.322	316.8
818.651	316.35
818.979	315.44
819.307	327.42
819.636	343.47
819.964	356.8
820.292	304.6
820.62	316.8
820.948	311.15
821.276	309.79
821.604	314.31
821.932	346.63
822.259	316.8
822.587	322.45
822.915	328.1
823.243	316.57
823.57	317.03
823.898	320.19
824.225	299.62
824.553	289.91
824.88	316.8
825.207	310.25
825.535	326.52
825.862	319.06
826.189	302.34
826.516	320.87
826.843	319.29
827.17	326.29
827.497	306.4
827.824	322.45
828.151	329.68
828.478	323.13
828.805	311.38
829.131	333.07
829.458	310.02
829.785	322.9
830.111	314.77
830.438	331.26
830.764	328.78
831.09	307.76
831.417	330.36
831.743	338.27
832.069	315.44
832.395	302.79
832.722	317.93
833.048	317.03
833.374	310.02
833.7	312.28
834.026	333.97
834.351	326.52
834.677	325.16
835.003	315.67
835.329	316.8
835.654	332.84
835.98	319.96
836.306	314.99
836.631	323.35
836.956	312.73
837.282	316.8
837.607	304.82
837.932	298.49
838.258	317.7
838.583	322.9
838.908	339.17
839.233	326.52
839.558	324.71
839.883	322.45
840.208	329
840.533	324.26
840.858	322.22
841.182	341.66
841.507	320.42
841.832	337.14
842.156	336.23
842.481	331.26
842.805	334.65
843.13	333.97
843.454	279.51
843.778	314.77
844.103	305.73
844.427	314.77
844.751	306.18
845.075	328.1
845.399	326.06
845.723	323.35
846.047	308.44
846.371	302.79
846.695	320.19
847.019	308.89
847.343	318.61
847.666	326.52
847.99	313.18
848.313	312.51
848.637	305.05
848.96	320.19
849.284	335.56
849.607	341.43
849.931	321.32
850.254	318.38
850.577	322.22
850.9	313.41
851.223	314.54
851.546	312.51
851.869	314.77
852.192	314.99
852.515	314.31
852.838	327.87
853.161	309.12
853.483	321.77
853.806	314.77
854.129	326.97
854.451	315.22
854.774	306.63
855.096	326.74
855.419	315.44
855.741	324.03
856.063	334.43
856.385	304.37
856.708	313.64
857.03	315.44
857.352	315.67
857.674	307.76
857.996	298.27
858.318	318.16
858.64	321.77
858.961	321.09
859.283	305.27
859.605	332.84
859.926	319.29
860.248	324.71
860.57	317.7
860.891	305.27
861.212	319.96
861.534	321.77
861.855	310.7
862.176	314.09
862.498	319.96
862.819	325.84
863.14	306.18
863.461	316.8
863.782	324.26
864.103	322.9
864.424	316.12
864.745	318.83
865.065	334.2
865.386	340.75
865.707	326.52
866.027	311.38
866.348	317.7
866.668	333.52
866.989	303.01
867.309	303.92
867.63	312.28
867.95	323.81
868.27	335.78
868.59	330.58
868.91	320.19
869.23	313.86
869.55	323.35
869.87	320.87
870.19	306.4
870.51	318.83
870.83	319.96
871.15	309.34
871.469	333.07
871.789	325.61
872.109	320.19
872.428	329.45
872.748	306.18
873.067	303.24
873.386	312.51
873.706	314.09
874.025	301.43
874.344	324.03
874.663	314.77
874.982	307.53
875.301	315.9
875.62	336.23
875.939	322.45
876.258	294.2
876.577	326.06
876.896	317.25
877.214	307.76
877.533	312.51
877.852	302.11
878.17	320.87
878.489	330.81
878.807	318.61
879.125	325.61
879.444	315.67
879.762	317.03
880.08	315.9
880.398	313.18
880.716	318.61
881.034	334.2
881.352	317.25
881.67	318.61
881.988	320.42
882.306	317.93
882.624	312.28
882.941	303.92
883.259	327.42
883.577	316.8
883.894	323.58
884.212	313.86
884.529	323.81
884.846	317.7
885.164	304.82
885.481	312.73
885.798	310.92
886.115	304.6
886.432	325.84
886.75	323.58
887.067	311.38
887.383	310.92
887.7	297.37
888.017	314.09
888.334	322
888.651	325.16
888.967	311.83
889.284	302.79
889.6	296.24
889.917	291.04
890.233	323.81
890.55	321.55
890.866	313.18
891.182	326.97
891.498	312.73
891.815	302.56
892.131	305.27
892.447	316.35
892.763	307.08
893.079	326.74
893.395	341.43
893.71	303.47
894.026	310.7
894.342	333.75
894.657	317.48
894.973	308.44
895.289	324.48
895.604	295.56
895.92	317.03
896.235	336.23
896.55	307.08
896.865	306.63
897.181	310.92
897.496	314.31
897.811	321.55
898.126	307.08
898.441	331.71
898.756	300.08
899.071	326.97
899.386	325.61
899.7	318.83
900.015	324.03
900.33	304.6
900.644	302.11
900.959	312.73
901.273	319.29
901.588	324.71
901.902	309.34
902.216	322.22
902.531	318.61
902.845	307.08
903.159	312.51
903.473	304.14
903.787	302.56
904.101	325.16
904.415	329.23
904.729	336.01
905.042	313.64
905.356	308.21
905.67	305.05
905.984	306.18
906.297	333.07
906.611	296.91
906.924	343.01
907.237	336.23
907.551	315.22
907.864	305.27
908.177	317.7
908.491	312.51
908.804	328.1
909.117	303.69
909.43	319.06
909.743	315.22
910.056	295.11
910.368	313.86
910.681	326.52
910.994	317.03
911.307	330.81
911.619	323.81
911.932	317.25
912.244	316.35
912.557	324.93
912.869	315.44
913.181	320.19
913.494	312.05
913.806	308.66
914.118	310.25
914.43	296.01
914.742	330.36
915.054	313.86
915.366	329.23
915.678	319.51
915.99	322
916.302	315.9
916.613	332.17
916.925	309.34
917.236	334.88
917.548	315.67
917.859	320.87
918.171	309.12
918.482	309.34
918.794	317.7
919.105	308.44
919.416	293.75
919.727	329.68
920.038	330.81
920.349	303.24
920.66	315.22
920.971	323.81
921.282	306.86
921.593	285.84
921.903	286.74
922.214	321.32
922.525	331.04
922.835	315.22
923.146	300.53
923.456	329.68
923.767	313.86
924.077	314.31
924.387	320.87
924.697	324.93
925.008	305.73
925.318	299.4
925.628	317.48
925.938	327.19
926.248	317.7
926.558	335.33
926.867	323.13
927.177	315.22
927.487	312.96
927.796	313.18
928.106	301.66
928.416	327.42
928.725	336.91
929.034	328.78
929.344	314.77
929.653	332.39
929.962	307.08
930.271	323.81
930.581	306.18
930.89	295.11
931.199	309.57
931.508	305.5
931.817	325.61
932.125	307.31
932.434	338.95
932.743	318.16
933.051	312.28
933.36	313.64
933.669	312.96
933.977	320.42
934.286	305.05
934.594	289.91
934.902	314.31
935.21	321.09
935.519	333.52
935.827	297.59
936.135	315.22
936.443	306.18
936.751	307.99
937.059	308.44
937.367	306.18
937.674	332.62
937.982	314.54
938.29	306.86
938.597	308.66
938.905	307.53
939.213	317.03
939.52	336.23
939.827	302.11
940.135	290.81
940.442	323.58
940.749	306.63
941.056	309.34
941.363	324.26
941.67	304.14
941.977	301.88
942.284	316.35
942.591	311.15
942.898	325.16
943.205	324.93
943.511	313.41
943.818	313.86
944.125	303.47
944.431	309.57
944.738	296.46
945.044	308.66
945.35	298.49
945.657	305.5
945.963	308.66
946.269	290.81
946.575	325.16
946.881	297.14
947.187	321.09
947.493	307.53
947.799	307.53
948.105	317.25
948.41	304.14
948.716	318.61
949.022	320.42
949.327	319.96
949.633	310.47
949.938	330.13
950.244	308.89
950.549	297.14
950.854	314.99
951.16	313.18
951.465	312.73
951.77	319.96
952.075	320.42
952.38	320.19
952.685	310.25
952.99	320.19
953.294	297.37
953.599	313.18
953.904	302.11
954.209	312.05
954.513	309.79
954.818	298.27
955.122	328.55
955.426	321.32
955.731	313.86
956.035	331.04
956.339	301.21
956.643	302.34
956.948	315.44
957.252	310.02
957.556	321.32
957.86	314.99
958.163	316.35
958.467	310.25
958.771	309.34
959.075	314.09
959.378	305.5
959.682	324.48
959.985	312.28
960.289	309.12
960.592	327.42
960.896	294.65
961.199	322.22
961.502	297.37
961.805	305.95
962.108	315.9
962.411	307.31
962.714	318.61
963.017	321.32
963.32	322.22
963.623	312.28
963.926	297.82
964.228	302.56
964.531	293.07
964.833	310.25
965.136	303.24
965.438	307.76
965.741	328.32
966.043	323.58
966.345	319.51
966.648	306.63
966.95	311.15
967.252	321.77
967.554	331.49
967.856	307.53
968.158	311.38
968.46	316.57
968.761	300.75
969.063	314.31
969.365	311.15
969.666	305.27
969.968	300.75
970.269	317.93
970.571	320.19
970.872	305.5
971.174	314.54
971.475	304.14
971.776	313.18
972.077	307.31
972.378	320.19
972.679	311.6
972.98	309.79
973.281	306.63
973.582	299.62
973.883	318.83
974.183	324.26
974.484	317.93
974.785	307.08
975.085	302.11
975.386	312.05
975.686	322.68
975.986	310.25
976.287	318.38
976.587	316.57
976.887	300.75
977.187	293.52
977.487	312.28
977.787	305.5
978.087	310.02
978.387	270.02
978.687	309.79
978.987	314.09
979.286	282.9
979.586	313.64
979.885	324.26
980.185	311.83
980.484	328.32
980.784	323.35
981.083	301.88
981.382	315.22
981.682	316.12
981.981	303.01
982.28	300.08
982.579	312.05
982.878	298.49
983.177	302.34
983.475	309.79
983.774	333.3
984.073	309.57
984.372	311.83
984.67	318.61
984.969	322.68
985.267	297.82
985.566	317.03
985.864	304.6
986.162	309.12
986.461	335.78
986.759	306.18
987.057	306.4
987.355	309.34
987.653	317.93
987.951	312.05
988.249	324.26
988.547	307.31
988.844	302.34
989.142	313.86
989.44	310.25
989.737	314.31
990.035	322.9
990.332	303.01
990.63	305.27
990.927	296.46
991.224	303.69
991.521	301.21
991.819	306.63
992.116	323.58
992.413	319.29
992.71	312.51
993.006	284.26
993.303	305.05
993.6	317.93
993.897	328.55
994.193	326.97
994.49	322.68
994.787	323.35
995.083	315.44
995.379	325.39
995.676	308.89
995.972	313.64
996.268	305.95
996.565	303.01
996.861	330.13
997.157	313.41
997.453	329
997.749	316.35
998.044	311.15
998.34	308.21
998.636	328.32
998.932	304.82
999.227	336.01
999.523	312.96
999.818	319.06
1000.114	307.08
1000.409	305.73
1000.704	317.7
1001	309.57
1001.295	317.7
1001.59	312.73
1001.885	297.14
1002.18	307.99
1002.475	311.6
1002.77	324.71
1003.065	324.26
1003.359	317.7
1003.654	303.69
1003.949	314.54
1004.243	317.25
1004.538	307.53
1004.832	322.9
1005.127	302.79
1005.421	304.37
1005.715	316.8
1006.009	293.98
1006.304	319.96
1006.598	316.12
1006.892	286.29
1007.186	305.73
1007.48	311.83
1007.773	307.31
1008.067	323.81
1008.361	301.43
1008.655	317.7
1008.948	324.48
1009.242	300.3
1009.535	303.01
1009.829	319.06
1010.122	315.44
1010.415	317.25
1010.708	311.6
1011.001	315.44
1011.295	312.28
1011.588	305.73
1011.881	324.71
1012.173	308.21
1012.466	319.96
1012.759	313.18
1013.052	331.26
1013.344	307.08
1013.637	323.13
1013.93	312.73
1014.222	320.42
1014.514	305.27
1014.807	336.01
1015.099	314.31
1015.391	313.18
1015.683	310.47
1015.976	284.71
1016.268	303.01
1016.56	322.22
1016.851	316.35
1017.143	310.02
1017.435	308.44
1017.727	318.83
1018.018	297.14
1018.31	296.01
1018.602	316.57
1018.893	324.93
1019.185	312.73
1019.476	298.95
1019.767	302.34
1020.058	309.34
1020.35	303.92
1020.641	320.87
1020.932	311.83
1021.223	318.16
1021.514	314.09
1021.804	316.35
1022.095	312.73
1022.386	310.92
1022.677	310.47
1022.967	312.96
1023.258	310.25
1023.548	324.48
1023.839	314.54
1024.129	328.1
1024.419	295.56
1024.709	307.76
1025	314.31
1025.29	307.76
1025.58	290.81
1025.87	302.11
1026.16	309.79
1026.449	314.09
1026.739	310.7
1027.029	312.51
1027.319	326.74
1027.608	321.32
1027.898	335.56
1028.187	329.23
1028.477	307.08
1028.766	323.35
1029.055	313.86
1029.344	295.11
1029.634	316.35
1029.923	312.05
1030.212	321.32
1030.501	302.34
1030.79	321.09
1031.078	307.08
1031.367	307.31
1031.656	293.52
1031.945	311.38
1032.233	307.53
1032.522	306.86
1032.81	301.43
1033.099	308.44
1033.387	332.84
1033.675	314.31
1033.963	315.9
1034.251	321.55
1034.54	300.53
1034.828	313.64
1035.116	311.15
1035.403	313.41
1035.691	293.75
1035.979	327.19
1036.267	309.79
1036.554	303.47
1036.842	322.45
1037.129	298.95
1037.417	300.53
1037.704	313.41
1037.992	323.81
1038.279	297.82
1038.566	310.02
1038.853	310.02
1039.14	310.02
