Data from No_light_on_white_reflection_standard_FLMS001491_040.txt Node
Date: Tue Feb 07 10:33:00 GMT 2017
User: dcchb
Spectrometer: FLMS00149
Trigger mode: 0
Integration Time (sec): 2.000000E-2
Scans to average: 10
Electric dark correction enabled: true
Nonlinearity correction enabled: false
Boxcar width: 0
XAxis mode: Wavelengths
Number of Pixels in Spectrum: 2048
>>>>>Begin Spectral Data<<<<<
341.393	-12.12
341.776	-12.12
342.16	-12.12
342.543	-51.21
342.927	-82.85
343.31	-72.91
343.693	-76.98
344.077	-67.71
344.46	-57.54
344.843	-48.05
345.226	-45.11
345.61	-25
345.993	-18.22
346.376	7.99
346.759	17.49
347.142	22.68
347.525	36.02
347.908	62.46
348.291	77.82
348.674	94.09
349.057	92.96
349.44	105.62
349.823	149.01
350.206	145.17
350.588	171.15
350.971	182.9
351.354	179.97
351.737	197.37
352.119	215.22
352.502	250.25
352.884	231.04
353.267	260.42
353.65	250.47
354.032	256.8
354.414	256.8
354.797	290.02
355.179	283.47
355.562	299.96
355.944	269
356.326	292.73
356.709	318.72
357.091	314.43
357.473	318.49
357.855	310.81
358.238	311.26
358.62	298.16
359.002	312.39
359.384	292.05
359.766	294.77
360.148	299.74
360.53	285.95
360.912	296.8
361.294	307.65
361.676	297.03
362.057	295.44
362.439	284.82
362.821	283.47
363.203	274.65
363.584	284.82
363.966	284.6
364.348	280.08
364.729	294.54
365.111	272.39
365.493	271.94
365.874	302.45
366.256	306.74
366.637	295.67
367.019	282.11
367.4	285.05
367.781	297.25
368.163	266.97
368.544	280.76
368.925	288.66
369.306	277.37
369.688	259.74
370.069	253.41
370.45	264.48
370.831	275.11
371.212	273.98
371.593	270.36
371.974	269
372.355	266.07
372.736	264.48
373.117	269.23
373.498	280.76
373.879	267.65
374.26	280.08
374.641	264.03
375.021	274.2
375.402	282.11
375.783	264.48
376.163	263.81
376.544	257.48
376.925	272.39
377.305	291.6
377.686	291.15
378.066	266.97
378.447	276.24
378.827	283.24
379.208	288.89
379.588	275.56
379.968	297.48
380.349	273.75
380.729	291.83
381.109	282.11
381.489	282.34
381.87	289.57
382.25	283.47
382.63	265.39
383.01	295.22
383.39	282.34
383.77	265.16
384.15	297.93
384.53	302.45
384.91	287.31
385.29	298.61
385.67	286.4
386.049	291.38
386.429	296.12
386.809	291.15
387.189	297.25
387.568	266.07
387.948	283.69
388.328	275.11
388.707	290.47
389.087	281.66
389.466	281.66
389.846	287.53
390.225	287.53
390.605	321.43
390.984	296.35
391.363	288.66
391.743	276.46
392.122	281.43
392.501	279.4
392.881	282.34
393.26	306.52
393.639	293.18
394.018	280.98
394.397	301.55
394.776	278.27
395.155	283.69
395.534	289.79
395.913	302.22
396.292	274.2
396.671	309.23
397.05	306.07
397.429	285.95
397.808	297.7
398.186	299.06
398.565	297.93
398.944	276.69
399.323	295.44
399.701	311.71
400.08	289.57
400.458	310.59
400.837	303.58
401.215	291.15
401.594	298.61
401.972	300.42
402.351	293.41
402.729	305.16
403.107	307.87
403.486	279.4
403.864	289.34
404.242	303.81
404.62	288.44
404.999	305.61
405.377	317.59
405.755	294.77
406.133	295.44
406.511	307.2
406.889	300.42
407.267	303.13
407.645	302
408.023	302.22
408.401	298.16
408.779	290.02
409.156	311.94
409.534	304.94
409.912	317.14
410.29	291.15
410.667	303.81
411.045	309.91
411.422	309
411.8	285.73
412.178	289.79
412.555	312.39
412.933	304.71
413.31	292.96
413.687	293.18
414.065	303.35
414.442	293.18
414.819	303.35
415.197	300.87
415.574	320.08
415.951	308.1
416.328	279.85
416.705	306.97
417.082	307.2
417.46	322.56
417.837	329.12
418.214	323.24
418.591	290.25
418.967	298.61
419.344	301.09
419.721	306.74
420.098	304.71
420.475	304.48
420.852	312.17
421.228	315.1
421.605	329.12
421.982	299.51
422.358	299.29
422.735	316.23
423.111	311.71
423.488	323.92
423.864	303.13
424.241	310.81
424.617	309.46
424.994	306.07
425.37	296.57
425.746	318.95
426.123	311.49
426.499	303.13
426.875	306.29
427.251	310.81
427.627	306.07
428.003	282.34
428.379	329.79
428.756	304.03
429.132	324.6
429.507	315.1
429.883	297.7
430.259	331.83
430.635	299.74
431.011	301.32
431.387	320.08
431.763	326.18
432.138	309.23
432.514	328.66
432.89	329.12
433.265	320.75
433.641	315.78
434.016	316.91
434.392	307.87
434.767	331.6
435.143	327.76
435.518	325.73
435.894	305.39
436.269	316.91
436.644	313.3
437.02	319.85
437.395	330.25
437.77	329.34
438.145	312.39
438.52	345.84
438.895	311.49
439.271	323.69
439.646	327.76
440.021	308.1
440.395	322.11
440.77	333.18
441.145	325.27
441.52	322.56
441.895	318.95
442.27	320.08
442.645	337.03
443.019	342.67
443.394	351.71
443.769	327.99
444.143	336.8
444.518	339.51
444.892	348.78
445.267	347.19
445.641	342
446.016	352.39
446.39	357.36
446.764	357.36
447.139	367.31
447.513	343.13
447.887	350.36
448.262	367.31
448.636	349.68
449.01	361.21
449.384	360.3
449.758	363.92
450.132	360.53
450.506	371.37
450.88	397.36
451.254	376.35
451.628	351.71
452.002	352.62
452.376	360.75
452.75	367.98
453.123	363.47
453.497	381.54
453.871	368.21
454.244	363.92
454.618	385.84
454.992	370.24
455.365	372.05
455.739	348.78
456.112	365.95
456.486	378.83
456.859	352.84
457.232	375.67
457.606	379.51
457.979	377.25
458.352	369.57
458.725	364.59
459.099	365.27
459.472	350.81
459.845	359.17
460.218	372.05
460.591	350.58
460.964	373.41
461.337	344.48
461.71	355.33
462.083	368.66
462.456	365.72
462.829	350.58
463.201	345.61
463.574	356.69
463.947	356.23
464.32	345.61
464.692	339.96
465.065	349.45
465.438	337.93
465.81	336.12
466.183	359.85
466.555	366.4
466.928	358.49
467.3	356.46
467.672	361.43
468.045	362.56
468.417	362.56
468.789	338.83
469.161	374.54
469.534	341.77
469.906	343.8
470.278	361.88
470.65	345.39
471.022	351.04
471.394	325.05
471.766	340.41
472.138	362.79
472.51	326.4
472.882	348.55
473.253	339.06
473.625	329.57
473.997	368.66
474.369	333.18
474.74	348.55
475.112	342.9
475.484	364.14
475.855	346.74
476.227	342.67
476.598	336.57
476.97	350.36
477.341	321.66
477.713	353.52
478.084	352.62
478.455	342.22
478.827	353.07
479.198	353.52
479.569	337.93
479.94	362.11
480.311	360.3
480.682	337.25
481.053	377.02
481.424	355.56
481.795	341.77
482.166	353.3
482.537	392.84
482.908	339.51
483.279	354.43
483.65	338.38
484.021	351.71
484.391	347.87
484.762	330.47
485.133	363.47
485.503	370.02
485.874	370.92
486.244	350.36
486.615	362.34
486.985	370.7
487.356	358.49
487.726	375.44
488.097	363.01
488.467	363.47
488.837	370.92
489.207	375.67
489.578	366.85
489.948	356.23
490.318	388.55
490.688	372.28
491.058	348.55
491.428	369.57
491.798	370.47
492.168	366.18
492.538	394.88
492.908	368.66
493.278	383.8
493.648	385.61
494.017	365.05
494.387	375.67
494.757	390.58
495.126	392.16
495.496	385.61
495.866	394.65
496.235	375.22
496.605	367.98
496.974	383.8
497.344	396.46
497.713	395.33
498.082	396.23
498.452	381.32
498.821	391.94
499.19	388.32
499.559	394.2
499.928	391.94
500.298	386.06
500.667	390.58
501.036	391.49
501.405	405.5
501.774	409.34
502.143	397.36
502.512	385.61
502.88	431.26
503.249	410.92
503.618	405.05
503.987	425.38
504.356	387.65
504.724	406.4
505.093	405.95
505.462	419.96
505.83	410.7
506.199	416.12
506.567	409.34
506.936	408.44
507.304	402.56
507.672	394.88
508.041	423.12
508.409	410.02
508.777	425.84
509.145	431.71
509.514	426.74
509.882	436.01
510.25	435.33
510.618	441.66
510.986	448.21
511.354	424.03
511.722	431.71
512.09	440.3
512.458	452.28
512.826	428.55
513.193	417.7
513.561	428.77
513.929	459.51
514.297	438.72
514.664	466.74
515.032	425.84
515.4	451.15
515.767	451.6
516.135	440.07
516.502	446.85
516.869	447.76
517.237	457.02
517.604	455.21
517.972	443.24
518.339	450.69
518.706	453.41
519.073	484.59
519.44	444.82
519.808	461.54
520.175	473.07
520.542	468.1
520.909	455.21
521.276	479.17
521.643	450.69
522.009	436.01
522.376	476.68
522.743	458.38
523.11	468.55
523.477	478.04
523.843	456.8
524.21	482.11
524.577	450.92
524.943	450.02
525.31	480.3
525.676	476.68
526.043	462.9
526.409	452.05
526.776	476.46
527.142	467.64
527.508	482.78
527.874	476
528.241	466.29
528.607	482.11
528.973	485.95
529.339	470.35
529.705	497.02
530.071	501.09
530.437	473.07
530.803	499.51
531.169	489.11
531.535	482.78
531.901	498.83
532.267	487.3
532.632	484.59
532.998	507.64
533.364	511.26
533.73	480.52
534.095	506.51
534.461	480.3
534.826	501.99
535.192	502.9
535.557	492.73
535.923	501.31
536.288	503.12
536.653	495.21
537.019	502.67
537.384	495.89
537.749	516.23
538.114	507.42
538.479	519.39
538.845	496.57
539.21	490.24
539.575	511.48
539.94	500.64
540.305	493.18
540.67	522.1
541.034	503.8
541.399	506.74
541.764	515.78
542.129	508.77
542.494	511.94
542.858	501.09
543.223	497.7
543.587	509.68
543.952	516.46
544.316	509.22
544.681	501.09
545.045	518.49
545.41	516.23
545.774	525.49
546.138	528.66
546.503	521.65
546.867	514.65
547.231	521.65
547.595	511.03
547.959	542.9
548.324	539.51
548.688	549
549.052	514.42
549.416	518.94
549.779	513.97
550.143	516.23
550.507	516.91
550.871	515.55
551.235	518.26
551.599	506.74
551.962	523.46
552.326	520.07
552.689	518.94
553.053	516.91
553.417	537.25
553.78	548.32
554.143	526.4
554.507	532.95
554.87	530.69
555.234	504.25
555.597	530.47
555.96	526.85
556.323	518.26
556.686	537.92
557.05	518.94
557.413	524.14
557.776	529.56
558.139	572.73
558.502	558.94
558.865	549.45
559.228	535.44
559.59	529.56
559.953	540.86
560.316	539.73
560.679	546.06
561.041	551.26
561.404	547.87
561.767	540.64
562.129	536.57
562.492	562.56
562.854	530.69
563.217	565.04
563.579	551.26
563.941	538.6
564.304	539.28
564.666	564.82
565.028	572.05
565.39	551.48
565.753	572.5
566.115	561.43
566.477	565.04
566.839	555.1
567.201	574.76
567.563	551.93
567.925	572.27
568.287	545.83
568.648	570.69
569.01	580.41
569.372	587.19
569.734	584.48
570.095	572.95
570.457	553.97
570.819	560.07
571.18	598.04
571.542	568.21
571.903	561.65
572.265	560.97
572.626	565.95
572.987	570.92
573.349	574.53
573.71	548.32
574.071	589.22
574.432	594.42
574.794	581.09
575.155	578.37
575.516	570.01
575.877	574.98
576.238	575.89
576.599	570.24
576.96	553.29
577.32	574.76
577.681	597.81
578.042	577.92
578.403	557.58
578.763	581.76
579.124	590.13
579.485	587.41
579.845	572.5
580.206	570.01
580.566	580.86
580.927	583.35
581.287	579.96
581.648	582.22
582.008	576.57
582.368	584.93
582.728	573.4
583.089	585.83
583.449	583.57
583.809	580.63
584.169	598.26
584.529	582.89
584.889	586.74
585.249	585.15
585.609	581.76
585.969	565.27
586.329	570.92
586.688	582.44
587.048	584.02
587.408	566.85
587.768	574.76
588.127	585.61
588.487	579.28
588.846	567.75
589.206	584.93
589.565	580.41
589.925	579.96
590.284	574.08
590.643	580.63
591.003	572.05
591.362	573.63
591.721	590.35
592.08	562.56
592.44	558.04
592.799	578.83
593.158	564.59
593.517	567.53
593.876	561.2
594.235	561.65
594.593	567.98
594.952	570.24
595.311	581.31
595.67	565.95
596.029	575.21
596.387	586.51
596.746	572.5
597.104	552.61
597.463	567.53
597.822	571.37
598.18	572.27
598.538	572.5
598.897	561.2
599.255	554.19
599.613	550.8
599.972	577.24
600.33	559.84
600.688	585.15
601.046	554.42
601.404	565.95
601.762	562.78
602.12	559.39
602.478	568.21
602.836	561.43
603.194	565.72
603.552	573.4
603.91	547.87
604.268	560.3
604.625	558.04
604.983	565.49
605.341	556.45
605.698	564.82
606.056	552.61
606.413	572.27
606.771	542.22
607.128	534.31
607.485	551.48
607.843	539.96
608.2	554.42
608.557	550.58
608.914	534.99
609.272	567.98
609.629	547.19
609.986	537.47
610.343	553.29
610.7	541.09
611.057	549.67
611.414	548.54
611.771	532.5
612.127	528.43
612.484	544.7
612.841	550.58
613.198	535.89
613.554	533.86
613.911	526.85
614.267	545.16
614.624	532.95
614.98	528.21
615.337	531.14
615.693	539.73
616.05	538.6
616.406	555.1
616.762	522.56
617.118	533.4
617.475	540.86
617.831	541.77
618.187	528.66
618.543	541.77
618.899	523.46
619.255	517.36
619.611	513.97
619.967	537.02
620.323	519.17
620.678	508.55
621.034	506.96
621.39	526.17
621.746	523.69
622.101	508.77
622.457	526.62
622.812	509.9
623.168	528.88
623.523	501.77
623.879	516.23
624.234	492.73
624.589	516.23
624.945	509.68
625.3	520.52
625.655	519.62
626.01	506.51
626.365	519.39
626.72	492.05
627.075	477.81
627.43	492.05
627.785	512.61
628.14	487.76
628.495	491.82
628.85	504.7
629.205	526.4
629.559	497.92
629.914	483.24
630.269	497.25
630.623	490.69
630.978	505.61
631.332	481.43
631.687	500.41
632.041	492.73
632.396	493.18
632.75	470.35
633.104	499.73
633.459	488.43
633.813	471.94
634.167	453.63
634.521	460.19
634.875	459.51
635.229	481.2
635.583	473.07
635.937	475.55
636.291	480.75
636.645	469
636.999	454.99
637.352	478.04
637.706	478.49
638.06	492.05
638.413	471.48
638.767	461.77
639.121	464.71
639.474	469.9
639.828	469
640.181	469.22
640.534	468.1
640.888	443.24
641.241	473.52
641.594	461.32
641.947	462.9
642.301	440.07
642.654	454.99
643.007	471.94
643.36	459.06
643.713	443.69
644.066	463.8
644.419	455.21
644.771	437.36
645.124	440.75
645.477	442.56
645.83	446.63
646.182	447.76
646.535	424.48
646.888	424.25
647.24	448.66
647.593	449.79
647.945	442.11
648.298	441.66
648.65	436.68
649.002	436.46
649.355	426.74
649.707	432.39
650.059	433.52
650.411	412.73
650.763	430.81
651.115	428.1
651.467	413.63
651.819	424.03
652.171	442.78
652.523	433.97
652.875	420.86
653.227	427.19
653.578	406.18
653.93	404.37
654.282	420.41
654.633	427.42
654.985	441.66
655.337	404.59
655.688	407.98
656.039	438.27
656.391	416.8
656.742	421.09
657.094	431.71
657.445	407.98
657.796	409.79
658.147	399.17
658.498	425.61
658.849	425.38
659.2	411.83
659.551	408.21
659.902	398.49
660.253	407.31
660.604	399.62
660.955	400.75
661.306	398.94
661.656	391.71
662.007	393.29
662.358	407.31
662.708	393.97
663.059	399.62
663.409	407.31
663.76	396.68
664.11	401.43
664.461	406.4
664.811	412.96
665.161	387.65
665.511	410.47
665.862	414.99
666.212	390.13
666.562	401.2
666.912	410.02
667.262	389.45
667.612	384.93
667.962	393.29
668.312	396.46
668.662	394.2
669.011	393.52
669.361	379.51
669.711	377.7
670.06	391.71
670.41	373.41
670.76	385.61
671.109	389.68
671.459	382
671.808	391.49
672.157	398.27
672.507	386.06
672.856	387.19
673.205	394.65
673.554	385.84
673.904	385.84
674.253	396.23
674.602	407.31
674.951	367.76
675.3	374.31
675.649	385.16
675.998	374.54
676.346	369.11
676.695	379.51
677.044	381.32
677.393	381.77
677.741	370.24
678.09	366.4
678.438	383.58
678.787	387.19
679.135	379.74
679.484	368.89
679.832	389.68
680.181	371.15
680.529	384.48
680.877	380.19
681.225	344.26
681.573	386.52
681.922	375.89
682.27	364.59
682.618	370.24
682.966	375.44
683.314	364.37
683.661	371.6
684.009	373.18
684.357	348.78
684.705	358.49
685.053	364.82
685.4	373.18
685.748	360.3
686.095	370.24
686.443	374.09
686.79	370.92
687.138	354.65
687.485	343.35
687.832	345.84
688.18	344.71
688.527	379.74
688.874	365.95
689.221	364.14
689.568	365.05
689.915	372.5
690.262	350.81
690.609	346.74
690.956	341.54
691.303	348.55
691.65	359.85
691.997	367.76
692.344	372.96
692.69	358.72
693.037	366.18
693.383	350.81
693.73	349.91
694.077	362.56
694.423	370.92
694.769	341.09
695.116	345.39
695.462	347.87
695.808	361.66
696.155	352.84
696.501	370.47
696.847	360.3
697.193	358.27
697.539	361.88
697.885	357.36
698.231	357.36
698.577	343.8
698.923	343.58
699.269	328.66
699.614	346.74
699.96	347.65
700.306	359.62
700.651	359.62
700.997	344.03
701.342	363.69
701.688	351.26
702.033	363.24
702.379	352.39
702.724	363.92
703.069	348.55
703.415	328.44
703.76	349.23
704.105	371.15
704.45	356.23
704.795	347.65
705.14	356.69
705.485	346.97
705.83	343.58
706.175	344.48
706.52	342.9
706.865	356.46
707.209	344.71
707.554	336.35
707.899	345.61
708.243	353.75
708.588	351.71
708.932	327.31
709.277	323.92
709.621	370.47
709.966	377.48
710.31	357.59
710.654	350.13
710.998	329.12
711.342	330.25
711.687	342.67
712.031	352.39
712.375	333.86
712.719	349.45
713.063	356.01
713.407	358.95
713.75	356.69
714.094	333.18
714.438	346.06
714.782	342
715.125	344.71
715.469	344.93
715.812	340.87
716.156	341.32
716.499	340.64
716.843	349.45
717.186	346.52
717.53	335.9
717.873	338.83
718.216	319.17
718.559	333.64
718.902	313.07
719.246	309.46
719.589	329.79
719.932	334.09
720.275	323.24
720.617	347.19
720.96	345.61
721.303	319.17
721.646	338.38
721.989	345.61
722.331	340.19
722.674	319.85
723.016	334.77
723.359	329.34
723.701	319.4
724.044	330.25
724.386	347.65
724.729	323.01
725.071	336.57
725.413	326.63
725.755	315.78
726.097	332.28
726.439	340.41
726.782	319.4
727.124	333.41
727.465	352.39
727.807	346.52
728.149	331.6
728.491	313.52
728.833	342.22
729.175	353.3
729.516	349
729.858	337.48
730.199	344.93
730.541	351.26
730.882	327.76
731.224	359.85
731.565	334.09
731.906	329.34
732.248	335.44
732.589	347.19
732.93	360.53
733.271	327.31
733.612	332.05
733.953	336.57
734.294	342.67
734.635	329.79
734.976	332.51
735.317	338.61
735.658	326.4
735.999	346.74
736.339	335.67
736.68	319.62
737.021	317.14
737.361	335.67
737.702	355.56
738.042	349.45
738.383	352.84
738.723	362.11
739.063	326.86
739.404	329.34
739.744	349.45
740.084	331.83
740.424	322.79
740.764	332.28
741.104	346.52
741.444	315.56
741.784	333.18
742.124	329.12
742.464	337.7
742.804	335.44
743.143	331.15
743.483	308.55
743.823	337.48
744.162	343.13
744.502	344.71
744.841	343.58
745.181	318.95
745.52	337.93
745.86	347.19
746.199	343.8
746.538	340.87
746.877	323.24
747.216	340.87
747.556	336.8
747.895	332.51
748.234	313.75
748.573	334.31
748.911	350.36
749.25	328.66
749.589	327.99
749.928	300.64
750.267	351.71
750.605	323.01
750.944	331.6
751.283	325.27
751.621	328.44
751.96	322.34
752.298	352.84
752.636	335.67
752.975	351.71
753.313	335.44
753.651	329.57
753.989	354.65
754.327	337.7
754.666	327.99
755.004	319.17
755.342	337.03
755.679	340.41
756.017	346.52
756.355	330.25
756.693	335.9
757.031	353.07
757.368	331.38
757.706	332.28
758.044	322.79
758.381	339.28
758.719	345.61
759.056	330.47
759.394	331.15
759.731	326.4
760.068	317.82
760.405	311.49
760.743	332.05
761.08	343.35
761.417	309
761.754	301.09
762.091	325.73
762.428	320.75
762.765	319.85
763.102	316.69
763.438	326.63
763.775	328.66
764.112	307.42
764.449	338.83
764.785	337.03
765.122	314.2
765.458	316.46
765.795	342.9
766.131	324.37
766.467	324.14
766.804	322.79
767.14	318.95
767.476	328.21
767.812	324.82
768.148	335.22
768.485	330.7
768.821	337.03
769.157	312.17
769.492	324.6
769.828	311.94
770.164	333.86
770.5	337.7
770.836	322.34
771.171	346.06
771.507	337.93
771.842	332.28
772.178	336.12
772.513	312.39
772.849	325.73
773.184	320.53
773.519	325.73
773.855	319.62
774.19	328.44
774.525	321.43
774.86	320.53
775.195	329.79
775.53	321.43
775.865	310.81
776.2	328.21
776.535	349
776.87	337.93
777.205	301.32
777.539	322.79
777.874	342.67
778.209	323.69
778.543	328.66
778.878	309.91
779.212	310.59
779.547	334.99
779.881	346.52
780.215	329.79
780.55	325.73
780.884	329.79
781.218	325.27
781.552	326.18
781.886	341.09
782.22	323.24
782.554	334.54
782.888	311.94
783.222	323.92
783.556	327.53
783.889	338.61
784.223	334.54
784.557	329.34
784.89	301.09
785.224	332.51
785.557	348.78
785.891	338.15
786.224	322.11
786.558	320.98
786.891	314.2
787.224	328.66
787.557	304.48
787.891	324.82
788.224	332.28
788.557	300.64
788.89	304.26
789.223	325.05
789.556	344.71
789.888	330.25
790.221	309.91
790.554	309.46
790.887	314.43
791.219	344.03
791.552	325.27
791.884	332.73
792.217	320.08
792.549	311.26
792.882	319.17
793.214	327.31
793.546	320.08
793.879	322.56
794.211	320.98
794.543	328.89
794.875	316.23
795.207	327.53
795.539	332.73
795.871	329.79
796.203	330.7
796.535	298.83
796.867	323.01
797.198	324.82
797.53	328.89
797.862	313.3
798.193	328.21
798.525	325.27
798.856	326.86
799.188	331.15
799.519	328.66
799.85	325.5
800.182	315.1
800.513	330.92
800.844	319.85
801.175	323.92
801.506	347.65
801.837	325.27
802.168	324.6
802.499	327.08
802.83	337.93
803.161	331.83
803.491	330.02
803.822	317.82
804.153	322.79
804.483	344.93
804.814	310.36
805.145	318.04
805.475	313.97
805.805	325.5
806.136	332.73
806.466	329.79
806.796	329.34
807.126	340.41
807.457	324.82
807.787	339.96
808.117	339.74
808.447	304.48
808.777	318.72
809.107	297.48
809.436	334.31
809.766	313.97
810.096	325.95
810.426	323.69
810.755	327.53
811.085	326.18
811.414	313.75
811.744	346.29
812.073	324.82
812.403	346.97
812.732	333.86
813.061	315.78
813.39	315.33
813.719	333.18
814.049	302.68
814.378	315.56
814.707	324.14
815.036	322.11
815.365	332.96
815.693	305.16
816.022	328.66
816.351	308.55
816.68	309.68
817.008	302.68
817.337	313.3
817.665	318.95
817.994	313.3
818.322	329.79
818.651	318.72
818.979	305.84
819.307	330.47
819.636	318.95
819.964	320.3
820.292	330.92
820.62	324.14
820.948	321.66
821.276	321.88
821.604	332.96
821.932	347.19
822.259	318.72
822.587	310.81
822.915	316.91
823.243	315.78
823.57	323.69
823.898	327.76
824.225	327.08
824.553	325.73
824.88	314.88
825.207	337.93
825.535	332.51
825.862	330.7
826.189	311.26
826.516	321.21
826.843	327.53
827.17	314.2
827.497	305.61
827.824	316.23
828.151	325.5
828.478	330.92
828.805	327.99
829.131	319.4
829.458	328.21
829.785	338.61
830.111	309.23
830.438	314.88
830.764	321.21
831.09	303.81
831.417	323.24
831.743	322.11
832.069	338.83
832.395	322.79
832.722	328.66
833.048	320.53
833.374	334.54
833.7	319.62
834.026	325.5
834.351	313.97
834.677	328.89
835.003	319.62
835.329	315.56
835.654	308.78
835.98	317.36
836.306	322.56
836.631	337.25
836.956	306.29
837.282	326.18
837.607	332.96
837.932	341.54
838.258	314.65
838.583	309
838.908	299.74
839.233	324.37
839.558	329.57
839.883	329.34
840.208	312.17
840.533	306.52
840.858	343.58
841.182	319.17
841.507	320.75
841.832	328.89
842.156	306.52
842.481	323.92
842.805	321.21
843.13	337.7
843.454	336.12
843.778	302.45
844.103	332.05
844.427	338.61
844.751	327.99
845.075	325.5
845.399	330.7
845.723	344.48
846.047	325.73
846.371	320.3
846.695	315.78
847.019	335.67
847.343	314.65
847.666	330.92
847.99	296.35
848.313	327.53
848.637	309
848.96	320.75
849.284	301.09
849.607	310.13
849.931	323.69
850.254	304.26
850.577	339.51
850.9	330.25
851.223	329.79
851.546	309
851.869	327.99
852.192	349.23
852.515	309.91
852.838	323.92
853.161	331.15
853.483	310.13
853.806	325.27
854.129	340.41
854.451	318.49
854.774	320.3
855.096	321.88
855.419	319.4
855.741	340.64
856.063	313.3
856.385	316.23
856.708	327.08
857.03	331.15
857.352	325.95
857.674	318.27
857.996	316.69
858.318	324.37
858.64	309.91
858.961	313.75
859.283	304.26
859.605	322.34
859.926	315.56
860.248	319.62
860.57	338.83
860.891	321.43
861.212	313.52
861.534	341.54
861.855	340.41
862.176	332.73
862.498	300.64
862.819	304.26
863.14	303.81
863.461	317.82
863.782	321.43
864.103	326.18
864.424	307.65
864.745	318.49
865.065	331.83
865.386	316.23
865.707	309.46
866.027	323.92
866.348	309
866.668	317.14
866.989	323.69
867.309	299.29
867.63	318.49
867.95	324.6
868.27	303.13
868.59	312.84
868.91	322.79
869.23	315.33
869.55	322.11
869.87	311.04
870.19	317.36
870.51	307.87
870.83	313.75
871.15	321.21
871.469	316.23
871.789	341.09
872.109	311.71
872.428	311.94
872.748	311.94
873.067	322.56
873.386	298.38
873.706	317.82
874.025	318.04
874.344	321.21
874.663	308.78
874.982	326.4
875.301	316.23
875.62	314.88
875.939	324.6
876.258	333.64
876.577	333.86
876.896	296.57
877.214	336.12
877.533	313.97
877.852	337.25
878.17	337.03
878.489	321.66
878.807	297.25
879.125	309.23
879.444	323.01
879.762	315.78
880.08	325.95
880.398	324.6
880.716	311.04
881.034	319.62
881.352	342.45
881.67	320.98
881.988	334.31
882.306	316.01
882.624	325.27
882.941	335.44
883.259	326.18
883.577	338.15
883.894	319.17
884.212	304.03
884.529	329.12
884.846	330.92
885.164	320.98
885.481	322.79
885.798	315.78
886.115	327.08
886.432	317.36
886.75	322.34
887.067	333.18
887.383	325.73
887.7	319.4
888.017	336.8
888.334	315.78
888.651	323.24
888.967	319.85
889.284	360.08
889.6	316.69
889.917	308.55
890.233	341.54
890.55	334.77
890.866	312.39
891.182	307.87
891.498	304.71
891.815	314.65
892.131	294.09
892.447	324.6
892.763	318.04
893.079	306.74
893.395	328.21
893.71	325.27
894.026	331.6
894.342	313.97
894.657	337.48
894.973	301.09
895.289	316.91
895.604	332.51
895.92	320.75
896.235	317.82
896.55	327.53
896.865	305.61
897.181	315.56
897.496	311.49
897.811	322.56
898.126	303.58
898.441	302.68
898.756	332.28
899.071	323.47
899.386	303.81
899.7	325.27
900.015	340.41
900.33	313.3
900.644	325.5
900.959	302
901.273	338.38
901.588	328.21
901.902	317.14
902.216	318.04
902.531	325.95
902.845	314.43
903.159	317.82
903.473	307.42
903.787	360.08
904.101	315.56
904.415	340.64
904.729	324.82
905.042	323.92
905.356	316.23
905.67	333.86
905.984	326.86
906.297	327.08
906.611	308.55
906.924	324.82
907.237	331.38
907.551	304.48
907.864	301.09
908.177	323.01
908.491	348.1
908.804	325.73
909.117	315.1
909.43	305.61
909.743	294.31
910.056	313.52
910.368	343.13
910.681	318.27
910.994	330.92
911.307	327.08
911.619	314.65
911.932	326.63
912.244	311.04
912.557	315.56
912.869	306.74
913.181	316.91
913.494	314.2
913.806	335.22
914.118	349.68
914.43	325.5
914.742	320.3
915.054	337.48
915.366	317.59
915.678	332.51
915.99	301.32
916.302	340.87
916.613	325.27
916.925	318.49
917.236	316.01
917.548	319.62
917.859	328.89
918.171	296.35
918.482	314.65
918.794	327.53
919.105	325.27
919.416	299.74
919.727	317.82
920.038	334.09
920.349	328.66
920.66	320.08
920.971	320.75
921.282	308.33
921.593	316.01
921.903	308.33
922.214	302.22
922.525	312.39
922.835	325.95
923.146	309.91
923.456	324.6
923.767	333.64
924.077	318.27
924.387	335.67
924.697	320.08
925.008	303.13
925.318	295.22
925.628	318.27
925.938	343.13
926.248	327.31
926.558	299.06
926.867	318.49
927.177	300.19
927.487	324.14
927.796	315.33
928.106	315.1
928.416	320.98
928.725	316.23
929.034	327.08
929.344	302
929.653	306.97
929.962	323.24
930.271	324.6
930.581	322.34
930.89	319.4
931.199	317.14
931.508	320.98
931.817	320.75
932.125	323.92
932.434	331.83
932.743	316.69
933.051	306.52
933.36	325.73
933.669	302.68
933.977	304.71
934.286	315.78
934.594	329.12
934.902	334.54
935.21	311.04
935.519	301.09
935.827	318.49
936.135	317.36
936.443	344.26
936.751	323.01
937.059	309.23
937.367	321.43
937.674	308.1
937.982	313.52
938.29	335.44
938.597	311.94
938.905	302
939.213	307.42
939.52	315.1
939.827	313.07
940.135	308.1
940.442	314.65
940.749	303.81
941.056	320.53
941.363	307.2
941.67	311.04
941.977	318.04
942.284	293.86
942.591	323.01
942.898	294.77
943.205	313.97
943.511	308.33
943.818	320.53
944.125	309.91
944.431	306.07
944.738	304.03
945.044	334.99
945.35	314.88
945.657	311.26
945.963	339.96
946.269	296.57
946.575	304.94
946.881	303.13
947.187	318.27
947.493	294.09
947.799	313.07
948.105	317.59
948.41	305.16
948.716	314.88
949.022	302.68
949.327	305.39
949.633	319.85
949.938	325.73
950.244	308.55
950.549	331.38
950.854	325.5
951.16	303.35
951.465	330.25
951.77	316.69
952.075	314.88
952.38	333.18
952.685	315.1
952.99	320.3
953.294	321.88
953.599	317.14
953.904	309.23
954.209	309.23
954.513	325.95
954.818	324.82
955.122	302.22
955.426	319.62
955.731	330.92
956.035	328.89
956.339	295.67
956.643	299.74
956.948	297.48
957.252	325.73
957.556	321.21
957.86	299.51
958.163	304.03
958.467	307.65
958.771	314.43
959.075	321.66
959.378	285.05
959.682	308.78
959.985	314.65
960.289	323.01
960.592	310.36
960.896	308.78
961.199	317.14
961.502	317.14
961.805	339.28
962.108	310.59
962.411	304.03
962.714	324.14
963.017	313.3
963.32	322.79
963.623	315.78
963.926	292.28
964.228	299.06
964.531	304.03
964.833	316.91
965.136	307.87
965.438	318.27
965.741	315.56
966.043	319.62
966.345	299.51
966.648	309.46
966.95	310.59
967.252	309
967.554	305.61
967.856	300.19
968.158	316.91
968.46	314.43
968.761	315.78
969.063	311.49
969.365	310.36
969.666	320.53
969.968	322.11
970.269	322.56
970.571	310.36
970.872	318.04
971.174	325.05
971.475	345.61
971.776	315.33
972.077	325.27
972.378	318.27
972.679	305.61
972.98	315.78
973.281	319.4
973.582	288.44
973.883	330.47
974.183	327.53
974.484	306.07
974.785	319.85
975.085	325.73
975.386	315.78
975.686	309.23
975.986	302.45
976.287	309
976.587	326.18
976.887	314.2
977.187	294.54
977.487	302
977.787	325.27
978.087	330.47
978.387	325.5
978.687	299.96
978.987	294.99
979.286	311.71
979.586	316.91
979.885	294.99
980.185	318.72
980.484	315.78
980.784	320.98
981.083	320.53
981.382	324.82
981.682	293.41
981.981	319.85
982.28	323.92
982.579	320.75
982.878	316.91
983.177	332.51
983.475	312.39
983.774	311.94
984.073	303.13
984.372	306.74
984.67	337.48
984.969	325.05
985.267	319.17
985.566	314.43
985.864	283.69
986.162	325.27
986.461	308.78
986.759	325.73
987.057	327.53
987.355	302.22
987.653	330.47
987.951	313.3
988.249	306.52
988.547	332.51
988.844	323.69
989.142	317.14
989.44	313.97
989.737	316.46
990.035	326.63
990.332	303.35
990.63	304.71
990.927	326.18
991.224	308.1
991.521	318.49
991.819	307.2
992.116	320.53
992.413	313.52
992.71	304.03
993.006	320.75
993.303	317.36
993.6	298.38
993.897	305.39
994.193	304.03
994.49	316.69
994.787	308.55
995.083	293.18
995.379	326.4
995.676	327.08
995.972	312.39
996.268	306.97
996.565	320.98
996.861	298.61
997.157	302.9
997.453	321.43
997.749	306.74
998.044	313.07
998.34	310.13
998.636	323.01
998.932	316.91
999.227	320.98
999.523	330.7
999.818	318.95
1000.114	315.33
1000.409	294.77
1000.704	317.14
1001	309.91
1001.295	314.2
1001.59	327.76
1001.885	319.85
1002.18	328.66
1002.475	300.87
1002.77	310.59
1003.065	334.31
1003.359	317.59
1003.654	299.29
1003.949	300.64
1004.243	314.2
1004.538	307.65
1004.832	322.79
1005.127	318.27
1005.421	330.7
1005.715	311.04
1006.009	315.1
1006.304	304.03
1006.598	317.59
1006.892	321.66
1007.186	307.87
1007.48	309.68
1007.773	304.26
1008.067	298.16
1008.361	302
1008.655	317.36
1008.948	312.62
1009.242	318.49
1009.535	322.11
1009.829	325.95
1010.122	306.07
1010.415	321.66
1010.708	303.13
1011.001	333.41
1011.295	303.81
1011.588	312.39
1011.881	316.01
1012.173	308.78
1012.466	291.15
1012.759	317.36
1013.052	299.06
1013.344	316.23
1013.637	297.7
1013.93	318.04
1014.222	318.95
1014.514	323.01
1014.807	330.47
1015.099	311.04
1015.391	305.16
1015.683	314.88
1015.976	323.47
1016.268	307.65
1016.56	309.46
1016.851	320.98
1017.143	301.77
1017.435	332.96
1017.727	313.97
1018.018	287.76
1018.31	306.29
1018.602	305.61
1018.893	328.66
1019.185	325.5
1019.476	318.04
1019.767	309.46
1020.058	323.92
1020.35	323.69
1020.641	316.91
1020.932	330.92
1021.223	322.11
1021.514	310.81
1021.804	294.09
1022.095	317.59
1022.386	308.1
1022.677	320.75
1022.967	310.13
1023.258	302.22
1023.548	322.79
1023.839	323.24
1024.129	330.7
1024.419	332.28
1024.709	308.78
1025	317.59
1025.29	304.94
1025.58	301.77
1025.87	316.69
1026.16	309.91
1026.449	323.47
1026.739	307.65
1027.029	318.95
1027.319	327.53
1027.608	320.75
1027.898	286.86
1028.187	294.99
1028.477	314.2
1028.766	311.49
1029.055	327.31
1029.344	304.94
1029.634	289.34
1029.923	316.23
1030.212	314.65
1030.501	342.22
1030.79	313.3
1031.078	323.69
1031.367	289.34
1031.656	328.44
1031.945	310.36
1032.233	320.98
1032.522	325.5
1032.81	323.24
1033.099	321.43
1033.387	316.46
1033.675	323.24
1033.963	322.79
1034.251	324.14
1034.54	304.26
1034.828	309.46
1035.116	326.18
1035.403	320.75
1035.691	295.44
1035.979	307.42
1036.267	307.65
1036.554	313.52
1036.842	310.59
1037.129	304.48
1037.417	314.65
1037.704	298.83
1037.992	310.36
1038.279	324.37
1038.566	302.45
1038.853	302.45
1039.14	302.45
