Data from No_light_on_white_reflection_standard_FLMS001491_050.txt Node
Date: Tue Feb 07 10:33:02 GMT 2017
User: dcchb
Spectrometer: FLMS00149
Trigger mode: 0
Integration Time (sec): 2.000000E-2
Scans to average: 10
Electric dark correction enabled: true
Nonlinearity correction enabled: false
Boxcar width: 0
XAxis mode: Wavelengths
Number of Pixels in Spectrum: 2048
>>>>>Begin Spectral Data<<<<<
341.393	-18.02
341.776	-18.02
342.16	-18.02
342.543	-65.48
342.927	-38.36
343.31	-73.39
343.693	-53.5
344.077	-55.31
344.46	-40.85
344.843	-45.59
345.226	-61.18
345.61	-22.77
345.993	-16.21
346.376	10.9
346.759	11.36
347.142	29.21
347.525	42.09
347.908	49.55
348.291	59.72
348.674	75.08
349.057	90.9
349.44	134.52
349.823	122.54
350.206	151.01
350.588	160.05
350.971	171.8
351.354	197.79
351.737	212.03
352.119	214.06
352.502	239.37
352.884	223.78
353.267	253.84
353.65	282.53
354.032	278.92
354.414	259.03
354.797	294.96
355.179	280.5
355.562	314.85
355.944	282.99
356.326	283.66
356.709	306.26
357.091	297
357.473	305.36
357.855	301.29
358.238	324.12
358.62	320.95
359.002	288.64
359.384	301.07
359.766	285.47
360.148	314.17
360.53	308.52
360.912	300.61
361.294	301.52
361.676	317.34
362.057	302.65
362.439	303.33
362.821	303.1
363.203	268.3
363.584	266.94
363.966	279.15
364.348	291.8
364.729	289.77
365.111	289.31
365.493	283.89
365.874	293.38
366.256	270.78
366.637	271.69
367.019	272.37
367.4	266.26
367.781	251.35
368.163	266.94
368.544	275.98
368.925	273.27
369.306	264.68
369.688	266.26
370.069	289.54
370.45	269.2
370.831	264.46
371.212	294.06
371.593	286.15
371.974	279.6
372.355	296.09
372.736	251.35
373.117	274.17
373.498	291.8
373.879	277.34
374.26	259.94
374.641	278.47
375.021	284.79
375.402	287.73
375.783	273.95
376.163	284.79
376.544	280.28
376.925	287.73
377.305	263.78
377.686	266.26
378.066	289.99
378.447	285.7
378.827	280.28
379.208	282.08
379.588	281.18
379.968	256.09
380.349	277.79
380.729	294.96
381.109	265.81
381.489	271.24
381.87	275.98
382.25	291.35
382.63	277.79
383.01	271.91
383.39	276.89
383.77	294.51
384.15	276.66
384.53	286.6
384.91	284.57
385.29	289.99
385.67	297.68
386.049	294.29
386.429	278.92
386.809	279.15
387.189	278.02
387.568	296.77
387.948	266.26
388.328	312.14
388.707	282.31
389.087	311.69
389.466	287.28
389.846	289.54
390.225	285.7
390.605	311.69
390.984	287.28
391.363	294.74
391.743	299.71
392.122	297.9
392.501	288.18
392.881	286.38
393.26	286.6
393.639	261.52
394.018	296.32
394.397	273.72
394.776	284.57
395.155	271.24
395.534	296.09
395.913	290.44
396.292	304.46
396.671	278.24
397.05	306.94
397.429	297.22
397.808	278.92
398.186	289.31
398.565	299.48
398.944	303.78
399.323	308.3
399.701	290.22
400.08	290.44
400.458	288.18
400.837	301.29
401.215	305.81
401.594	283.44
401.972	297.45
402.351	309.2
402.729	285.02
403.107	291.12
403.486	293.16
403.864	298.13
404.242	300.61
404.62	308.97
404.999	293.61
405.377	298.58
405.755	284.34
406.133	280.95
406.511	308.75
406.889	288.41
407.267	288.86
407.645	291.57
408.023	315.75
408.401	290.44
408.779	296.77
409.156	313.49
409.534	306.04
409.912	299.94
410.29	300.39
410.667	289.54
411.045	300.84
411.422	285.25
411.8	322.08
412.178	302.42
412.555	309.2
412.933	302.42
413.31	306.49
413.687	312.14
414.065	292.25
414.442	296.55
414.819	308.97
415.197	299.71
415.574	319.82
415.951	319.6
416.328	313.95
416.705	305.81
417.082	308.97
417.46	311.91
417.837	305.81
418.214	308.3
418.591	292.03
418.967	324.34
419.344	317.34
419.721	310.33
420.098	313.27
420.475	305.81
420.852	282.08
421.228	304.91
421.605	322.76
421.982	287.73
422.358	299.03
422.735	303.78
423.111	306.94
423.488	319.37
423.864	299.94
424.241	325.7
424.617	312.59
424.994	311.01
425.37	318.01
425.746	323.89
426.123	339.48
426.499	313.04
426.875	299.26
427.251	301.07
427.627	314.17
428.003	313.04
428.379	322.53
428.756	323.89
429.132	291.35
429.507	302.2
429.883	318.01
430.259	327.05
430.635	322.76
431.011	316.88
431.387	319.82
431.763	319.6
432.138	321.63
432.514	294.96
432.89	303.78
433.265	318.01
433.641	312.82
434.016	332.7
434.392	314.62
434.767	299.71
435.143	320.27
435.518	329.99
435.894	331.57
436.269	316.21
436.644	337.9
437.02	310.33
437.395	336.77
437.77	321.86
438.145	311.46
438.52	328.64
438.895	335.64
439.271	333.38
439.646	323.66
440.021	342.65
440.395	345.13
440.77	342.65
441.145	335.41
441.52	347.62
441.895	349.2
442.27	336.32
442.645	326.15
443.019	339.03
443.394	352.82
443.769	315.08
444.143	342.42
444.518	350.78
444.892	342.42
445.267	349.43
445.641	334.74
446.016	347.84
446.39	335.19
446.764	364.79
447.139	354.62
447.513	359.14
447.887	361.63
448.262	360.95
448.636	353.04
449.01	341.29
449.384	375.19
449.758	363.21
450.132	362.31
450.506	358.47
450.88	343.32
451.254	358.24
451.628	362.31
452.002	370.44
452.376	385.36
452.75	382.65
453.123	361.85
453.497	366.37
453.871	354.62
454.244	368.86
454.618	354.17
454.992	368.63
455.365	360.27
455.739	371.12
456.112	361.18
456.486	377.45
456.859	369.99
457.232	347.17
457.606	369.99
457.979	349.65
458.352	376.77
458.725	366.15
459.099	349.88
459.472	362.08
459.845	353.27
460.218	359.37
460.591	345.81
460.964	352.59
461.337	348.97
461.71	368.86
462.083	358.01
462.456	357.34
462.829	366.15
463.201	343.55
463.574	349.88
463.947	366.37
464.32	339.26
464.692	353.95
465.065	355.98
465.438	363.44
465.81	354.17
466.183	356.66
466.555	359.14
466.928	351.01
467.3	350.1
467.672	337
468.045	361.85
468.417	349.88
468.789	355.75
469.161	349.2
469.534	351.23
469.906	345.81
470.278	359.37
470.65	351.91
471.022	355.3
471.394	348.07
471.766	342.42
472.138	363.66
472.51	339.26
472.882	356.66
473.253	348.52
473.625	378.13
473.997	339.26
474.369	341.97
474.74	354.62
475.112	347.62
475.484	367.28
475.855	362.98
476.227	340.39
476.598	342.87
476.97	335.19
477.341	336.32
477.713	354.4
478.084	346.26
478.455	367.28
478.827	359.6
479.198	348.07
479.569	333.16
479.94	332.7
480.311	349.65
480.682	346.04
481.053	355.53
481.424	338.35
481.795	343.1
482.166	349.2
482.537	333.38
482.908	357.56
483.279	382.65
483.65	345.36
484.021	345.58
484.391	342.65
484.762	355.3
485.133	378.13
485.503	366.6
485.874	354.62
486.244	344.23
486.615	360.5
486.985	370.44
487.356	369.31
487.726	347.39
488.097	361.85
488.467	346.94
488.837	368.18
489.207	384.91
489.578	358.47
489.948	353.72
490.318	372.93
490.688	357.11
491.058	372.48
491.428	377.45
491.798	379.48
492.168	379.93
492.538	366.83
492.908	373.38
493.278	367.96
493.648	359.37
494.017	368.63
494.387	390.1
494.757	393.94
495.126	382.42
495.496	384.45
495.866	382.87
496.235	373.38
496.605	387.16
496.974	395.07
497.344	393.27
497.713	390.33
498.082	382.42
498.452	359.14
498.821	396.88
499.19	382.19
499.559	408.18
499.928	389.88
500.298	395.3
500.667	387.16
501.036	392.59
501.405	411.57
501.774	419.25
502.143	380.84
502.512	417.67
502.88	374.06
503.249	399.37
503.618	410.67
503.987	424.68
504.356	415.86
504.724	407.28
505.093	404.11
505.462	421.74
505.83	413.6
506.199	415.86
506.567	445.92
506.936	394.85
507.304	431.46
507.672	427.39
508.041	405.24
508.409	417.67
508.777	414.28
509.145	447.05
509.514	431.68
509.882	445.69
510.25	428.07
510.618	434.17
510.986	450.21
511.354	447.95
511.722	431.91
512.09	433.49
512.458	440.95
512.826	426.03
513.193	445.02
513.561	425.81
513.929	447.05
514.297	431.23
514.664	451.8
515.032	453.6
515.4	430.55
515.767	435.75
516.135	436.66
516.502	440.95
516.869	454.28
517.237	453.15
517.604	452.02
517.972	462.19
518.339	450.21
518.706	464
519.073	461.06
519.44	440.72
519.808	434.4
520.175	443.43
520.542	443.21
520.909	442.98
521.276	448.18
521.643	451.34
522.009	491.12
522.376	461.29
522.743	470.78
523.11	483.43
523.477	468.07
523.843	481.17
524.21	471.23
524.577	455.64
524.943	482.3
525.31	468.52
525.676	484.34
526.043	480.27
526.409	452.25
526.776	495.18
527.142	482.98
527.508	469.65
527.874	508.29
528.241	483.21
528.607	495.64
528.973	497.67
529.339	454.06
529.705	493.6
530.071	502.42
530.437	491.79
530.803	476.43
531.169	475.98
531.535	475.52
531.901	489.54
532.267	481.85
532.632	494.73
532.998	512.36
533.364	504
533.73	511
534.095	502.87
534.461	504.45
534.826	492.25
535.192	509.87
535.557	492.92
535.923	498.12
536.288	495.64
536.653	510.1
537.019	491.12
537.384	492.47
537.749	504.68
538.114	518.69
538.479	516.88
538.845	525.24
539.21	496.99
539.575	506.26
539.94	522.53
540.305	512.59
540.67	482.53
541.034	515.07
541.399	524.79
541.764	508.52
542.129	530.21
542.494	523.88
542.858	509.65
543.223	515.07
543.587	511.46
543.952	520.27
544.316	512.81
544.681	519.36
545.045	524.56
545.41	493.15
545.774	504.9
546.138	528.86
546.503	503.09
546.867	542.64
547.231	521.62
547.595	520.49
547.959	533.83
548.324	524.56
548.688	504.68
549.052	521.4
549.416	509.87
549.779	537.22
550.143	525.01
550.507	519.82
550.871	520.49
551.235	529.08
551.599	542.64
551.962	524.56
552.326	544.67
552.689	528.63
553.053	539.93
553.417	532.7
553.78	535.18
554.143	527.73
554.507	520.72
554.87	547.61
555.234	528.86
555.597	541.29
555.96	535.86
556.323	523.21
556.686	524.34
557.05	531.34
557.413	552.13
557.776	539.25
558.139	521.62
558.502	520.27
558.865	524.34
559.228	552.36
559.59	551.68
559.953	553.71
560.316	563.88
560.679	586.26
561.041	545.58
561.404	553.94
561.767	542.19
562.129	549.19
562.492	548.06
562.854	555.75
563.217	535.86
563.579	550.78
563.941	563.66
564.304	566.14
564.666	564.79
565.028	544.67
565.39	566.82
565.753	551.45
566.115	577.89
566.477	549.42
566.839	586.26
567.201	554.17
567.563	572.47
567.925	543.32
568.287	550.32
568.648	586.03
569.01	556.88
569.372	551
569.734	568.4
570.095	560.49
570.457	574.5
570.819	578.57
571.18	580.15
571.542	591.68
571.903	553.94
572.265	580.83
572.626	590.32
572.987	587.61
573.349	570.66
573.71	572.92
574.071	567.05
574.432	577.89
574.794	580.38
575.155	586.48
575.516	585.8
575.877	571.34
576.238	571.11
576.599	584.45
576.96	573.6
577.32	595.07
577.681	573.6
578.042	589.87
578.403	584
578.763	576.99
579.124	588.74
579.485	583.09
579.845	574.28
580.206	560.27
580.566	583.54
580.927	603.2
581.287	567.95
581.648	599.14
582.008	564.34
582.368	573.15
582.728	585.13
583.089	594.84
583.449	586.93
583.809	620.15
584.169	579.48
584.529	570.44
584.889	589.87
585.249	563.66
585.609	592.13
585.969	583.09
586.329	575.63
586.688	595.52
587.048	583.77
587.408	586.71
587.768	596.2
588.127	602.53
588.487	591.23
588.846	596.2
589.206	563.66
589.565	596.42
589.925	582.64
590.284	606.37
590.643	588.97
591.003	565.69
591.362	594.17
591.721	584.67
592.08	569.53
592.44	586.48
592.799	574.96
593.158	565.47
593.517	560.95
593.876	576.31
594.235	569.76
594.593	582.41
594.952	572.02
595.311	571.11
595.67	572.92
596.029	590.1
596.387	550.55
596.746	569.53
597.104	565.92
597.463	561.17
597.822	572.24
598.18	572.02
598.538	548.06
598.897	580.15
599.255	580.38
599.613	568.86
599.972	572.02
600.33	577.67
600.688	578.35
601.046	551.45
601.404	574.73
601.762	567.27
602.12	559.82
602.478	580.15
602.836	567.95
603.194	570.44
603.552	551
603.91	562.75
604.268	572.47
604.625	553.04
604.983	585.13
605.341	553.94
605.698	565.01
606.056	559.82
606.413	555.07
606.771	554.39
607.128	541.29
607.485	551
607.843	551.91
608.2	579.93
608.557	556.88
608.914	544.9
609.272	530.89
609.629	568.86
609.986	542.19
610.343	546.93
610.7	531.79
611.057	539.03
611.414	536.77
611.771	532.25
612.127	527.73
612.484	541.74
612.841	556.2
613.198	532.92
613.554	536.31
613.911	532.92
614.267	535.41
614.624	543.09
614.98	542.87
615.337	534.28
615.693	529.99
616.05	549.87
616.406	545.58
616.762	554.39
617.118	533.6
617.475	525.92
617.831	551.91
618.187	544
618.543	548.74
618.899	527.95
619.255	539.93
619.611	541.96
619.967	515.3
620.323	508.52
620.678	539.7
621.034	534.05
621.39	516.65
621.746	518.23
622.101	534.05
622.457	497.22
622.812	503.09
623.168	506.48
623.523	517.11
623.879	505.58
624.234	519.36
624.589	520.27
624.945	522.53
625.3	515.98
625.655	542.64
626.01	523.88
626.365	530.44
626.72	504
627.075	465.58
627.43	502.19
627.785	508.52
628.14	498.8
628.495	510.78
628.85	495.64
629.205	489.99
629.559	489.76
629.914	485.47
630.269	503.55
630.623	492.47
630.978	496.77
631.332	489.54
631.687	495.64
632.041	479.82
632.396	504.45
632.75	493.83
633.104	487.5
633.459	473.04
633.813	485.02
634.167	475.07
634.521	487.5
634.875	476.43
635.229	496.99
635.583	482.76
635.937	480.27
636.291	479.59
636.645	471.23
636.999	471.68
637.352	481.63
637.706	458.58
638.06	466.03
638.413	489.99
638.767	467.39
639.121	488.18
639.474	465.58
639.828	468.97
640.181	480.04
640.534	466.94
640.888	469.2
641.241	486.6
641.594	476.65
641.947	459.93
642.301	443.89
642.654	453.83
643.007	476.2
643.36	475.75
643.713	451.34
644.066	435.98
644.419	435.98
644.771	441.17
645.124	457.67
645.477	449.76
645.83	449.54
646.182	441.4
646.535	440.5
646.888	453.38
647.24	431.23
647.593	406.6
647.945	422.64
648.298	433.49
648.65	438.24
649.002	425.13
649.355	431.91
649.707	427.84
650.059	414.28
650.411	431.91
650.763	453.83
651.115	409.76
651.467	437.79
651.819	439.82
652.171	436.66
652.523	426.03
652.875	425.81
653.227	430.1
653.578	410.67
653.93	408.63
654.282	412.02
654.633	423.77
654.985	435.53
655.337	447.05
655.688	424
656.039	408.18
656.391	392.81
656.742	413.38
657.094	403.89
657.445	421.74
657.796	412.7
658.147	419.48
658.498	419.71
658.849	385.13
659.2	405.02
659.551	427.16
659.902	403.89
660.253	423.1
660.604	406.83
660.955	421.97
661.306	392.36
661.656	408.63
662.007	415.41
662.358	397.33
662.708	401.63
663.059	392.59
663.409	389.42
663.76	419.25
664.11	409.99
664.461	412.93
664.811	392.59
665.161	404.11
665.511	410.67
665.862	406.15
666.212	400.72
666.562	399.59
666.912	382.87
667.262	416.54
667.612	369.09
667.962	398.69
668.312	372.93
668.662	384.68
669.011	391.46
669.361	380.61
669.711	402.08
670.06	386.49
670.41	381.29
670.76	394.85
671.109	388.52
671.459	405.92
671.808	391.23
672.157	377
672.507	403.21
672.856	390.1
673.205	374.28
673.554	378.35
673.904	380.39
674.253	407.5
674.602	379.93
674.951	405.02
675.3	374.06
675.649	377
675.998	377.22
676.346	357.34
676.695	391.01
677.044	349.43
677.393	384.91
677.741	375.64
678.09	362.31
678.438	381.52
678.787	379.93
679.135	366.83
679.484	384.23
679.832	375.87
680.181	372.48
680.529	379.03
680.877	381.97
681.225	380.16
681.573	371.8
681.922	363.66
682.27	363.66
682.618	375.87
682.966	383.32
683.314	369.54
683.661	351.01
684.009	372.93
684.357	367.96
684.705	362.31
685.053	373.83
685.4	362.08
685.748	377.22
686.095	369.99
686.443	359.6
686.79	378.35
687.138	356.21
687.485	362.98
687.832	369.54
688.18	362.76
688.527	358.24
688.874	368.86
689.221	351.69
689.568	358.24
689.915	384.91
690.262	352.14
690.609	352.36
690.956	349.88
691.303	346.26
691.65	351.69
691.997	334.28
692.344	362.98
692.69	352.14
693.037	336.32
693.383	360.27
693.73	351.46
694.077	351.46
694.423	350.1
694.769	355.53
695.116	354.62
695.462	374.06
695.808	370.89
696.155	347.39
696.501	340.61
696.847	361.4
697.193	360.27
697.539	356.43
697.885	346.26
698.231	350.78
698.577	350.56
698.923	354.85
699.269	358.69
699.614	359.14
699.96	342.19
700.306	349.43
700.651	340.61
700.997	362.08
701.342	341.97
701.688	361.85
702.033	350.1
702.379	353.49
702.724	331.8
703.069	348.52
703.415	358.92
703.76	352.59
704.105	334.06
704.45	347.62
704.795	345.13
705.14	349.43
705.485	329.31
705.83	360.27
706.175	338.13
706.52	338.13
706.865	352.36
707.209	332.25
707.554	352.59
707.899	339.26
708.243	345.81
708.588	341.74
708.932	346.04
709.277	350.78
709.621	333.83
709.966	364.11
710.31	343.32
710.654	330.67
710.998	353.95
711.342	347.62
711.687	348.07
712.031	343.1
712.375	357.79
712.719	347.17
713.063	351.91
713.407	342.42
713.75	334.96
714.094	348.75
714.438	333.38
714.782	338.58
715.125	350.78
715.469	347.17
715.812	328.64
716.156	320.05
716.499	353.95
716.843	347.62
717.186	332.93
717.53	345.81
717.873	336.54
718.216	337.22
718.559	360.5
718.902	348.75
719.246	355.98
719.589	342.19
719.932	334.74
720.275	326.38
720.617	336.09
720.96	329.54
721.303	358.01
721.646	356.66
721.989	339.03
722.331	322.31
722.674	310.78
723.016	349.65
723.359	328.18
723.701	348.07
724.044	339.03
724.386	340.84
724.729	330.22
725.071	351.23
725.413	351.46
725.755	350.1
726.097	345.13
726.439	330.44
726.782	342.87
727.124	342.87
727.465	316.88
727.807	342.42
728.149	349.2
728.491	327.05
728.833	323.21
729.175	352.82
729.516	335.87
729.858	342.65
730.199	337.9
730.541	337
730.882	328.64
731.224	337.9
731.565	331.57
731.906	339.03
732.248	332.48
732.589	338.58
732.93	306.26
733.271	330.44
733.612	338.35
733.953	329.77
734.294	323.66
734.635	329.54
734.976	356.66
735.317	314.62
735.658	322.31
735.999	324.34
736.339	330.67
736.68	324.12
737.021	333.38
737.361	339.03
737.702	331.8
738.042	336.09
738.383	340.39
738.723	322.31
739.063	339.93
739.404	322.76
739.744	320.95
740.084	335.19
740.424	316.21
740.764	320.27
741.104	308.97
741.444	356.66
741.784	350.33
742.124	312.59
742.464	338.8
742.804	334.96
743.143	332.7
743.483	347.39
743.823	314.4
744.162	334.06
744.502	333.61
744.841	340.61
745.181	340.84
745.52	334.96
745.86	328.18
746.199	313.72
746.538	333.83
746.877	330.44
747.216	339.03
747.556	338.8
747.895	326.15
748.234	341.06
748.573	339.03
748.911	327.51
749.25	338.35
749.589	315.53
749.928	315.3
750.267	335.87
750.605	328.86
750.944	339.03
751.283	317.56
751.621	345.81
751.96	346.94
752.298	322.76
752.636	328.18
752.975	324.57
753.313	338.35
753.651	323.21
753.989	353.72
754.327	334.51
754.666	321.4
755.004	337.22
755.342	335.19
755.679	349.65
756.017	315.75
756.355	346.26
756.693	331.8
757.031	334.51
757.368	334.06
757.706	328.86
758.044	325.25
758.381	305.81
758.719	340.61
759.056	328.86
759.394	337.9
759.731	332.48
760.068	308.3
760.405	319.37
760.743	307.62
761.08	335.41
761.417	341.52
761.754	318.01
762.091	332.25
762.428	328.41
762.765	319.37
763.102	304.46
763.438	310.78
763.775	331.57
764.112	348.3
764.449	298.58
764.785	325.02
765.122	331.12
765.458	327.96
765.795	312.14
766.131	329.99
766.467	316.88
766.804	322.31
767.14	325.47
767.476	328.41
767.812	338.13
768.148	327.28
768.485	325.02
768.821	318.24
769.157	329.54
769.492	344
769.828	334.06
770.164	321.4
770.5	313.95
770.836	327.73
771.171	324.12
771.507	325.92
771.842	324.12
772.178	313.04
772.513	327.73
772.849	334.51
773.184	318.01
773.519	323.44
773.855	338.35
774.19	322.08
774.525	321.4
774.86	327.51
775.195	328.64
775.53	337.67
775.865	320.73
776.2	343.1
776.535	330.44
776.87	332.25
777.205	337.22
777.539	320.95
777.874	328.86
778.209	345.81
778.543	340.84
778.878	297.68
779.212	334.06
779.547	316.66
779.881	305.59
780.215	337.22
780.55	319.14
780.884	320.27
781.218	330.22
781.552	323.21
781.886	313.95
782.22	313.72
782.554	320.73
782.888	324.12
783.222	339.48
783.556	320.5
783.889	336.32
784.223	317.56
784.557	330.9
784.89	337.22
785.224	333.38
785.557	315.98
785.891	324.12
786.224	328.18
786.558	333.61
786.891	332.93
787.224	346.94
787.557	326.38
787.891	339.71
788.224	343.32
788.557	351.91
788.89	324.12
789.223	318.24
789.556	317.56
789.888	307.17
790.221	332.93
790.554	333.61
790.887	317.56
791.219	333.16
791.552	321.18
791.884	323.21
792.217	307.85
792.549	326.83
792.882	310.1
793.214	323.66
793.546	319.82
793.879	307.85
794.211	336.54
794.543	322.53
794.875	327.28
795.207	336.77
795.539	316.43
795.871	323.44
796.203	318.47
796.535	311.69
796.867	317.34
797.198	314.85
797.53	308.52
797.862	332.93
798.193	308.75
798.525	323.89
798.856	329.77
799.188	330.22
799.519	327.28
799.85	316.66
800.182	334.51
800.513	329.54
800.844	306.26
801.175	334.06
801.506	321.63
801.837	326.38
802.168	342.65
802.499	326.15
802.83	338.35
803.161	326.6
803.491	328.86
803.822	338.35
804.153	313.95
804.483	334.06
804.814	325.02
805.145	310.78
805.475	294.51
805.805	337.22
806.136	329.99
806.466	327.96
806.796	325.7
807.126	321.86
807.457	342.87
807.787	329.54
808.117	329.54
808.447	316.43
808.777	322.08
809.107	324.34
809.436	352.14
809.766	324.57
810.096	317.56
810.426	324.34
810.755	307.85
811.085	310.1
811.414	296.09
811.744	311.69
812.073	329.77
812.403	319.6
812.732	326.15
813.061	309.2
813.39	332.93
813.719	325.92
814.049	332.03
814.378	322.76
814.707	318.24
815.036	319.82
815.365	330.44
815.693	318.92
816.022	331.12
816.351	314.4
816.68	292.03
817.008	334.28
817.337	321.86
817.665	328.86
817.994	308.75
818.322	313.49
818.651	322.53
818.979	326.6
819.307	313.95
819.636	329.09
819.964	282.53
820.292	311.23
820.62	314.85
820.948	323.89
821.276	322.99
821.604	315.75
821.932	325.47
822.259	316.88
822.587	311.01
822.915	318.47
823.243	315.53
823.57	303.1
823.898	330.22
824.225	319.14
824.553	317.56
824.88	309.43
825.207	337.9
825.535	322.53
825.862	321.4
826.189	328.41
826.516	329.99
826.843	325.7
827.17	319.37
827.497	309.65
827.824	327.96
828.151	316.66
828.478	328.18
828.805	321.4
829.131	329.31
829.458	311.69
829.785	329.77
830.111	334.28
830.438	312.36
830.764	312.14
831.09	322.76
831.417	345.81
831.743	323.66
832.069	322.76
832.395	341.06
832.722	332.7
833.048	311.23
833.374	326.38
833.7	325.25
834.026	323.89
834.351	311.01
834.677	307.85
835.003	320.95
835.329	331.35
835.654	307.85
835.98	316.66
836.306	315.53
836.631	316.66
836.956	322.99
837.282	329.54
837.607	322.53
837.932	322.76
838.258	335.19
838.583	328.18
838.908	330.67
839.233	315.53
839.558	321.63
839.883	320.5
840.208	315.75
840.533	324.34
840.858	321.63
841.182	324.12
841.507	329.99
841.832	326.6
842.156	310.78
842.481	337.67
842.805	312.36
843.13	318.92
843.454	337.22
843.778	323.89
844.103	316.88
844.427	329.99
844.751	314.17
845.075	306.26
845.399	330.67
845.723	317.56
846.047	321.63
846.371	330.22
846.695	318.01
847.019	326.6
847.343	324.34
847.666	311.01
847.99	360.95
848.313	299.94
848.637	300.39
848.96	327.73
849.284	299.48
849.607	302.42
849.931	330.22
850.254	311.01
850.577	335.87
850.9	316.66
851.223	304.91
851.546	319.14
851.869	318.92
852.192	324.79
852.515	318.92
852.838	323.44
853.161	323.66
853.483	329.54
853.806	325.92
854.129	313.72
854.451	308.3
854.774	291.35
855.096	335.87
855.419	310.1
855.741	311.23
856.063	313.49
856.385	323.21
856.708	306.26
857.03	324.34
857.352	328.86
857.674	333.61
857.996	328.18
858.318	324.79
858.64	302.42
858.961	307.85
859.283	318.69
859.605	304
859.926	324.57
860.248	324.79
860.57	318.01
860.891	330.22
861.212	333.61
861.534	329.09
861.855	313.04
862.176	313.27
862.498	322.31
862.819	313.27
863.14	317.11
863.461	321.86
863.782	309.65
864.103	315.98
864.424	329.31
864.745	306.72
865.065	324.79
865.386	328.18
865.707	335.87
866.027	306.49
866.348	319.82
866.668	303.1
866.989	307.85
867.309	303.1
867.63	303.78
867.95	316.66
868.27	316.21
868.59	324.79
868.91	335.41
869.23	328.18
869.55	314.62
869.87	333.83
870.19	332.03
870.51	308.3
870.83	324.12
871.15	309.43
871.469	306.26
871.789	316.66
872.109	320.27
872.428	320.27
872.748	284.12
873.067	317.56
873.386	309.43
873.706	307.62
874.025	333.61
874.344	335.41
874.663	326.6
874.982	314.85
875.301	335.41
875.62	310.78
875.939	298.58
876.258	322.53
876.577	327.05
876.896	303.1
877.214	312.59
877.533	306.94
877.852	330.67
878.17	331.35
878.489	349.2
878.807	313.49
879.125	315.98
879.444	329.54
879.762	329.54
880.08	320.05
880.398	290.67
880.716	301.52
881.034	299.48
881.352	305.36
881.67	312.82
881.988	310.78
882.306	329.54
882.624	320.05
882.941	335.87
883.259	306.72
883.577	315.08
883.894	327.73
884.212	311.01
884.529	323.44
884.846	330.44
885.164	320.27
885.481	306.26
885.798	307.85
886.115	327.73
886.432	318.01
886.75	308.97
887.067	314.62
887.383	337.22
887.7	319.6
888.017	311.69
888.334	313.49
888.651	347.17
888.967	312.36
889.284	317.56
889.6	312.36
889.917	320.73
890.233	316.21
890.55	307.85
890.866	304.68
891.182	304.91
891.498	334.74
891.815	326.83
892.131	333.83
892.447	327.73
892.763	310.1
893.079	292.7
893.395	322.76
893.71	313.49
894.026	315.98
894.342	337.45
894.657	321.63
894.973	321.63
895.289	319.82
895.604	325.47
895.92	313.04
896.235	311.91
896.55	332.7
896.865	312.14
897.181	317.34
897.496	330.44
897.811	326.6
898.126	278.47
898.441	308.52
898.756	295.64
899.071	329.99
899.386	311.23
899.7	305.59
900.015	305.13
900.33	310.1
900.644	298.58
900.959	323.89
901.273	316.21
901.588	311.46
901.902	322.08
902.216	306.49
902.531	317.11
902.845	333.61
903.159	309.88
903.473	329.99
903.787	302.87
904.101	318.24
904.415	324.57
904.729	320.05
905.042	317.34
905.356	321.63
905.67	314.4
905.984	318.69
906.297	337.67
906.611	327.28
906.924	312.82
907.237	311.69
907.551	332.48
907.864	339.26
908.177	325.25
908.491	320.73
908.804	307.85
909.117	319.37
909.43	319.37
909.743	307.17
910.056	309.88
910.368	333.38
910.681	316.88
910.994	314.85
911.307	321.4
911.619	326.83
911.932	309.65
912.244	341.06
912.557	328.41
912.869	312.82
913.181	320.27
913.494	327.05
913.806	293.38
914.118	305.81
914.43	313.95
914.742	294.96
915.054	306.94
915.366	334.51
915.678	313.04
915.99	311.01
916.302	296.09
916.613	303.1
916.925	329.09
917.236	309.65
917.548	305.36
917.859	318.24
918.171	305.81
918.482	310.56
918.794	313.04
919.105	333.83
919.416	313.04
919.727	321.86
920.038	304.23
920.349	334.96
920.66	315.98
920.971	309.65
921.282	301.07
921.593	325.25
921.903	309.43
922.214	337.9
922.525	311.01
922.835	327.73
923.146	311.01
923.456	314.17
923.767	313.72
924.077	303.33
924.387	298.35
924.697	314.62
925.008	319.82
925.318	319.37
925.628	319.37
925.938	308.3
926.248	310.33
926.558	310.78
926.867	304
927.177	311.69
927.487	322.31
927.796	330.44
928.106	303.78
928.416	313.49
928.725	318.01
929.034	306.72
929.344	314.4
929.653	325.25
929.962	321.63
930.271	325.92
930.581	286.15
930.89	292.93
931.199	320.95
931.508	302.87
931.817	313.04
932.125	327.51
932.434	328.86
932.743	313.49
933.051	318.69
933.36	331.35
933.669	302.2
933.977	320.05
934.286	308.52
934.594	337
934.902	315.3
935.21	322.99
935.519	311.23
935.827	323.89
936.135	307.39
936.443	313.27
936.751	320.5
937.059	314.4
937.367	316.66
937.674	322.99
937.982	297.45
938.29	320.5
938.597	318.92
938.905	320.27
939.213	308.07
939.52	324.57
939.827	312.59
940.135	311.23
940.442	328.18
940.749	319.14
941.056	316.21
941.363	339.03
941.67	310.78
941.977	286.6
942.284	317.79
942.591	301.52
942.898	322.99
943.205	319.82
943.511	306.26
943.818	309.88
944.125	313.04
944.431	305.81
944.738	321.18
945.044	299.48
945.35	320.05
945.657	314.4
945.963	308.07
946.269	330.22
946.575	307.39
946.881	307.85
947.187	316.43
947.493	318.92
947.799	312.82
948.105	299.26
948.41	318.01
948.716	316.66
949.022	334.96
949.327	323.44
949.633	316.66
949.938	309.88
950.244	327.05
950.549	319.6
950.854	318.24
951.16	326.38
951.465	328.18
951.77	317.79
952.075	327.51
952.38	321.4
952.685	320.95
952.99	286.38
953.294	314.85
953.599	316.66
953.904	298.58
954.209	314.85
954.513	309.2
954.818	310.56
955.122	306.94
955.426	326.6
955.731	310.1
956.035	328.18
956.339	304.68
956.643	317.56
956.948	315.53
957.252	304.91
957.556	300.39
957.86	340.61
958.163	318.24
958.467	320.5
958.771	322.53
959.075	307.85
959.378	330.44
959.682	337.22
959.985	316.21
960.289	314.4
960.592	308.3
960.896	304.68
961.199	296.77
961.502	331.57
961.805	314.85
962.108	318.47
962.411	309.65
962.714	315.08
963.017	324.34
963.32	315.75
963.623	318.24
963.926	307.17
964.228	317.34
964.531	315.75
964.833	316.21
965.136	317.56
965.438	341.29
965.741	291.57
966.043	297.9
966.345	316.66
966.648	332.48
966.95	304.91
967.252	306.04
967.554	310.33
967.856	321.4
968.158	303.55
968.46	316.66
968.761	298.81
969.063	316.66
969.365	331.12
969.666	310.1
969.968	329.77
970.269	320.5
970.571	311.91
970.872	301.29
971.174	314.4
971.475	328.64
971.776	312.14
972.077	322.08
972.378	332.93
972.679	308.07
972.98	320.73
973.281	300.39
973.582	309.88
973.883	320.27
974.183	308.75
974.484	305.36
974.785	321.63
975.085	313.72
975.386	300.61
975.686	296.55
975.986	322.76
976.287	315.98
976.587	296.09
976.887	300.84
977.187	329.09
977.487	323.66
977.787	301.74
978.087	320.95
978.387	307.39
978.687	325.02
978.987	326.15
979.286	306.49
979.586	315.08
979.885	309.65
980.185	306.04
980.484	315.08
980.784	305.81
981.083	326.38
981.382	304.68
981.682	333.61
981.981	306.72
982.28	317.11
982.579	307.85
982.878	311.01
983.177	305.59
983.475	324.34
983.774	310.56
984.073	321.86
984.372	311.01
984.67	315.98
984.969	308.75
985.267	313.04
985.566	302.2
985.864	328.18
986.162	309.2
986.461	322.53
986.759	325.92
987.057	301.07
987.355	311.23
987.653	320.05
987.951	305.59
988.249	314.4
988.547	322.99
988.844	315.3
989.142	333.16
989.44	292.25
989.737	322.08
990.035	335.19
990.332	308.3
990.63	306.94
990.927	314.85
991.224	304.68
991.521	330.44
991.819	326.6
992.116	313.04
992.413	340.39
992.71	305.36
993.006	304.23
993.303	309.65
993.6	307.85
993.897	316.88
994.193	322.31
994.49	306.04
994.787	309.65
995.083	292.7
995.379	309.43
995.676	311.69
995.972	311.01
996.268	301.97
996.565	318.47
996.861	319.37
997.157	327.51
997.453	317.79
997.749	291.12
998.044	286.15
998.34	301.52
998.636	323.89
998.932	321.4
999.227	300.16
999.523	319.37
999.818	307.85
1000.114	317.56
1000.409	317.79
1000.704	326.38
1001	328.64
1001.295	317.34
1001.59	327.96
1001.885	312.14
1002.18	328.41
1002.475	319.37
1002.77	309.43
1003.065	294.74
1003.359	304.91
1003.654	317.56
1003.949	313.95
1004.243	307.17
1004.538	306.72
1004.832	328.18
1005.127	315.3
1005.421	315.53
1005.715	309.65
1006.009	319.14
1006.304	317.79
1006.598	322.99
1006.892	302.2
1007.186	315.08
1007.48	313.49
1007.773	328.64
1008.067	308.97
1008.361	303.55
1008.655	311.23
1008.948	311.01
1009.242	322.31
1009.535	315.3
1009.829	317.79
1010.122	308.75
1010.415	312.59
1010.708	306.04
1011.001	320.05
1011.295	322.08
1011.588	315.98
1011.881	321.18
1012.173	311.46
1012.466	326.6
1012.759	318.24
1013.052	294.51
1013.344	301.29
1013.637	319.14
1013.93	312.36
1014.222	308.97
1014.514	305.36
1014.807	310.56
1015.099	304
1015.391	320.27
1015.683	301.29
1015.976	330.44
1016.268	307.39
1016.56	316.88
1016.851	315.08
1017.143	315.98
1017.435	301.52
1017.727	303.33
1018.018	303.78
1018.31	318.01
1018.602	331.57
1018.893	286.38
1019.185	324.34
1019.476	317.56
1019.767	311.01
1020.058	321.86
1020.35	318.01
1020.641	297
1020.932	309.43
1021.223	320.95
1021.514	325.47
1021.804	303.78
1022.095	344.68
1022.386	308.97
1022.677	296.77
1022.967	325.7
1023.258	305.59
1023.548	309.2
1023.839	282.99
1024.129	293.38
1024.419	306.49
1024.709	308.07
1025	311.23
1025.29	304.91
1025.58	318.24
1025.87	320.95
1026.16	341.97
1026.449	311.69
1026.739	315.08
1027.029	312.36
1027.319	327.96
1027.608	328.86
1027.898	318.24
1028.187	310.78
1028.477	313.49
1028.766	321.63
1029.055	309.43
1029.344	297.45
1029.634	308.97
1029.923	319.37
1030.212	318.92
1030.501	311.91
1030.79	303.78
1031.078	312.59
1031.367	302.65
1031.656	317.11
1031.945	309.43
1032.233	331.57
1032.522	315.08
1032.81	317.56
1033.099	308.3
1033.387	320.73
1033.675	321.4
1033.963	312.59
1034.251	320.05
1034.54	305.13
1034.828	309.65
1035.116	305.81
1035.403	296.09
1035.691	327.51
1035.979	309.2
1036.267	319.14
1036.554	327.96
1036.842	337.9
1037.129	298.58
1037.417	325.47
1037.704	313.04
1037.992	315.3
1038.279	312.36
1038.566	326.83
1038.853	326.83
1039.14	326.83
