Data from No_light_on_white_reflection_standard_FLMS001491_017.txt Node
Date: Tue Feb 07 10:32:55 GMT 2017
User: dcchb
Spectrometer: FLMS00149
Trigger mode: 0
Integration Time (sec): 2.000000E-2
Scans to average: 10
Electric dark correction enabled: true
Nonlinearity correction enabled: false
Boxcar width: 0
XAxis mode: Wavelengths
Number of Pixels in Spectrum: 2048
>>>>>Begin Spectral Data<<<<<
341.393	-24.45
341.776	-24.45
342.16	-24.45
342.543	-58.57
342.927	-63.54
343.31	-57.89
343.693	-53.15
344.077	-66.71
344.46	-44.56
344.843	-52.92
345.226	-32.58
345.61	-45.01
345.993	-36.2
346.376	-9.99
346.759	12.16
347.142	36.79
347.525	15.78
347.908	63.01
348.291	56.68
348.674	99.62
349.057	114.98
349.44	112.27
349.823	121.31
350.206	138.49
350.588	160.41
350.971	176.68
351.354	205.6
351.737	205.6
352.119	228.88
352.502	232.49
352.884	276.56
353.267	255.77
353.65	255.77
354.032	251.48
354.414	272.72
354.797	287.18
355.179	286.5
355.562	298.25
355.944	304.81
356.326	284.7
356.709	300.74
357.091	293.74
357.473	307.07
357.855	307.07
358.238	303.9
358.62	312.04
359.002	304.13
359.384	299.16
359.766	304.13
360.148	296.67
360.53	293.74
360.912	291.02
361.294	326.5
361.676	284.24
362.057	298.25
362.439	286.96
362.821	315.88
363.203	280.63
363.584	289.22
363.966	281.98
364.348	306.16
364.729	284.47
365.111	298.71
365.493	277.92
365.874	275.2
366.256	274.53
366.637	269.78
367.019	281.76
367.4	269.33
367.781	268.88
368.163	267.07
368.544	272.94
368.925	272.72
369.306	262.32
369.688	288.99
370.069	282.66
370.45	275.43
370.831	255.77
371.212	265.04
371.593	288.09
371.974	266.84
372.355	276.79
372.736	286.5
373.117	272.49
373.498	284.92
373.879	274.75
374.26	283.34
374.641	281.08
375.021	280.4
375.402	275.2
375.783	256.22
376.163	277.24
376.544	258.93
376.925	283.11
377.305	271.14
377.686	295.54
378.066	270.68
378.447	297.12
378.827	282.66
379.208	278.37
379.588	263.23
379.968	288.09
380.349	296.9
380.729	272.27
381.109	265.71
381.489	281.98
381.87	288.54
382.25	282.21
382.63	278.14
383.01	268.88
383.39	288.76
383.77	275.43
384.15	298.03
384.53	276.79
384.91	292.15
385.29	288.76
385.67	272.49
386.049	303.45
386.429	286.05
386.809	292.38
387.189	283.79
387.568	285.83
387.948	266.84
388.328	276.79
388.707	251.48
389.087	283.57
389.466	304.58
389.846	291.7
390.225	285.37
390.605	305.49
390.984	263
391.363	298.25
391.743	277.92
392.122	301.64
392.501	300.51
392.881	289.22
393.26	311.59
393.639	275.2
394.018	308.65
394.397	284.47
394.776	290.35
395.155	283.57
395.534	281.98
395.913	299.61
396.292	270.23
396.671	297.35
397.05	280.4
397.429	278.59
397.808	286.05
398.186	290.8
398.565	279.95
398.944	293.96
399.323	294.19
399.701	277.92
400.08	292.15
400.458	293.28
400.837	285.37
401.215	296.67
401.594	287.18
401.972	324.24
402.351	292.61
402.729	309.78
403.107	303.23
403.486	297.8
403.864	307.75
404.242	297.8
404.62	297.35
404.999	296.22
405.377	287.86
405.755	301.42
406.133	277.24
406.511	300.29
406.889	293.96
407.267	288.31
407.645	281.98
408.023	295.54
408.401	298.93
408.779	312.94
409.156	305.03
409.534	302.1
409.912	290.57
410.29	311.59
410.667	293.96
411.045	305.26
411.422	296.45
411.8	298.71
412.178	302.77
412.555	307.97
412.933	309.78
413.31	309.55
413.687	284.92
414.065	306.16
414.442	306.16
414.819	290.57
415.197	298.71
415.574	298.71
415.951	286.5
416.328	306.39
416.705	306.39
417.082	290.12
417.46	279.95
417.837	312.04
418.214	298.71
418.591	314.07
418.967	277.24
419.344	284.7
419.721	283.79
420.098	298.71
420.475	313.62
420.852	289.67
421.228	312.27
421.605	300.74
421.982	303.9
422.358	293.51
422.735	291.02
423.111	294.64
423.488	285.6
423.864	327.18
424.241	303.45
424.617	301.19
424.994	304.36
425.37	312.94
425.746	305.03
426.123	317.24
426.499	301.64
426.875	327.18
427.251	321.08
427.627	298.93
428.003	315.2
428.379	316.33
428.756	319.27
429.132	310.68
429.507	296.22
429.883	302.32
430.259	322.66
430.635	320.85
431.011	308.2
431.387	315.43
431.763	313.17
432.138	333.28
432.514	300.51
432.89	303.68
433.265	320.4
433.641	319.72
434.016	320.4
434.392	299.16
434.767	327.41
435.143	302.55
435.518	312.27
435.894	349.1
436.269	330.34
436.644	333.96
437.02	331.02
437.395	332.83
437.77	322.21
438.145	326.28
438.52	324.47
438.895	337.58
439.271	340.51
439.646	348.65
440.021	335.09
440.395	353.39
440.77	331.93
441.145	346.84
441.52	338.93
441.895	343.45
442.27	324.69
442.645	326.95
443.019	324.24
443.394	337.12
443.769	321.08
444.143	341.87
444.518	318.59
444.892	333.28
445.267	365.82
445.641	351.59
446.016	354.52
446.39	347.07
446.764	347.97
447.139	335.54
447.513	344.36
447.887	347.52
448.262	372.38
448.636	353.39
449.01	345.49
449.384	342.32
449.758	364.92
450.132	375.54
450.506	379.38
450.88	363.79
451.254	345.26
451.628	361.53
452.002	359.04
452.376	364.02
452.75	364.92
453.123	363.11
453.497	364.47
453.871	359.95
454.244	341.87
454.618	347.52
454.992	369.44
455.365	360.4
455.739	367.63
456.112	352.72
456.486	338.93
456.859	372.6
457.232	368.31
457.606	378.7
457.979	367.41
458.352	346.62
458.725	355.88
459.099	358.82
459.472	358.14
459.845	338.93
460.218	357.01
460.591	340.74
460.964	367.41
461.337	354.07
461.71	359.5
462.083	345.03
462.456	345.49
462.829	345.71
463.201	355.43
463.574	349.55
463.947	342.1
464.32	370.34
464.692	336.22
465.065	354.98
465.438	342.55
465.81	335.09
466.183	334.41
466.555	358.59
466.928	366.5
467.3	337.8
467.672	340.29
468.045	354.3
468.417	351.81
468.789	352.49
469.161	360.4
469.534	348.42
469.906	347.97
470.278	344.36
470.65	360.4
471.022	352.49
471.394	371.25
471.766	353.17
472.138	364.92
472.51	352.72
472.882	324.92
473.253	350.23
473.625	333.96
473.997	344.81
474.369	348.42
474.74	346.16
475.112	346.62
475.484	341.19
475.855	348.42
476.227	326.05
476.598	344.13
476.97	363.56
477.341	343
477.713	351.13
478.084	351.36
478.455	362.43
478.827	336.22
479.198	359.04
479.569	346.16
479.94	337.8
480.311	342.55
480.682	351.81
481.053	333.51
481.424	329.44
481.795	343
482.166	346.39
482.537	359.5
482.908	361.76
483.279	359.04
483.65	351.81
484.021	317.92
484.391	350.68
484.762	353.85
485.133	371.47
485.503	335.32
485.874	356.11
486.244	356.78
486.615	372.15
486.985	346.84
487.356	348.2
487.726	364.92
488.097	363.79
488.467	361.08
488.837	381.42
489.207	351.59
489.578	371.7
489.948	366.95
490.318	365.6
490.688	348.88
491.058	364.69
491.428	372.6
491.798	384.35
492.168	368.08
492.538	369.67
492.908	408.08
493.278	366.05
493.648	373.96
494.017	369.89
494.387	375.99
494.757	366.5
495.126	395.43
495.496	382.55
495.866	384.81
496.235	378.25
496.605	376.44
496.974	377.8
497.344	390.23
497.713	375.09
498.082	367.18
498.452	395.65
498.821	399.5
499.19	395.65
499.559	394.98
499.928	401.3
500.298	413.05
500.667	382.32
501.036	418.48
501.405	380.51
501.774	427.97
502.143	392.72
502.512	383
502.88	441.08
503.249	427.07
503.618	407.18
503.987	404.92
504.356	397.91
504.724	389.55
505.093	402.66
505.462	419.83
505.83	406.05
506.199	424.35
506.567	414.18
506.936	416.9
507.304	411.47
507.672	406.27
508.041	419.61
508.409	414.41
508.777	412.83
509.145	425.94
509.514	420.96
509.882	408.76
510.25	419.16
510.618	431.13
510.986	460.28
511.354	444.01
511.722	416.67
512.09	432.71
512.458	437.46
512.826	437.69
513.193	427.29
513.561	429.78
513.929	425.26
514.297	457.57
514.664	416.22
515.032	436.33
515.4	451.02
515.767	438.36
516.135	452.6
516.502	437.01
516.869	429.32
517.237	445.82
517.604	435.65
517.972	434.52
518.339	459.83
518.706	472.26
519.073	444.92
519.44	454.41
519.808	463.45
520.175	450.34
520.542	453.28
520.909	449.66
521.276	447.18
521.643	460.74
522.009	459.15
522.376	440.4
522.743	453.96
523.11	446.95
523.477	470.45
523.843	463.45
524.21	452.15
524.577	468.42
524.943	458.93
525.31	470.23
525.676	486.05
526.043	454.63
526.409	490.11
526.776	470.23
527.142	473.84
527.508	464.35
527.874	476.33
528.241	484.24
528.607	466.84
528.973	484.01
529.339	474.75
529.705	465.03
530.071	491.92
530.437	468.42
530.803	479.72
531.169	494.63
531.535	496.67
531.901	478.82
532.267	471.36
532.632	474.97
532.998	481.98
533.364	493.28
533.73	475.65
534.095	493.5
534.461	508.19
534.826	503.67
535.192	503.9
535.557	487.85
535.923	513.39
536.288	504.58
536.653	503.9
537.019	492.83
537.384	503.67
537.749	484.69
538.114	479.04
538.479	495.09
538.845	496.67
539.21	499.15
539.575	514.29
539.94	497.35
540.305	525.14
540.67	509.1
541.034	509.1
541.399	485.37
541.764	511.13
542.129	509.32
542.494	497.8
542.858	494.63
543.223	498.25
543.587	508.64
543.952	509.77
544.316	506.16
544.681	521.07
545.045	510.68
545.41	524.46
545.774	518.36
546.138	517.46
546.503	501.41
546.867	508.87
547.231	499.38
547.595	527.4
547.959	517.01
548.324	518.81
548.688	517.01
549.052	496.44
549.416	499.15
549.779	521.53
550.143	492.15
550.507	517.01
550.871	495.76
551.235	541.86
551.599	528.98
551.962	517.46
552.326	526.5
552.689	534.63
553.053	520.85
553.417	525.14
553.78	514.97
554.143	536.67
554.507	519.49
554.87	497.8
555.234	528.08
555.597	533.28
555.96	522.2
556.323	526.27
556.686	540.28
557.05	539.15
557.413	539.15
557.776	555.65
558.139	520.17
558.502	540.96
558.865	549.32
559.228	517.68
559.59	535.08
559.953	522.2
560.316	530.79
560.679	554.07
561.041	520.62
561.404	549.77
561.767	553.16
562.129	546.16
562.492	525.14
562.854	548.87
563.217	554.75
563.579	541.41
563.941	557.46
564.304	544.8
564.666	550.45
565.028	572.6
565.39	544.12
565.753	554.29
566.115	571.47
566.477	542.99
566.839	566.95
567.201	548.64
567.563	532.15
567.925	564.24
568.287	581.41
568.648	547.97
569.01	567.17
569.372	561.52
569.734	556.55
570.095	560.85
570.457	558.14
570.819	556.78
571.18	562.88
571.542	570.56
571.903	555.65
572.265	561.52
572.626	566.04
572.987	552.71
573.349	570.34
573.71	592.48
574.071	579.38
574.432	565.37
574.794	587.29
575.155	568.08
575.516	556.1
575.877	585.48
576.238	577.12
576.599	572.37
576.96	573.05
577.32	580.96
577.681	570.11
578.042	562.43
578.403	565.37
578.763	591.13
579.124	559.04
579.485	581.64
579.845	578.93
580.206	564.24
580.566	591.35
580.927	587.96
581.287	575.31
581.648	563.11
582.008	569.66
582.368	576.89
582.728	580.28
583.089	572.37
583.449	582.99
583.809	547.97
584.169	573.73
584.529	572.37
584.889	563.56
585.249	538.7
585.609	574.63
585.969	558.14
586.329	572.6
586.688	573.5
587.048	569.89
587.408	571.92
587.768	585.93
588.127	560.39
588.487	569.43
588.846	563.33
589.206	554.97
589.565	575.31
589.925	579.83
590.284	569.89
590.643	571.92
591.003	577.34
591.362	578.93
591.721	565.37
592.08	573.73
592.44	578.47
592.799	575.76
593.158	570.79
593.517	580.06
593.876	565.59
594.235	554.29
594.593	574.41
594.952	547.97
595.311	564.91
595.67	572.6
596.029	557.91
596.387	590.68
596.746	562.88
597.104	558.36
597.463	583.22
597.822	551.36
598.18	550.23
598.538	588.42
598.897	545.93
599.255	564.69
599.613	555.88
599.972	558.81
600.33	532.6
600.688	544.35
601.046	543.67
601.404	575.76
601.762	562.65
602.12	557.68
602.478	568.53
602.836	557.46
603.194	553.16
603.552	542.54
603.91	547.97
604.268	553.84
604.625	582.99
604.983	554.29
605.341	540.51
605.698	555.88
606.056	549.32
606.413	549.55
606.771	539.38
607.128	549.32
607.485	547.06
607.843	564.46
608.2	559.26
608.557	555.42
608.914	570.34
609.272	533.73
609.629	559.49
609.986	545.71
610.343	539.38
610.7	552.26
611.057	557.91
611.414	560.39
611.771	542.99
612.127	551.36
612.484	542.32
612.841	522.66
613.198	521.53
613.554	531.24
613.911	513.62
614.267	553.84
614.624	537.34
614.98	553.84
615.337	535.08
615.693	545.93
616.05	525.82
616.406	550.45
616.762	532.15
617.118	528.31
617.475	528.53
617.831	518.36
618.187	535.99
618.543	525.37
618.899	537.57
619.255	530.11
619.611	511.13
619.967	525.14
620.323	505.03
620.678	524.46
621.034	518.14
621.39	494.86
621.746	507.29
622.101	512.03
622.457	492.15
622.812	513.16
623.168	525.59
623.523	490.11
623.879	515.42
624.234	528.08
624.589	512.49
624.945	535.08
625.3	511.13
625.655	507.97
626.01	521.3
626.365	501.41
626.72	507.97
627.075	502.77
627.43	500.74
627.785	511.13
628.14	497.12
628.495	485.82
628.85	505.26
629.205	494.41
629.559	499.15
629.914	467.74
630.269	473.84
630.623	471.13
630.978	463.45
631.332	489.89
631.687	482.88
632.041	489.44
632.396	485.37
632.75	494.41
633.104	475.88
633.459	469.32
633.813	485.82
634.167	479.49
634.521	487.4
634.875	479.72
635.229	480.85
635.583	466.16
635.937	471.81
636.291	470.68
636.645	467.52
636.999	469.78
637.352	465.93
637.706	471.58
638.06	453.28
638.413	466.61
638.767	460.51
639.121	461.41
639.474	469.32
639.828	461.41
640.181	444.01
640.534	465.93
640.888	476.1
641.241	436.1
641.594	445.37
641.947	446.73
642.301	458.93
642.654	446.95
643.007	444.01
643.36	456.67
643.713	443.34
644.066	446.5
644.419	462.09
644.771	437.01
645.124	441.08
645.477	449.44
645.83	433.84
646.182	438.82
646.535	441.53
646.888	430.45
647.24	430
647.593	440.85
647.945	425.26
648.298	425.71
648.65	432.94
649.002	428.42
649.355	460.51
649.707	408.31
650.059	416.22
650.411	421.19
650.763	428.65
651.115	435.43
651.467	399.27
651.819	432.04
652.171	446.27
652.523	421.42
652.875	410.12
653.227	406.95
653.578	415.99
653.93	428.19
654.282	432.04
654.633	411.7
654.985	414.41
655.337	425.26
655.688	408.53
656.039	399.04
656.391	415.31
656.742	421.42
657.094	425.48
657.445	415.77
657.796	413.73
658.147	422.32
658.498	387.52
658.849	427.97
659.2	427.97
659.551	416.67
659.902	420.96
660.253	401.98
660.604	397.69
660.955	393.85
661.306	404.24
661.656	409.21
662.007	401.75
662.358	412.15
662.708	385.03
663.059	399.27
663.409	394.3
663.76	363.11
664.11	396.56
664.461	392.26
664.811	402.21
665.161	405.14
665.511	412.38
665.862	396.56
666.212	360.17
666.562	389.1
666.912	394.98
667.262	388.2
667.612	390
667.962	386.39
668.312	396.11
668.662	409.66
669.011	373.06
669.361	399.04
669.711	404.92
670.06	393.17
670.41	391.81
670.76	381.87
671.109	391.81
671.459	397.69
671.808	379.38
672.157	401.3
672.507	380.06
672.856	381.64
673.205	402.66
673.554	383.22
673.904	368.31
674.253	360.17
674.602	371.47
674.951	397.01
675.3	389.33
675.649	383.9
675.998	369.67
676.346	372.38
676.695	376.9
677.044	399.95
677.393	380.06
677.741	371.93
678.09	375.77
678.438	370.8
678.787	383
679.135	376.22
679.484	360.17
679.832	372.15
680.181	377.57
680.529	363.56
680.877	364.47
681.225	361.76
681.573	376.9
681.922	380.29
682.27	362.21
682.618	371.47
682.966	376.9
683.314	353.39
683.661	381.87
684.009	371.47
684.357	370.57
684.705	378.03
685.053	338.25
685.4	372.6
685.748	345.71
686.095	353.85
686.443	386.39
686.79	365.37
687.138	344.36
687.485	359.04
687.832	361.76
688.18	352.94
688.527	331.93
688.874	344.58
689.221	357.91
689.568	350.46
689.915	364.92
690.262	371.7
690.609	372.38
690.956	341.19
691.303	378.93
691.65	362.21
691.997	342.32
692.344	356.11
692.69	366.05
693.037	347.97
693.383	348.88
693.73	359.27
694.077	347.97
694.423	367.41
694.769	347.75
695.116	349.33
695.462	345.03
695.808	370.34
696.155	341.42
696.501	358.59
696.847	354.98
697.193	332.83
697.539	370.34
697.885	367.86
698.231	371.93
698.577	379.16
698.923	354.98
699.269	346.16
699.614	333.06
699.96	357.91
700.306	359.27
700.651	349.78
700.997	342.32
701.342	352.26
701.688	341.87
702.033	334.64
702.379	346.16
702.724	340.51
703.069	338.48
703.415	327.86
703.76	350.68
704.105	331.02
704.45	360.4
704.795	358.14
705.14	377.57
705.485	343.9
705.83	348.42
706.175	342.55
706.52	347.07
706.865	342.77
707.209	331.02
707.554	364.69
707.899	346.84
708.243	334.64
708.588	328.08
708.932	332.6
709.277	338.93
709.621	347.29
709.966	352.49
710.31	339.61
710.654	351.13
710.998	347.07
711.342	358.82
711.687	361.08
712.031	357.69
712.375	331.7
712.719	356.78
713.063	336.22
713.407	343
713.75	344.36
714.094	330.12
714.438	339.84
714.782	355.65
715.125	336.45
715.469	332.38
715.812	338.25
716.156	359.04
716.499	342.55
716.843	337.12
717.186	353.39
717.53	344.13
717.873	329.89
718.216	334.86
718.559	341.87
718.902	363.34
719.246	335.54
719.589	322.21
719.932	320.63
720.275	361.08
720.617	355.65
720.96	326.5
721.303	343
721.646	335.77
721.989	325.6
722.331	347.29
722.674	330.12
723.016	334.86
723.359	318.59
723.701	316.56
724.044	326.28
724.386	317.69
724.729	332.15
725.071	338.48
725.413	336.9
725.755	333.28
726.097	351.81
726.439	344.13
726.782	334.41
727.124	328.08
727.465	333.96
727.807	328.54
728.149	336.45
728.491	307.97
728.833	327.41
729.175	318.37
729.516	343.68
729.858	344.36
730.199	333.51
730.541	320.85
730.882	335.77
731.224	325.6
731.565	332.83
731.906	321.98
732.248	338.93
732.589	309.78
732.93	331.25
733.271	336.67
733.612	341.64
733.953	336.9
734.294	321.76
734.635	335.32
734.976	315.43
735.317	317.01
735.658	349.33
735.999	347.97
736.339	329.44
736.68	339.61
737.021	320.18
737.361	324.92
737.702	333.51
738.042	314.53
738.383	335.54
738.723	328.99
739.063	331.25
739.404	345.71
739.744	331.7
740.084	327.86
740.424	310.91
740.764	326.05
741.104	315.88
741.444	310.46
741.784	333.28
742.124	329.67
742.464	323.11
742.804	341.19
743.143	331.47
743.483	322.44
743.823	357.91
744.162	307.75
744.502	330.8
744.841	307.07
745.181	333.51
745.52	348.88
745.86	334.41
746.199	340.97
746.538	347.29
746.877	335.32
747.216	323.79
747.556	328.08
747.895	331.93
748.234	329.44
748.573	340.74
748.911	327.41
749.25	342.32
749.589	338.03
749.928	322.44
750.267	340.29
750.605	304.36
750.944	334.41
751.283	326.95
751.621	328.99
751.96	320.85
752.298	321.76
752.636	312.94
752.975	333.28
753.313	333.06
753.651	330.34
753.989	342.55
754.327	325.15
754.666	316.56
755.004	316.33
755.342	332.15
755.679	313.17
756.017	345.03
756.355	330.57
756.693	326.73
757.031	326.05
757.368	319.27
757.706	309.1
758.044	334.41
758.381	330.34
758.719	326.73
759.056	343.45
759.394	308.42
759.731	309.1
760.068	328.54
760.405	324.02
760.743	330.12
761.08	321.76
761.417	315.43
761.754	324.47
762.091	303.68
762.428	336.45
762.765	326.28
763.102	330.34
763.438	333.06
763.775	325.37
764.112	321.53
764.449	338.71
764.785	334.19
765.122	315.66
765.458	331.7
765.795	304.13
766.131	306.16
766.467	325.6
766.804	333.06
767.14	321.98
767.476	311.14
767.812	302.32
768.148	337.12
768.485	327.86
768.821	333.73
769.157	345.26
769.492	322.44
769.828	322.66
770.164	335.09
770.5	341.87
770.836	337.12
771.171	294.87
771.507	342.55
771.842	317.24
772.178	336.67
772.513	337.35
772.849	331.25
773.184	306.39
773.519	317.92
773.855	338.93
774.19	327.86
774.525	319.72
774.86	334.64
775.195	327.41
775.53	334.86
775.865	326.95
776.2	315.43
776.535	315.66
776.87	330.12
777.205	333.06
777.539	326.28
777.874	317.46
778.209	322.89
778.543	294.41
778.878	334.41
779.212	328.31
779.547	327.63
779.881	335.32
780.215	318.82
780.55	307.52
780.884	312.49
781.218	318.37
781.552	324.02
781.886	321.08
782.22	345.71
782.554	345.94
782.888	316.79
783.222	331.02
783.556	322.66
783.889	326.73
784.223	327.86
784.557	331.93
784.89	310.91
785.224	311.14
785.557	333.51
785.891	316.33
786.224	320.85
786.558	316.11
786.891	331.7
787.224	328.31
787.557	336.9
787.891	319.5
788.224	311.36
788.557	310.68
788.89	323.11
789.223	322.44
789.556	314.53
789.888	328.08
790.221	344.36
790.554	323.56
790.887	320.85
791.219	330.12
791.552	348.2
791.884	333.06
792.217	326.95
792.549	320.63
792.882	332.15
793.214	339.61
793.546	320.85
793.879	332.6
794.211	318.82
794.543	337.58
794.875	332.38
795.207	302.55
795.539	325.37
795.871	324.24
796.203	316.11
796.535	325.37
796.867	333.96
797.198	331.47
797.53	329.44
797.862	306.16
798.193	328.76
798.525	311.36
798.856	319.5
799.188	308.88
799.519	330.12
799.85	323.34
800.182	322.44
800.513	338.25
800.844	319.5
801.175	335.54
801.506	321.53
801.837	317.46
802.168	319.5
802.499	316.56
802.83	297.12
803.161	320.18
803.491	327.86
803.822	349.55
804.153	314.98
804.483	320.18
804.814	328.31
805.145	319.5
805.475	319.27
805.805	308.88
806.136	325.37
806.466	336.45
806.796	332.15
807.126	329.44
807.457	333.28
807.787	333.73
808.117	344.36
808.447	317.92
808.777	316.56
809.107	288.76
809.436	335.77
809.766	319.72
810.096	311.14
810.426	315.88
810.755	335.54
811.085	308.42
811.414	324.02
811.744	311.59
812.073	331.02
812.403	324.24
812.732	331.02
813.061	321.98
813.39	324.24
813.719	317.92
814.049	338.03
814.378	309.78
814.707	321.08
815.036	328.54
815.365	331.47
815.693	304.36
816.022	333.73
816.351	321.08
816.68	354.75
817.008	322.44
817.337	314.53
817.665	336.9
817.994	323.79
818.322	311.59
818.651	327.86
818.979	331.47
819.307	319.72
819.636	319.95
819.964	319.72
820.292	309.78
820.62	302.1
820.948	307.52
821.276	318.14
821.604	320.63
821.932	321.08
822.259	332.83
822.587	334.19
822.915	328.31
823.243	319.95
823.57	288.99
823.898	321.76
824.225	317.46
824.553	328.54
824.88	326.28
825.207	321.08
825.535	326.28
825.862	314.3
826.189	319.72
826.516	325.6
826.843	344.81
827.17	331.93
827.497	333.73
827.824	335.32
828.151	325.6
828.478	318.14
828.805	309.33
829.131	338.71
829.458	318.14
829.785	312.04
830.111	294.87
830.438	314.53
830.764	318.82
831.09	317.69
831.417	336.67
831.743	308.2
832.069	325.6
832.395	314.3
832.722	318.82
833.048	330.34
833.374	328.31
833.7	300.97
834.026	327.63
834.351	324.24
834.677	313.85
835.003	324.69
835.329	336.45
835.654	320.85
835.98	316.33
836.306	316.11
836.631	320.18
836.956	298.48
837.282	314.3
837.607	321.08
837.932	318.37
838.258	328.08
838.583	327.86
838.908	321.31
839.233	314.53
839.558	319.95
839.883	319.5
840.208	317.24
840.533	325.15
840.858	320.4
841.182	325.15
841.507	305.71
841.832	324.92
842.156	305.03
842.481	304.36
842.805	316.79
843.13	318.14
843.454	312.94
843.778	319.95
844.103	347.07
844.427	302.1
844.751	292.15
845.075	310.23
845.399	316.33
845.723	320.18
846.047	320.85
846.371	310.68
846.695	323.56
847.019	308.42
847.343	340.06
847.666	322.66
847.99	310.23
848.313	319.5
848.637	324.24
848.96	316.56
849.284	305.03
849.607	330.57
849.931	321.53
850.254	314.3
850.577	306.16
850.9	340.51
851.223	331.93
851.546	301.19
851.869	315.43
852.192	300.97
852.515	300.06
852.838	321.98
853.161	330.34
853.483	321.31
853.806	325.37
854.129	309.1
854.451	318.37
854.774	325.6
855.096	321.08
855.419	307.75
855.741	308.65
856.063	313.4
856.385	323.34
856.708	316.11
857.03	310.23
857.352	303.68
857.674	347.75
857.996	305.71
858.318	339.16
858.64	324.24
858.961	334.86
859.283	333.96
859.605	324.02
859.926	319.95
860.248	329.21
860.57	321.53
860.891	322.66
861.212	316.56
861.534	330.34
861.855	310.46
862.176	317.24
862.498	305.94
862.819	311.81
863.14	322.44
863.461	328.54
863.782	323.56
864.103	307.97
864.424	301.42
864.745	298.03
865.065	335.09
865.386	324.92
865.707	323.34
866.027	338.03
866.348	316.33
866.668	305.03
866.989	313.4
867.309	299.16
867.63	323.11
867.95	331.47
868.27	296.22
868.59	311.81
868.91	314.75
869.23	305.94
869.55	330.57
869.87	309.33
870.19	301.42
870.51	316.56
870.83	301.64
871.15	291.25
871.469	316.56
871.789	335.77
872.109	321.98
872.428	322.89
872.748	310.23
873.067	312.72
873.386	304.81
873.706	310.91
874.025	328.08
874.344	298.48
874.663	299.84
874.982	317.92
875.301	316.33
875.62	303.9
875.939	317.01
876.258	304.58
876.577	309.1
876.896	335.09
877.214	306.16
877.533	305.71
877.852	318.82
878.17	309.55
878.489	320.63
878.807	314.53
879.125	315.2
879.444	293.51
879.762	313.62
880.08	308.2
880.398	319.72
880.716	320.4
881.034	302.55
881.352	318.82
881.67	339.84
881.988	326.73
882.306	314.07
882.624	314.3
882.941	310.23
883.259	350
883.577	327.63
883.894	318.82
884.212	320.85
884.529	336.22
884.846	311.59
885.164	305.94
885.481	326.95
885.798	322.66
886.115	293.74
886.432	300.74
886.75	312.04
887.067	316.79
887.383	323.34
887.7	314.75
888.017	285.6
888.334	329.21
888.651	310.23
888.967	308.65
889.284	305.03
889.6	304.58
889.917	304.58
890.233	311.36
890.55	317.24
890.866	331.47
891.182	314.53
891.498	327.86
891.815	327.41
892.131	349.55
892.447	321.76
892.763	308.2
893.079	301.64
893.395	314.75
893.71	327.63
894.026	306.62
894.342	318.82
894.657	319.72
894.973	321.53
895.289	307.97
895.604	322.44
895.92	331.93
896.235	315.43
896.55	323.56
896.865	318.82
897.181	313.85
897.496	314.75
897.811	341.64
898.126	316.56
898.441	322.66
898.756	340.51
899.071	317.69
899.386	307.75
899.7	308.2
900.015	320.18
900.33	324.47
900.644	330.57
900.959	303
901.273	303.45
901.588	308.65
901.902	321.53
902.216	337.8
902.531	320.18
902.845	314.3
903.159	304.13
903.473	311.36
903.787	309.78
904.101	294.19
904.415	310.46
904.729	314.07
905.042	302.1
905.356	337.12
905.67	321.31
905.984	323.56
906.297	312.04
906.611	322.66
906.924	297.8
907.237	320.18
907.551	321.31
907.864	327.86
908.177	299.61
908.491	314.07
908.804	330.12
909.117	300.29
909.43	315.88
909.743	325.6
910.056	296.45
910.368	327.63
910.681	320.18
910.994	314.3
911.307	330.12
911.619	313.62
911.932	322.21
912.244	313.4
912.557	321.53
912.869	302.77
913.181	322.21
913.494	319.27
913.806	321.53
914.118	312.04
914.43	309.78
914.742	327.63
915.054	310.01
915.366	320.63
915.678	326.05
915.99	301.87
916.302	302.55
916.613	306.62
916.925	319.5
917.236	324.24
917.548	310.23
917.859	318.59
918.171	300.97
918.482	328.08
918.794	304.58
919.105	298.48
919.416	312.27
919.727	304.81
920.038	326.73
920.349	318.82
920.66	319.5
920.971	305.94
921.282	320.18
921.593	307.29
921.903	320.4
922.214	322.89
922.525	315.88
922.835	311.14
923.146	326.5
923.456	304.81
923.767	286.28
924.077	327.86
924.387	301.19
924.697	319.27
925.008	292.83
925.318	314.07
925.628	313.85
925.938	330.34
926.248	336.45
926.558	310.91
926.867	311.81
927.177	312.27
927.487	310.01
927.796	300.29
928.106	316.11
928.416	316.56
928.725	298.93
929.034	312.04
929.344	308.88
929.653	311.36
929.962	314.3
930.271	326.28
930.581	317.01
930.89	310.23
931.199	305.26
931.508	303
931.817	315.43
932.125	322.66
932.434	311.59
932.743	324.69
933.051	341.64
933.36	301.87
933.669	302.55
933.977	318.59
934.286	326.95
934.594	331.7
934.902	331.7
935.21	303.23
935.519	330.12
935.827	313.4
936.135	316.56
936.443	307.29
936.751	309.78
937.059	311.36
937.367	330.34
937.674	333.73
937.982	323.11
938.29	314.3
938.597	304.13
938.905	320.85
939.213	305.26
939.52	321.76
939.827	323.79
940.135	297.35
940.442	312.94
940.749	318.82
941.056	318.14
941.363	301.87
941.67	304.36
941.977	305.03
942.284	335.32
942.591	314.07
942.898	312.72
943.205	305.49
943.511	303.9
943.818	315.88
944.125	320.18
944.431	326.05
944.738	307.97
945.044	317.24
945.35	326.73
945.657	327.41
945.963	313.4
946.269	319.72
946.575	324.92
946.881	317.24
947.187	303.68
947.493	302.55
947.799	312.49
948.105	317.24
948.41	307.07
948.716	307.52
949.022	299.84
949.327	333.96
949.633	296.67
949.938	296.22
950.244	308.2
950.549	316.11
950.854	288.31
951.16	289.89
951.465	323.11
951.77	315.43
952.075	334.41
952.38	312.49
952.685	300.06
952.99	315.43
953.294	319.05
953.599	303.68
953.904	311.81
954.209	298.25
954.513	305.03
954.818	307.97
955.122	295.77
955.426	311.59
955.731	321.31
956.035	318.59
956.339	333.28
956.643	316.11
956.948	304.81
957.252	317.46
957.556	318.14
957.86	302.32
958.163	301.87
958.467	309.33
958.771	296.9
959.075	318.14
959.378	315.66
959.682	294.87
959.985	314.98
960.289	320.63
960.592	331.47
960.896	309.78
961.199	299.38
961.502	319.95
961.805	291.02
962.108	306.39
962.411	320.4
962.714	306.84
963.017	316.11
963.32	322.21
963.623	310.91
963.926	299.38
964.228	288.76
964.531	308.2
964.833	310.91
965.136	305.03
965.438	305.71
965.741	318.37
966.043	314.75
966.345	319.5
966.648	312.49
966.95	310.23
967.252	313.85
967.554	323.11
967.856	318.37
968.158	306.39
968.46	308.65
968.761	330.34
969.063	317.46
969.365	326.05
969.666	294.19
969.968	312.04
970.269	305.26
970.571	312.49
970.872	303.45
971.174	317.46
971.475	315.88
971.776	322.44
972.077	310.46
972.378	327.63
972.679	319.5
972.98	310.46
973.281	322.44
973.582	312.49
973.883	324.02
974.183	319.05
974.484	307.97
974.785	298.71
975.085	321.98
975.386	315.43
975.686	297.35
975.986	334.86
976.287	310.23
976.587	307.52
976.887	311.59
977.187	297.8
977.487	298.93
977.787	330.57
978.087	327.63
978.387	301.64
978.687	310.01
978.987	311.14
979.286	303.68
979.586	308.42
979.885	313.17
980.185	298.25
980.484	301.19
980.784	316.33
981.083	304.81
981.382	289.89
981.682	318.59
981.981	318.14
982.28	306.16
982.579	298.25
982.878	301.87
983.177	323.11
983.475	309.1
983.774	316.79
984.073	295.32
984.372	314.3
984.67	309.33
984.969	312.49
985.267	310.91
985.566	298.71
985.864	324.92
986.162	302.77
986.461	315.43
986.759	321.53
987.057	298.03
987.355	306.62
987.653	301.42
987.951	314.3
988.249	320.18
988.547	334.41
988.844	306.62
989.142	325.15
989.44	315.66
989.737	309.1
990.035	318.37
990.332	312.49
990.63	305.03
990.927	346.16
991.224	309.55
991.521	306.16
991.819	330.8
992.116	322.66
992.413	321.31
992.71	300.29
993.006	312.49
993.303	308.65
993.6	297.8
993.897	299.16
994.193	319.5
994.49	312.04
994.787	305.26
995.083	314.3
995.379	307.97
995.676	317.92
995.972	333.51
996.268	327.63
996.565	280.85
996.861	310.68
997.157	310.23
997.453	314.98
997.749	315.43
998.044	306.39
998.34	330.12
998.636	301.64
998.932	307.75
999.227	305.49
999.523	319.95
999.818	301.64
1000.114	291.93
1000.409	319.95
1000.704	324.24
1001	312.27
1001.295	297.35
1001.59	324.92
1001.885	321.98
1002.18	316.56
1002.475	303.68
1002.77	325.37
1003.065	313.4
1003.359	302.77
1003.654	302.77
1003.949	306.84
1004.243	310.01
1004.538	304.13
1004.832	304.58
1005.127	324.92
1005.421	310.68
1005.715	310.01
1006.009	306.84
1006.304	308.2
1006.598	302.1
1006.892	309.33
1007.186	303.9
1007.48	294.87
1007.773	312.04
1008.067	300.51
1008.361	333.06
1008.655	315.88
1008.948	316.56
1009.242	320.4
1009.535	320.63
1009.829	324.24
1010.122	316.11
1010.415	304.58
1010.708	283.11
1011.001	314.3
1011.295	309.78
1011.588	288.09
1011.881	306.39
1012.173	312.94
1012.466	302.1
1012.759	313.17
1013.052	300.06
1013.344	330.8
1013.637	317.24
1013.93	310.68
1014.222	310.68
1014.514	298.71
1014.807	320.85
1015.099	326.73
1015.391	295.54
1015.683	306.62
1015.976	312.72
1016.268	315.2
1016.56	307.75
1016.851	305.03
1017.143	315.2
1017.435	329.67
1017.727	308.65
1018.018	289.89
1018.31	306.39
1018.602	320.18
1018.893	312.94
1019.185	316.11
1019.476	306.39
1019.767	303.23
1020.058	311.59
1020.35	300.51
1020.641	309.1
1020.932	319.72
1021.223	292.38
1021.514	294.64
1021.804	307.97
1022.095	312.27
1022.386	296.67
1022.677	304.13
1022.967	327.63
1023.258	291.25
1023.548	311.59
1023.839	312.27
1024.129	317.92
1024.419	312.94
1024.709	304.58
1025	301.87
1025.29	312.04
1025.58	306.84
1025.87	304.13
1026.16	318.14
1026.449	322.44
1026.739	309.33
1027.029	323.79
1027.319	301.64
1027.608	321.08
1027.898	311.14
1028.187	331.93
1028.477	310.23
1028.766	314.53
1029.055	310.01
1029.344	321.53
1029.634	286.28
1029.923	302.77
1030.212	307.07
1030.501	315.66
1030.79	313.85
1031.078	321.98
1031.367	295.09
1031.656	312.49
1031.945	301.64
1032.233	332.38
1032.522	320.85
1032.81	319.95
1033.099	311.36
1033.387	305.03
1033.675	297.58
1033.963	309.78
1034.251	306.16
1034.54	328.76
1034.828	313.85
1035.116	315.88
1035.403	318.59
1035.691	310.23
1035.979	295.54
1036.267	311.14
1036.554	306.16
1036.842	311.59
1037.129	314.07
1037.417	320.63
1037.704	304.58
1037.992	319.27
1038.279	313.85
1038.566	309.1
1038.853	309.1
1039.14	309.1
