Data from No_light_on_white_reflection_standard_FLMS001491_066.txt Node
Date: Tue Feb 07 10:33:05 GMT 2017
User: dcchb
Spectrometer: FLMS00149
Trigger mode: 0
Integration Time (sec): 2.000000E-2
Scans to average: 10
Electric dark correction enabled: true
Nonlinearity correction enabled: false
Boxcar width: 0
XAxis mode: Wavelengths
Number of Pixels in Spectrum: 2048
>>>>>Begin Spectral Data<<<<<
341.393	-10.88
341.776	-10.88
342.16	-10.88
342.543	-66.92
342.927	-56.98
343.31	-80.48
343.693	-40.03
344.077	-69.86
344.46	-59.91
344.843	-49.07
345.226	-52.23
345.61	-22.85
345.993	-33.25
346.376	-17.43
346.759	18.73
347.142	39.52
347.525	37.03
347.908	41.78
348.291	74.77
348.674	103.25
349.057	110.03
349.44	110.25
349.823	136.47
350.206	167.88
350.588	170.59
350.971	169.46
351.354	181.66
351.737	206.07
352.119	203.58
352.502	238.38
352.884	242
353.267	252.17
353.65	244.94
354.032	243.13
354.414	252.17
354.797	275.67
355.179	278.38
355.562	307.76
355.944	281.77
356.326	284.71
356.709	281.55
357.091	297.59
357.473	303.24
357.855	293.07
358.238	307.99
358.62	313.18
359.002	329.23
359.384	300.08
359.766	293.52
360.148	307.53
360.53	292.17
360.912	305.73
361.294	308.89
361.676	298.49
362.057	283.13
362.439	291.72
362.821	298.27
363.203	277.93
363.584	289.23
363.966	296.01
364.348	290.81
364.729	288.78
365.111	263.92
365.493	261.21
365.874	290.59
366.256	263.69
366.637	272.96
367.019	269.8
367.4	277.48
367.781	285.84
368.163	275.9
368.544	278.38
368.925	270.93
369.306	274.77
369.688	265.73
370.069	242.23
370.45	267.08
370.831	268.89
371.212	262.34
371.593	268.67
371.974	283.13
372.355	272.05
372.736	265.95
373.117	277.03
373.498	291.04
373.879	254.65
374.26	269.8
374.641	258.72
375.021	271.15
375.402	267.99
375.783	275.44
376.163	262.34
376.544	286.74
376.925	288.33
377.305	241.32
377.686	272.73
378.066	264.82
378.447	278.16
378.827	272.96
379.208	276.57
379.588	274.54
379.968	279.06
380.349	267.76
380.729	276.8
381.109	277.48
381.489	266.86
381.87	259.85
382.25	257.14
382.63	273.41
383.01	274.09
383.39	288.55
383.77	277.48
384.15	278.38
384.53	301.21
384.91	268.67
385.29	287.2
385.67	256.46
386.049	285.61
386.429	273.41
386.809	298.95
387.189	272.28
387.568	289.68
387.948	288.78
388.328	292.62
388.707	281.32
389.087	294.65
389.466	268.67
389.846	284.71
390.225	293.07
390.605	283.81
390.984	282.22
391.363	273.64
391.743	284.03
392.122	307.76
392.501	248.78
392.881	279.29
393.26	293.98
393.639	286.74
394.018	286.07
394.397	271.38
394.776	270.47
395.155	279.74
395.534	287.2
395.913	288.33
396.292	283.58
396.671	303.69
397.05	298.49
397.429	268.89
397.808	303.24
398.186	300.75
398.565	306.18
398.944	295.78
399.323	299.85
399.701	293.3
400.08	282.68
400.458	279.51
400.837	282
401.215	303.01
401.594	276.8
401.972	310.02
402.351	283.81
402.729	292.39
403.107	292.39
403.486	307.76
403.864	306.4
404.242	284.94
404.62	302.56
404.999	279.51
405.377	287.2
405.755	307.53
406.133	294.2
406.511	286.97
406.889	298.49
407.267	297.14
407.645	289.68
408.023	305.73
408.401	296.46
408.779	313.64
409.156	289.23
409.534	299.17
409.912	306.86
410.29	297.37
410.667	295.33
411.045	280.87
411.422	299.62
411.8	289.68
412.178	299.17
412.555	307.53
412.933	292.62
413.31	302.11
413.687	297.37
414.065	296.46
414.442	325.16
414.819	299.85
415.197	278.83
415.574	320.64
415.951	311.38
416.328	281.09
416.705	293.98
417.082	286.52
417.46	289
417.837	295.56
418.214	294.65
418.591	289.23
418.967	311.6
419.344	298.49
419.721	306.4
420.098	283.13
420.475	317.03
420.852	331.04
421.228	315.22
421.605	299.85
421.982	294.88
422.358	303.92
422.735	313.64
423.111	320.64
423.488	298.72
423.864	302.79
424.241	306.18
424.617	306.4
424.994	308.66
425.37	329.91
425.746	307.08
426.123	313.86
426.499	317.7
426.875	325.16
427.251	312.51
427.627	291.26
428.003	301.43
428.379	338.04
428.756	315.44
429.132	291.72
429.507	308.21
429.883	292.39
430.259	286.07
430.635	310.47
431.011	331.94
431.387	314.54
431.763	286.29
432.138	331.26
432.514	316.35
432.89	301.88
433.265	312.73
433.641	309.79
434.016	317.93
434.392	319.29
434.767	308.66
435.143	308.21
435.518	332.62
435.894	317.03
436.269	323.35
436.644	329.23
437.02	331.94
437.395	318.83
437.77	324.48
438.145	328.1
438.52	313.41
438.895	324.93
439.271	328.78
439.646	340.75
440.021	327.42
440.395	324.26
440.77	318.61
441.145	329.23
441.52	344.37
441.895	336.91
442.27	343.69
442.645	332.84
443.019	340.08
443.394	341.88
443.769	341.88
444.143	336.01
444.518	348.66
444.892	341.88
445.267	360.19
445.641	335.33
446.016	364.03
446.39	341.43
446.764	354.31
447.139	358.38
447.513	370.36
447.887	338.72
448.262	350.47
448.636	368.78
449.01	347.99
449.384	365.61
449.758	331.94
450.132	367.65
450.506	352.05
450.88	372.17
451.254	359.28
451.628	352.96
452.002	353.86
452.376	365.61
452.75	350.25
453.123	402.22
453.497	345.05
453.871	360.41
454.244	385.05
454.618	353.63
454.992	376.01
455.365	363.58
455.739	356.12
456.112	373.97
456.486	348.66
456.859	350.02
457.232	356.35
457.606	371.26
457.979	350.92
458.352	357.25
458.725	372.39
459.099	372.39
459.472	345.5
459.845	347.08
460.218	361.32
460.591	343.92
460.964	356.57
461.337	340.75
461.71	373.97
462.083	342.34
462.456	354.76
462.829	342.11
463.201	353.18
463.574	352.73
463.947	325.16
464.32	327.42
464.692	357.02
465.065	356.35
465.438	360.64
465.81	341.66
466.183	354.31
466.555	333.07
466.928	345.05
467.3	349.12
467.672	362
468.045	329
468.417	333.75
468.789	351.37
469.161	346.18
469.534	364.03
469.906	347.76
470.278	358.15
470.65	357.48
471.022	353.18
471.394	349.34
471.766	360.41
472.138	344.14
472.51	343.92
472.882	362.67
473.253	338.49
473.625	345.05
473.997	321.32
474.369	345.95
474.74	338.04
475.112	349.12
475.484	361.77
475.855	343.47
476.227	335.1
476.598	357.93
476.97	354.99
477.341	343.92
477.713	357.93
478.084	324.48
478.455	333.75
478.827	349.12
479.198	344.82
479.569	340.53
479.94	347.76
480.311	352.05
480.682	353.86
481.053	354.76
481.424	358.15
481.795	350.47
482.166	346.86
482.537	348.66
482.908	352.73
483.279	350.02
483.65	346.18
484.021	334.88
484.391	332.17
484.762	362.67
485.133	353.18
485.503	359.06
485.874	355.67
486.244	338.72
486.615	364.48
486.985	364.03
487.356	376.01
487.726	370.13
488.097	365.61
488.467	378.72
488.837	360.87
489.207	348.21
489.578	373.52
489.948	366.29
490.318	390.7
490.688	353.41
491.058	383.24
491.428	381.88
491.798	382.56
492.168	380.75
492.538	365.84
492.908	369.91
493.278	384.82
493.648	374.88
494.017	394.76
494.387	371.04
494.757	391.37
495.126	378.94
495.496	376.69
495.866	372.62
496.235	388.89
496.605	393.18
496.974	390.24
497.344	386.18
497.713	382.11
498.082	381.43
498.452	397.25
498.821	371.71
499.19	396.57
499.559	384.37
499.928	407.87
500.298	414.65
500.667	382.56
501.036	391.37
501.405	385.05
501.774	373.3
502.143	406.29
502.512	393.86
502.88	404.71
503.249	405.38
503.618	408.32
503.987	407.87
504.356	414.42
504.724	398.83
505.093	391.37
505.462	409
505.83	396.57
506.199	417.36
506.567	411.49
506.936	427.08
507.304	422.33
507.672	411.94
508.041	431.6
508.409	422.11
508.777	413.97
509.145	443.58
509.514	429.56
509.882	422.33
510.25	419.85
510.618	434.08
510.986	440.41
511.354	417.59
511.722	418.04
512.09	434.76
512.458	438.83
512.826	442.9
513.193	437.7
513.561	432.95
513.929	441.09
514.297	413.75
514.664	437.7
515.032	446.29
515.4	433.86
515.767	448.77
516.135	455.55
516.502	447.19
516.869	447.64
517.237	438.6
517.604	469.34
517.972	425.05
518.339	452.16
518.706	457.81
519.073	451.49
519.44	463.24
519.808	460.75
520.175	490.13
520.542	456
520.909	446.06
521.276	476.12
521.643	461.88
522.009	487.64
522.376	461.88
522.743	469.79
523.11	478.38
523.477	465.27
523.843	472.05
524.21	467.53
524.577	461.2
524.943	455.33
525.31	476.12
525.676	479.96
526.043	477.7
526.409	491.26
526.776	463.91
527.142	477.02
527.508	481.54
527.874	480.64
528.241	490.58
528.607	496.68
528.973	484.7
529.339	500.75
529.705	484.93
530.071	496.23
530.437	477.47
530.803	506.85
531.169	460.3
531.535	515.89
531.901	488.55
532.267	501.2
532.632	507.98
532.998	489.9
533.364	507.98
533.73	494.65
534.095	516.34
534.461	498.26
534.826	486.51
535.192	495.1
535.557	505.5
535.923	482.67
536.288	503.01
536.653	509.11
537.019	484.03
537.384	503.69
537.749	496.23
538.114	490.13
538.479	498.72
538.845	522.67
539.21	505.95
539.575	502.56
539.94	494.2
540.305	513.63
540.67	501.88
541.034	522.9
541.399	512.05
541.764	525.83
542.129	480.19
542.494	531.26
542.858	524.25
543.223	500.3
543.587	505.72
543.952	521.77
544.316	519.96
544.681	499.39
545.045	509.34
545.41	523.57
545.774	517.25
546.138	519.51
546.503	499.85
546.867	507.3
547.231	510.69
547.595	528.55
547.959	507.53
548.324	507.53
548.688	498.72
549.052	488.77
549.416	523.57
549.779	538.26
550.143	516.79
550.507	531.26
550.871	520.86
551.235	510.47
551.599	536.68
551.962	537.58
552.326	523.12
552.689	540.97
553.053	524.48
553.417	546.85
553.78	539.39
554.143	526.74
554.507	532.16
554.87	558.6
555.234	521.31
555.597	566.51
555.96	519.96
556.323	548.66
556.686	515.66
557.05	520.86
557.413	554.76
557.776	540.75
558.139	550.01
558.502	543.23
558.865	532.61
559.228	524.25
559.59	550.92
559.953	549.56
560.316	543.69
560.679	532.16
561.041	530.58
561.404	523.12
561.767	543.46
562.129	540.97
562.492	560.63
562.854	543.91
563.217	549.56
563.579	547.3
563.941	561.54
564.304	564.25
564.666	578.26
565.028	563.12
565.39	567.87
565.753	547.53
566.115	566.51
566.477	559.73
566.839	570.35
567.201	554.99
567.563	551.37
567.925	569.67
568.287	558.6
568.648	573.29
569.01	563.57
569.372	569.22
569.734	561.31
570.095	570.35
570.457	607.41
570.819	585.72
571.18	567.19
571.542	574.65
571.903	566.28
572.265	543.46
572.626	556.12
572.987	577.36
573.349	574.87
573.71	574.42
574.071	577.81
574.432	578.04
574.794	580.52
575.155	580.52
575.516	576.91
575.877	573.29
576.238	593.85
576.599	567.87
576.96	581.43
577.32	570.58
577.681	591.37
578.042	590.69
578.403	589.11
578.763	573.06
579.124	563.57
579.485	584.14
579.845	577.13
580.206	587.3
580.566	590.24
580.927	587.3
581.287	577.81
581.648	576.91
582.008	586.62
582.368	600.18
582.728	606.28
583.089	569.45
583.449	578.26
583.809	601.54
584.169	576
584.529	570.35
584.889	570.8
585.249	572.39
585.609	589.33
585.969	584.14
586.329	564.02
586.688	560.18
587.048	573.97
587.408	578.94
587.768	594.31
588.127	583.23
588.487	599.05
588.846	565.15
589.206	602.89
589.565	557.47
589.925	584.59
590.284	583.23
590.643	570.8
591.003	569.45
591.362	553.86
591.721	586.85
592.08	568.77
592.44	598.15
592.799	583.46
593.158	588.88
593.517	567.19
593.876	587.3
594.235	561.09
594.593	542.1
594.952	580.07
595.311	562.67
595.67	564.7
596.029	578.26
596.387	574.65
596.746	590.01
597.104	555.21
597.463	570.8
597.822	567.64
598.18	566.06
598.538	589.56
598.897	557.47
599.255	559.51
599.613	556.57
599.972	560.18
600.33	582.56
600.688	587.75
601.046	582.33
601.404	569.67
601.762	579.17
602.12	573.74
602.478	557.02
602.836	567.19
603.194	564.7
603.552	576.23
603.91	579.39
604.268	566.51
604.625	563.57
604.983	544.14
605.341	574.65
605.698	572.39
606.056	545.95
606.413	558.83
606.771	558.83
607.128	528.09
607.485	569
607.843	540.97
608.2	562.67
608.557	565.83
608.914	553.63
609.272	549.34
609.629	540.52
609.986	535.55
610.343	543.69
610.7	579.62
611.057	540.52
611.414	557.92
611.771	514.76
612.127	551.82
612.484	549.11
612.841	571.26
613.198	554.99
613.554	542.56
613.911	533.29
614.267	539.17
614.624	541.88
614.98	529.9
615.337	532.16
615.693	537.13
616.05	521.31
616.406	526.51
616.762	536.91
617.118	517.7
617.475	524.25
617.831	537.81
618.187	534.42
618.543	549.34
618.899	522.9
619.255	496.46
619.611	515.44
619.967	547.3
620.323	524.03
620.678	522.44
621.034	521.99
621.39	523.57
621.746	516.12
622.101	511.14
622.457	521.31
622.812	519.51
623.168	505.5
623.523	540.3
623.879	508.43
624.234	502.33
624.589	520.86
624.945	508.88
625.3	508.88
625.655	503.91
626.01	484.93
626.365	497.81
626.72	505.27
627.075	493.52
627.43	496.68
627.785	479.06
628.14	521.09
628.495	498.72
628.85	509.34
629.205	501.65
629.559	492.16
629.914	489.45
630.269	497.59
630.623	475.67
630.978	513.63
631.332	521.99
631.687	463.91
632.041	497.59
632.396	468.66
632.75	485.83
633.104	486.51
633.459	486.51
633.813	478.15
634.167	484.7
634.521	469.56
634.875	470.02
635.229	485.61
635.583	470.02
635.937	458.72
636.291	481.09
636.645	473.63
636.999	462.33
637.352	448.1
637.706	471.37
638.06	456
638.413	475.67
638.767	458.04
639.121	462.78
639.474	469.56
639.828	477.93
640.181	476.8
640.534	467.08
640.888	472.05
641.241	461.2
641.594	462.78
641.947	438.83
642.301	470.69
642.654	457.36
643.007	447.87
643.36	438.38
643.713	463.24
644.066	455.1
644.419	426.63
644.771	430.24
645.124	460.98
645.477	449.68
645.83	442.45
646.182	425.72
646.535	445.84
646.888	458.72
647.24	452.62
647.593	427.53
647.945	435.67
648.298	429.56
648.65	429.79
649.002	422.79
649.355	440.41
649.707	425.05
650.059	443.8
650.411	433.86
650.763	428.89
651.115	442.22
651.467	423.01
651.819	423.46
652.171	430.69
652.523	437.47
652.875	436.57
653.227	423.01
653.578	425.72
653.93	427.53
654.282	435.89
654.633	423.92
654.985	414.65
655.337	415.55
655.688	420.75
656.039	409.9
656.391	404.93
656.742	420.07
657.094	412.62
657.445	421.43
657.796	399.74
658.147	404.25
658.498	406.06
658.849	421.88
659.2	423.92
659.551	413.97
659.902	404.71
660.253	416.23
660.604	409
660.955	405.84
661.306	392.28
661.656	400.41
662.007	405.61
662.358	400.41
662.708	403.8
663.059	408.55
663.409	386.85
663.76	417.81
664.11	392.05
664.461	402.9
664.811	400.41
665.161	387.98
665.511	402.22
665.862	373.52
666.212	405.84
666.562	391.37
666.912	404.71
667.262	397.48
667.612	375.1
667.962	399.06
668.312	415.33
668.662	392.96
669.011	398.61
669.361	392.28
669.711	378.49
670.06	403.12
670.41	392.05
670.76	380.75
671.109	396.8
671.459	380.98
671.808	381.2
672.157	394.76
672.507	393.86
672.856	361.09
673.205	380.75
673.554	376.69
673.904	377.59
674.253	376.91
674.602	394.99
674.951	370.81
675.3	387.76
675.649	398.38
675.998	378.04
676.346	387.53
676.695	375.1
677.044	362.9
677.393	371.04
677.741	360.19
678.09	361.32
678.438	371.04
678.787	380.07
679.135	378.04
679.484	375.56
679.832	354.54
680.181	361.32
680.529	361.77
680.877	362.45
681.225	371.04
681.573	365.84
681.922	365.84
682.27	369
682.618	369.68
682.966	364.26
683.314	358.15
683.661	379.62
684.009	374.43
684.357	364.03
684.705	363.13
685.053	361.32
685.4	343.01
685.748	355.89
686.095	389.57
686.443	356.12
686.79	364.71
687.138	362.9
687.485	360.41
687.832	362
688.18	357.7
688.527	339.17
688.874	368.1
689.221	338.49
689.568	346.86
689.915	353.63
690.262	355.89
690.609	348.66
690.956	346.63
691.303	333.97
691.65	334.65
691.997	336.23
692.344	351.37
692.69	348.89
693.037	332.84
693.383	341.66
693.73	361.77
694.077	345.73
694.423	362.22
694.769	343.47
695.116	345.95
695.462	366.97
695.808	369.45
696.155	342.11
696.501	345.95
696.847	351.37
697.193	333.07
697.539	339.85
697.885	349.57
698.231	347.08
698.577	369
698.923	356.8
699.269	319.96
699.614	352.5
699.96	345.95
700.306	333.3
700.651	331.94
700.997	344.14
701.342	350.47
701.688	341.43
702.033	344.6
702.379	372.62
702.724	324.71
703.069	346.86
703.415	347.31
703.76	342.34
704.105	341.88
704.45	347.99
704.795	359.74
705.14	339.62
705.485	361.09
705.83	358.83
706.175	346.4
706.52	333.52
706.865	337.14
707.209	354.54
707.554	335.78
707.899	337.36
708.243	332.84
708.588	343.92
708.932	333.07
709.277	346.18
709.621	356.57
709.966	335.78
710.31	331.71
710.654	343.47
710.998	335.33
711.342	328.55
711.687	338.49
712.031	317.93
712.375	352.28
712.719	341.66
713.063	325.84
713.407	337.14
713.75	338.04
714.094	346.18
714.438	338.49
714.782	341.21
715.125	340.75
715.469	319.29
715.812	338.04
716.156	332.17
716.499	340.53
716.843	342.34
717.186	316.8
717.53	349.79
717.873	326.74
718.216	327.65
718.559	345.27
718.902	331.71
719.246	327.19
719.589	332.39
719.932	332.84
720.275	341.21
720.617	325.61
720.96	326.52
721.303	318.61
721.646	314.99
721.989	319.51
722.331	328.55
722.674	343.01
723.016	331.94
723.359	323.13
723.701	332.17
724.044	309.12
724.386	327.87
724.729	327.19
725.071	332.39
725.413	336.01
725.755	326.29
726.097	358.38
726.439	337.59
726.782	327.19
727.124	333.75
727.465	329.68
727.807	317.25
728.149	319.96
728.491	337.59
728.833	332.62
729.175	317.03
729.516	354.54
729.858	328.55
730.199	324.48
730.541	332.39
730.882	326.74
731.224	327.19
731.565	314.77
731.906	337.82
732.248	327.19
732.589	326.52
732.93	315.44
733.271	320.87
733.612	334.65
733.953	337.36
734.294	338.95
734.635	337.82
734.976	317.48
735.317	331.71
735.658	329.68
735.999	340.53
736.339	324.03
736.68	325.61
737.021	326.97
737.361	335.33
737.702	308.89
738.042	330.36
738.383	313.18
738.723	315.9
739.063	342.56
739.404	340.53
739.744	329.45
740.084	314.09
740.424	339.17
740.764	330.81
741.104	334.88
741.444	324.71
741.784	325.39
742.124	337.59
742.464	334.88
742.804	309.57
743.143	320.87
743.483	310.02
743.823	350.25
744.162	342.56
744.502	324.03
744.841	357.93
745.181	342.56
745.52	326.06
745.86	338.49
746.199	318.83
746.538	341.66
746.877	343.24
747.216	331.71
747.556	329.91
747.895	337.59
748.234	311.38
748.573	341.66
748.911	324.48
749.25	351.6
749.589	311.83
749.928	326.52
750.267	312.73
750.605	319.06
750.944	321.77
751.283	324.48
751.621	337.59
751.96	311.38
752.298	323.58
752.636	314.99
752.975	331.94
753.313	312.73
753.651	330.58
753.989	323.81
754.327	320.19
754.666	322
755.004	320.87
755.342	301.21
755.679	312.73
756.017	331.71
756.355	338.49
756.693	329
757.031	327.19
757.368	329.23
757.706	329
758.044	338.95
758.381	331.94
758.719	328.1
759.056	324.93
759.394	323.58
759.731	334.88
760.068	324.93
760.405	304.82
760.743	300.53
761.08	321.55
761.417	322.68
761.754	309.79
762.091	350.25
762.428	305.73
762.765	333.07
763.102	313.41
763.438	332.17
763.775	324.71
764.112	315.9
764.449	320.87
764.785	329.23
765.122	314.54
765.458	327.19
765.795	326.29
766.131	307.76
766.467	334.88
766.804	318.38
767.14	302.34
767.476	325.84
767.812	320.19
768.148	307.31
768.485	325.16
768.821	321.55
769.157	327.42
769.492	309.34
769.828	312.05
770.164	326.97
770.5	315.22
770.836	321.55
771.171	321.55
771.507	331.49
771.842	322.22
772.178	318.61
772.513	342.11
772.849	344.82
773.184	307.53
773.519	323.58
773.855	300.08
774.19	328.78
774.525	319.06
774.86	298.27
775.195	319.06
775.53	301.43
775.865	308.44
776.2	328.1
776.535	319.74
776.87	327.65
777.205	329.91
777.539	321.32
777.874	332.62
778.209	327.19
778.543	325.84
778.878	319.96
779.212	324.71
779.547	315.22
779.881	326.97
780.215	313.64
780.55	305.73
780.884	329.45
781.218	328.1
781.552	326.29
781.886	324.93
782.22	306.86
782.554	317.93
782.888	323.13
783.222	324.26
783.556	321.32
783.889	324.26
784.223	349.57
784.557	321.32
784.89	314.77
785.224	329.91
785.557	315.9
785.891	316.35
786.224	337.14
786.558	319.29
786.891	305.27
787.224	302.56
787.557	302.56
787.891	302.34
788.224	340.08
788.557	317.7
788.89	317.48
789.223	327.19
789.556	331.71
789.888	317.48
790.221	312.28
790.554	305.27
790.887	322.45
791.219	313.41
791.552	318.61
791.884	333.52
792.217	336.23
792.549	317.48
792.882	309.57
793.214	337.82
793.546	325.84
793.879	319.74
794.211	326.06
794.543	308.44
794.875	320.42
795.207	332.84
795.539	314.09
795.871	324.26
796.203	323.81
796.535	322.9
796.867	320.87
797.198	326.29
797.53	320.42
797.862	301.66
798.193	316.8
798.525	322.9
798.856	317.93
799.188	329.68
799.519	318.38
799.85	311.15
800.182	320.42
800.513	303.47
800.844	338.72
801.175	336.01
801.506	303.24
801.837	324.71
802.168	331.94
802.499	307.76
802.83	315.22
803.161	299.4
803.491	311.38
803.822	307.08
804.153	321.55
804.483	288.55
804.814	322
805.145	312.05
805.475	317.25
805.805	302.56
806.136	326.29
806.466	327.87
806.796	341.21
807.126	329
807.457	323.81
807.787	338.49
808.117	333.07
808.447	311.6
808.777	296.69
809.107	317.25
809.436	332.62
809.766	311.83
810.096	331.71
810.426	303.69
810.755	314.54
811.085	317.7
811.414	319.96
811.744	328.78
812.073	312.73
812.403	328.1
812.732	323.81
813.061	318.61
813.39	330.58
813.719	309.79
814.049	299.85
814.378	314.54
814.707	327.65
815.036	300.53
815.365	310.02
815.693	308.21
816.022	332.39
816.351	336.23
816.68	326.06
817.008	325.16
817.337	307.76
817.665	310.02
817.994	315.9
818.322	313.64
818.651	327.65
818.979	325.61
819.307	321.77
819.636	316.8
819.964	313.64
820.292	310.47
820.62	323.35
820.948	331.71
821.276	323.35
821.604	320.64
821.932	308.44
822.259	314.31
822.587	314.54
822.915	300.08
823.243	327.42
823.57	331.71
823.898	314.77
824.225	326.29
824.553	315.9
824.88	296.69
825.207	332.84
825.535	298.72
825.862	336.69
826.189	312.96
826.516	297.37
826.843	306.86
827.17	333.3
827.497	314.09
827.824	320.64
828.151	315.44
828.478	328.32
828.805	301.88
829.131	336.01
829.458	300.53
829.785	331.04
830.111	329.68
830.438	316.35
830.764	312.28
831.09	307.53
831.417	302.56
831.743	330.81
832.069	323.58
832.395	326.52
832.722	336.69
833.048	318.38
833.374	315.9
833.7	296.46
834.026	329
834.351	326.29
834.677	320.87
835.003	326.97
835.329	326.06
835.654	318.38
835.98	303.01
836.306	313.41
836.631	323.81
836.956	320.64
837.282	313.64
837.607	323.58
837.932	318.38
838.258	314.54
838.583	317.93
838.908	324.93
839.233	316.12
839.558	317.7
839.883	322.68
840.208	308.89
840.533	311.6
840.858	303.69
841.182	324.71
841.507	314.54
841.832	327.65
842.156	311.15
842.481	343.24
842.805	309.34
843.13	326.29
843.454	321.32
843.778	319.06
844.103	306.4
844.427	304.82
844.751	308.89
845.075	301.43
845.399	312.73
845.723	289
846.047	304.37
846.371	338.72
846.695	303.92
847.019	327.19
847.343	327.19
847.666	313.86
847.99	307.76
848.313	306.4
848.637	306.63
848.96	314.54
849.284	299.17
849.607	318.83
849.931	324.71
850.254	320.64
850.577	325.16
850.9	309.34
851.223	307.76
851.546	318.83
851.869	333.3
852.192	318.61
852.515	313.41
852.838	315.9
853.161	323.81
853.483	322.45
853.806	298.72
854.129	305.73
854.451	315.67
854.774	282.45
855.096	316.35
855.419	293.75
855.741	351.15
856.063	313.18
856.385	311.38
856.708	324.48
857.03	320.64
857.352	308.89
857.674	295.11
857.996	327.65
858.318	310.25
858.64	317.25
858.961	314.99
859.283	299.17
859.605	311.83
859.926	313.41
860.248	300.3
860.57	292.85
860.891	323.13
861.212	313.64
861.534	309.12
861.855	332.62
862.176	322
862.498	322.9
862.819	314.54
863.14	324.48
863.461	296.91
863.782	326.74
864.103	309.79
864.424	329.68
864.745	305.05
865.065	320.19
865.386	309.12
865.707	312.28
866.027	328.55
866.348	326.52
866.668	310.02
866.989	309.79
867.309	314.31
867.63	325.84
867.95	339.17
868.27	326.52
868.59	313.64
868.91	329.45
869.23	322.9
869.55	329.68
869.87	325.39
870.19	316.12
870.51	288.55
870.83	313.64
871.15	305.27
871.469	298.95
871.789	312.73
872.109	304.6
872.428	320.19
872.748	292.39
873.067	315.67
873.386	323.81
873.706	314.09
874.025	303.01
874.344	324.03
874.663	325.84
874.982	311.83
875.301	325.84
875.62	318.61
875.939	322.45
876.258	305.5
876.577	313.86
876.896	314.09
877.214	303.69
877.533	315.44
877.852	298.72
878.17	320.42
878.489	325.39
878.807	314.99
879.125	331.94
879.444	300.98
879.762	302.34
880.08	301.66
880.398	307.31
880.716	317.25
881.034	305.05
881.352	307.99
881.67	321.77
881.988	308.44
882.306	298.72
882.624	308.21
882.941	299.85
883.259	314.99
883.577	335.1
883.894	322.9
884.212	319.96
884.529	323.81
884.846	309.12
885.164	315.9
885.481	312.28
885.798	306.4
886.115	322.45
886.432	305.95
886.75	326.29
887.067	323.13
887.383	331.26
887.7	329.45
888.017	307.08
888.334	312.05
888.651	309.12
888.967	316.12
889.284	317.93
889.6	314.09
889.917	305.5
890.233	325.39
890.55	293.98
890.866	302.79
891.182	313.18
891.498	314.54
891.815	328.78
892.131	296.91
892.447	309.34
892.763	333.52
893.079	329.68
893.395	333.52
893.71	329
894.026	316.12
894.342	313.64
894.657	320.87
894.973	323.35
895.289	299.4
895.604	314.54
895.92	301.43
896.235	326.29
896.55	332.62
896.865	312.51
897.181	305.27
897.496	299.4
897.811	314.09
898.126	317.25
898.441	301.66
898.756	312.05
899.071	300.53
899.386	295.33
899.7	308.44
900.015	326.06
900.33	309.34
900.644	314.54
900.959	321.32
901.273	304.14
901.588	304.6
901.902	303.69
902.216	289.91
902.531	303.69
902.845	320.64
903.159	293.98
903.473	311.38
903.787	316.57
904.101	322
904.415	303.92
904.729	296.24
905.042	312.96
905.356	310.47
905.67	292.17
905.984	318.16
906.297	314.09
906.611	306.86
906.924	302.11
907.237	319.06
907.551	330.13
907.864	317.03
908.177	325.61
908.491	310.92
908.804	309.57
909.117	309.34
909.43	310.47
909.743	303.01
910.056	317.25
910.368	315.9
910.681	317.7
910.994	301.43
911.307	330.13
911.619	304.6
911.932	312.28
912.244	312.96
912.557	329.45
912.869	300.75
913.181	306.86
913.494	301.21
913.806	330.13
914.118	314.54
914.43	304.37
914.742	311.83
915.054	312.05
915.366	305.73
915.678	317.48
915.99	310.92
916.302	301.88
916.613	316.57
916.925	316.12
917.236	295.56
917.548	286.74
917.859	325.84
918.171	313.41
918.482	325.84
918.794	312.73
919.105	311.83
919.416	318.61
919.727	293.98
920.038	315.67
920.349	290.81
920.66	298.72
920.971	317.7
921.282	318.61
921.593	305.73
921.903	313.86
922.214	319.96
922.525	314.77
922.835	290.36
923.146	317.93
923.456	293.75
923.767	309.34
924.077	317.7
924.387	319.96
924.697	296.69
925.008	320.64
925.318	302.56
925.628	310.47
925.938	313.86
926.248	305.05
926.558	299.4
926.867	315.22
927.177	311.6
927.487	323.35
927.796	303.47
928.106	293.07
928.416	316.12
928.725	319.29
929.034	299.62
929.344	303.24
929.653	305.5
929.962	299.85
930.271	319.74
930.581	290.13
930.89	300.3
931.199	311.83
931.508	331.26
931.817	323.81
932.125	323.35
932.434	311.15
932.743	325.39
933.051	322.45
933.36	325.61
933.669	304.6
933.977	317.48
934.286	311.83
934.594	319.06
934.902	308.66
935.21	324.03
935.519	308.21
935.827	316.12
936.135	295.78
936.443	303.01
936.751	329.68
937.059	308.44
937.367	306.86
937.674	296.91
937.982	317.03
938.29	313.18
938.597	287.42
938.905	305.27
939.213	329.23
939.52	316.12
939.827	320.42
940.135	314.09
940.442	318.16
940.749	311.83
941.056	305.73
941.363	311.83
941.67	301.21
941.977	318.16
942.284	319.06
942.591	299.4
942.898	299.85
943.205	320.19
943.511	302.79
943.818	293.3
944.125	303.47
944.431	323.35
944.738	303.24
945.044	324.03
945.35	320.42
945.657	322.68
945.963	324.26
946.269	322
946.575	299.4
946.881	320.64
947.187	318.38
947.493	329.45
947.799	327.42
948.105	317.25
948.41	321.09
948.716	287.2
949.022	307.76
949.327	303.69
949.633	314.31
949.938	297.14
950.244	279.96
950.549	295.33
950.854	308.21
951.16	311.15
951.465	314.54
951.77	305.27
952.075	316.57
952.38	324.48
952.685	303.47
952.99	313.41
953.294	294.88
953.599	307.31
953.904	314.09
954.209	318.83
954.513	323.58
954.818	331.94
955.122	303.92
955.426	329
955.731	322.68
956.035	320.64
956.339	308.66
956.643	298.49
956.948	308.44
957.252	310.02
957.556	310.25
957.86	290.13
958.163	297.14
958.467	322
958.771	323.58
959.075	305.05
959.378	319.96
959.682	315.9
959.985	297.14
960.289	314.77
960.592	290.81
960.896	306.4
961.199	291.04
961.502	299.4
961.805	312.28
962.108	305.5
962.411	322.45
962.714	321.32
963.017	296.46
963.32	308.89
963.623	319.96
963.926	311.38
964.228	310.92
964.531	309.79
964.833	311.15
965.136	308.21
965.438	313.18
965.741	317.03
966.043	304.37
966.345	335.33
966.648	317.48
966.95	312.05
967.252	315.67
967.554	305.73
967.856	312.51
968.158	310.02
968.46	321.77
968.761	288.78
969.063	313.64
969.365	308.66
969.666	293.3
969.968	309.12
970.269	319.06
970.571	327.19
970.872	314.31
971.174	322.45
971.475	294.43
971.776	294.2
972.077	305.73
972.378	302.79
972.679	303.01
972.98	319.06
973.281	317.25
973.582	317.25
973.883	307.99
974.183	314.54
974.484	304.14
974.785	284.48
975.085	309.34
975.386	309.79
975.686	308.66
975.986	305.05
976.287	324.48
976.587	316.35
976.887	299.17
977.187	304.14
977.487	294.43
977.787	310.7
978.087	313.86
978.387	298.95
978.687	304.6
978.987	311.6
979.286	309.34
979.586	307.08
979.885	311.83
980.185	294.88
980.484	305.27
980.784	310.02
981.083	331.26
981.382	311.38
981.682	314.77
981.981	317.03
982.28	307.99
982.579	291.72
982.878	299.4
983.177	322.68
983.475	310.02
983.774	286.07
984.073	305.27
984.372	308.89
984.67	301.21
984.969	308.66
985.267	326.52
985.566	315.9
985.864	318.16
986.162	307.53
986.461	306.63
986.759	323.13
987.057	318.16
987.355	301.88
987.653	317.48
987.951	285.39
988.249	311.6
988.547	311.15
988.844	311.6
989.142	306.86
989.44	309.57
989.737	327.87
990.035	321.55
990.332	301.21
990.63	319.29
990.927	300.3
991.224	297.14
991.521	315.67
991.819	310.02
992.116	321.09
992.413	303.24
992.71	316.35
993.006	308.44
993.303	274.77
993.6	312.96
993.897	303.47
994.193	304.82
994.49	311.15
994.787	304.82
995.083	310.02
995.379	308.21
995.676	283.58
995.972	312.05
996.268	308.66
996.565	307.99
996.861	310.25
997.157	317.7
997.453	314.99
997.749	314.09
998.044	301.43
998.34	307.99
998.636	306.86
998.932	317.03
999.227	314.99
999.523	298.27
999.818	333.07
1000.114	304.37
1000.409	304.14
1000.704	317.93
1001	303.24
1001.295	292.85
1001.59	312.05
1001.885	327.87
1002.18	306.4
1002.475	286.29
1002.77	300.08
1003.065	298.72
1003.359	310.47
1003.654	314.99
1003.949	312.96
1004.243	308.44
1004.538	305.05
1004.832	312.51
1005.127	296.46
1005.421	331.94
1005.715	308.89
1006.009	294.65
1006.304	321.55
1006.598	296.24
1006.892	297.82
1007.186	326.97
1007.48	332.39
1007.773	320.87
1008.067	312.73
1008.361	313.41
1008.655	324.03
1008.948	298.72
1009.242	306.63
1009.535	305.05
1009.829	291.72
1010.122	308.21
1010.415	295.78
1010.708	290.36
1011.001	306.86
1011.295	296.91
1011.588	305.73
1011.881	308.89
1012.173	298.27
1012.466	308.66
1012.759	297.82
1013.052	327.19
1013.344	335.78
1013.637	285.16
1013.93	311.83
1014.222	311.38
1014.514	294.88
1014.807	293.75
1015.099	315.44
1015.391	295.56
1015.683	302.34
1015.976	299.17
1016.268	314.31
1016.56	303.01
1016.851	322.9
1017.143	290.13
1017.435	305.5
1017.727	312.51
1018.018	305.05
1018.31	326.97
1018.602	289.68
1018.893	306.18
1019.185	317.48
1019.476	319.06
1019.767	311.83
1020.058	310.92
1020.35	324.03
1020.641	301.43
1020.932	319.29
1021.223	324.48
1021.514	322.68
1021.804	305.27
1022.095	287.87
1022.386	289.23
1022.677	307.53
1022.967	300.3
1023.258	322.45
1023.548	314.77
1023.839	307.99
1024.129	299.62
1024.419	308.66
1024.709	310.25
1025	316.12
1025.29	307.08
1025.58	311.83
1025.87	319.06
1026.16	322
1026.449	311.6
1026.739	320.87
1027.029	300.08
1027.319	303.47
1027.608	311.83
1027.898	318.16
1028.187	332.62
1028.477	298.27
1028.766	327.19
1029.055	312.73
1029.344	299.85
1029.634	274.99
1029.923	310.92
1030.212	299.62
1030.501	317.93
1030.79	310.7
1031.078	322.22
1031.367	307.53
1031.656	307.53
1031.945	304.82
1032.233	297.14
1032.522	314.54
1032.81	322
1033.099	307.76
1033.387	327.87
1033.675	308.66
1033.963	297.37
1034.251	298.72
1034.54	315.22
1034.828	296.46
1035.116	286.07
1035.403	307.76
1035.691	310.7
1035.979	303.92
1036.267	299.62
1036.554	309.34
1036.842	296.46
1037.129	298.95
1037.417	329.91
1037.704	305.5
1037.992	318.61
1038.279	309.34
1038.566	310.92
1038.853	310.92
1039.14	310.92
