Data from No_light_on_white_reflection_standard_FLMS001491_012.txt Node
Date: Tue Feb 07 10:32:54 GMT 2017
User: dcchb
Spectrometer: FLMS00149
Trigger mode: 0
Integration Time (sec): 2.000000E-2
Scans to average: 10
Electric dark correction enabled: true
Nonlinearity correction enabled: false
Boxcar width: 0
XAxis mode: Wavelengths
Number of Pixels in Spectrum: 2048
>>>>>Begin Spectral Data<<<<<
341.393	-21.54
341.776	-21.54
342.16	-21.54
342.543	-73.52
342.927	-81.2
343.31	-81.42
343.693	-68.32
344.077	-63.57
344.46	-61.54
344.843	-47.98
345.226	-39.17
345.61	-22.67
345.993	-22.22
346.376	-10.92
346.759	8.74
347.142	39.93
347.525	32.7
347.908	65.69
348.291	76.31
348.674	77.67
349.057	116.76
349.44	110.89
349.823	153.37
350.206	166.03
350.588	163.31
350.971	182.98
351.354	203.77
351.737	207.16
352.119	232.92
352.502	229.08
352.884	235.4
353.267	243.09
353.65	258.45
354.032	270.66
354.414	272.92
354.797	283.99
355.179	271.33
355.562	283.09
355.944	283.99
356.326	286.93
356.709	305.23
357.091	301.62
357.473	315.85
357.855	300.71
358.238	319.24
358.62	295.51
359.002	300.49
359.384	293.93
359.766	316.08
360.148	281.05
360.53	293.48
360.912	292.35
361.294	309.75
361.676	298.45
362.057	287.38
362.439	295.97
362.821	281.96
363.203	286.7
363.584	296.64
363.966	290.77
364.348	282.41
364.729	295.29
365.111	286.02
365.493	301.84
365.874	278.34
366.256	281.5
366.637	262.07
367.019	269.75
367.4	255.52
367.781	274.27
368.163	280.83
368.544	266.59
368.925	269.75
369.306	288.06
369.688	266.36
370.069	267.94
370.45	275.63
370.831	265.46
371.212	286.25
371.593	249.19
371.974	269.07
372.355	261.39
372.736	268.62
373.117	289.19
373.498	282.18
373.879	255.29
374.26	280.83
374.641	288.28
375.021	275.18
375.402	248.51
375.783	276.31
376.163	267.04
376.544	294.84
376.925	280.37
377.305	277.89
377.686	286.93
378.066	289.87
378.447	276.08
378.827	298.9
379.208	281.96
379.588	284.89
379.968	271.79
380.349	302.29
380.729	265.23
381.109	269.75
381.489	269.53
381.87	281.5
382.25	267.72
382.63	276.76
383.01	272.69
383.39	268.85
383.77	288.51
384.15	296.19
384.53	276.53
384.91	303.42
385.29	255.74
385.67	270.66
386.049	276.31
386.429	300.03
386.809	295.06
387.189	273.14
387.568	283.99
387.948	283.54
388.328	293.71
388.707	288.28
389.087	297.55
389.466	273.14
389.846	281.73
390.225	292.8
390.605	298.45
390.984	292.8
391.363	294.38
391.743	276.76
392.122	288.28
392.501	271.56
392.881	294.16
393.26	304.55
393.639	285.35
394.018	293.71
394.397	291
394.776	300.94
395.155	284.22
395.534	291.9
395.913	293.03
396.292	275.4
396.671	293.03
397.05	296.64
397.429	313.14
397.808	295.29
398.186	303.42
398.565	291.67
398.944	287.83
399.323	290.77
399.701	289.87
400.08	310.43
400.458	302.75
400.837	293.48
401.215	294.84
401.594	304.55
401.972	279.02
402.351	290.09
402.729	283.31
403.107	278.57
403.486	291.45
403.864	300.94
404.242	292.58
404.62	296.19
404.999	303.88
405.377	291.9
405.755	304.33
406.133	299.58
406.511	295.51
406.889	294.38
407.267	298.45
407.645	293.26
408.023	308.17
408.401	305.01
408.779	308.4
409.156	296.42
409.534	307.04
409.912	297.32
410.29	293.26
410.667	304.33
411.045	291.45
411.422	322.18
411.8	300.94
412.178	303.2
412.555	289.64
412.933	284.44
413.31	287.15
413.687	289.87
414.065	300.03
414.442	310.2
414.819	286.02
415.197	296.42
415.574	307.49
415.951	296.87
416.328	293.93
416.705	298
417.082	291.22
417.46	291
417.837	307.49
418.214	301.16
418.591	309.07
418.967	317.21
419.344	304.55
419.721	301.39
420.098	314.72
420.475	303.2
420.852	298.23
421.228	283.54
421.605	307.49
421.982	290.32
422.358	318.34
422.735	295.97
423.111	316.98
423.488	320.37
423.864	318.11
424.241	314.05
424.617	301.16
424.994	314.5
425.37	318.79
425.746	321.95
426.123	300.94
426.499	284.22
426.875	315.85
427.251	302.07
427.627	304.33
428.003	323.99
428.379	319.24
428.756	306.81
429.132	312.69
429.507	316.76
429.883	313.82
430.259	319.69
430.635	306.81
431.011	300.71
431.387	322.63
431.763	328.73
432.138	309.53
432.514	312.01
432.89	309.3
433.265	295.97
433.641	322.86
434.016	323.54
434.392	326.25
434.767	314.27
435.143	326.47
435.518	303.88
435.894	322.41
436.269	337.1
436.644	317.66
437.02	319.69
437.395	312.69
437.77	343.2
438.145	319.24
438.52	311.11
438.895	341.62
439.271	295.51
439.646	326.02
440.021	345.01
440.395	330.99
440.77	340.49
441.145	322.18
441.52	328.51
441.895	340.26
442.27	335.51
442.645	338
443.019	323.08
443.394	338.68
443.769	326.47
444.143	324.44
444.518	346.36
444.892	329.64
445.267	339.36
445.641	338.45
446.016	371.67
446.39	342.07
446.764	364.44
447.139	371.67
447.513	326.02
447.887	349.3
448.262	347.72
448.636	342.29
449.01	367.83
449.384	366.25
449.758	374.83
450.132	373.93
450.506	361.73
450.88	378.22
451.254	385
451.628	364.21
452.002	344.1
452.376	376.42
452.75	354.27
453.123	355.63
453.497	355.17
453.871	363.99
454.244	370.99
454.618	349.75
454.992	356.3
455.365	381.39
455.739	363.08
456.112	359.02
456.486	356.53
456.859	351.11
457.232	364.21
457.606	351.11
457.979	361.5
458.352	345.91
458.725	354.72
459.099	352.24
459.472	355.4
459.845	330.99
460.218	371.22
460.591	345.68
460.964	328.96
461.337	362.63
461.71	370.99
462.083	357.21
462.456	368.73
462.829	352.46
463.201	353.37
463.574	366.47
463.947	349.98
464.32	355.17
464.692	348.39
465.065	347.26
465.438	326.93
465.81	365.12
466.183	356.98
466.555	352.69
466.928	352.91
467.3	351.78
467.672	356.08
468.045	359.92
468.417	343.88
468.789	348.62
469.161	351.33
469.534	371.9
469.906	346.13
470.278	373.93
470.65	353.59
471.022	344.33
471.394	345.46
471.766	368.28
472.138	334.16
472.51	356.53
472.882	371.9
473.253	339.36
473.625	331.9
473.997	338.45
474.369	372.12
474.74	336.64
475.112	353.82
475.484	345.46
475.855	345.46
476.227	360.82
476.598	348.62
476.97	347.72
477.341	346.13
477.713	355.17
478.084	348.17
478.455	337.1
478.827	366.25
479.198	354.27
479.569	348.39
479.94	355.4
480.311	357.21
480.682	363.08
481.053	340.26
481.424	354.95
481.795	339.58
482.166	355.63
482.537	376.19
482.908	366.7
483.279	348.85
483.65	354.72
484.021	335.97
484.391	349.07
484.762	380.03
485.133	361.05
485.503	355.4
485.874	367.6
486.244	354.27
486.615	354.27
486.985	355.4
487.356	358.56
487.726	367.83
488.097	350.65
488.467	354.5
488.837	362.63
489.207	361.73
489.578	361.05
489.948	369.19
490.318	366.02
490.688	365.57
491.058	379.13
491.428	369.64
491.798	379.81
492.168	361.95
492.538	375.29
492.908	394.5
493.278	371.67
493.648	392.24
494.017	381.16
494.387	384.55
494.757	358.11
495.126	362.86
495.496	382.07
495.866	375.51
496.235	394.27
496.605	380.48
496.974	389.3
497.344	396.53
497.713	400.14
498.082	392.91
498.452	401.95
498.821	387.26
499.19	384.55
499.559	382.74
499.928	405.57
500.298	399.01
500.667	391.56
501.036	404.21
501.405	401.05
501.774	397.43
502.143	392.01
502.512	395.17
502.88	418.68
503.249	413.7
503.618	399.24
503.987	410.54
504.356	420.48
504.724	414.61
505.093	403.76
505.462	392.24
505.83	413.7
506.199	408.96
506.567	388.62
506.936	393.82
507.304	410.99
507.672	425.91
508.041	430.43
508.409	409.41
508.777	420.03
509.145	436.53
509.514	425.45
509.882	406.7
510.25	451.89
510.618	418.9
510.986	434.72
511.354	429.75
511.722	411.67
512.09	445.57
512.458	431.56
512.826	442.4
513.193	419.81
513.561	427.26
513.929	450.99
514.297	434.49
514.664	452.35
515.032	469.52
515.4	448.05
515.767	448.96
516.135	434.72
516.502	453.48
516.869	446.47
517.237	444.44
517.604	453.48
517.972	446.7
518.339	431.1
518.706	447.6
519.073	468.62
519.44	463.19
519.808	440.14
520.175	442.4
520.542	441.5
520.909	456.87
521.276	443.76
521.643	449.41
522.009	451.44
522.376	468.84
522.743	461.16
523.11	474.95
523.477	468.17
523.843	465.68
524.21	458.67
524.577	484.89
524.943	470.2
525.31	463.42
525.676	455.96
526.043	461.61
526.409	454.38
526.776	493.48
527.142	446.7
527.508	479.01
527.874	470.65
528.241	480.82
528.607	504.32
528.973	471.33
529.339	485.79
529.705	479.69
530.071	478.56
530.437	490.99
530.803	485.34
531.169	487.15
531.535	504.55
531.901	505.23
532.267	487.6
532.632	509.29
532.998	489.41
533.364	494.61
533.73	486.7
534.095	487.6
534.461	499.35
534.826	516.07
535.192	517.43
535.557	478.79
535.923	494.61
536.288	490.99
536.653	498
537.019	512.23
537.384	496.64
537.749	488.73
538.114	504.32
538.479	513.14
538.845	497.77
539.21	504.32
539.575	491.67
539.94	503.42
540.305	483.53
540.67	492.8
541.034	474.95
541.399	518.11
541.764	510.65
542.129	512.46
542.494	500.48
542.858	515.62
543.223	516.98
543.587	509.97
543.952	506.36
544.316	523.53
544.681	519.01
545.045	505.23
545.41	502.74
545.774	514.49
546.138	510.88
546.503	523.08
546.867	506.13
547.231	508.39
547.595	511.33
547.959	497.77
548.324	523.76
548.688	510.42
549.052	520.14
549.416	507.26
549.779	505.9
550.143	497.54
550.507	527.37
550.871	518.33
551.235	512.91
551.599	542.74
551.962	516.75
552.326	526.24
552.689	526.02
553.053	519.01
553.417	526.02
553.78	533.7
554.143	523.53
554.507	517.88
554.87	515.85
555.234	520.37
555.597	525.11
555.96	525.79
556.323	515.62
556.686	519.69
557.05	573.7
557.413	557.43
557.776	524.21
558.139	555.85
558.502	543.87
558.865	529.41
559.228	514.72
559.59	521.95
559.953	533.47
560.316	538.9
560.679	563.08
561.041	539.12
561.404	537.54
561.767	558.11
562.129	545.9
562.492	549.07
562.854	543.87
563.217	567.15
563.579	558.11
563.941	535.51
564.304	535.73
564.666	544.1
565.028	553.59
565.39	572.8
565.753	539.12
566.115	552.01
566.477	567.15
566.839	563.76
567.201	577.99
567.563	566.47
567.925	564.89
568.287	564.66
568.648	564.89
569.01	566.92
569.372	581.61
569.734	551.33
570.095	584.77
570.457	568.73
570.819	553.81
571.18	559.91
571.542	570.31
571.903	570.08
572.265	573.25
572.626	559.01
572.987	555.85
573.349	573.02
573.71	580.25
574.071	566.02
574.432	563.76
574.794	576.86
575.155	568.28
575.516	573.25
575.877	596.75
576.238	559.69
576.599	566.02
576.96	566.47
577.32	579.12
577.681	585.22
578.042	573.7
578.403	581.38
578.763	593.59
579.124	587.03
579.485	603.08
579.845	597.88
580.206	588.61
580.566	577.54
580.927	570.54
581.287	573.25
581.648	568.95
582.008	564.66
582.368	600.82
582.728	580.48
583.089	606.47
583.449	570.76
583.809	565.34
584.169	558.11
584.529	581.16
584.889	600.59
585.249	581.16
585.609	593.59
585.969	585.68
586.329	565.79
586.688	589.07
587.048	569.18
587.408	565.79
587.768	598.11
588.127	592.23
588.487	591.33
588.846	580.48
589.206	555.85
589.565	569.86
589.925	552.68
590.284	589.29
590.643	566.92
591.003	567.37
591.362	565.56
591.721	569.63
592.08	590.2
592.44	572.12
592.799	574.38
593.158	580.25
593.517	565.56
593.876	578.9
594.235	581.61
594.593	584.77
594.952	563.76
595.311	558.56
595.67	571.67
596.029	580.25
596.387	557.43
596.746	566.24
597.104	558.78
597.463	542.97
597.822	536.19
598.18	570.31
598.538	564.21
598.897	548.39
599.255	547.03
599.613	568.5
599.972	550.2
600.33	540.25
600.688	540.71
601.046	550.42
601.404	571.89
601.762	564.43
602.12	561.72
602.478	547.94
602.836	557.43
603.194	558.56
603.552	543.19
603.91	566.02
604.268	575.96
604.625	566.24
604.983	566.02
605.341	561.72
605.698	564.66
606.056	574.15
606.413	558.56
606.771	555.4
607.128	553.81
607.485	550.65
607.843	553.14
608.2	552.68
608.557	545.23
608.914	552.46
609.272	554.49
609.629	528.5
609.986	535.96
610.343	553.14
610.7	553.81
611.057	550.42
611.414	541.16
611.771	554.49
612.127	541.16
612.484	545.9
612.841	573.47
613.198	551.55
613.554	526.24
613.911	534.15
614.267	542.74
614.624	532.57
614.98	531.89
615.337	538.45
615.693	539.12
616.05	546.58
616.406	549.97
616.762	536.19
617.118	531.89
617.475	515.17
617.831	527.6
618.187	535.96
618.543	568.95
618.899	535.96
619.255	544.32
619.611	525.79
619.967	528.05
620.323	537.09
620.678	522.4
621.034	498.9
621.39	516.3
621.746	531.44
622.101	499.13
622.457	506.13
622.812	540.48
623.168	521.72
623.523	509.52
623.879	515.4
624.234	495.96
624.589	486.92
624.945	501.39
625.3	490.76
625.655	516.98
626.01	505.23
626.365	509.75
626.72	511.78
627.075	515.4
627.43	512.68
627.785	511.33
628.14	503.42
628.495	501.39
628.85	497.32
629.205	479.92
629.559	499.35
629.914	488.28
630.269	487.83
630.623	480.82
630.978	495.28
631.332	501.84
631.687	484.21
632.041	499.8
632.396	506.58
632.75	498
633.104	496.41
633.459	465.68
633.813	492.35
634.167	473.14
634.521	474.27
634.875	486.92
635.229	469.75
635.583	454.15
635.937	486.02
636.291	480.37
636.645	490.76
636.999	486.24
637.352	459.35
637.706	457.77
638.06	477.88
638.413	467.26
638.767	466.13
639.121	466.36
639.474	460.26
639.828	466.81
640.181	467.49
640.534	458.9
640.888	467.94
641.241	458
641.594	458
641.947	455.74
642.301	469.52
642.654	457.32
643.007	456.64
643.36	459.8
643.713	462.74
644.066	457.09
644.419	465.91
644.771	447.6
645.124	416.87
645.477	432.01
645.83	441.27
646.182	453.48
646.535	442.18
646.888	427.26
647.24	425
647.593	420.48
647.945	444.44
648.298	432.91
648.65	435.85
649.002	420.71
649.355	438.79
649.707	412.12
650.059	425.91
650.411	443.99
650.763	444.21
651.115	435.4
651.467	418
651.819	423.87
652.171	444.89
652.523	437.66
652.875	408.96
653.227	415.29
653.578	429.75
653.93	412.57
654.282	420.94
654.633	409.41
654.985	433.82
655.337	427.94
655.688	394.5
656.039	410.54
656.391	432.46
656.742	413.7
657.094	399.92
657.445	427.71
657.796	409.18
658.147	396.98
658.498	409.41
658.849	403.99
659.2	403.31
659.551	407.6
659.902	404.44
660.253	387.04
660.604	411.22
660.955	392.91
661.306	414.16
661.656	409.41
662.007	412.8
662.358	383.65
662.708	399.01
663.059	401.05
663.409	408.51
663.76	419.58
664.11	393.14
664.461	397.89
664.811	397.89
665.161	382.52
665.511	406.25
665.862	373.48
666.212	388.85
666.562	395.63
666.912	394.04
667.262	403.99
667.612	402.18
667.962	385
668.312	408.05
668.662	405.12
669.011	383.65
669.361	385
669.711	404.44
670.06	399.24
670.41	397.66
670.76	370.09
671.109	386.81
671.459	371.22
671.808	360.82
672.157	372.57
672.507	393.59
672.856	382.07
673.205	378.45
673.554	395.4
673.904	368.28
674.253	374.83
674.602	359.02
674.951	382.52
675.3	388.39
675.649	368.73
675.998	382.29
676.346	382.07
676.695	399.92
677.044	407.15
677.393	373.93
677.741	396.53
678.09	408.05
678.438	376.42
678.787	396.53
679.135	367.15
679.484	378
679.832	375.74
680.181	377.55
680.529	376.42
680.877	361.5
681.225	357.89
681.573	382.97
681.922	361.95
682.27	352.24
682.618	382.07
682.966	366.47
683.314	345.01
683.661	359.92
684.009	352.91
684.357	357.43
684.705	370.54
685.053	370.99
685.4	373.48
685.748	374.16
686.095	363.08
686.443	377.32
686.79	373.93
687.138	366.25
687.485	355.63
687.832	389.07
688.18	342.29
688.527	363.99
688.874	356.3
689.221	372.12
689.568	366.47
689.915	363.08
690.262	356.53
690.609	345.68
690.956	381.84
691.303	353.82
691.65	364.21
691.997	361.28
692.344	348.62
692.69	342.07
693.037	362.18
693.383	356.98
693.73	366.7
694.077	357.66
694.423	346.36
694.769	345.23
695.116	359.69
695.462	351.33
695.808	366.93
696.155	350.88
696.501	347.72
696.847	354.72
697.193	349.07
697.539	357.89
697.885	380.26
698.231	360.15
698.577	365.34
698.923	366.47
699.269	365.57
699.614	376.19
699.96	345.91
700.306	352.91
700.651	355.17
700.997	372.12
701.342	324.67
701.688	359.24
702.033	335.97
702.379	346.81
702.724	357.66
703.069	374.61
703.415	330.77
703.76	326.93
704.105	339.36
704.45	349.3
704.795	370.09
705.14	335.06
705.485	367.6
705.83	341.84
706.175	357.66
706.52	340.94
706.865	332.58
707.209	338
707.554	334.16
707.899	340.26
708.243	336.42
708.588	357.89
708.932	345.46
709.277	326.25
709.621	334.38
709.966	354.27
710.31	338.23
710.654	340.49
710.998	336.87
711.342	343.42
711.687	324.89
712.031	340.71
712.375	350.88
712.719	331.45
713.063	352.24
713.407	330.54
713.75	361.95
714.094	346.13
714.438	363.08
714.782	356.76
715.125	341.62
715.469	342.97
715.812	323.31
716.156	335.97
716.499	346.81
716.843	328.28
717.186	336.19
717.53	335.97
717.873	312.01
718.216	340.49
718.559	328.28
718.902	351.78
719.246	343.65
719.589	331.9
719.932	338.68
720.275	344.55
720.617	329.64
720.96	311.33
721.303	331.9
721.646	348.62
721.989	323.99
722.331	348.17
722.674	341.16
723.016	321.95
723.359	325.34
723.701	304.78
724.044	336.87
724.386	308.17
724.729	326.47
725.071	342.52
725.413	305.91
725.755	330.54
726.097	322.63
726.439	325.8
726.782	338.9
727.124	344.78
727.465	309.07
727.807	323.99
728.149	323.99
728.491	326.02
728.833	340.26
729.175	363.76
729.516	352.01
729.858	336.64
730.199	344.1
730.541	320.15
730.882	343.65
731.224	326.02
731.565	332.58
731.906	317.21
732.248	344.78
732.589	325.12
732.93	332.12
733.271	345.68
733.612	323.99
733.953	319.92
734.294	344.1
734.635	343.42
734.976	334.84
735.317	324.44
735.658	332.12
735.999	325.12
736.339	312.69
736.68	334.38
737.021	342.75
737.361	320.37
737.702	337.32
738.042	339.13
738.383	316.08
738.723	353.82
739.063	350.88
739.404	342.29
739.744	348.62
740.084	341.84
740.424	323.08
740.764	319.47
741.104	324.67
741.444	329.41
741.784	331.45
742.124	327.6
742.464	324.44
742.804	322.86
743.143	340.71
743.483	337.32
743.823	331.67
744.162	344.78
744.502	320.82
744.841	324.89
745.181	326.02
745.52	342.07
745.86	337.77
746.199	331.45
746.538	324.89
746.877	340.26
747.216	333.71
747.556	342.97
747.895	325.57
748.234	339.13
748.573	310.88
748.911	330.77
749.25	339.58
749.589	348.62
749.928	336.19
750.267	332.58
750.605	336.19
750.944	335.97
751.283	318.34
751.621	347.49
751.96	343.2
752.298	327.15
752.636	330.09
752.975	329.41
753.313	343.65
753.651	326.25
753.989	335.29
754.327	358.11
754.666	338
755.004	334.84
755.342	332.35
755.679	322.18
756.017	339.81
756.355	324.21
756.693	315.85
757.031	324.21
757.368	336.64
757.706	329.64
758.044	334.61
758.381	325.12
758.719	335.97
759.056	328.96
759.394	322.18
759.731	322.41
760.068	313.37
760.405	325.57
760.743	327.83
761.08	312.46
761.417	322.63
761.754	333.48
762.091	327.15
762.428	323.99
762.765	331.22
763.102	324.89
763.438	322.63
763.775	322.63
764.112	314.5
764.449	327.83
764.785	326.93
765.122	338.23
765.458	348.39
765.795	332.8
766.131	320.37
766.467	324.67
766.804	336.87
767.14	328.06
767.476	332.8
767.812	326.02
768.148	322.18
768.485	321.28
768.821	320.15
769.157	317.44
769.492	330.99
769.828	330.32
770.164	322.63
770.5	319.02
770.836	347.04
771.171	330.32
771.507	320.82
771.842	329.19
772.178	346.81
772.513	339.58
772.849	345.91
773.184	327.15
773.519	321.05
773.855	308.85
774.19	335.29
774.525	315.4
774.86	333.03
775.195	328.06
775.53	322.18
775.865	330.99
776.2	343.42
776.535	325.57
776.87	334.16
777.205	340.94
777.539	314.72
777.874	307.49
778.209	305.91
778.543	348.85
778.878	344.33
779.212	312.92
779.547	329.64
779.881	348.17
780.215	308.62
780.55	328.73
780.884	325.8
781.218	309.07
781.552	319.47
781.886	323.31
782.22	312.92
782.554	324.89
782.888	349.3
783.222	321.05
783.556	308.62
783.889	339.58
784.223	325.34
784.557	322.41
784.89	315.4
785.224	313.14
785.557	344.55
785.891	336.42
786.224	324.67
786.558	320.15
786.891	311.56
787.224	325.12
787.557	349.07
787.891	329.41
788.224	315.18
788.557	317.66
788.89	329.64
789.223	320.15
789.556	316.53
789.888	319.02
790.221	335.97
790.554	318.57
790.887	336.19
791.219	334.16
791.552	324.21
791.884	309.75
792.217	310.66
792.549	341.16
792.882	331.22
793.214	326.93
793.546	334.16
793.879	322.18
794.211	310.88
794.543	328.96
794.875	320.82
795.207	321.95
795.539	309.07
795.871	325.57
796.203	316.53
796.535	349.75
796.867	314.27
797.198	345.01
797.53	333.93
797.862	320.15
798.193	353.82
798.525	324.89
798.856	316.08
799.188	314.72
799.519	330.32
799.85	314.27
800.182	309.75
800.513	314.05
800.844	312.92
801.175	313.14
801.506	334.61
801.837	327.38
802.168	333.48
802.499	321.05
802.83	323.99
803.161	316.53
803.491	319.92
803.822	338.9
804.153	318.57
804.483	341.62
804.814	324.89
805.145	310.88
805.475	325.12
805.805	311.79
806.136	323.08
806.466	319.24
806.796	320.82
807.126	311.79
807.457	319.92
807.787	300.49
808.117	314.5
808.447	300.26
808.777	333.71
809.107	333.93
809.436	309.53
809.766	319.47
810.096	325.57
810.426	328.73
810.755	299.36
811.085	322.63
811.414	308.4
811.744	328.51
812.073	323.54
812.403	324.89
812.732	324.21
813.061	295.97
813.39	321.73
813.719	334.84
814.049	325.8
814.378	334.84
814.707	334.16
815.036	312.69
815.365	328.96
815.693	315.63
816.022	313.37
816.351	300.03
816.68	321.5
817.008	324.21
817.337	347.72
817.665	325.57
817.994	315.63
818.322	327.83
818.651	312.69
818.979	337.32
819.307	320.82
819.636	309.75
819.964	323.76
820.292	300.49
820.62	318.57
820.948	326.93
821.276	309.53
821.604	342.97
821.932	310.2
822.259	322.63
822.587	318.57
822.915	332.58
823.243	313.37
823.57	309.98
823.898	327.15
824.225	324.89
824.553	314.72
824.88	314.05
825.207	330.32
825.535	332.12
825.862	318.34
826.189	321.28
826.516	322.86
826.843	346.36
827.17	313.59
827.497	342.97
827.824	323.76
828.151	320.82
828.478	314.5
828.805	326.25
829.131	323.99
829.458	319.92
829.785	313.59
830.111	328.73
830.438	302.52
830.764	318.11
831.09	343.88
831.417	314.27
831.743	321.5
832.069	302.75
832.395	318.11
832.722	317.89
833.048	313.82
833.374	314.05
833.7	320.6
834.026	317.66
834.351	321.73
834.677	314.72
835.003	327.6
835.329	323.08
835.654	335.29
835.98	323.31
836.306	314.95
836.631	316.76
836.956	330.32
837.282	325.57
837.607	327.83
837.932	316.76
838.258	303.88
838.583	321.28
838.908	311.11
839.233	322.18
839.558	321.95
839.883	335.74
840.208	329.19
840.533	319.02
840.858	319.47
841.182	310.2
841.507	311.33
841.832	291.45
842.156	317.66
842.481	297.77
842.805	315.18
843.13	317.44
843.454	319.02
843.778	325.34
844.103	331.45
844.427	306.14
844.751	327.38
845.075	319.02
845.399	323.99
845.723	322.41
846.047	328.28
846.371	332.8
846.695	305.68
847.019	335.06
847.343	324.67
847.666	321.5
847.99	312.24
848.313	343.88
848.637	319.92
848.96	321.28
849.284	314.27
849.607	338.9
849.931	329.19
850.254	317.44
850.577	322.63
850.9	312.01
851.223	308.62
851.546	330.09
851.869	332.35
852.192	334.16
852.515	310.66
852.838	323.08
853.161	321.95
853.483	315.63
853.806	319.92
854.129	329.41
854.451	316.76
854.774	323.54
855.096	304.78
855.419	305.23
855.741	308.85
856.063	323.08
856.385	328.73
856.708	313.59
857.03	324.67
857.352	333.03
857.674	322.63
857.996	294.16
858.318	315.63
858.64	330.54
858.961	333.93
859.283	335.06
859.605	315.85
859.926	335.97
860.248	301.84
860.57	308.62
860.891	306.81
861.212	299.36
861.534	326.93
861.855	317.66
862.176	311.56
862.498	341.84
862.819	313.37
863.14	312.46
863.461	325.34
863.782	330.99
864.103	337.77
864.424	332.35
864.745	320.37
865.065	319.69
865.386	321.95
865.707	303.88
866.027	323.99
866.348	325.8
866.668	304.78
866.989	313.37
867.309	297.55
867.63	321.28
867.95	327.83
868.27	310.66
868.59	314.72
868.91	314.95
869.23	332.58
869.55	297.32
869.87	309.75
870.19	314.05
870.51	321.05
870.83	345.68
871.15	309.53
871.469	329.64
871.789	329.19
872.109	310.88
872.428	322.63
872.748	322.41
873.067	316.08
873.386	325.12
873.706	304.1
874.025	313.37
874.344	331.9
874.663	308.85
874.982	330.32
875.301	326.7
875.62	319.69
875.939	320.15
876.258	301.16
876.577	316.53
876.896	320.6
877.214	311.79
877.533	330.54
877.852	316.08
878.17	337.1
878.489	323.54
878.807	316.98
879.125	319.02
879.444	313.82
879.762	323.54
880.08	312.92
880.398	314.72
880.716	335.51
881.034	311.33
881.352	330.32
881.67	314.72
881.988	333.25
882.306	315.63
882.624	323.54
882.941	299.81
883.259	328.73
883.577	316.76
883.894	305.91
884.212	329.64
884.529	329.41
884.846	330.32
885.164	321.28
885.481	310.2
885.798	321.28
886.115	301.84
886.432	326.02
886.75	321.95
887.067	318.79
887.383	313.14
887.7	337.32
888.017	309.3
888.334	307.94
888.651	312.69
888.967	315.18
889.284	334.61
889.6	326.47
889.917	329.86
890.233	315.85
890.55	306.81
890.866	313.82
891.182	328.96
891.498	316.31
891.815	329.86
892.131	321.5
892.447	306.59
892.763	302.29
893.079	308.62
893.395	327.15
893.71	306.14
894.026	312.01
894.342	314.72
894.657	304.55
894.973	326.7
895.289	313.82
895.604	307.04
895.92	339.81
896.235	294.16
896.55	316.53
896.865	310.66
897.181	296.64
897.496	299.36
897.811	310.66
898.126	296.87
898.441	336.19
898.756	330.54
899.071	327.38
899.386	318.79
899.7	311.79
900.015	324.21
900.33	311.56
900.644	304.33
900.959	314.72
901.273	321.95
901.588	320.6
901.902	327.83
902.216	302.29
902.531	321.05
902.845	330.32
903.159	301.62
903.473	322.63
903.787	310.2
904.101	310.66
904.415	319.92
904.729	334.84
905.042	307.94
905.356	319.69
905.67	331.67
905.984	301.62
906.297	328.28
906.611	316.53
906.924	327.6
907.237	319.92
907.551	312.01
907.864	309.07
908.177	300.03
908.491	331.22
908.804	318.11
909.117	339.13
909.43	296.42
909.743	315.18
910.056	330.99
910.368	303.42
910.681	320.15
910.994	310.88
911.307	309.53
911.619	326.47
911.932	320.82
912.244	316.98
912.557	336.64
912.869	321.28
913.181	312.24
913.494	302.07
913.806	317.89
914.118	305.68
914.43	303.65
914.742	317.66
915.054	314.95
915.366	336.42
915.678	319.92
915.99	311.56
916.302	304.55
916.613	324.67
916.925	314.95
917.236	328.28
917.548	316.31
917.859	325.12
918.171	312.46
918.482	316.76
918.794	312.24
919.105	315.63
919.416	322.86
919.727	342.07
920.038	319.69
920.349	308.4
920.66	309.75
920.971	316.98
921.282	306.14
921.593	297.55
921.903	320.15
922.214	310.2
922.525	312.69
922.835	323.31
923.146	325.57
923.456	340.03
923.767	306.14
924.077	323.76
924.387	310.2
924.697	297.55
925.008	312.69
925.318	301.39
925.628	314.27
925.938	315.85
926.248	323.31
926.558	317.66
926.867	317.66
927.177	319.47
927.487	309.75
927.796	316.76
928.106	320.37
928.416	302.29
928.725	310.43
929.034	324.44
929.344	321.5
929.653	334.84
929.962	320.37
930.271	306.59
930.581	271.56
930.89	318.57
931.199	302.29
931.508	320.82
931.817	320.15
932.125	322.86
932.434	317.21
932.743	303.2
933.051	318.34
933.36	315.18
933.669	305.46
933.977	303.88
934.286	308.85
934.594	310.88
934.902	290.09
935.21	331.45
935.519	337.1
935.827	310.43
936.135	317.89
936.443	326.7
936.751	316.31
937.059	306.36
937.367	332.58
937.674	319.02
937.982	312.46
938.29	311.79
938.597	318.34
938.905	311.56
939.213	346.13
939.52	314.72
939.827	294.61
940.135	307.94
940.442	343.88
940.749	312.69
941.056	305.91
941.363	321.73
941.67	317.44
941.977	332.12
942.284	306.81
942.591	313.14
942.898	317.21
943.205	312.69
943.511	298.68
943.818	304.78
944.125	312.69
944.431	332.58
944.738	310.66
945.044	329.86
945.35	321.5
945.657	324.44
945.963	305.91
946.269	300.03
946.575	300.71
946.881	330.99
947.187	318.79
947.493	309.98
947.799	322.41
948.105	305.91
948.41	314.72
948.716	318.57
949.022	303.65
949.327	307.49
949.633	326.25
949.938	328.96
950.244	311.79
950.549	305.23
950.854	301.84
951.16	319.47
951.465	317.66
951.77	297.32
952.075	321.05
952.38	301.16
952.685	324.89
952.99	312.92
953.294	297.55
953.599	311.56
953.904	320.6
954.209	324.67
954.513	298.23
954.818	295.74
955.122	328.28
955.426	312.01
955.731	335.29
956.035	317.66
956.339	305.46
956.643	314.95
956.948	321.5
957.252	314.72
957.556	325.34
957.86	317.21
958.163	313.37
958.467	316.76
958.771	315.63
959.075	329.19
959.378	317.21
959.682	296.42
959.985	319.47
960.289	302.97
960.592	318.57
960.896	333.03
961.199	281.28
961.502	321.73
961.805	326.25
962.108	310.66
962.411	302.97
962.714	323.76
963.017	333.71
963.32	306.81
963.623	301.62
963.926	316.53
964.228	317.66
964.531	315.18
964.833	310.43
965.136	297.32
965.438	310.66
965.741	295.51
966.043	296.87
966.345	318.34
966.648	305.68
966.95	310.2
967.252	308.62
967.554	305.01
967.856	314.95
968.158	288.74
968.46	301.84
968.761	323.54
969.063	317.44
969.365	326.47
969.666	321.73
969.968	321.95
970.269	319.02
970.571	320.82
970.872	311.79
971.174	327.6
971.475	324.67
971.776	302.29
972.077	330.77
972.378	310.88
972.679	314.5
972.98	331.22
973.281	319.69
973.582	322.41
973.883	293.03
974.183	291.67
974.484	313.37
974.785	301.84
975.085	315.85
975.386	297.77
975.686	311.11
975.986	299.81
976.287	295.97
976.587	308.17
976.887	329.19
977.187	307.72
977.487	317.89
977.787	285.12
978.087	317.89
978.387	313.59
978.687	298.68
978.987	310.66
979.286	318.11
979.586	310.88
979.885	311.11
980.185	309.3
980.484	309.75
980.784	304.55
981.083	328.51
981.382	294.38
981.682	311.11
981.981	316.53
982.28	314.72
982.579	320.15
982.878	324.44
983.177	317.44
983.475	304.1
983.774	328.06
984.073	311.56
984.372	298
984.67	320.15
984.969	302.52
985.267	300.49
985.566	299.58
985.864	306.36
986.162	327.15
986.461	317.66
986.759	313.82
987.057	312.46
987.355	311.56
987.653	312.92
987.951	296.87
988.249	316.98
988.547	310.2
988.844	314.5
989.142	301.39
989.44	293.93
989.737	296.42
990.035	312.92
990.332	323.99
990.63	342.07
990.927	321.5
991.224	299.81
991.521	280.6
991.819	314.72
992.116	322.86
992.413	320.15
992.71	323.99
993.006	305.01
993.303	335.97
993.6	313.37
993.897	319.69
994.193	311.79
994.49	325.12
994.787	322.63
995.083	313.59
995.379	322.18
995.676	298.9
995.972	280.6
996.268	316.76
996.565	302.07
996.861	299.81
997.157	307.27
997.453	305.91
997.749	317.44
998.044	300.94
998.34	315.4
998.636	309.53
998.932	314.27
999.227	314.72
999.523	335.97
999.818	335.29
1000.114	312.92
1000.409	317.44
1000.704	329.19
1001	318.57
1001.295	303.88
1001.59	326.25
1001.885	309.75
1002.18	311.56
1002.475	334.84
1002.77	286.02
1003.065	339.81
1003.359	321.5
1003.654	322.18
1003.949	313.82
1004.243	303.65
1004.538	309.53
1004.832	314.05
1005.127	293.93
1005.421	320.6
1005.715	325.12
1006.009	316.08
1006.304	320.6
1006.598	311.33
1006.892	303.65
1007.186	314.72
1007.48	305.68
1007.773	311.33
1008.067	324.21
1008.361	319.24
1008.655	308.17
1008.948	297.77
1009.242	329.19
1009.535	317.89
1009.829	293.48
1010.122	311.33
1010.415	315.63
1010.708	305.23
1011.001	333.93
1011.295	298
1011.588	314.27
1011.881	317.44
1012.173	300.71
1012.466	318.57
1012.759	314.05
1013.052	312.01
1013.344	303.42
1013.637	288.74
1013.93	302.52
1014.222	279.24
1014.514	306.81
1014.807	327.6
1015.099	301.84
1015.391	315.18
1015.683	299.13
1015.976	307.49
1016.268	308.4
1016.56	315.63
1016.851	316.31
1017.143	318.57
1017.435	311.79
1017.727	294.16
1018.018	293.26
1018.31	325.57
1018.602	303.65
1018.893	302.97
1019.185	308.4
1019.476	301.84
1019.767	324.21
1020.058	316.76
1020.35	305.91
1020.641	287.15
1020.932	325.34
1021.223	312.01
1021.514	309.98
1021.804	310.66
1022.095	286.02
1022.386	338.68
1022.677	325.34
1022.967	300.26
1023.258	316.98
1023.548	301.16
1023.839	314.72
1024.129	323.54
1024.419	302.75
1024.709	320.6
1025	336.19
1025.29	316.98
1025.58	311.79
1025.87	316.31
1026.16	291.45
1026.449	325.12
1026.739	332.12
1027.029	309.53
1027.319	335.74
1027.608	308.4
1027.898	294.84
1028.187	311.56
1028.477	316.08
1028.766	299.36
1029.055	288.51
1029.344	297.55
1029.634	310.88
1029.923	320.15
1030.212	326.25
1030.501	319.24
1030.79	298.9
1031.078	308.62
1031.367	307.27
1031.656	301.62
1031.945	308.85
1032.233	313.59
1032.522	308.85
1032.81	321.5
1033.099	322.63
1033.387	295.97
1033.675	314.27
1033.963	312.01
1034.251	330.99
1034.54	309.75
1034.828	324.89
1035.116	315.85
1035.403	291
1035.691	302.29
1035.979	306.59
1036.267	323.08
1036.554	303.88
1036.842	310.2
1037.129	297.77
1037.417	309.07
1037.704	309.3
1037.992	314.5
1038.279	320.15
1038.566	315.85
1038.853	315.85
1039.14	315.85
