Data from No_light_on_white_reflection_standard_FLMS001491_031.txt Node
Date: Tue Feb 07 10:32:58 GMT 2017
User: dcchb
Spectrometer: FLMS00149
Trigger mode: 0
Integration Time (sec): 2.000000E-2
Scans to average: 10
Electric dark correction enabled: true
Nonlinearity correction enabled: false
Boxcar width: 0
XAxis mode: Wavelengths
Number of Pixels in Spectrum: 2048
>>>>>Begin Spectral Data<<<<<
341.393	-36.75
341.776	-36.75
342.16	-36.75
342.543	-84.21
342.927	-63.42
343.31	-72.23
343.693	-56.86
344.077	-56.41
344.46	-73.36
344.843	-62.06
345.226	-41.72
345.61	-45.34
345.993	-29.74
346.376	-13.7
346.759	11.16
347.142	55.68
347.525	57.48
347.908	55.22
348.291	64.72
348.674	89.12
349.057	118.05
349.44	101.78
349.823	143.13
350.206	145.17
350.588	166.18
350.971	166.18
351.354	185.62
351.737	193.75
352.119	228.78
352.502	220.64
352.884	240.98
353.267	249.12
353.65	266.74
354.032	243.92
354.414	248.67
354.797	290.47
355.179	279.63
355.562	273.75
355.944	306.07
356.326	275.78
356.709	283.69
357.091	281.43
357.473	311.26
357.855	296.8
358.238	293.86
358.62	298.61
359.002	299.29
359.384	296.35
359.766	291.15
360.148	291.83
360.53	317.36
360.912	305.61
361.294	287.99
361.676	298.61
362.057	275.56
362.439	296.57
362.821	300.42
363.203	289.79
363.584	300.87
363.966	283.02
364.348	292.05
364.729	273.52
365.111	286.4
365.493	291.15
365.874	273.07
366.256	256.58
366.637	299.74
367.019	292.28
367.4	279.4
367.781	280.3
368.163	270.36
368.544	266.29
368.925	275.33
369.306	290.02
369.688	261.77
370.069	271.72
370.45	275.33
370.831	280.08
371.212	243.47
371.593	270.36
371.974	271.26
372.355	267.2
372.736	262.45
373.117	260.87
373.498	273.07
373.879	249.8
374.26	255.22
374.641	273.75
375.021	276.91
375.402	264.48
375.783	277.59
376.163	274.2
376.544	286.18
376.925	276.46
377.305	295.44
377.686	273.52
378.066	280.98
378.447	273.3
378.827	307.87
379.208	266.74
379.588	280.3
379.968	270.13
380.349	276.24
380.729	252.73
381.109	277.59
381.489	278.72
381.87	267.87
382.25	273.3
382.63	276.24
383.01	282.11
383.39	290.92
383.77	280.76
384.15	280.3
384.53	293.18
384.91	277.82
385.29	286.18
385.67	282.79
386.049	290.47
386.429	271.04
386.809	285.05
387.189	267.42
387.568	269.91
387.948	281.21
388.328	299.74
388.707	288.21
389.087	294.09
389.466	297.93
389.846	280.3
390.225	309.23
390.605	278.04
390.984	287.53
391.363	282.11
391.743	284.6
392.122	289.12
392.501	309
392.881	276.46
393.26	276.69
393.639	299.51
394.018	281.89
394.397	277.37
394.776	294.77
395.155	292.28
395.534	300.42
395.913	307.42
396.292	283.47
396.671	295.22
397.05	292.05
397.429	301.09
397.808	277.37
398.186	284.82
398.565	314.2
398.944	288.21
399.323	298.16
399.701	303.58
400.08	287.53
400.458	309.68
400.837	292.96
401.215	287.31
401.594	308.78
401.972	286.4
402.351	303.58
402.729	320.98
403.107	296.57
403.486	285.95
403.864	303.13
404.242	285.5
404.62	278.04
404.999	293.41
405.377	288.21
405.755	286.4
406.133	279.85
406.511	284.6
406.889	294.54
407.267	287.31
407.645	284.37
408.023	292.05
408.401	302
408.779	275.33
409.156	295.22
409.534	306.52
409.912	290.92
410.29	314.65
410.667	293.18
411.045	306.29
411.422	285.27
411.8	292.73
412.178	297.48
412.555	302.9
412.933	299.29
413.31	302.9
413.687	294.09
414.065	281.66
414.442	312.62
414.819	286.86
415.197	298.61
415.574	309.68
415.951	314.65
416.328	284.82
416.705	284.82
417.082	289.57
417.46	309.46
417.837	291.38
418.214	323.69
418.591	311.71
418.967	311.04
419.344	302.68
419.721	299.96
420.098	315.78
420.475	286.63
420.852	308.1
421.228	310.13
421.605	304.03
421.982	291.15
422.358	305.39
422.735	291.6
423.111	301.77
423.488	315.56
423.864	301.09
424.241	291.15
424.617	322.34
424.994	312.17
425.37	320.53
425.746	299.74
426.123	311.94
426.499	318.27
426.875	310.81
427.251	319.62
427.627	308.78
428.003	321.21
428.379	302.45
428.756	313.75
429.132	311.71
429.507	306.97
429.883	327.76
430.259	304.71
430.635	314.2
431.011	296.12
431.387	305.61
431.763	320.08
432.138	317.14
432.514	328.66
432.89	304.94
433.265	299.29
433.641	314.43
434.016	305.39
434.392	328.21
434.767	307.2
435.143	325.05
435.518	324.37
435.894	302.68
436.269	323.92
436.644	310.81
437.02	324.37
437.395	314.43
437.77	323.01
438.145	340.64
438.52	329.57
438.895	312.62
439.271	320.3
439.646	327.53
440.021	322.11
440.395	332.73
440.77	316.23
441.145	322.34
441.52	342.22
441.895	335.44
442.27	318.04
442.645	327.99
443.019	342.45
443.394	334.09
443.769	331.83
444.143	337.03
444.518	343.13
444.892	356.46
445.267	358.72
445.641	350.58
446.016	352.84
446.39	313.97
446.764	358.04
447.139	348.78
447.513	333.86
447.887	346.29
448.262	360.53
448.636	358.95
449.01	370.02
449.384	365.27
449.758	360.08
450.132	363.01
450.506	358.49
450.88	368.44
451.254	371.15
451.628	371.6
452.002	381.09
452.376	376.35
452.75	348.32
453.123	371.15
453.497	328.44
453.871	378.38
454.244	366.85
454.618	357.36
454.992	374.31
455.365	357.36
455.739	351.94
456.112	374.09
456.486	368.66
456.859	347.19
457.232	353.97
457.606	357.59
457.979	359.4
458.352	361.66
458.725	367.31
459.099	368.89
459.472	372.28
459.845	370.92
460.218	369.11
460.591	342.67
460.964	359.85
461.337	353.3
461.71	344.26
462.083	349.45
462.456	353.97
462.829	369.57
463.201	364.59
463.574	335.22
463.947	375.89
464.32	373.86
464.692	366.85
465.065	357.59
465.438	349
465.81	341.77
466.183	356.01
466.555	346.52
466.928	349.91
467.3	351.94
467.672	342.67
468.045	363.69
468.417	353.07
468.789	344.03
469.161	363.92
469.534	342.9
469.906	340.87
470.278	338.83
470.65	366.18
471.022	353.3
471.394	335.44
471.766	366.18
472.138	336.12
472.51	343.58
472.882	346.52
473.253	337.7
473.625	356.46
473.997	356.23
474.369	363.01
474.74	339.51
475.112	343.8
475.484	343.35
475.855	341.77
476.227	353.07
476.598	344.48
476.97	335.22
477.341	349
477.713	355.33
478.084	351.04
478.455	337.7
478.827	330.92
479.198	352.62
479.569	362.11
479.94	345.16
480.311	370.92
480.682	349.23
481.053	343.13
481.424	351.26
481.795	359.4
482.166	385.16
482.537	357.82
482.908	387.87
483.279	365.72
483.65	358.95
484.021	353.75
484.391	368.44
484.762	343.58
485.133	337.7
485.503	378.61
485.874	335.67
486.244	355.1
486.615	350.58
486.985	365.95
487.356	367.08
487.726	354.65
488.097	380.64
488.467	362.11
488.837	366.18
489.207	363.92
489.578	360.3
489.948	381.09
490.318	361.43
490.688	366.63
491.058	361.43
491.428	350.13
491.798	371.6
492.168	359.4
492.538	370.92
492.908	372.73
493.278	375.22
493.648	367.08
494.017	368.89
494.387	378.83
494.757	368.66
495.126	380.41
495.496	388.32
495.866	392.16
496.235	378.38
496.605	385.84
496.974	389.23
497.344	369.57
497.713	379.51
498.082	371.37
498.452	381.54
498.821	378.15
499.19	390.58
499.559	389.45
499.928	398.94
500.298	382.9
500.667	414.31
501.036	400.07
501.405	412.96
501.774	371.6
502.143	399.62
502.512	408.44
502.88	401.88
503.249	399.62
503.618	389
503.987	401.2
504.356	389.68
504.724	433.07
505.093	415.44
505.462	439.85
505.83	419.73
506.199	385.61
506.567	400.98
506.936	400.75
507.304	402.79
507.672	434.88
508.041	436.01
508.409	426.97
508.777	418.83
509.145	414.54
509.514	423.12
509.882	429
510.25	441.43
510.618	439.17
510.986	435.55
511.354	439.17
511.722	398.04
512.09	422.67
512.458	400.75
512.826	428.1
513.193	432.16
513.561	446.85
513.929	459.73
514.297	424.71
514.664	425.16
515.032	429.68
515.4	434.2
515.767	443.69
516.135	436.91
516.502	453.41
516.869	435.78
517.237	447.53
517.604	441.2
517.972	448.43
518.339	469.22
518.706	462.45
519.073	448.89
519.44	460.41
519.808	449.56
520.175	470.58
520.542	440.53
520.909	476.91
521.276	442.78
521.643	455.44
522.009	446.4
522.376	477.81
522.743	467.64
523.11	478.72
523.477	476.68
523.843	473.97
524.21	478.94
524.577	474.65
524.943	483.69
525.31	461.99
525.676	452.73
526.043	484.82
526.409	477.59
526.776	481.65
527.142	464.03
527.508	473.74
527.874	477.36
528.241	492.5
528.607	467.64
528.973	495.89
529.339	499.05
529.705	481.65
530.071	488.66
530.437	482.78
530.803	478.49
531.169	505.38
531.535	486.4
531.901	478.49
532.267	485.04
532.632	476.46
532.998	499.96
533.364	485.5
533.73	471.48
534.095	487.3
534.461	479.17
534.826	502.44
535.192	510.58
535.557	505.38
535.923	503.12
536.288	495.21
536.653	503.12
537.019	500.18
537.384	497.25
537.749	487.53
538.114	504.7
538.479	506.96
538.845	499.73
539.21	507.87
539.575	490.24
539.94	472.61
540.305	501.54
540.67	506.51
541.034	513.07
541.399	507.42
541.764	514.65
542.129	513.29
542.494	514.65
542.858	511.26
543.223	499.05
543.587	512.84
543.952	495.44
544.316	501.09
544.681	493.41
545.045	500.86
545.41	510.35
545.774	506.29
546.138	517.81
546.503	518.04
546.867	509.22
547.231	508.32
547.595	519.17
547.959	501.54
548.324	528.21
548.688	520.98
549.052	517.59
549.416	515.55
549.779	524.14
550.143	505.38
550.507	532.27
550.871	527.53
551.235	527.08
551.599	526.4
551.962	530.01
552.326	523.46
552.689	524.59
553.053	520.07
553.417	546.06
553.78	538.83
554.143	551.03
554.507	526.4
554.87	540.64
555.234	532.27
555.597	532.5
555.96	520.52
556.323	526.4
556.686	537.25
557.05	526.17
557.413	521.43
557.776	525.49
558.139	541.77
558.502	518.26
558.865	545.16
559.228	548.54
559.59	542.22
559.953	516.23
560.316	542.67
560.679	520.52
561.041	524.59
561.404	530.92
561.767	547.87
562.129	546.51
562.492	533.86
562.854	525.95
563.217	567.75
563.579	537.92
563.941	559.17
564.304	540.86
564.666	562.33
565.028	558.71
565.39	542.67
565.753	572.95
566.115	540.64
566.477	567.98
566.839	570.92
567.201	580.18
567.563	563.46
567.925	589.67
568.287	553.97
568.648	574.31
569.01	588.09
569.372	568.88
569.734	570.47
570.095	588.09
570.457	576.34
570.819	563.23
571.18	579.73
571.542	581.99
571.903	575.89
572.265	575.89
572.626	557.13
572.987	575.66
573.349	565.27
573.71	588.54
574.071	585.15
574.432	588.32
574.794	580.86
575.155	569.11
575.516	577.02
575.877	578.6
576.238	581.99
576.599	592.84
576.96	565.95
577.32	558.94
577.681	570.92
578.042	581.54
578.403	580.41
578.763	591.48
579.124	588.54
579.485	599.39
579.845	558.94
580.206	585.83
580.566	585.61
580.927	588.54
581.287	578.6
581.648	588.09
582.008	568.88
582.368	593.74
582.728	564.82
583.089	575.89
583.449	592.84
583.809	598.71
584.169	584.02
584.529	586.06
584.889	586.06
585.249	587.41
585.609	582.67
585.969	592.61
586.329	587.19
586.688	582.22
587.048	556
587.408	587.41
587.768	570.24
588.127	591.48
588.487	603.46
588.846	582.22
589.206	581.09
589.565	563.69
589.925	572.27
590.284	574.53
590.643	584.93
591.003	573.63
591.362	585.61
591.721	556.68
592.08	567.08
592.44	568.43
592.799	575.66
593.158	553.74
593.517	576.79
593.876	576.79
594.235	560.97
594.593	586.51
594.952	571.6
595.311	594.87
595.67	571.37
596.029	589.9
596.387	564.59
596.746	561.88
597.104	572.5
597.463	557.13
597.822	563.01
598.18	546.96
598.538	551.71
598.897	561.65
599.255	582.22
599.613	558.26
599.972	552.39
600.33	543.12
600.688	555.32
601.046	549.22
601.404	556.91
601.762	559.62
602.12	577.02
602.478	544.25
602.836	566.85
603.194	563.91
603.552	573.18
603.91	561.43
604.268	562.56
604.625	530.47
604.983	560.07
605.341	548.32
605.698	537.92
606.056	549.67
606.413	537.25
606.771	551.26
607.128	553.52
607.485	570.47
607.843	574.53
608.2	545.16
608.557	556.91
608.914	553.06
609.272	549.22
609.629	564.59
609.986	554.65
610.343	567.98
610.7	541.31
611.057	535.89
611.414	546.74
611.771	530.92
612.127	539.51
612.484	547.87
612.841	523.23
613.198	566.85
613.554	545.61
613.911	521.88
614.267	521.65
614.624	524.36
614.98	546.51
615.337	549.22
615.693	535.21
616.05	527.53
616.406	533.18
616.762	540.18
617.118	545.83
617.475	534.08
617.831	530.24
618.187	544.25
618.543	536.12
618.899	530.69
619.255	523.69
619.611	496.57
619.967	516
620.323	545.61
620.678	523.69
621.034	531.6
621.39	538.6
621.746	481.2
622.101	518.72
622.457	524.14
622.812	513.97
623.168	519.62
623.523	514.2
623.879	499.28
624.234	494.54
624.589	497.92
624.945	511.26
625.3	510.13
625.655	497.47
626.01	491.82
626.365	507.64
626.72	500.18
627.075	486.4
627.43	498.15
627.785	501.77
628.14	511.26
628.495	490.69
628.85	502.67
629.205	480.07
629.559	496.12
629.914	471.48
630.269	473.97
630.623	489.11
630.978	499.73
631.332	507.87
631.687	488.21
632.041	480.52
632.396	491.15
632.75	486.4
633.104	472.39
633.459	478.49
633.813	467.64
634.167	463.35
634.521	474.42
634.875	490.24
635.229	510.13
635.583	457.93
635.937	464.93
636.291	463.35
636.645	466.29
636.999	485.27
637.352	481.2
637.706	464.48
638.06	480.07
638.413	457.47
638.767	448.89
639.121	454.54
639.474	464.03
639.828	445.72
640.181	470.81
640.534	456.8
640.888	432.84
641.241	456.34
641.594	453.86
641.947	447.3
642.301	456.8
642.654	457.7
643.007	469.68
643.36	446.17
643.713	459.96
644.066	476.46
644.419	446.17
644.771	463.12
645.124	437.59
645.477	438.72
645.83	436.23
646.182	455.21
646.535	425.84
646.888	439.85
647.24	420.86
647.593	426.51
647.945	443.69
648.298	443.24
648.65	436.68
649.002	426.97
649.355	451.15
649.707	433.75
650.059	430.58
650.411	412.73
650.763	438.49
651.115	429.45
651.467	413.41
651.819	419.28
652.171	444.59
652.523	420.64
652.875	430.58
653.227	421.77
653.578	424.48
653.93	441.43
654.282	410.02
654.633	403.01
654.985	406.18
655.337	406.4
655.688	421.32
656.039	413.63
656.391	396.91
656.742	388.1
657.094	406.85
657.445	433.52
657.796	412.5
658.147	420.19
658.498	392.39
658.849	412.28
659.2	410.47
659.551	401.43
659.902	416.8
660.253	387.65
660.604	405.72
660.955	390.58
661.306	423.12
661.656	416.12
662.007	407.98
662.358	410.02
662.708	382.22
663.059	405.72
663.409	383.35
663.76	402.33
664.11	404.82
664.461	405.95
664.811	401.66
665.161	403.46
665.511	391.71
665.862	385.61
666.212	393.97
666.562	400.07
666.912	384.71
667.262	381.32
667.612	402.56
667.962	382
668.312	375.22
668.662	410.24
669.011	396.46
669.361	392.62
669.711	393.75
670.06	369.11
670.41	372.28
670.76	392.16
671.109	400.3
671.459	398.72
671.808	375.44
672.157	393.52
672.507	391.49
672.856	384.03
673.205	365.72
673.554	372.96
673.904	398.94
674.253	376.57
674.602	383.58
674.951	390.36
675.3	395.55
675.649	389.45
675.998	363.47
676.346	385.39
676.695	395.33
677.044	363.92
677.393	370.24
677.741	369.79
678.09	354.65
678.438	397.36
678.787	398.94
679.135	375.22
679.484	359.62
679.832	361.43
680.181	372.73
680.529	380.87
680.877	372.5
681.225	351.94
681.573	384.03
681.922	373.63
682.27	342.67
682.618	368.21
682.966	378.15
683.314	382.67
683.661	377.93
684.009	349
684.357	346.06
684.705	371.37
685.053	353.07
685.4	364.82
685.748	370.24
686.095	355.56
686.443	363.92
686.79	356.23
687.138	367.08
687.485	365.05
687.832	360.75
688.18	368.21
688.527	350.36
688.874	346.06
689.221	351.94
689.568	355.33
689.915	355.33
690.262	354.65
690.609	369.57
690.956	354.88
691.303	370.7
691.65	337.25
691.997	369.11
692.344	349
692.69	347.42
693.037	355.78
693.383	348.55
693.73	353.07
694.077	366.4
694.423	347.42
694.769	337.7
695.116	332.28
695.462	341.54
695.808	368.44
696.155	364.82
696.501	336.8
696.847	341.09
697.193	353.3
697.539	315.56
697.885	331.6
698.231	359.85
698.577	354.65
698.923	358.95
699.269	350.36
699.614	353.52
699.96	357.82
700.306	352.62
700.651	346.29
700.997	349.23
701.342	338.15
701.688	346.29
702.033	385.16
702.379	338.83
702.724	364.37
703.069	341.54
703.415	334.31
703.76	357.82
704.105	350.81
704.45	358.04
704.795	346.74
705.14	340.19
705.485	346.97
705.83	344.03
706.175	349.45
706.52	338.61
706.865	333.86
707.209	336.8
707.554	351.71
707.899	356.46
708.243	329.34
708.588	343.8
708.932	349.68
709.277	336.12
709.621	354.43
709.966	333.18
710.31	334.31
710.654	338.61
710.998	366.4
711.342	334.99
711.687	355.33
712.031	334.09
712.375	353.97
712.719	329.12
713.063	357.59
713.407	326.18
713.75	338.61
714.094	382
714.438	360.75
714.782	353.75
715.125	328.44
715.469	345.61
715.812	356.69
716.156	347.65
716.499	337.48
716.843	336.57
717.186	329.12
717.53	323.69
717.873	324.82
718.216	317.14
718.559	336.8
718.902	325.05
719.246	332.05
719.589	338.15
719.932	339.74
720.275	339.28
720.617	331.6
720.96	330.47
721.303	338.83
721.646	341.54
721.989	313.75
722.331	333.64
722.674	330.47
723.016	337.25
723.359	339.51
723.701	342.67
724.044	335.22
724.386	325.05
724.729	339.28
725.071	315.56
725.413	337.93
725.755	348.55
726.097	364.14
726.439	341.77
726.782	329.79
727.124	356.01
727.465	334.99
727.807	321.66
728.149	339.96
728.491	327.31
728.833	325.73
729.175	347.42
729.516	327.08
729.858	353.52
730.199	343.13
730.541	351.94
730.882	313.52
731.224	332.05
731.565	333.64
731.906	333.86
732.248	324.6
732.589	306.07
732.93	325.5
733.271	313.75
733.612	320.08
733.953	334.09
734.294	345.84
734.635	329.34
734.976	342.45
735.317	336.12
735.658	335.9
735.999	340.19
736.339	324.37
736.68	337.25
737.021	307.87
737.361	332.28
737.702	336.35
738.042	322.11
738.383	340.41
738.723	334.54
739.063	333.64
739.404	332.96
739.744	334.99
740.084	324.82
740.424	315.1
740.764	318.95
741.104	309.46
741.444	318.95
741.784	328.44
742.124	325.95
742.464	343.13
742.804	338.61
743.143	317.36
743.483	347.87
743.823	329.34
744.162	322.56
744.502	310.13
744.841	332.73
745.181	328.89
745.52	319.17
745.86	332.96
746.199	310.81
746.538	331.83
746.877	323.24
747.216	319.85
747.556	314.2
747.895	337.7
748.234	329.57
748.573	331.6
748.911	313.75
749.25	317.59
749.589	331.83
749.928	330.02
750.267	330.47
750.605	315.78
750.944	354.88
751.283	325.5
751.621	319.62
751.96	321.43
752.298	339.06
752.636	318.49
752.975	338.83
753.313	322.34
753.651	325.27
753.989	321.21
754.327	324.14
754.666	324.82
755.004	334.77
755.342	325.27
755.679	324.6
756.017	329.57
756.355	311.71
756.693	347.65
757.031	333.64
757.368	330.7
757.706	339.51
758.044	319.62
758.381	316.23
758.719	319.4
759.056	326.4
759.394	315.78
759.731	342.45
760.068	311.94
760.405	335.9
760.743	328.89
761.08	319.85
761.417	312.17
761.754	317.14
762.091	351.04
762.428	317.59
762.765	316.91
763.102	307.42
763.438	330.02
763.775	312.62
764.112	327.99
764.449	346.52
764.785	304.48
765.122	323.01
765.458	317.59
765.795	323.92
766.131	329.57
766.467	316.69
766.804	329.34
767.14	320.3
767.476	325.73
767.812	320.98
768.148	332.51
768.485	326.86
768.821	317.82
769.157	314.43
769.492	327.08
769.828	319.4
770.164	323.24
770.5	307.42
770.836	323.69
771.171	324.14
771.507	321.88
771.842	325.5
772.178	330.7
772.513	342.9
772.849	333.41
773.184	326.18
773.519	318.27
773.855	310.36
774.19	326.18
774.525	316.46
774.86	308.1
775.195	315.1
775.53	301.32
775.865	342.67
776.2	330.7
776.535	313.07
776.87	323.24
777.205	348.55
777.539	318.27
777.874	327.76
778.209	330.47
778.543	318.49
778.878	314.88
779.212	332.05
779.547	320.53
779.881	316.46
780.215	316.91
780.55	331.15
780.884	339.06
781.218	316.69
781.552	344.71
781.886	349.68
782.22	345.61
782.554	347.65
782.888	329.12
783.222	307.87
783.556	332.73
783.889	336.57
784.223	326.18
784.557	339.06
784.89	325.05
785.224	323.01
785.557	346.06
785.891	322.79
786.224	341.32
786.558	333.64
786.891	331.38
787.224	334.09
787.557	310.59
787.891	341.77
788.224	327.99
788.557	329.12
788.89	325.73
789.223	315.56
789.556	332.96
789.888	323.69
790.221	333.64
790.554	311.49
790.887	319.4
791.219	315.56
791.552	325.95
791.884	338.38
792.217	318.27
792.549	327.99
792.882	323.24
793.214	321.21
793.546	312.39
793.879	306.07
794.211	318.04
794.543	333.86
794.875	335.22
795.207	328.89
795.539	339.96
795.871	327.53
796.203	317.36
796.535	319.62
796.867	312.84
797.198	318.72
797.53	323.92
797.862	319.17
798.193	320.98
798.525	317.14
798.856	327.99
799.188	333.86
799.519	307.65
799.85	336.35
800.182	311.49
800.513	334.54
800.844	329.57
801.175	326.18
801.506	309.91
801.837	315.56
802.168	323.69
802.499	305.39
802.83	315.56
803.161	309.91
803.491	309.23
803.822	327.99
804.153	329.57
804.483	331.15
804.814	320.53
805.145	321.66
805.475	327.53
805.805	322.11
806.136	306.52
806.466	331.83
806.796	300.87
807.126	307.87
807.457	316.01
807.787	333.64
808.117	293.18
808.447	302
808.777	302.45
809.107	309
809.436	321.88
809.766	326.18
810.096	319.4
810.426	331.83
810.755	320.98
811.085	330.02
811.414	332.73
811.744	308.78
812.073	325.05
812.403	328.21
812.732	314.43
813.061	319.17
813.39	320.53
813.719	334.54
814.049	322.56
814.378	325.73
814.707	319.85
815.036	334.09
815.365	301.55
815.693	324.82
816.022	317.14
816.351	335.22
816.68	324.37
817.008	321.88
817.337	321.21
817.665	327.53
817.994	317.82
818.322	320.53
818.651	297.7
818.979	318.95
819.307	340.19
819.636	336.57
819.964	317.82
820.292	323.01
820.62	308.55
820.948	310.59
821.276	316.91
821.604	342.22
821.932	311.04
822.259	305.16
822.587	322.34
822.915	315.78
823.243	321.43
823.57	321.43
823.898	322.11
824.225	330.47
824.553	320.75
824.88	316.69
825.207	322.56
825.535	315.1
825.862	331.6
826.189	314.2
826.516	328.21
826.843	340.19
827.17	304.71
827.497	351.94
827.824	313.07
828.151	334.77
828.478	313.75
828.805	325.05
829.131	306.74
829.458	326.63
829.785	323.01
830.111	310.59
830.438	328.44
830.764	337.93
831.09	324.37
831.417	327.99
831.743	335.9
832.069	318.95
832.395	332.28
832.722	320.53
833.048	322.56
833.374	322.79
833.7	307.65
834.026	325.73
834.351	305.84
834.677	312.39
835.003	332.05
835.329	321.88
835.654	328.21
835.98	320.08
836.306	318.95
836.631	308.33
836.956	334.09
837.282	327.31
837.607	306.29
837.932	311.71
838.258	315.56
838.583	304.94
838.908	316.46
839.233	309.46
839.558	315.1
839.883	302.68
840.208	322.11
840.533	328.44
840.858	324.14
841.182	311.71
841.507	333.18
841.832	316.46
842.156	327.53
842.481	331.38
842.805	290.92
843.13	332.28
843.454	313.75
843.778	325.27
844.103	323.92
844.427	326.4
844.751	320.98
845.075	320.53
845.399	317.59
845.723	320.75
846.047	340.41
846.371	325.05
846.695	313.3
847.019	311.49
847.343	346.52
847.666	316.01
847.99	339.96
848.313	290.92
848.637	320.98
848.96	332.51
849.284	329.79
849.607	315.78
849.931	316.91
850.254	330.92
850.577	319.85
850.9	323.47
851.223	312.84
851.546	306.29
851.869	321.43
852.192	306.07
852.515	332.28
852.838	313.75
853.161	344.26
853.483	335.9
853.806	302.45
854.129	324.82
854.451	313.3
854.774	327.99
855.096	318.49
855.419	322.11
855.741	329.34
856.063	308.33
856.385	316.69
856.708	314.2
857.03	331.38
857.352	324.6
857.674	338.83
857.996	305.16
858.318	340.19
858.64	309.91
858.961	323.24
859.283	331.15
859.605	319.17
859.926	317.14
860.248	302.9
860.57	318.04
860.891	329.79
861.212	329.79
861.534	334.77
861.855	344.48
862.176	323.47
862.498	332.73
862.819	309
863.14	305.61
863.461	308.55
863.782	308.33
864.103	313.97
864.424	299.29
864.745	313.75
865.065	332.05
865.386	309.68
865.707	297.7
866.027	324.37
866.348	326.18
866.668	297.48
866.989	313.75
867.309	317.36
867.63	331.38
867.95	313.07
868.27	312.84
868.59	307.2
868.91	312.39
869.23	324.37
869.55	315.56
869.87	316.01
870.19	309.68
870.51	298.83
870.83	319.62
871.15	316.46
871.469	304.26
871.789	320.75
872.109	303.58
872.428	339.28
872.748	307.87
873.067	321.21
873.386	296.12
873.706	302.45
874.025	308.33
874.344	324.6
874.663	326.18
874.982	316.01
875.301	312.62
875.62	321.88
875.939	316.46
876.258	319.17
876.577	319.17
876.896	305.84
877.214	311.94
877.533	320.3
877.852	305.39
878.17	323.92
878.489	326.18
878.807	329.12
879.125	305.16
879.444	308.78
879.762	317.36
880.08	315.78
880.398	312.39
880.716	316.23
881.034	338.61
881.352	307.2
881.67	317.36
881.988	313.97
882.306	309.23
882.624	303.81
882.941	299.96
883.259	331.83
883.577	304.03
883.894	329.57
884.212	313.07
884.529	309.23
884.846	332.05
885.164	302.45
885.481	309.46
885.798	329.57
886.115	333.18
886.432	324.14
886.75	312.62
887.067	298.83
887.383	311.26
887.7	335.9
888.017	307.42
888.334	316.01
888.651	310.59
888.967	304.26
889.284	303.81
889.6	312.62
889.917	308.55
890.233	312.17
890.55	306.52
890.866	323.24
891.182	323.24
891.498	331.83
891.815	312.39
892.131	296.57
892.447	322.79
892.763	327.31
893.079	311.71
893.395	316.01
893.71	304.26
894.026	325.73
894.342	305.61
894.657	296.12
894.973	298.61
895.289	306.97
895.604	319.4
895.92	319.85
896.235	314.88
896.55	309.23
896.865	308.33
897.181	317.36
897.496	310.13
897.811	317.82
898.126	313.3
898.441	335.67
898.756	321.66
899.071	311.71
899.386	291.38
899.7	314.43
900.015	297.93
900.33	323.92
900.644	319.4
900.959	318.04
901.273	306.74
901.588	313.97
901.902	306.74
902.216	304.03
902.531	305.61
902.845	302.22
903.159	331.83
903.473	304.26
903.787	331.83
904.101	326.4
904.415	308.55
904.729	324.82
905.042	327.08
905.356	308.33
905.67	308.33
905.984	304.26
906.297	302.22
906.611	335.67
906.924	315.1
907.237	356.91
907.551	312.62
907.864	320.53
908.177	318.95
908.491	317.14
908.804	323.47
909.117	327.99
909.43	315.56
909.743	304.48
910.056	306.52
910.368	315.78
910.681	309.23
910.994	317.14
911.307	325.05
911.619	314.65
911.932	284.82
912.244	320.08
912.557	321.88
912.869	338.61
913.181	338.61
913.494	339.51
913.806	321.66
914.118	318.95
914.43	300.87
914.742	329.34
915.054	334.31
915.366	316.69
915.678	322.79
915.99	326.18
916.302	305.61
916.613	299.51
916.925	308.78
917.236	315.1
917.548	330.02
917.859	313.75
918.171	290.25
918.482	291.83
918.794	316.46
919.105	306.29
919.416	323.47
919.727	318.49
920.038	320.75
920.349	334.31
920.66	290.25
920.971	339.06
921.282	343.58
921.593	309
921.903	309.46
922.214	299.06
922.525	310.59
922.835	311.26
923.146	301.09
923.456	310.59
923.767	323.24
924.077	320.75
924.387	292.51
924.697	308.1
925.008	314.43
925.318	304.71
925.628	295.44
925.938	311.49
926.248	306.29
926.558	300.64
926.867	312.17
927.177	298.61
927.487	308.33
927.796	312.39
928.106	327.31
928.416	323.24
928.725	313.75
929.034	319.17
929.344	325.05
929.653	309
929.962	296.57
930.271	336.57
930.581	295.67
930.89	328.21
931.199	296.8
931.508	316.91
931.817	299.06
932.125	319.85
932.434	327.99
932.743	316.01
933.051	302
933.36	314.2
933.669	299.29
933.977	320.3
934.286	309
934.594	302.45
934.902	307.87
935.21	317.14
935.519	299.51
935.827	302.22
936.135	301.77
936.443	327.31
936.751	316.23
937.059	311.49
937.367	303.81
937.674	321.21
937.982	298.16
938.29	307.65
938.597	302.45
938.905	318.49
939.213	315.56
939.52	318.27
939.827	306.07
940.135	292.51
940.442	313.97
940.749	308.33
941.056	318.72
941.363	322.11
941.67	312.39
941.977	323.92
942.284	317.36
942.591	309.23
942.898	305.39
943.205	319.17
943.511	293.64
943.818	311.49
944.125	318.95
944.431	315.33
944.738	312.84
945.044	319.62
945.35	325.5
945.657	318.95
945.963	321.43
946.269	315.33
946.575	316.01
946.881	315.33
947.187	319.62
947.493	319.4
947.799	313.97
948.105	316.23
948.41	314.43
948.716	313.75
949.022	314.65
949.327	309.91
949.633	324.82
949.938	312.62
950.244	325.05
950.549	330.47
950.854	315.1
951.16	309
951.465	321.21
951.77	327.76
952.075	309.23
952.38	317.82
952.685	329.34
952.99	320.08
953.294	310.59
953.599	315.1
953.904	320.08
954.209	303.81
954.513	322.11
954.818	313.75
955.122	319.85
955.426	313.3
955.731	311.49
956.035	312.17
956.339	325.5
956.643	310.59
956.948	300.19
957.252	344.93
957.556	309.23
957.86	292.96
958.163	299.29
958.467	303.58
958.771	317.82
959.075	297.48
959.378	312.39
959.682	326.18
959.985	301.77
960.289	315.56
960.592	313.52
960.896	304.94
961.199	301.55
961.502	300.42
961.805	294.31
962.108	316.91
962.411	322.11
962.714	319.85
963.017	321.21
963.32	323.47
963.623	312.84
963.926	293.18
964.228	309.91
964.531	305.39
964.833	301.77
965.136	291.6
965.438	303.58
965.741	306.29
966.043	308.33
966.345	321.88
966.648	312.39
966.95	298.16
967.252	307.65
967.554	303.13
967.856	319.85
968.158	300.42
968.46	306.97
968.761	306.29
969.063	322.56
969.365	307.87
969.666	313.75
969.968	299.96
970.269	301.09
970.571	312.62
970.872	313.97
971.174	306.07
971.475	309
971.776	324.14
972.077	306.74
972.378	316.23
972.679	311.26
972.98	324.6
973.281	311.49
973.582	312.84
973.883	321.88
974.183	294.31
974.484	306.29
974.785	317.59
975.085	314.65
975.386	300.42
975.686	314.43
975.986	294.09
976.287	306.97
976.587	308.1
976.887	310.81
977.187	305.61
977.487	317.59
977.787	314.43
978.087	312.62
978.387	326.86
978.687	311.49
978.987	323.92
979.286	317.36
979.586	321.88
979.885	313.75
980.185	315.56
980.484	307.2
980.784	323.47
981.083	307.42
981.382	314.2
981.682	315.33
981.981	336.12
982.28	315.78
982.579	312.39
982.878	336.35
983.177	298.61
983.475	327.53
983.774	311.26
984.073	309.91
984.372	304.03
984.67	332.73
984.969	337.25
985.267	316.46
985.566	315.78
985.864	316.69
986.162	303.13
986.461	312.39
986.759	319.4
987.057	312.39
987.355	313.3
987.653	310.81
987.951	322.79
988.249	309.46
988.547	310.13
988.844	337.25
989.142	289.79
989.44	306.52
989.737	306.74
990.035	299.29
990.332	286.63
990.63	318.95
990.927	315.78
991.224	306.97
991.521	325.95
991.819	318.27
992.116	305.16
992.413	328.66
992.71	327.76
993.006	323.69
993.303	326.18
993.6	302.9
993.897	309.46
994.193	322.56
994.49	313.97
994.787	325.95
995.083	329.57
995.379	303.58
995.676	314.2
995.972	299.06
996.268	294.31
996.565	296.35
996.861	305.39
997.157	327.53
997.453	303.35
997.749	318.49
998.044	302.9
998.34	321.88
998.636	325.73
998.932	313.52
999.227	295.9
999.523	326.63
999.818	304.26
1000.114	298.16
1000.409	304.71
1000.704	313.52
1001	318.72
1001.295	305.61
1001.59	304.26
1001.885	332.51
1002.18	304.48
1002.475	311.04
1002.77	309.23
1003.065	326.86
1003.359	318.95
1003.654	322.34
1003.949	305.61
1004.243	292.73
1004.538	326.86
1004.832	331.15
1005.127	325.27
1005.421	324.14
1005.715	299.29
1006.009	310.36
1006.304	295.67
1006.598	318.04
1006.892	321.88
1007.186	312.84
1007.48	312.84
1007.773	304.03
1008.067	316.91
1008.361	298.38
1008.655	312.84
1008.948	331.15
1009.242	303.81
1009.535	322.79
1009.829	301.55
1010.122	313.52
1010.415	298.61
1010.708	308.1
1011.001	295.44
1011.295	310.59
1011.588	288.21
1011.881	316.69
1012.173	317.36
1012.466	309
1012.759	311.71
1013.052	309.23
1013.344	300.64
1013.637	322.56
1013.93	317.36
1014.222	304.26
1014.514	317.59
1014.807	316.69
1015.099	299.29
1015.391	323.24
1015.683	310.36
1015.976	324.37
1016.268	316.01
1016.56	319.17
1016.851	314.65
1017.143	309.23
1017.435	327.53
1017.727	312.84
1018.018	299.96
1018.31	308.1
1018.602	327.53
1018.893	308.1
1019.185	323.92
1019.476	326.63
1019.767	307.42
1020.058	319.4
1020.35	299.96
1020.641	320.75
1020.932	294.99
1021.223	301.09
1021.514	308.1
1021.804	296.12
1022.095	308.1
1022.386	299.74
1022.677	301.32
1022.967	317.82
1023.258	311.94
1023.548	309.46
1023.839	304.26
1024.129	309.46
1024.419	308.33
1024.709	301.77
1025	333.18
1025.29	323.01
1025.58	311.71
1025.87	298.16
1026.16	314.2
1026.449	324.37
1026.739	288.21
1027.029	302.9
1027.319	296.8
1027.608	285.27
1027.898	317.14
1028.187	307.87
1028.477	315.56
1028.766	319.17
1029.055	312.84
1029.344	296.57
1029.634	299.96
1029.923	306.74
1030.212	318.04
1030.501	312.39
1030.79	309.23
1031.078	303.35
1031.367	309.23
1031.656	324.6
1031.945	313.97
1032.233	313.75
1032.522	312.84
1032.81	311.26
1033.099	332.05
1033.387	317.14
1033.675	294.09
1033.963	330.92
1034.251	305.16
1034.54	310.13
1034.828	301.77
1035.116	310.13
1035.403	300.87
1035.691	300.87
1035.979	302.9
1036.267	316.46
1036.554	302.45
1036.842	320.98
1037.129	322.79
1037.417	305.61
1037.704	332.96
1037.992	307.65
1038.279	314.65
1038.566	322.11
1038.853	322.11
1039.14	322.11
