Data from No_light_on_white_reflection_standard_FLMS001491_074.txt Node
Date: Tue Feb 07 10:33:07 GMT 2017
User: dcchb
Spectrometer: FLMS00149
Trigger mode: 0
Integration Time (sec): 2.000000E-2
Scans to average: 10
Electric dark correction enabled: true
Nonlinearity correction enabled: false
Boxcar width: 0
XAxis mode: Wavelengths
Number of Pixels in Spectrum: 2048
>>>>>Begin Spectral Data<<<<<
341.393	-32.82
341.776	-32.82
342.16	-32.82
342.543	-69.89
342.927	-41.86
343.31	-66.27
343.693	-72.82
344.077	-55.2
344.46	-61.98
344.843	-50.45
345.226	-44.12
345.61	-11.13
345.993	-6.84
346.376	0.17
346.759	4.46
347.142	29.32
347.525	32.71
347.908	60.28
348.291	77.68
348.674	80.85
349.057	83.33
349.44	129.66
349.823	142.31
350.206	154.29
350.588	164.23
350.971	177.11
351.354	187.06
351.737	214.63
352.119	219.37
352.502	223.44
352.884	228.41
353.267	257.34
353.65	266.83
354.032	251.01
354.414	267.28
354.797	261.63
355.179	293.5
355.562	297.79
355.944	284.23
356.326	306.15
356.709	312.7
357.091	311.12
357.473	324.91
357.855	309.09
358.238	308.64
358.62	298.69
359.002	313.38
359.384	292.37
359.766	294.85
360.148	308.41
360.53	294.4
360.912	302.99
361.294	283.55
361.676	285.13
362.057	290.11
362.439	287.85
362.821	288.3
363.203	277.68
363.584	293.72
363.966	290.78
364.348	300.95
364.729	270.67
365.111	296.43
365.493	283.55
365.874	274.96
366.256	267.51
366.637	305.7
367.019	300.05
367.4	287.62
367.781	271.12
368.163	279.48
368.544	282.42
368.925	277.68
369.306	279.71
369.688	269.77
370.069	243.33
370.45	277.22
370.831	278.13
371.212	283.33
371.593	284.91
371.974	281.07
372.355	291.24
372.736	285.36
373.117	276.55
373.498	263.67
373.879	279.03
374.26	270.44
374.641	262.54
375.021	257.56
375.402	284
375.783	283.1
376.163	269.54
376.544	277.22
376.925	270.44
377.305	284.46
377.686	273.16
378.066	269.77
378.447	266.6
378.827	279.94
379.208	294.85
379.588	282.2
379.968	291.01
380.349	267.28
380.729	287.17
381.109	281.97
381.489	288.3
381.87	282.42
382.25	291.01
382.63	288.98
383.01	271.8
383.39	281.29
383.77	283.33
384.15	274.96
384.53	287.62
384.91	293.27
385.29	282.87
385.67	295.98
386.049	300.05
386.429	284
386.809	277.68
387.189	285.59
387.568	290.33
387.948	295.3
388.328	288.98
388.707	300.05
389.087	288.75
389.466	284.23
389.846	288.98
390.225	297.56
390.605	289.65
390.984	289.43
391.363	296.21
391.743	289.88
392.122	292.59
392.501	281.52
392.881	300.05
393.26	299.14
393.639	309.77
394.018	293.04
394.397	293.72
394.776	294.85
395.155	294.4
395.534	275.64
395.913	286.94
396.292	282.87
396.671	291.69
397.05	302.08
397.429	293.04
397.808	312.48
398.186	299.82
398.565	292.59
398.944	305.47
399.323	297.79
399.701	303.21
400.08	285.36
400.458	316.32
400.837	303.44
401.215	277.68
401.594	295.75
401.972	320.16
402.351	301.63
402.729	294.17
403.107	289.65
403.486	274.29
403.864	294.63
404.242	308.86
404.62	289.43
404.999	285.36
405.377	307.51
405.755	296.66
406.133	296.43
406.511	309.09
406.889	293.72
407.267	307.96
407.645	298.01
408.023	300.27
408.401	297.56
408.779	294.17
409.156	293.04
409.534	288.75
409.912	290.33
410.29	328.07
410.667	296.88
411.045	288.98
411.422	305.7
411.8	294.4
412.178	312.7
412.555	316.55
412.933	297.56
413.31	302.53
413.687	300.5
414.065	319.94
414.442	302.08
414.819	311.12
415.197	319.26
415.574	308.86
415.951	317
416.328	310.67
416.705	303.66
417.082	302.08
417.46	288.75
417.837	282.65
418.214	313.83
418.591	309.77
418.967	311.35
419.344	287.85
419.721	298.47
420.098	293.04
420.475	303.89
420.852	319.94
421.228	309.09
421.605	295.75
421.982	294.4
422.358	317.9
422.735	309.09
423.111	316.55
423.488	294.4
423.864	317.22
424.241	323.55
424.617	314.96
424.994	306.15
425.37	302.76
425.746	314.29
426.123	296.21
426.499	309.99
426.875	298.92
427.251	307.51
427.627	299.82
428.003	340.27
428.379	311.12
428.756	330.56
429.132	303.44
429.507	299.37
429.883	312.7
430.259	323.32
430.635	291.24
431.011	317
431.387	302.76
431.763	328.07
432.138	322.65
432.514	306.15
432.89	329.2
433.265	300.27
433.641	313.16
434.016	325.58
434.392	326.71
434.767	325.36
435.143	317.68
435.518	326.26
435.894	282.65
436.269	325.58
436.644	316.77
437.02	323.1
437.395	320.61
437.77	332.14
438.145	312.93
438.52	323.1
438.895	314.96
439.271	322.87
439.646	354.96
440.021	350.44
440.395	315.19
440.77	329.2
441.145	348.63
441.52	340.05
441.895	347.28
442.27	353.38
442.645	334.17
443.019	338.92
443.394	359.03
443.769	356.54
444.143	334.62
444.518	354.96
444.892	351.12
445.267	336.88
445.641	340.73
446.016	342.53
446.39	351.35
446.764	350.44
447.139	354.28
447.513	349.31
447.887	359.03
448.262	361.29
448.636	372.36
449.01	346.15
449.384	352.93
449.758	383.66
450.132	349.76
450.506	363.1
450.88	373.27
451.254	372.14
451.628	366.71
452.002	385.7
452.376	368.52
452.75	376.43
453.123	372.82
453.497	349.76
453.871	374.85
454.244	367.39
454.618	366.49
454.992	378.92
455.365	361.97
455.739	352.7
456.112	384.11
456.486	367.62
456.859	384.57
457.232	351.8
457.606	353.15
457.979	352.48
458.352	362.42
458.725	356.77
459.099	357.9
459.472	346.83
459.845	371.91
460.218	338.24
460.591	359.26
460.964	374.4
461.337	377.11
461.71	331.91
462.083	360.39
462.456	366.94
462.829	347.5
463.201	358.8
463.574	339.37
463.947	366.26
464.32	378.92
464.692	363.1
465.065	361.74
465.438	352.25
465.81	348.86
466.183	334.85
466.555	340.5
466.928	347.5
467.3	353.38
467.672	361.74
468.045	354.06
468.417	360.39
468.789	346.83
469.161	349.99
469.534	356.09
469.906	359.03
470.278	348.86
470.65	354.06
471.022	327.39
471.394	379.82
471.766	338.01
472.138	360.84
472.51	358.13
472.882	377.11
473.253	342.53
473.625	337.11
473.997	325.13
474.369	354.51
474.74	324.91
475.112	347.5
475.484	340.73
475.855	340.73
476.227	364.45
476.598	333.27
476.97	350.67
477.341	356.09
477.713	346.83
478.084	354.28
478.455	344.12
478.827	353.15
479.198	361.97
479.569	355.41
479.94	347.73
480.311	329.88
480.682	355.19
481.053	356.32
481.424	340.05
481.795	364.45
482.166	350.67
482.537	359.93
482.908	350.22
483.279	345.02
483.65	349.54
484.021	368.75
484.391	363.1
484.762	347.73
485.133	357.45
485.503	343.66
485.874	367.39
486.244	346.6
486.615	350.89
486.985	350.67
487.356	358.8
487.726	344.79
488.097	373.72
488.467	367.84
488.837	373.04
489.207	368.75
489.578	369.43
489.948	382.08
490.318	381.63
490.688	387.73
491.058	387.96
491.428	383.44
491.798	356.54
492.168	377.33
492.538	380.5
492.908	388.63
493.278	394.06
493.648	387.28
494.017	379.37
494.387	402.64
494.757	375.07
495.126	380.5
495.496	382.31
495.866	385.7
496.235	391.35
496.605	389.99
496.974	392.02
497.344	389.54
497.713	398.35
498.082	393.15
498.452	407.84
498.821	396.54
499.19	400.84
499.559	394.96
499.928	393.15
500.298	408.75
500.667	392.93
501.036	399.03
501.405	388.18
501.774	396.77
502.143	401.97
502.512	396.32
502.88	395.87
503.249	413.27
503.618	429.31
503.987	400.61
504.356	399.93
504.724	398.58
505.093	424.79
505.462	411.68
505.83	398.35
506.199	418.69
506.567	421.4
506.936	408.97
507.304	407.62
507.672	436.77
508.041	412.36
508.409	425.92
508.777	424.57
509.145	422.08
509.514	417.33
509.882	417.33
510.25	420.05
510.618	428.86
510.986	445.58
511.354	429.76
511.722	441.51
512.09	418.24
512.458	452.59
512.826	423.44
513.193	447.16
513.561	432.93
513.929	434.96
514.297	442.64
514.664	451.23
515.032	437.67
515.4	454.39
515.767	435.19
516.135	453.94
516.502	447.62
516.869	453.72
517.237	458.91
517.604	440.61
517.972	441.97
518.339	465.69
518.706	459.82
519.073	448.97
519.44	470.21
519.808	462.76
520.175	476.09
520.542	452.14
520.909	444.23
521.276	488.97
521.643	454.85
522.009	459.82
522.376	469.54
522.743	461.17
523.11	470.89
523.477	491.68
523.843	491.91
524.21	489.87
524.577	463.21
524.943	478.57
525.31	481.74
525.676	485.13
526.043	487.61
526.409	485.35
526.776	480.16
527.142	475.64
527.508	474.06
527.874	503.66
528.241	499.82
528.607	488.97
528.973	501.17
529.339	498.24
529.705	488.97
530.071	476.09
530.437	505.24
530.803	483.55
531.169	506.82
531.535	505.24
531.901	500.27
532.267	472.7
532.632	494.85
532.998	492.36
533.364	482.19
533.73	495.52
534.095	493.94
534.461	527.39
534.826	545.92
535.192	501.85
535.557	514.28
535.923	492.59
536.288	497.33
536.653	493.94
537.019	489.2
537.384	515.86
537.749	491.23
538.114	468.41
538.479	484.68
538.845	497.56
539.21	516.99
539.575	502.53
539.94	515.18
540.305	509.08
540.67	493.04
541.034	522.64
541.399	509.31
541.764	507.27
542.129	513.6
542.494	506.6
542.858	507.27
543.223	524
543.587	512.47
543.952	504.34
544.316	516.99
544.681	508.86
545.045	534.84
545.41	534.17
545.774	522.87
546.138	484.9
546.503	521.51
546.867	519.25
547.231	536.2
547.595	508.18
547.959	508.86
548.324	528.52
548.688	531
549.052	529.42
549.416	538.91
549.779	519.48
550.143	541.4
550.507	521.96
550.871	540.95
551.235	510.66
551.599	530.1
551.962	533.04
552.326	538.01
552.689	541.85
553.053	542.53
553.417	519.25
553.78	542.75
554.143	535.75
554.507	552.25
554.87	553.6
555.234	559.25
555.597	559.25
555.96	538.69
556.323	542.75
556.686	530.78
557.05	536.2
557.413	538.69
557.776	547.05
558.139	536.65
558.502	547.5
558.865	526.26
559.228	529.65
559.59	531.45
559.953	572.81
560.316	566.48
560.679	561.74
561.041	547.27
561.404	552.47
561.767	561.28
562.129	557.22
562.492	556.77
562.854	551.34
563.217	553.6
563.579	550.66
563.941	554.05
564.304	547.95
564.666	569.87
565.028	566.03
565.39	557.67
565.753	567.16
566.115	576.65
566.477	571
566.839	572.58
567.201	589.53
567.563	579.14
567.925	562.64
568.287	579.59
568.648	551.79
569.01	555.64
569.372	596.09
569.734	570.32
570.095	572.13
570.457	577.33
570.819	582.53
571.18	549.08
571.542	563.32
571.903	579.82
572.265	566.48
572.626	586.37
572.987	559.25
573.349	572.36
573.71	564.45
574.071	587.72
574.432	589.98
574.794	592.92
575.155	589.08
575.516	582.08
575.877	577.1
576.238	587.95
576.599	586.82
576.96	602.64
577.32	586.82
577.681	585.69
578.042	595.86
578.403	594.05
578.763	588.4
579.124	599.7
579.485	596.54
579.845	593.37
580.206	596.31
580.566	603.77
580.927	567.39
581.287	578.01
581.648	591.34
582.008	574.84
582.368	590.66
582.728	592.47
583.089	587.05
583.449	583.66
583.809	548.63
584.169	587.72
584.529	552.47
584.889	574.62
585.249	594.96
585.609	591.79
585.969	604.67
586.329	583.88
586.688	580.27
587.048	588.18
587.408	577.33
587.768	574.39
588.127	578.69
588.487	572.58
588.846	588.63
589.206	610.32
589.565	560.15
589.925	582.3
590.284	586.14
590.643	590.44
591.003	572.58
591.362	575.52
591.721	570.78
592.08	597.67
592.44	589.76
592.799	587.72
593.158	567.16
593.517	578.91
593.876	569.65
594.235	571.91
594.593	581.4
594.952	587.72
595.311	556.54
595.67	564.9
596.029	567.16
596.387	569.19
596.746	570.55
597.104	576.2
597.463	558.8
597.822	569.42
598.18	568.29
598.538	566.26
598.897	571.91
599.255	566.03
599.613	598.12
599.972	572.81
600.33	572.81
600.688	577.78
601.046	581.85
601.404	562.19
601.762	553.15
602.12	574.17
602.478	561.51
602.836	573.04
603.194	556.77
603.552	554.28
603.91	565.13
604.268	568.06
604.625	568.74
604.983	581.62
605.341	564
605.698	569.65
606.056	548.86
606.413	558.35
606.771	566.48
607.128	586.59
607.485	563.32
607.843	549.53
608.2	574.39
608.557	574.39
608.914	567.16
609.272	576.43
609.629	539.82
609.986	582.98
610.343	568.74
610.7	548.63
611.057	535.3
611.414	529.2
611.771	580.95
612.127	540.04
612.484	554.51
612.841	544.34
613.198	548.18
613.554	538.69
613.911	566.93
614.267	549.76
614.624	534.62
614.98	531.23
615.337	529.2
615.693	548.4
616.05	555.86
616.406	552.02
616.762	550.44
617.118	551.57
617.475	528.97
617.831	542.75
618.187	540.04
618.543	526.26
618.899	539.36
619.255	526.71
619.611	550.66
619.967	541.62
620.323	542.3
620.678	522.42
621.034	527.84
621.39	535.52
621.746	516.09
622.101	519.03
622.457	518.35
622.812	531.45
623.168	512.25
623.523	532.13
623.879	523.09
624.234	510.44
624.589	514.96
624.945	511.34
625.3	513.38
625.655	513.38
626.01	494.62
626.365	500.72
626.72	504.11
627.075	521.74
627.43	516.99
627.785	492.59
628.14	500.5
628.495	502.76
628.85	500.04
629.205	483.55
629.559	505.69
629.914	510.44
630.269	521.06
630.623	505.69
630.978	505.69
631.332	514.96
631.687	501.85
632.041	501.17
632.396	491.68
632.75	493.49
633.104	480.16
633.459	490.55
633.813	502.98
634.167	496.65
634.521	504.11
634.875	470.44
635.229	497.56
635.583	472.02
635.937	473.6
636.291	482.87
636.645	492.81
636.999	495.07
637.352	484.22
637.706	474.51
638.06	466.37
638.413	463.21
638.767	455.3
639.121	480.61
639.474	468.41
639.828	460.04
640.181	462.08
640.534	472.47
640.888	461.17
641.241	449.88
641.594	443.32
641.947	456.65
642.301	471.8
642.654	443.32
643.007	484.9
643.36	454.62
643.713	460.04
644.066	447.62
644.419	435.19
644.771	462.53
645.124	455.98
645.477	456.2
645.83	441.74
646.182	444
646.535	426.82
646.888	440.84
647.24	452.14
647.593	438.12
647.945	432.93
648.298	422.98
648.65	448.07
649.002	426.6
649.355	453.49
649.707	419.37
650.059	421.85
650.411	419.82
650.763	421.85
651.115	437.9
651.467	452.36
651.819	450.33
652.171	447.39
652.523	416.88
652.875	430.44
653.227	422.31
653.578	430.21
653.93	420.5
654.282	426.15
654.633	445.13
654.985	417.11
655.337	411.68
655.688	421.4
656.039	412.36
656.391	415.75
656.742	376.88
657.094	422.31
657.445	419.59
657.796	418.69
658.147	420.5
658.498	402.87
658.849	428.63
659.2	413.04
659.551	394.51
659.902	396.32
660.253	408.75
660.604	400.38
660.955	411.01
661.306	406.94
661.656	399.48
662.007	411.01
662.358	435.64
662.708	417.33
663.059	382.31
663.409	411.91
663.76	397.45
664.11	387.28
664.461	398.8
664.811	394.96
665.161	392.48
665.511	396.54
665.862	399.93
666.212	390.89
666.562	389.09
666.912	405.13
667.262	387.96
667.612	378.01
667.962	400.16
668.312	393.61
668.662	386.15
669.011	384.57
669.361	375.53
669.711	387.73
670.06	406.03
670.41	372.14
670.76	364.45
671.109	384.34
671.459	389.99
671.808	381.4
672.157	367.84
672.507	375.3
672.856	417.33
673.205	388.63
673.554	382.31
673.904	376.66
674.253	394.74
674.602	378.01
674.951	378.01
675.3	368.52
675.649	380.5
675.998	374.4
676.346	385.02
676.695	376.66
677.044	379.14
677.393	376.2
677.741	364
678.09	373.49
678.438	382.53
678.787	371.46
679.135	368.52
679.484	377.56
679.832	388.41
680.181	384.34
680.529	375.75
680.877	390.89
681.225	390.67
681.573	371.46
681.922	380.27
682.27	364
682.618	381.85
682.966	374.62
683.314	372.14
683.661	375.53
684.009	376.2
684.357	378.92
684.705	345.02
685.053	369.43
685.4	371.01
685.748	377.56
686.095	380.05
686.443	371.69
686.79	356.54
687.138	378.69
687.485	355.41
687.832	366.49
688.18	360.16
688.527	370.33
688.874	364.23
689.221	365.81
689.568	363.55
689.915	366.04
690.262	347.96
690.609	373.94
690.956	379.59
691.303	350.67
691.65	365.81
691.997	366.49
692.344	372.14
692.69	360.61
693.037	382.08
693.383	343.89
693.73	364
694.077	354.96
694.423	355.87
694.769	357.45
695.116	363.78
695.462	363.78
695.808	363.32
696.155	355.64
696.501	366.04
696.847	356.77
697.193	359.26
697.539	352.02
697.885	343.66
698.231	360.61
698.577	340.73
698.923	338.47
699.269	344.79
699.614	356.09
699.96	354.06
700.306	348.18
700.651	348.63
700.997	356.32
701.342	345.47
701.688	344.79
702.033	352.7
702.379	337.79
702.724	354.51
703.069	336.43
703.415	347.96
703.76	336.21
704.105	342.08
704.45	354.96
704.795	345.7
705.14	356.54
705.485	334.85
705.83	366.94
706.175	343.44
706.52	354.06
706.865	343.44
707.209	334.85
707.554	376.66
707.899	339.14
708.243	356.77
708.588	347.5
708.932	344.34
709.277	354.51
709.621	361.97
709.966	345.7
710.31	356.32
710.654	345.7
710.998	336.43
711.342	352.25
711.687	338.69
712.031	333.27
712.375	348.41
712.719	340.73
713.063	358.13
713.407	340.27
713.75	335.3
714.094	332.36
714.438	361.97
714.782	328.07
715.125	340.27
715.469	345.92
715.812	342.76
716.156	340.95
716.499	329.2
716.843	361.52
717.186	332.59
717.53	324
717.873	332.14
718.216	307.28
718.559	350.44
718.902	334.85
719.246	319.26
719.589	332.59
719.932	335.08
720.275	341.4
720.617	346.15
720.96	337.56
721.303	343.44
721.646	329.88
721.989	353.83
722.331	351.57
722.674	349.54
723.016	324.23
723.359	353.15
723.701	327.84
724.044	338.92
724.386	325.13
724.729	339.14
725.071	342.31
725.413	301.86
725.755	347.5
726.097	343.21
726.439	328.97
726.782	335.98
727.124	333.27
727.465	345.02
727.807	347.96
728.149	335.75
728.491	319.26
728.833	320.61
729.175	325.36
729.516	314.06
729.858	338.92
730.199	340.95
730.541	317
730.882	334.62
731.224	337.56
731.565	326.94
731.906	339.37
732.248	332.59
732.589	343.21
732.93	342.76
733.271	341.4
733.612	331.69
733.953	323.1
734.294	337.79
734.635	340.73
734.976	335.08
735.317	344.12
735.658	349.09
735.999	329.43
736.339	329.65
736.68	329.88
737.021	341.86
737.361	347.28
737.702	337.34
738.042	356.77
738.383	333.27
738.723	322.42
739.063	322.19
739.404	353.61
739.744	335.75
740.084	336.21
740.424	330.1
740.764	344.57
741.104	332.36
741.444	322.42
741.784	341.63
742.124	349.31
742.464	341.4
742.804	330.78
743.143	317.45
743.483	321.97
743.823	333.95
744.162	341.86
744.502	317.45
744.841	347.05
745.181	341.86
745.52	311.8
745.86	333.95
746.199	337.11
746.538	329.2
746.877	328.07
747.216	326.49
747.556	355.64
747.895	329.88
748.234	343.66
748.573	342.31
748.911	328.52
749.25	333.72
749.589	329.2
749.928	324.91
750.267	347.96
750.605	334.17
750.944	332.14
751.283	319.94
751.621	325.81
751.96	310.9
752.298	336.66
752.636	325.36
752.975	353.61
753.313	339.82
753.651	323.78
753.989	326.94
754.327	338.92
754.666	351.35
755.004	333.27
755.342	328.52
755.679	320.84
756.017	331.01
756.355	331.23
756.693	336.21
757.031	326.71
757.368	337.11
757.706	322.87
758.044	314.51
758.381	333.04
758.719	316.32
759.056	326.49
759.394	355.64
759.731	329.88
760.068	316.77
760.405	326.94
760.743	318.13
761.08	299.82
761.417	328.97
761.754	339.37
762.091	328.52
762.428	348.86
762.765	325.81
763.102	332.36
763.438	317.68
763.775	331.69
764.112	336.21
764.449	312.48
764.785	329.88
765.122	348.18
765.458	330.33
765.795	312.25
766.131	327.39
766.467	342.76
766.804	324
767.14	346.15
767.476	322.42
767.812	336.43
768.148	338.92
768.485	325.13
768.821	295.3
769.157	328.97
769.492	328.3
769.828	329.88
770.164	317.22
770.5	343.21
770.836	326.26
771.171	333.49
771.507	325.58
771.842	322.87
772.178	333.95
772.513	330.1
772.849	307.96
773.184	325.36
773.519	322.65
773.855	340.95
774.19	329.88
774.525	326.49
774.86	321.29
775.195	300.73
775.53	311.8
775.865	318.13
776.2	340.73
776.535	342.08
776.87	324
777.205	322.87
777.539	338.47
777.874	324.91
778.209	324
778.543	335.75
778.878	331.69
779.212	336.43
779.547	309.09
779.881	305.02
780.215	331.23
780.55	324
780.884	338.69
781.218	313.61
781.552	333.04
781.886	312.03
782.22	320.61
782.554	325.13
782.888	327.84
783.222	314.51
783.556	332.82
783.889	310.9
784.223	332.14
784.557	332.36
784.89	328.07
785.224	315.42
785.557	339.14
785.891	323.1
786.224	338.01
786.558	323.78
786.891	319.94
787.224	334.4
787.557	333.27
787.891	322.19
788.224	337.79
788.557	312.25
788.89	347.5
789.223	318.13
789.556	338.24
789.888	331.46
790.221	314.51
790.554	313.38
790.887	334.4
791.219	333.72
791.552	317.22
791.884	309.09
792.217	336.66
792.549	320.84
792.882	341.18
793.214	328.97
793.546	312.7
793.879	319.94
794.211	322.19
794.543	306.83
794.875	333.04
795.207	322.19
795.539	319.71
795.871	335.08
796.203	314.51
796.535	331.01
796.867	313.83
797.198	318.81
797.53	315.42
797.862	326.71
798.193	310.22
798.525	326.49
798.856	331.46
799.188	334.85
799.519	335.08
799.85	334.85
800.182	312.25
800.513	316.77
800.844	349.31
801.175	327.62
801.506	328.07
801.837	312.7
802.168	316.77
802.499	337.11
802.83	317
803.161	347.73
803.491	324.91
803.822	319.94
804.153	321.29
804.483	321.97
804.814	321.52
805.145	317
805.475	318.58
805.805	331.91
806.136	318.81
806.466	324.23
806.796	321.29
807.126	321.07
807.457	337.56
807.787	325.13
808.117	319.03
808.447	330.78
808.777	321.29
809.107	321.74
809.436	321.74
809.766	313.16
810.096	325.58
810.426	321.97
810.755	326.26
811.085	346.83
811.414	320.61
811.744	321.97
812.073	314.29
812.403	335.53
812.732	300.27
813.061	326.71
813.39	301.4
813.719	319.71
814.049	331.01
814.378	319.48
814.707	295.75
815.036	314.74
815.365	336.43
815.693	306.38
816.022	317.9
816.351	313.61
816.68	329.43
817.008	318.58
817.337	295.75
817.665	334.17
817.994	318.13
818.322	338.47
818.651	325.81
818.979	312.48
819.307	312.7
819.636	317.68
819.964	326.26
820.292	310.22
820.62	291.69
820.948	321.29
821.276	326.04
821.604	300.95
821.932	318.13
822.259	314.06
822.587	329.65
822.915	320.61
823.243	322.19
823.57	338.24
823.898	288.3
824.225	334.17
824.553	337.34
824.88	332.36
825.207	348.86
825.535	334.17
825.862	307.96
826.189	312.03
826.516	334.4
826.843	338.01
827.17	330.56
827.497	330.56
827.824	332.36
828.151	311.35
828.478	326.71
828.805	318.35
829.131	338.47
829.458	301.18
829.785	339.14
830.111	307.96
830.438	324.91
830.764	351.12
831.09	331.46
831.417	314.74
831.743	321.29
832.069	323.32
832.395	321.52
832.722	324.91
833.048	320.39
833.374	321.97
833.7	318.35
834.026	326.04
834.351	316.32
834.677	312.93
835.003	327.39
835.329	325.58
835.654	305.25
835.98	310.9
836.306	315.87
836.631	317.9
836.956	319.03
837.282	326.04
837.607	317.45
837.932	319.26
838.258	289.2
838.583	332.82
838.908	333.95
839.233	313.61
839.558	323.1
839.883	303.21
840.208	308.41
840.533	322.19
840.858	327.84
841.182	317.9
841.507	330.56
841.832	326.71
842.156	307.28
842.481	325.13
842.805	328.07
843.13	321.07
843.454	318.35
843.778	342.99
844.103	326.26
844.427	327.84
844.751	317.22
845.075	331.91
845.399	327.39
845.723	341.63
846.047	314.74
846.371	317.68
846.695	335.53
847.019	328.52
847.343	318.35
847.666	324.45
847.99	321.97
848.313	327.62
848.637	314.74
848.96	302.99
849.284	330.56
849.607	311.35
849.931	307.73
850.254	316.55
850.577	319.48
850.9	323.1
851.223	309.77
851.546	313.61
851.869	314.96
852.192	327.84
852.515	319.03
852.838	301.4
853.161	326.71
853.483	333.27
853.806	300.73
854.129	321.97
854.451	319.71
854.774	311.57
855.096	324.68
855.419	315.19
855.741	309.77
856.063	323.1
856.385	308.86
856.708	335.08
857.03	331.91
857.352	333.49
857.674	314.51
857.996	327.17
858.318	333.04
858.64	318.58
858.961	328.52
859.283	307.73
859.605	345.7
859.926	329.43
860.248	320.61
860.57	325.13
860.891	323.78
861.212	326.49
861.534	317.68
861.855	320.84
862.176	318.13
862.498	298.69
862.819	318.13
863.14	316.55
863.461	322.19
863.782	327.62
864.103	328.75
864.424	306.15
864.745	320.16
865.065	330.1
865.386	340.73
865.707	323.1
866.027	312.7
866.348	315.87
866.668	328.52
866.989	323.1
867.309	326.94
867.63	305.7
867.95	339.6
868.27	318.58
868.59	326.04
868.91	319.26
869.23	318.81
869.55	326.26
869.87	310.9
870.19	291.24
870.51	323.1
870.83	320.39
871.15	288.75
871.469	322.42
871.789	313.83
872.109	314.96
872.428	307.96
872.748	316.55
873.067	343.21
873.386	321.74
873.706	312.7
874.025	315.87
874.344	311.12
874.663	322.42
874.982	319.71
875.301	333.27
875.62	315.42
875.939	324
876.258	322.42
876.577	330.56
876.896	321.52
877.214	312.7
877.533	324
877.852	296.43
878.17	326.94
878.489	309.77
878.807	325.58
879.125	318.13
879.444	295.08
879.762	310.9
880.08	337.34
880.398	311.12
880.716	312.03
881.034	342.31
881.352	297.11
881.67	321.97
881.988	338.69
882.306	326.26
882.624	303.89
882.941	330.56
883.259	306.38
883.577	321.97
883.894	305.25
884.212	333.27
884.529	321.07
884.846	321.52
885.164	310.67
885.481	330.56
885.798	326.04
886.115	339.14
886.432	316.09
886.75	303.44
887.067	308.86
887.383	304.79
887.7	320.61
888.017	319.94
888.334	339.37
888.651	309.99
888.967	332.14
889.284	310.67
889.6	334.85
889.917	291.91
890.233	318.58
890.55	300.5
890.866	311.35
891.182	337.79
891.498	321.74
891.815	304.57
892.131	306.38
892.447	328.07
892.763	319.94
893.079	331.69
893.395	338.01
893.71	322.19
894.026	299.6
894.342	323.1
894.657	314.06
894.973	317
895.289	321.52
895.604	333.27
895.92	311.8
896.235	326.04
896.55	344.34
896.865	326.26
897.181	321.07
897.496	335.75
897.811	314.96
898.126	322.87
898.441	312.25
898.756	309.54
899.071	313.83
899.386	322.19
899.7	316.77
900.015	335.3
900.33	323.1
900.644	328.07
900.959	307.28
901.273	321.29
901.588	301.4
901.902	316.09
902.216	323.32
902.531	335.98
902.845	303.44
903.159	334.4
903.473	313.83
903.787	322.65
904.101	323.55
904.415	312.7
904.729	316.77
905.042	323.55
905.356	317.68
905.67	300.5
905.984	316.77
906.297	319.48
906.611	324
906.924	323.78
907.237	305.47
907.551	319.03
907.864	320.84
908.177	327.17
908.491	312.7
908.804	321.97
909.117	323.78
909.43	313.83
909.743	314.51
910.056	316.55
910.368	329.43
910.681	343.21
910.994	330.33
911.307	321.07
911.619	319.48
911.932	325.81
912.244	329.88
912.557	307.73
912.869	323.55
913.181	319.03
913.494	336.21
913.806	344.57
914.118	328.52
914.43	308.18
914.742	287.17
915.054	326.71
915.366	330.78
915.678	324.23
915.99	294.85
916.302	301.18
916.613	307.05
916.925	324
917.236	312.48
917.548	309.77
917.859	331.46
918.171	329.2
918.482	298.01
918.794	301.86
919.105	303.44
919.416	284.68
919.727	314.96
920.038	304.12
920.349	317.22
920.66	319.71
920.971	305.92
921.282	324.91
921.593	296.43
921.903	314.96
922.214	329.43
922.525	328.97
922.835	312.03
923.146	319.26
923.456	345.25
923.767	314.29
924.077	330.78
924.387	318.13
924.697	318.81
925.008	325.81
925.318	316.32
925.628	314.74
925.938	307.73
926.248	317.9
926.558	320.39
926.867	317.45
927.177	327.17
927.487	330.56
927.796	315.42
928.106	312.7
928.416	326.94
928.725	310.44
929.034	317.22
929.344	326.71
929.653	309.77
929.962	309.77
930.271	330.78
930.581	335.75
930.89	316.09
931.199	324.91
931.508	328.07
931.817	323.1
932.125	295.98
932.434	322.19
932.743	313.61
933.051	323.78
933.36	314.29
933.669	312.03
933.977	293.5
934.286	315.64
934.594	298.01
934.902	313.61
935.21	328.52
935.519	321.29
935.827	309.09
936.135	318.35
936.443	309.77
936.751	314.74
937.059	309.54
937.367	311.12
937.674	338.01
937.982	317.68
938.29	318.13
938.597	321.52
938.905	328.07
939.213	331.23
939.52	316.77
939.827	322.42
940.135	307.51
940.442	311.57
940.749	318.58
941.056	316.32
941.363	324.91
941.67	318.35
941.977	329.2
942.284	326.04
942.591	319.48
942.898	316.09
943.205	313.83
943.511	291.24
943.818	312.48
944.125	306.38
944.431	317.9
944.738	313.16
945.044	316.55
945.35	304.79
945.657	303.66
945.963	328.07
946.269	308.41
946.575	307.96
946.881	320.61
947.187	297.56
947.493	312.48
947.799	290.78
948.105	305.7
948.41	328.3
948.716	313.83
949.022	327.39
949.327	323.32
949.633	304.12
949.938	314.96
950.244	308.41
950.549	328.52
950.854	327.84
951.16	304.57
951.465	334.17
951.77	307.05
952.075	325.81
952.38	320.84
952.685	326.49
952.99	311.35
953.294	301.63
953.599	323.32
953.904	326.26
954.209	320.84
954.513	318.13
954.818	302.31
955.122	316.77
955.426	326.71
955.731	324
956.035	310.44
956.339	324.23
956.643	321.52
956.948	320.39
957.252	296.43
957.556	321.52
957.86	295.3
958.163	316.09
958.467	296.88
958.771	328.52
959.075	326.04
959.378	320.39
959.682	316.32
959.985	308.86
960.289	315.42
960.592	317.68
960.896	309.31
961.199	312.03
961.502	322.65
961.805	329.88
962.108	313.61
962.411	319.94
962.714	321.29
963.017	314.74
963.32	315.19
963.623	311.35
963.926	309.77
964.228	333.95
964.531	317
964.833	310.22
965.136	320.16
965.438	313.83
965.741	317.22
966.043	329.43
966.345	311.35
966.648	320.84
966.95	336.66
967.252	324.91
967.554	314.51
967.856	317.45
968.158	316.32
968.46	293.95
968.761	324.68
969.063	316.77
969.365	321.74
969.666	291.69
969.968	292.59
970.269	311.8
970.571	290.11
970.872	319.71
971.174	306.6
971.475	320.84
971.776	335.53
972.077	305.47
972.378	321.07
972.679	340.05
972.98	312.48
973.281	304.57
973.582	308.18
973.883	305.92
974.183	296.43
974.484	302.99
974.785	319.94
975.085	304.34
975.386	319.48
975.686	317.22
975.986	318.35
976.287	314.06
976.587	283.55
976.887	305.47
977.187	324.23
977.487	328.52
977.787	306.15
978.087	316.32
978.387	312.25
978.687	307.96
978.987	313.38
979.286	321.29
979.586	322.42
979.885	318.35
980.185	311.12
980.484	301.63
980.784	305.47
981.083	310.67
981.382	327.62
981.682	320.61
981.981	311.57
982.28	317.68
982.579	320.84
982.878	313.61
983.177	319.26
983.475	304.34
983.774	304.34
984.073	315.64
984.372	312.48
984.67	316.55
984.969	297.34
985.267	316.32
985.566	298.92
985.864	309.99
986.162	306.83
986.461	316.32
986.759	323.78
987.057	336.66
987.355	313.83
987.653	309.54
987.951	321.52
988.249	298.01
988.547	306.38
988.844	319.03
989.142	321.07
989.44	322.42
989.737	333.27
990.035	308.86
990.332	323.32
990.63	301.86
990.927	322.65
991.224	317.22
991.521	303.44
991.819	304.79
992.116	309.09
992.413	305.47
992.71	311.35
993.006	303.44
993.303	312.93
993.6	324.45
993.897	297.56
994.193	299.37
994.49	324.23
994.787	313.61
995.083	313.61
995.379	314.74
995.676	336.66
995.972	323.78
996.268	339.14
996.565	303.66
996.861	319.03
997.157	302.99
997.453	334.62
997.749	294.4
998.044	311.12
998.34	322.42
998.636	310.44
998.932	297.56
999.227	299.82
999.523	317.45
999.818	320.16
1000.114	320.84
1000.409	313.61
1000.704	325.81
1001	305.7
1001.295	289.43
1001.59	310.67
1001.885	314.51
1002.18	314.06
1002.475	318.35
1002.77	312.25
1003.065	326.71
1003.359	308.41
1003.654	324
1003.949	312.93
1004.243	312.48
1004.538	306.38
1004.832	305.02
1005.127	305.7
1005.421	304.12
1005.715	318.13
1006.009	310.67
1006.304	320.39
1006.598	311.57
1006.892	309.31
1007.186	324.68
1007.48	313.83
1007.773	303.44
1008.067	294.85
1008.361	315.64
1008.655	302.53
1008.948	305.92
1009.242	282.87
1009.535	328.52
1009.829	324.91
1010.122	297.79
1010.415	342.31
1010.708	311.35
1011.001	307.73
1011.295	320.61
1011.588	327.62
1011.881	302.31
1012.173	315.87
1012.466	311.8
1012.759	306.83
1013.052	307.96
1013.344	320.84
1013.637	316.55
1013.93	319.48
1014.222	307.28
1014.514	309.99
1014.807	336.66
1015.099	315.42
1015.391	321.97
1015.683	325.58
1015.976	315.19
1016.268	305.92
1016.56	301.4
1016.851	316.09
1017.143	301.86
1017.435	319.48
1017.727	319.03
1018.018	295.53
1018.31	306.38
1018.602	296.21
1018.893	302.31
1019.185	293.27
1019.476	325.58
1019.767	302.31
1020.058	312.93
1020.35	320.16
1020.641	302.76
1020.932	300.73
1021.223	309.54
1021.514	313.16
1021.804	310.67
1022.095	305.7
1022.386	310.22
1022.677	316.09
1022.967	326.04
1023.258	313.61
1023.548	305.02
1023.839	302.76
1024.129	327.39
1024.419	307.28
1024.709	309.09
1025	320.16
1025.29	309.09
1025.58	321.29
1025.87	319.48
1026.16	319.03
1026.449	314.29
1026.739	306.38
1027.029	310.9
1027.319	314.06
1027.608	327.84
1027.898	307.28
1028.187	284.68
1028.477	298.47
1028.766	307.05
1029.055	303.21
1029.344	323.1
1029.634	322.87
1029.923	302.53
1030.212	305.25
1030.501	302.08
1030.79	327.17
1031.078	319.48
1031.367	308.18
1031.656	306.83
1031.945	290.11
1032.233	331.01
1032.522	310.9
1032.81	309.31
1033.099	327.17
1033.387	282.87
1033.675	303.44
1033.963	321.07
1034.251	314.51
1034.54	321.29
1034.828	316.77
1035.116	317.45
1035.403	294.63
1035.691	315.19
1035.979	320.39
1036.267	313.38
1036.554	308.86
1036.842	304.57
1037.129	318.35
1037.417	306.15
1037.704	311.57
1037.992	301.86
1038.279	314.51
1038.566	305.25
1038.853	305.25
1039.14	305.25
