Data from No_light_on_white_reflection_standard_FLMS001491_014.txt Node
Date: Tue Feb 07 10:32:55 GMT 2017
User: dcchb
Spectrometer: FLMS00149
Trigger mode: 0
Integration Time (sec): 2.000000E-2
Scans to average: 10
Electric dark correction enabled: true
Nonlinearity correction enabled: false
Boxcar width: 0
XAxis mode: Wavelengths
Number of Pixels in Spectrum: 2048
>>>>>Begin Spectral Data<<<<<
341.393	-22.91
341.776	-22.91
342.16	-22.91
342.543	-55.9
342.927	-58.39
343.31	-57.94
343.693	-68.33
344.077	-49.8
344.46	-77.14
344.843	-69.01
345.226	-49.12
345.61	-24.49
345.993	-10.93
346.376	12.57
346.759	-2.12
347.142	10.54
347.525	56.86
347.908	62.74
348.291	60.93
348.674	83.53
349.057	121.72
349.44	106.58
349.823	124.66
350.206	141.15
350.588	164.66
350.971	184.77
351.354	199.01
351.737	208.95
352.119	223.41
352.502	243.52
352.884	225.67
353.267	254.15
353.65	254.6
354.032	249.17
354.414	255.5
354.797	283.07
355.179	273.58
355.562	272.22
355.944	308.16
356.326	307.48
356.709	286.24
357.091	316.74
357.473	304.31
357.855	300.92
358.238	320.81
358.62	308.16
359.002	301.6
359.384	309.96
359.766	292.34
360.148	304.09
360.53	293.92
360.912	306.12
361.294	320.81
361.676	300.47
362.057	295.73
362.439	294.6
362.821	318.55
363.203	301.38
363.584	303.64
363.966	294.14
364.348	285.33
364.729	300.92
365.111	267.93
365.493	294.6
365.874	298.21
366.256	278.1
366.637	279.23
367.019	293.01
367.4	285.33
367.781	295.05
368.163	285.11
368.544	271.32
368.925	274.94
369.306	279.46
369.688	266.57
370.069	262.28
370.45	274.71
370.831	275.61
371.212	267.03
371.593	257.76
371.974	268.83
372.355	276.07
372.736	285.33
373.117	279.23
373.498	262.06
373.879	279.46
374.26	257.08
374.641	260.02
375.021	272.9
375.402	279
375.783	269.29
376.163	291.88
376.544	269.06
376.925	278.33
377.305	260.93
377.686	277.2
378.066	290.3
378.447	293.69
378.827	277.65
379.208	286.46
379.588	275.84
379.968	294.37
380.349	298.66
380.729	285.56
381.109	305.44
381.489	288.27
381.87	285.56
382.25	281.49
382.63	290.53
383.01	282.17
383.39	278.1
383.77	263.19
384.15	281.26
384.53	288.27
384.91	281.04
385.29	286.01
385.67	305.67
386.049	283.3
386.429	272.68
386.809	269.96
387.189	277.87
387.568	288.04
387.948	303.41
388.328	295.5
388.707	287.37
389.087	262.28
389.466	287.59
389.846	288.72
390.225	287.37
390.605	281.94
390.984	301.83
391.363	296.18
391.743	290.76
392.122	287.14
392.501	297.76
392.881	290.3
393.26	303.41
393.639	276.74
394.018	303.86
394.397	282.85
394.776	297.53
395.155	293.24
395.534	278.33
395.913	290.98
396.292	312.22
396.671	299.57
397.05	299.34
397.429	285.56
397.808	288.5
398.186	290.98
398.565	259.57
398.944	287.59
399.323	291.88
399.701	277.65
400.08	298.89
400.458	296.18
400.837	288.5
401.215	284.2
401.594	292.79
401.972	308.83
402.351	285.11
402.729	289.85
403.107	302.73
403.486	289.85
403.864	299.12
404.242	306.12
404.62	314.48
404.999	277.87
405.377	321.94
405.755	287.82
406.133	281.26
406.511	304.77
406.889	303.41
407.267	309.06
407.645	312.68
408.023	301.38
408.401	287.82
408.779	315.16
409.156	281.04
409.534	283.98
409.912	299.79
410.29	311.77
410.667	316.29
411.045	308.38
411.422	299.34
411.8	311.09
412.178	314.71
412.555	300.7
412.933	295.27
413.31	292.79
413.687	308.61
414.065	296.86
414.442	330.08
414.819	283.3
415.197	310.19
415.574	299.79
415.951	325.1
416.328	307.93
416.705	292.79
417.082	285.78
417.46	306.35
417.837	303.86
418.214	309.06
418.591	309.06
418.967	309.74
419.344	298.21
419.721	299.34
420.098	304.31
420.475	289.63
420.852	301.38
421.228	300.02
421.605	324.65
421.982	307.03
422.358	314.26
422.735	312
423.111	297.31
423.488	300.7
423.864	317.2
424.241	302.51
424.617	306.8
424.994	324.65
425.37	304.09
425.746	321.49
426.123	306.57
426.499	325.56
426.875	328.49
427.251	312.22
427.627	316.29
428.003	321.94
428.379	318.1
428.756	316.29
429.132	301.6
429.507	296.18
429.883	314.26
430.259	317.42
430.635	336.86
431.011	304.99
431.387	310.64
431.763	320.36
432.138	339.12
432.514	304.77
432.89	320.13
433.265	312
433.641	331.43
434.016	306.57
434.392	343.86
434.767	302.96
435.143	336.4
435.518	330.08
435.894	300.25
436.269	323.3
436.644	311.77
437.02	314.48
437.395	335.27
437.77	329.17
438.145	345.89
438.52	322.62
438.895	331.21
439.271	316.97
439.646	297.31
440.021	330.53
440.395	335.95
440.77	349.74
441.145	325.1
441.52	345.22
441.895	319
442.27	316.29
442.645	365.78
443.019	340.25
443.394	353.8
443.769	344.09
444.143	333.47
444.518	324.43
444.892	363.52
445.267	344.99
445.641	355.84
446.016	360.81
446.39	345.44
446.764	357.87
447.139	354.48
447.513	378.21
447.887	363.75
448.262	349.96
448.636	362.39
449.01	353.8
449.384	345.67
449.758	363.52
450.132	367.36
450.506	350.87
450.88	368.95
451.254	356.52
451.628	361.49
452.002	359.23
452.376	362.39
452.75	369.17
453.123	364.2
453.497	389.74
453.871	374.82
454.244	373.24
454.618	387.7
454.992	352.22
455.365	353.8
455.739	368.04
456.112	364.65
456.486	354.71
456.859	365.56
457.232	349.28
457.606	372.11
457.979	373.46
458.352	364.2
458.725	360.36
459.099	359.23
459.472	342.05
459.845	353.13
460.218	365.33
460.591	357.87
460.964	364.2
461.337	368.27
461.71	349.06
462.083	350.87
462.456	352
462.829	370.3
463.201	343.86
463.574	355.61
463.947	367.59
464.32	345.44
464.692	369.17
465.065	339.57
465.438	348.38
465.81	330.08
466.183	333.69
466.555	364.65
466.928	340.25
467.3	340.47
467.672	361.49
468.045	362.84
468.417	354.48
468.789	350.19
469.161	353.13
469.534	336.86
469.906	360.36
470.278	363.07
470.65	341.6
471.022	351.54
471.394	340.47
471.766	351.54
472.138	339.79
472.51	357.65
472.882	346.12
473.253	345.67
473.625	359.91
473.997	358.55
474.369	347.93
474.74	348.83
475.112	342.73
475.484	374.59
475.855	359.23
476.227	374.14
476.598	353.35
476.97	352.9
477.341	364.88
477.713	361.49
478.084	358.55
478.455	362.84
478.827	365.33
479.198	327.82
479.569	348.83
479.94	370.98
480.311	371.88
480.682	354.71
481.053	364.65
481.424	346.12
481.795	340.25
482.166	362.62
482.537	364.2
482.908	372.11
483.279	361.04
483.65	365.56
484.021	359.23
484.391	361.71
484.762	380.92
485.133	378.66
485.503	360.81
485.874	360.13
486.244	377.98
486.615	372.56
486.985	350.41
487.356	353.8
487.726	356.52
488.097	362.62
488.467	385.22
488.837	378.66
489.207	372.79
489.578	358.78
489.948	366.46
490.318	360.36
490.688	360.58
491.058	344.09
491.428	379.79
491.798	370.08
492.168	361.26
492.538	393.8
492.908	388.61
493.278	394.93
493.648	364.65
494.017	378.21
494.387	360.36
494.757	384.09
495.126	380.7
495.496	348.61
495.866	363.52
496.235	385.89
496.605	373.46
496.974	366.01
497.344	387.48
497.713	392.9
498.082	393.13
498.452	417.31
498.821	402.62
499.19	399.23
499.559	393.13
499.928	379.11
500.298	414.82
500.667	408.49
501.036	386.8
501.405	414.59
501.774	405.55
502.143	421.15
502.512	423.63
502.88	386.8
503.249	404.2
503.618	402.62
503.987	400.13
504.356	418.66
504.724	407.59
505.093	406.46
505.462	405.1
505.83	399.45
506.199	404.42
506.567	416.63
506.936	425.89
507.304	430.86
507.672	419.11
508.041	444.2
508.409	424.99
508.777	438.77
509.145	411.66
509.514	425.44
509.882	427.7
510.25	429.28
510.618	438.77
510.986	430.86
511.354	424.99
511.722	425.44
512.09	403.75
512.458	426.57
512.826	436.06
513.193	455.04
513.561	424.76
513.929	451.43
514.297	437.19
514.664	439.9
515.032	445.33
515.4	439
515.767	456.17
516.135	426.8
516.502	443.29
516.869	437.19
517.237	447.36
517.604	436.97
517.972	453.91
518.339	436.51
518.706	444.42
519.073	464.54
519.44	456.63
519.808	455.72
520.175	467.7
520.542	443.07
520.909	472.9
521.276	451.2
521.643	470.41
522.009	472.67
522.376	448.94
522.743	467.93
523.11	469.73
523.477	474.48
523.843	461.37
524.21	464.08
524.577	454.37
524.943	487.59
525.31	470.64
525.676	475.38
526.043	480.81
526.409	465.44
526.776	495.5
527.142	465.21
527.508	484.2
527.874	481.71
528.241	477.64
528.607	482.61
528.973	490.75
529.339	489.17
529.705	507.25
530.071	475.61
530.437	484.42
530.803	488.72
531.169	483.74
531.535	479.22
531.901	489.17
532.267	504.08
532.632	489.62
532.998	495.27
533.364	495.5
533.73	502.73
534.095	496.63
534.461	500.47
534.826	498.66
535.192	506.79
535.557	486.91
535.923	494.59
536.288	504.99
536.653	516.74
537.019	515.16
537.384	479.68
537.749	516.74
538.114	494.59
538.479	515.83
538.845	503.86
539.21	490.75
539.575	514.93
539.94	507.92
540.305	529.17
540.67	511.99
541.034	495.04
541.399	487.59
541.764	507.47
542.129	510.64
542.494	483.97
542.858	513.35
543.223	490.07
543.587	489.39
543.952	520.13
544.316	516.96
544.681	532.78
545.045	519
545.41	521.03
545.774	516.51
546.138	522.16
546.503	505.66
546.867	491.43
547.231	515.38
547.595	498.43
547.959	525.55
548.324	522.39
548.688	539.34
549.052	531.2
549.416	524.65
549.779	502.95
550.143	526.68
550.507	540.92
550.871	540.47
551.235	515.83
551.599	530.07
551.962	511.99
552.326	514.03
552.689	542.73
553.053	525.78
553.417	524.65
553.78	541.37
554.143	550.86
554.507	526.91
554.87	566
555.234	515.16
555.597	521.48
555.96	531.65
556.323	536.62
556.686	533.46
557.05	523.07
557.413	525.1
557.776	544.76
558.139	550.86
558.502	527.36
558.865	532.33
559.228	540.01
559.59	532.78
559.953	540.47
560.316	556.28
560.679	532.33
561.041	548.83
561.404	549.73
561.767	534.59
562.129	542.95
562.492	537.75
562.854	540.69
563.217	553.57
563.579	560.35
563.941	562.61
564.304	539.34
564.666	556.96
565.028	572.56
565.39	547.92
565.753	552.67
566.115	556.96
566.477	571.65
566.839	560.13
567.201	559.45
567.563	564.87
567.925	574.36
568.287	552.67
568.648	574.36
569.01	573.23
569.372	565.55
569.734	559.45
570.095	563.52
570.457	550.18
570.819	561.48
571.18	581.82
571.542	568.49
571.903	561.48
572.265	547.92
572.626	580.92
572.987	572.56
573.349	579.34
573.71	565.55
574.071	587.24
574.432	554.25
574.794	561.93
575.155	600.8
575.516	596.96
575.877	608.49
576.238	589.73
576.599	583.4
576.96	582.72
577.32	576.85
577.681	581.14
578.042	577.75
578.403	590.18
578.763	567.36
579.124	565.1
579.485	575.95
579.845	588.37
580.206	583.4
580.566	587.24
580.927	589.5
581.287	570.07
581.648	576.62
582.008	576.85
582.368	596.74
582.728	586.57
583.089	583.4
583.449	589.5
583.809	575.27
584.169	596.74
584.529	582.5
584.889	572.1
585.249	582.27
585.609	577.98
585.969	595.15
586.329	577.3
586.688	586.79
587.048	582.95
587.408	585.44
587.768	576.85
588.127	570.07
588.487	584.31
588.846	578.66
589.206	583.18
589.565	567.81
589.925	570.3
590.284	579.34
590.643	577.08
591.003	590.86
591.362	582.05
591.721	568.94
592.08	575.04
592.44	587.7
592.799	582.5
593.158	590.18
593.517	554.93
593.876	563.06
594.235	546.79
594.593	580.46
594.952	585.21
595.311	575.27
595.67	572.1
596.029	570.97
596.387	549.28
596.746	581.59
597.104	580.69
597.463	567.36
597.822	563.29
598.18	560.13
598.538	571.43
598.897	573.23
599.255	567.58
599.613	577.98
599.972	560.8
600.33	588.15
600.688	579.79
601.046	570.07
601.404	566.45
601.762	558.09
602.12	564.87
602.478	569.17
602.836	567.13
603.194	558.54
603.552	566
603.91	568.26
604.268	545.66
604.625	552.67
604.983	547.92
605.341	566.23
605.698	556.51
606.056	549.73
606.413	540.47
606.771	549.96
607.128	552.9
607.485	564.65
607.843	558.77
608.2	571.88
608.557	547.7
608.914	543.86
609.272	563.97
609.629	546.34
609.986	530.3
610.343	542.27
610.7	532.33
611.057	527.36
611.414	559
611.771	547.02
612.127	560.13
612.484	535.72
612.841	549.51
613.198	538.43
613.554	538.88
613.911	548.6
614.267	537.75
614.624	561.93
614.98	540.92
615.337	544.76
615.693	514.03
616.05	552.22
616.406	533.91
616.762	522.84
617.118	542.5
617.475	530.07
617.831	526.46
618.187	544.99
618.543	554.93
618.899	531.2
619.255	539.11
619.611	535.27
619.967	550.18
620.323	535.27
620.678	525.78
621.034	517.87
621.39	522.39
621.746	528.26
622.101	528.94
622.457	489.39
622.812	510.18
623.168	506.34
623.523	532.33
623.879	529.62
624.234	509.28
624.589	499.56
624.945	528.94
625.3	506.34
625.655	516.96
626.01	501.37
626.365	508.38
626.72	495.95
627.075	474.48
627.43	515.38
627.785	515.61
628.14	523.97
628.495	506.57
628.85	505.44
629.205	493.69
629.559	495.5
629.914	504.53
630.269	491.65
630.623	501.15
630.978	490.75
631.332	498.89
631.687	490.3
632.041	489.62
632.396	512.67
632.75	508.6
633.104	476.96
633.459	490.07
633.813	476.74
634.167	471.54
634.521	481.03
634.875	482.84
635.229	484.2
635.583	459.34
635.937	485.55
636.291	481.03
636.645	450.3
636.999	461.82
637.352	474.71
637.706	482.16
638.06	464.76
638.413	464.76
638.767	485.55
639.121	453.69
639.474	478.55
639.828	460.69
640.181	446.68
640.534	462.05
640.888	458.66
641.241	458.66
641.594	457.08
641.947	452.33
642.301	462.28
642.654	451.2
643.007	446.46
643.36	448.27
643.713	454.14
644.066	447.36
644.419	448.27
644.771	438.55
645.124	442.84
645.477	452.11
645.83	444.42
646.182	434.71
646.535	428.6
646.888	447.14
647.24	429.51
647.593	443.75
647.945	435.38
648.298	430.86
648.65	438.55
649.002	430.41
649.355	426.12
649.707	443.29
650.059	450.52
650.411	442.39
650.763	432.45
651.115	425.21
651.467	437.64
651.819	413.46
652.171	434.25
652.523	435.84
652.875	425.21
653.227	422.28
653.578	436.51
653.93	422.5
654.282	430.64
654.633	414.37
654.985	416.4
655.337	415.95
655.688	421.6
656.039	411.66
656.391	419.11
656.742	412.11
657.094	414.14
657.445	418.66
657.796	443.07
658.147	426.12
658.498	405.78
658.849	415.72
659.2	423.63
659.551	408.04
659.902	398.55
660.253	407.59
660.604	409.85
660.955	406.91
661.306	423.63
661.656	400.81
662.007	387.93
662.358	419.34
662.708	392.9
663.059	411.43
663.409	414.82
663.76	397.87
664.11	390.87
664.461	409.85
664.811	406.91
665.161	393.58
665.511	413.69
665.862	376.18
666.212	390.64
666.562	407.81
666.912	398.32
667.262	415.72
667.612	392.67
667.962	380.24
668.312	415.72
668.662	376.18
669.011	387.93
669.361	388.61
669.711	397.19
670.06	394.26
670.41	379.34
670.76	400.81
671.109	397.64
671.459	395.84
671.808	377.08
672.157	374.59
672.507	367.36
672.856	408.49
673.205	396.06
673.554	393.13
673.904	394.26
674.253	383.18
674.602	381.37
674.951	380.24
675.3	371.2
675.649	388.61
675.998	384.09
676.346	409.17
676.695	368.27
677.044	378.66
677.393	368.04
677.741	348.83
678.09	368.95
678.438	361.04
678.787	366.23
679.135	377.08
679.484	391.09
679.832	390.87
680.181	385.89
680.529	382.5
680.877	357.19
681.225	383.18
681.573	373.92
681.922	373.46
682.27	384.54
682.618	381.83
682.966	356.74
683.314	361.49
683.661	368.49
684.009	386.8
684.357	360.58
684.705	372.79
685.053	398.55
685.4	363.75
685.748	367.14
686.095	363.97
686.443	386.57
686.79	368.27
687.138	373.92
687.485	369.85
687.832	378.44
688.18	359.23
688.527	373.01
688.874	366.91
689.221	349.74
689.568	364.65
689.915	366.01
690.262	373.46
690.609	368.27
690.956	384.54
691.303	359
691.65	375.27
691.997	368.27
692.344	363.97
692.69	362.84
693.037	366.46
693.383	359
693.73	369.4
694.077	363.52
694.423	372.11
694.769	345.22
695.116	345.22
695.462	365.33
695.808	377.98
696.155	346.57
696.501	354.93
696.847	366.01
697.193	363.07
697.539	347.93
697.885	349.51
698.231	358.78
698.577	328.04
698.923	335.73
699.269	339.12
699.614	340.25
699.96	359.23
700.306	350.87
700.651	331.66
700.997	365.56
701.342	349.96
701.688	363.07
702.033	354.26
702.379	366.23
702.724	377.53
703.069	359.23
703.415	337.31
703.76	352.45
704.105	360.13
704.45	346.8
704.795	353.58
705.14	350.41
705.485	370.3
705.83	340.47
706.175	328.49
706.52	327.36
706.865	348.15
707.209	355.16
707.554	354.26
707.899	356.52
708.243	343.86
708.588	366.46
708.932	363.75
709.277	361.26
709.621	344.31
709.966	348.83
710.31	344.76
710.654	354.71
710.998	339.34
711.342	354.03
711.687	372.33
712.031	347.93
712.375	349.06
712.719	341.38
713.063	345.22
713.407	320.36
713.75	343.64
714.094	354.71
714.438	347.02
714.782	348.38
715.125	335.05
715.469	334.6
715.812	347.02
716.156	340.25
716.499	354.71
716.843	322.39
717.186	348.38
717.53	342.51
717.873	331.88
718.216	352.9
718.559	350.64
718.902	345.89
719.246	325.78
719.589	340.25
719.932	329.85
720.275	336.86
720.617	341.6
720.96	343.64
721.303	341.6
721.646	345.67
721.989	333.01
722.331	333.24
722.674	335.95
723.016	330.08
723.359	341.15
723.701	323.3
724.044	337.31
724.386	335.95
724.729	324.88
725.071	333.01
725.413	342.96
725.755	354.26
726.097	340.7
726.439	332.11
726.782	327.14
727.124	314.94
727.465	339.12
727.807	339.57
728.149	330.3
728.491	321.04
728.833	351.77
729.175	341.6
729.516	340.47
729.858	328.27
730.199	338.21
730.541	326.46
730.882	332.79
731.224	329.4
731.565	315.84
731.906	344.09
732.248	309.74
732.589	345.44
732.93	327.36
733.271	327.59
733.612	339.79
733.953	341.6
734.294	349.28
734.635	347.02
734.976	356.74
735.317	355.84
735.658	339.34
735.999	332.56
736.339	343.41
736.68	354.26
737.021	342.96
737.361	308.61
737.702	333.69
738.042	331.21
738.383	349.74
738.723	352.67
739.063	311.09
739.404	348.38
739.744	323.3
740.084	327.36
740.424	341.15
740.764	345.89
741.104	333.24
741.444	316.07
741.784	333.01
742.124	338.44
742.464	340.47
742.804	326.46
743.143	345.22
743.483	334.6
743.823	334.14
744.162	332.56
744.502	314.03
744.841	341.15
745.181	310.64
745.52	337.08
745.86	352.45
746.199	317.65
746.538	354.48
746.877	361.04
747.216	338.44
747.556	331.21
747.895	336.18
748.234	335.27
748.573	334.37
748.911	322.84
749.25	334.6
749.589	331.43
749.928	312.68
750.267	338.66
750.605	338.44
750.944	336.63
751.283	321.26
751.621	340.25
751.96	328.72
752.298	328.72
752.636	329.17
752.975	334.37
753.313	320.81
753.651	337.31
753.989	329.62
754.327	333.92
754.666	321.26
755.004	317.42
755.342	336.63
755.679	323.07
756.017	345.67
756.355	332.34
756.693	324.65
757.031	344.09
757.368	320.58
757.706	344.31
758.044	327.82
758.381	310.87
758.719	345.89
759.056	326.23
759.394	311.09
759.731	331.43
760.068	341.38
760.405	350.87
760.743	321.49
761.08	318.55
761.417	333.24
761.754	341.6
762.091	322.39
762.428	311.77
762.765	344.76
763.102	325.78
763.438	315.16
763.775	339.57
764.112	340.02
764.449	329.17
764.785	342.96
765.122	331.43
765.458	323.07
765.795	331.43
766.131	336.4
766.467	325.1
766.804	332.79
767.14	333.01
767.476	326.46
767.812	319.45
768.148	310.42
768.485	345.89
768.821	338.89
769.157	343.18
769.492	352.67
769.828	322.39
770.164	324.43
770.5	327.82
770.836	340.92
771.171	328.72
771.507	323.3
771.842	309.51
772.178	341.83
772.513	328.49
772.849	336.86
773.184	336.86
773.519	313.13
773.855	334.14
774.19	305.44
774.525	321.94
774.86	323.52
775.195	321.94
775.53	350.64
775.865	343.41
776.2	327.59
776.535	324.2
776.87	326.23
777.205	315.61
777.539	316.52
777.874	342.51
778.209	321.71
778.543	326.46
778.878	334.82
779.212	316.97
779.547	338.89
779.881	343.18
780.215	323.3
780.55	343.41
780.884	335.73
781.218	333.92
781.552	335.95
781.886	339.57
782.22	341.83
782.554	334.14
782.888	331.88
783.222	334.82
783.556	332.79
783.889	324.2
784.223	331.66
784.557	329.17
784.89	341.15
785.224	311.32
785.557	318.78
785.891	307.25
786.224	347.48
786.558	313.81
786.891	316.52
787.224	329.17
787.557	310.87
787.891	339.34
788.224	351.32
788.557	317.87
788.89	318.78
789.223	336.86
789.556	330.53
789.888	333.92
790.221	321.26
790.554	336.4
790.887	324.43
791.219	341.15
791.552	319.45
791.884	320.36
792.217	333.24
792.549	311.32
792.882	346.57
793.214	325.33
793.546	326.23
793.879	307.7
794.211	311.09
794.543	336.86
794.875	335.05
795.207	322.39
795.539	338.44
795.871	325.56
796.203	312
796.535	334.37
796.867	296.4
797.198	312
797.53	337.31
797.862	337.08
798.193	337.08
798.525	328.04
798.856	332.79
799.188	336.63
799.519	329.17
799.85	327.59
800.182	319.91
800.513	358.1
800.844	325.33
801.175	325.78
801.506	328.72
801.837	311.55
802.168	314.26
802.499	340.7
802.83	335.05
803.161	325.33
803.491	325.78
803.822	310.87
804.153	344.99
804.483	315.39
804.814	339.12
805.145	342.96
805.475	318.78
805.805	338.21
806.136	339.12
806.466	338.89
806.796	331.43
807.126	330.98
807.457	322.62
807.787	347.48
808.117	321.26
808.447	315.84
808.777	331.66
809.107	324.2
809.436	317.42
809.766	326.01
810.096	317.2
810.426	323.75
810.755	328.04
811.085	325.56
811.414	340.92
811.744	311.32
812.073	328.72
812.403	322.39
812.732	313.81
813.061	344.76
813.39	328.27
813.719	347.25
814.049	314.94
814.378	340.7
814.707	326.69
815.036	315.16
815.365	321.49
815.693	323.52
816.022	327.14
816.351	300.7
816.68	301.6
817.008	328.72
817.337	308.38
817.665	319.45
817.994	318.78
818.322	323.75
818.651	324.88
818.979	332.11
819.307	319.91
819.636	327.14
819.964	315.61
820.292	313.81
820.62	316.29
820.948	326.23
821.276	347.02
821.604	314.71
821.932	322.84
822.259	314.71
822.587	297.53
822.915	318.55
823.243	325.1
823.57	336.63
823.898	322.39
824.225	321.94
824.553	304.99
824.88	320.13
825.207	325.33
825.535	316.74
825.862	315.39
826.189	339.57
826.516	319.23
826.843	306.8
827.17	326.91
827.497	305.22
827.824	321.71
828.151	334.14
828.478	326.46
828.805	310.19
829.131	334.14
829.458	312.45
829.785	330.75
830.111	331.43
830.438	322.17
830.764	339.57
831.09	326.91
831.417	325.33
831.743	341.6
832.069	309.96
832.395	297.99
832.722	322.17
833.048	323.3
833.374	331.43
833.7	322.39
834.026	329.85
834.351	313.13
834.677	301.83
835.003	332.11
835.329	337.53
835.654	310.87
835.98	315.61
836.306	323.52
836.631	333.01
836.956	307.93
837.282	316.74
837.607	313.81
837.932	323.75
838.258	324.88
838.583	321.26
838.908	327.36
839.233	332.79
839.558	330.53
839.883	338.44
840.208	321.49
840.533	320.81
840.858	321.04
841.182	316.97
841.507	308.83
841.832	314.26
842.156	335.27
842.481	339.34
842.805	308.16
843.13	313.81
843.454	319.91
843.778	339.79
844.103	329.4
844.427	311.77
844.751	307.03
845.075	318.55
845.399	323.97
845.723	321.49
846.047	335.27
846.371	321.94
846.695	312.9
847.019	337.31
847.343	328.04
847.666	317.42
847.99	318.78
848.313	310.42
848.637	314.26
848.96	309.51
849.284	311.55
849.607	319.23
849.931	342.28
850.254	317.87
850.577	322.17
850.9	320.36
851.223	338.66
851.546	313.58
851.869	329.62
852.192	320.81
852.515	303.64
852.838	304.09
853.161	316.29
853.483	310.19
853.806	349.28
854.129	319.68
854.451	316.07
854.774	328.04
855.096	301.83
855.419	312.68
855.741	318.1
856.063	324.2
856.385	335.5
856.708	331.66
857.03	332.79
857.352	308.16
857.674	339.12
857.996	312
858.318	302.28
858.64	305.9
858.961	336.4
859.283	315.16
859.605	320.36
859.926	321.04
860.248	324.43
860.57	315.16
860.891	326.23
861.212	322.84
861.534	320.81
861.855	327.14
862.176	317.87
862.498	345.44
862.819	318.1
863.14	325.56
863.461	333.24
863.782	321.71
864.103	310.87
864.424	330.53
864.745	313.81
865.065	338.44
865.386	323.52
865.707	331.88
866.027	324.43
866.348	326.01
866.668	328.04
866.989	295.95
867.309	321.94
867.63	314.26
867.95	333.24
868.27	310.64
868.59	324.2
868.91	322.62
869.23	348.83
869.55	316.07
869.87	322.17
870.19	312.68
870.51	323.97
870.83	318.1
871.15	296.63
871.469	326.69
871.789	319.23
872.109	331.66
872.428	300.7
872.748	330.3
873.067	319
873.386	298.44
873.706	310.19
874.025	328.49
874.344	324.43
874.663	312.45
874.982	319.68
875.301	321.71
875.62	328.95
875.939	321.49
876.258	333.69
876.577	329.4
876.896	319
877.214	321.26
877.533	316.52
877.852	325.78
878.17	327.82
878.489	315.39
878.807	318.78
879.125	320.13
879.444	336.4
879.762	333.69
880.08	304.09
880.398	333.47
880.716	306.12
881.034	322.62
881.352	332.34
881.67	299.12
881.988	326.91
882.306	325.33
882.624	333.69
882.941	314.48
883.259	307.03
883.577	308.61
883.894	307.48
884.212	319.68
884.529	319.23
884.846	346.12
885.164	318.32
885.481	304.77
885.798	320.58
886.115	345.22
886.432	320.13
886.75	323.07
887.067	297.53
887.383	334.6
887.7	323.52
888.017	328.04
888.334	324.65
888.651	330.53
888.967	332.79
889.284	322.39
889.6	330.98
889.917	319.23
890.233	326.01
890.55	324.65
890.866	302.51
891.182	309.96
891.498	320.58
891.815	311.55
892.131	318.1
892.447	306.8
892.763	322.39
893.079	302.96
893.395	306.8
893.71	314.26
894.026	321.49
894.342	321.71
894.657	324.88
894.973	308.83
895.289	331.66
895.604	308.83
895.92	321.49
896.235	321.71
896.55	314.03
896.865	323.07
897.181	316.29
897.496	326.69
897.811	329.85
898.126	315.16
898.441	320.81
898.756	326.23
899.071	323.52
899.386	329.62
899.7	326.23
900.015	321.94
900.33	295.05
900.644	321.71
900.959	318.1
901.273	316.74
901.588	302.05
901.902	327.59
902.216	319.45
902.531	316.97
902.845	323.97
903.159	307.7
903.473	321.49
903.787	339.12
904.101	305.9
904.415	344.31
904.729	335.73
905.042	287.59
905.356	306.35
905.67	313.58
905.984	300.7
906.297	308.38
906.611	317.2
906.924	321.49
907.237	316.97
907.551	314.48
907.864	315.16
908.177	309.96
908.491	314.71
908.804	339.34
909.117	329.85
909.43	339.79
909.743	321.26
910.056	314.94
910.368	309.96
910.681	314.71
910.994	311.32
911.307	303.41
911.619	313.81
911.932	330.08
912.244	336.18
912.557	312.22
912.869	329.4
913.181	314.71
913.494	331.66
913.806	325.33
914.118	323.52
914.43	315.39
914.742	315.84
915.054	315.16
915.366	328.72
915.678	330.08
915.99	310.87
916.302	317.42
916.613	308.16
916.925	320.81
917.236	346.12
917.548	326.91
917.859	348.83
918.171	326.91
918.482	318.55
918.794	344.99
919.105	321.94
919.416	308.83
919.727	309.29
920.038	322.84
920.349	326.23
920.66	320.36
920.971	331.88
921.282	330.3
921.593	315.84
921.903	317.87
922.214	312.45
922.525	321.94
922.835	326.91
923.146	340.25
923.456	306.57
923.767	317.2
924.077	321.04
924.387	306.12
924.697	301.83
925.008	329.62
925.318	326.46
925.628	312.9
925.938	304.54
926.248	318.32
926.558	305.9
926.867	321.26
927.177	333.24
927.487	307.48
927.796	318.55
928.106	292.79
928.416	319
928.725	318.1
929.034	314.71
929.344	299.79
929.653	328.04
929.962	322.84
930.271	290.08
930.581	324.65
930.89	313.81
931.199	333.92
931.508	310.42
931.817	310.42
932.125	314.48
932.434	316.52
932.743	317.42
933.051	329.85
933.36	319.68
933.669	297.31
933.977	317.65
934.286	331.88
934.594	321.26
934.902	317.42
935.21	307.93
935.519	306.35
935.827	314.26
936.135	328.72
936.443	304.09
936.751	317.65
937.059	313.81
937.367	316.07
937.674	323.97
937.982	325.33
938.29	322.39
938.597	334.14
938.905	321.26
939.213	295.73
939.52	305.67
939.827	314.94
940.135	331.66
940.442	328.72
940.749	316.29
941.056	305.9
941.363	305.44
941.67	341.38
941.977	320.81
942.284	319.91
942.591	331.21
942.898	326.23
943.205	297.76
943.511	311.09
943.818	299.57
944.125	316.07
944.431	304.99
944.738	311.55
945.044	314.48
945.35	327.36
945.657	327.59
945.963	321.26
946.269	321.26
946.575	309.06
946.881	315.61
947.187	335.73
947.493	329.4
947.799	322.17
948.105	318.78
948.41	310.64
948.716	323.52
949.022	327.14
949.327	326.46
949.633	300.47
949.938	312.22
950.244	321.49
950.549	327.59
950.854	330.98
951.16	337.31
951.465	332.79
951.77	315.61
952.075	331.43
952.38	296.63
952.685	306.8
952.99	329.62
953.294	302.73
953.599	309.29
953.904	314.94
954.209	315.84
954.513	325.56
954.818	325.56
955.122	306.12
955.426	323.97
955.731	324.65
956.035	291.43
956.339	326.23
956.643	313.58
956.948	319.45
957.252	327.59
957.556	330.53
957.86	309.51
958.163	311.09
958.467	298.21
958.771	317.65
959.075	322.17
959.378	309.29
959.682	328.04
959.985	316.07
960.289	326.46
960.592	335.95
960.896	316.74
961.199	333.92
961.502	312.9
961.805	322.84
962.108	306.57
962.411	307.7
962.714	313.35
963.017	314.48
963.32	315.61
963.623	319.45
963.926	333.92
964.228	316.07
964.531	307.7
964.833	318.78
965.136	316.97
965.438	328.04
965.741	317.87
966.043	309.29
966.345	297.76
966.648	326.91
966.95	319
967.252	324.65
967.554	316.07
967.856	298.44
968.158	328.95
968.46	313.81
968.761	310.19
969.063	312.9
969.365	321.71
969.666	321.49
969.968	315.61
970.269	302.96
970.571	310.87
970.872	309.51
971.174	328.95
971.475	323.3
971.776	326.23
972.077	311.77
972.378	299.12
972.679	328.04
972.98	317.65
973.281	307.25
973.582	307.03
973.883	342.73
974.183	316.74
974.484	320.13
974.785	313.35
975.085	310.42
975.386	315.39
975.686	308.38
975.986	327.36
976.287	310.87
976.587	306.35
976.887	301.15
977.187	304.31
977.487	330.08
977.787	324.2
978.087	330.53
978.387	300.47
978.687	319.45
978.987	318.32
979.286	312.22
979.586	309.06
979.885	323.97
980.185	310.64
980.484	321.49
980.784	317.2
981.083	312.22
981.382	318.1
981.682	309.51
981.981	328.72
982.28	325.33
982.579	319.68
982.878	296.4
983.177	325.1
983.475	315.39
983.774	313.81
984.073	299.79
984.372	313.58
984.67	317.65
984.969	332.34
985.267	325.56
985.566	322.62
985.864	294.14
986.162	324.43
986.461	308.83
986.759	316.52
987.057	322.84
987.355	328.49
987.653	314.71
987.951	299.34
988.249	305.9
988.547	322.84
988.844	332.56
989.142	317.42
989.44	307.48
989.737	316.52
990.035	314.26
990.332	329.17
990.63	328.04
990.927	315.84
991.224	328.27
991.521	296.4
991.819	335.05
992.116	300.92
992.413	331.88
992.71	317.42
993.006	305.22
993.303	323.75
993.6	309.29
993.897	309.74
994.193	322.62
994.49	322.62
994.787	330.75
995.083	337.99
995.379	315.16
995.676	317.42
995.972	300.02
996.268	325.1
996.565	325.78
996.861	323.97
997.157	330.98
997.453	294.82
997.749	328.95
998.044	316.29
998.34	308.38
998.636	321.04
998.932	299.79
999.227	309.96
999.523	301.15
999.818	307.25
1000.114	322.62
1000.409	310.42
1000.704	308.38
1001	293.47
1001.295	321.04
1001.59	304.99
1001.885	303.41
1002.18	307.93
1002.475	324.43
1002.77	335.73
1003.065	316.07
1003.359	321.71
1003.654	340.7
1003.949	329.17
1004.243	337.99
1004.538	305.67
1004.832	309.96
1005.127	330.98
1005.421	312.9
1005.715	326.91
1006.009	314.03
1006.304	306.12
1006.598	319
1006.892	293.92
1007.186	311.09
1007.48	307.93
1007.773	312.9
1008.067	307.03
1008.361	319.45
1008.655	302.73
1008.948	333.92
1009.242	325.1
1009.535	303.18
1009.829	328.49
1010.122	316.29
1010.415	306.8
1010.708	313.58
1011.001	319.23
1011.295	322.84
1011.588	306.57
1011.881	319
1012.173	298.44
1012.466	282.17
1012.759	323.97
1013.052	322.39
1013.344	312.9
1013.637	322.17
1013.93	304.77
1014.222	314.03
1014.514	310.42
1014.807	330.53
1015.099	307.48
1015.391	313.35
1015.683	320.13
1015.976	312.68
1016.268	320.81
1016.56	334.14
1016.851	319.45
1017.143	322.17
1017.435	307.48
1017.727	299.79
1018.018	315.16
1018.31	313.81
1018.602	308.61
1018.893	310.42
1019.185	328.04
1019.476	329.85
1019.767	321.26
1020.058	295.05
1020.35	299.12
1020.641	331.43
1020.932	322.62
1021.223	298.66
1021.514	326.91
1021.804	309.74
1022.095	312.22
1022.386	323.3
1022.677	329.17
1022.967	295.95
1023.258	317.65
1023.548	301.38
1023.839	317.2
1024.129	298.44
1024.419	312
1024.709	304.09
1025	304.77
1025.29	323.3
1025.58	296.18
1025.87	304.54
1026.16	300.02
1026.449	319
1026.739	311.77
1027.029	317.87
1027.319	324.88
1027.608	304.54
1027.898	316.74
1028.187	314.71
1028.477	307.7
1028.766	324.88
1029.055	327.59
1029.344	327.59
1029.634	316.52
1029.923	302.05
1030.212	309.06
1030.501	302.51
1030.79	302.05
1031.078	309.51
1031.367	302.28
1031.656	321.71
1031.945	293.92
1032.233	301.6
1032.522	313.35
1032.81	328.72
1033.099	303.18
1033.387	304.31
1033.675	313.13
1033.963	337.99
1034.251	321.49
1034.54	302.51
1034.828	338.89
1035.116	297.31
1035.403	321.49
1035.691	302.73
1035.979	324.2
1036.267	323.3
1036.554	304.54
1036.842	315.84
1037.129	312.22
1037.417	314.03
1037.704	316.07
1037.992	326.01
1038.279	324.65
1038.566	293.47
1038.853	293.47
1039.14	293.47
