Data from No_light_on_white_reflection_standard_FLMS001491_013.txt Node
Date: Tue Feb 07 10:32:54 GMT 2017
User: dcchb
Spectrometer: FLMS00149
Trigger mode: 0
Integration Time (sec): 2.000000E-2
Scans to average: 10
Electric dark correction enabled: true
Nonlinearity correction enabled: false
Boxcar width: 0
XAxis mode: Wavelengths
Number of Pixels in Spectrum: 2048
>>>>>Begin Spectral Data<<<<<
341.393	4.53
341.776	4.53
342.16	4.53
342.543	-68.23
342.927	-66.88
343.31	-67.1
343.693	-77.95
344.077	-45.41
344.46	-51.28
344.843	-43.6
345.226	-46.54
345.61	-20.1
345.993	-48.35
346.376	6.79
346.759	4.08
347.142	9.51
347.525	34.82
347.908	47.47
348.291	101.93
348.674	79.79
349.057	115.94
349.44	100.8
349.823	131.54
350.206	140.58
350.588	162.04
350.971	170.86
351.354	187.58
351.737	213.79
352.119	223.96
352.502	222.16
352.884	233.23
353.267	247.24
353.65	261.93
354.032	267.13
354.414	261.93
354.797	282.49
355.179	282.72
355.562	299.67
355.944	310.97
356.326	306.9
356.709	278.2
357.091	293.57
357.473	317.07
357.855	300.35
358.238	312.1
358.62	308.48
359.002	301.25
359.384	292.44
359.766	293.34
360.148	321.59
360.53	307.12
360.912	295.83
361.294	309.61
361.676	276.39
362.057	303.28
362.439	299.67
362.821	281.36
363.203	305.77
363.584	289.95
363.966	271.87
364.348	287.92
364.729	277.75
365.111	307.58
365.493	297.63
365.874	266
366.256	297.41
366.637	272.55
367.019	275.71
367.4	260.35
367.781	289.5
368.163	286.33
368.544	270.74
368.925	265.09
369.306	267.35
369.688	275.94
370.069	258.09
370.45	266.45
370.831	273.91
371.212	274.81
371.593	254.7
371.974	271.42
372.355	258.99
372.736	280.91
373.117	261.25
373.498	262.61
373.879	283.62
374.26	259.89
374.641	275.04
375.021	286.79
375.402	255.6
375.783	289.72
376.163	269.16
376.544	292.66
376.925	278.42
377.305	278.42
377.686	274.81
378.066	266.45
378.447	275.04
378.827	263.51
379.208	273.23
379.588	285.2
379.968	283.85
380.349	270.06
380.729	298.31
381.109	282.49
381.489	285.43
381.87	288.37
382.25	271.19
382.63	266.67
383.01	305.77
383.39	290.18
383.77	293.11
384.15	273.68
384.53	282.04
384.91	291.98
385.29	280.68
385.67	303.06
386.049	303.96
386.429	291.31
386.809	285.43
387.189	286.56
387.568	289.27
387.948	278.65
388.328	292.89
388.707	275.26
389.087	305.99
389.466	268.93
389.846	280.23
390.225	273.91
390.605	297.86
390.984	295.37
391.363	274.13
391.743	288.37
392.122	304.86
392.501	287.92
392.881	299.22
393.26	283.62
393.639	275.04
394.018	283.62
394.397	301.7
394.776	284.07
395.155	299.22
395.534	295.37
395.913	294.47
396.292	298.31
396.671	284.75
397.05	307.35
397.429	306.22
397.808	292.89
398.186	287.01
398.565	287.01
398.944	315.49
399.323	279.1
399.701	284.53
400.08	284.75
400.458	293.79
400.837	280.46
401.215	297.41
401.594	291.08
401.972	284.07
402.351	287.69
402.729	296.5
403.107	283.85
403.486	308.03
403.864	314.58
404.242	282.49
404.62	303.73
404.999	292.21
405.377	275.49
405.755	270.06
406.133	299.22
406.511	281.14
406.889	300.8
407.267	286.11
407.645	316.16
408.023	293.57
408.401	284.75
408.779	276.84
409.156	296.05
409.534	316.84
409.912	297.41
410.29	287.46
410.667	311.64
411.045	282.04
411.422	299.44
411.8	296.5
412.178	299.67
412.555	301.02
412.933	302.15
413.31	302.61
413.687	305.77
414.065	319.33
414.442	303.51
414.819	317.97
415.197	302.38
415.574	315.49
415.951	289.5
416.328	305.99
416.705	308.71
417.082	301.93
417.46	312.1
417.837	286.56
418.214	305.32
418.591	316.84
418.967	308.48
419.344	300.12
419.721	297.63
420.098	299.89
420.475	296.05
420.852	287.69
421.228	306.67
421.605	303.51
421.982	306.22
422.358	314.58
422.735	299.67
423.111	306.9
423.488	299.44
423.864	332.89
424.241	309.16
424.617	304.19
424.994	303.28
425.37	308.93
425.746	309.38
426.123	319.55
426.499	313
426.875	305.32
427.251	295.83
427.627	300.8
428.003	308.93
428.379	305.54
428.756	305.54
429.132	295.15
429.507	324.53
429.883	327.46
430.259	305.54
430.635	315.26
431.011	318.42
431.387	310.29
431.763	307.58
432.138	319.78
432.514	340.34
432.89	312.1
433.265	307.58
433.641	303.96
434.016	312.1
434.392	303.73
434.767	332.21
435.143	304.19
435.518	312.55
435.894	325.43
436.269	336.73
436.644	314.81
437.02	316.16
437.395	317.97
437.77	328.59
438.145	316.16
438.52	315.49
438.895	317.97
439.271	326.79
439.646	337.86
440.021	324.98
440.395	344.41
440.77	318.42
441.145	332.21
441.52	335.37
441.895	343.28
442.27	336.73
442.645	343.28
443.019	345.99
443.394	340.12
443.769	349.16
444.143	348.93
444.518	337.18
444.892	380.12
445.267	356.84
445.641	359.55
446.016	335.15
446.39	344.86
446.764	356.39
447.139	338.76
447.513	340.12
447.887	347.35
448.262	369.95
448.636	342.6
449.01	340.8
449.384	338.08
449.758	361.13
450.132	343.96
450.506	352.1
450.88	354.13
451.254	364.75
451.628	375.37
452.002	354.36
452.376	394.81
452.75	352.32
453.123	364.52
453.497	350.97
453.871	359.55
454.244	375.37
454.618	378.08
454.992	361.13
455.365	367.46
455.739	363.17
456.112	358.42
456.486	358.87
456.859	338.31
457.232	354.58
457.606	374.47
457.979	360.23
458.352	335.82
458.725	370.17
459.099	377.18
459.472	341.25
459.845	366.33
460.218	351.87
460.591	359.55
460.964	363.85
461.337	346.9
461.71	353.45
462.083	327.24
462.456	343.06
462.829	363.85
463.201	369.5
463.574	366.33
463.947	351.64
464.32	361.59
464.692	359.33
465.065	364.75
465.438	355.94
465.81	342.38
466.183	369.95
466.555	338.76
466.928	376.73
467.3	347.35
467.672	341.25
468.045	342.83
468.417	348.48
468.789	375.37
469.161	331.98
469.534	324.98
469.906	355.03
470.278	340.34
470.65	355.03
471.022	373.79
471.394	356.84
471.766	356.39
472.138	346.67
472.51	343.28
472.882	332.89
473.253	356.61
473.625	358.2
473.997	341.02
474.369	332.43
474.74	352.1
475.112	354.36
475.484	329.05
475.855	352.32
476.227	353
476.598	357.29
476.97	347.8
477.341	353.45
477.713	341.7
478.084	337.18
478.455	350.51
478.827	349.61
479.198	345.54
479.569	348.25
479.94	347.12
480.311	356.61
480.682	341.7
481.053	334.02
481.424	342.15
481.795	362.94
482.166	372.43
482.537	344.19
482.908	360
483.279	357.74
483.65	352.32
484.021	347.35
484.391	329.95
484.762	358.65
485.133	353
485.503	351.64
485.874	337.41
486.244	348.71
486.615	364.98
486.985	372.21
487.356	351.87
487.726	366.56
488.097	361.81
488.467	373.56
488.837	367.69
489.207	380.57
489.578	390.51
489.948	372.43
490.318	381.92
490.688	362.72
491.058	366.33
491.428	367.69
491.798	377.86
492.168	369.72
492.538	371.76
492.908	373.79
493.278	383.96
493.648	359.33
494.017	395.94
494.387	378.99
494.757	375.37
495.126	376.95
495.496	373.79
495.866	388.03
496.235	390.51
496.605	401.36
496.974	399.78
497.344	370.85
497.713	381.25
498.082	370.4
498.452	390.96
498.821	388.48
499.19	393.9
499.559	380.8
499.928	390.29
500.298	377.18
500.667	393.68
501.036	423.51
501.405	423.28
501.774	385.31
502.143	402.72
502.512	404.98
502.88	398.87
503.249	407.24
503.618	423.28
503.987	410.4
504.356	388.7
504.724	386.44
505.093	391.87
505.462	416.05
505.83	403.85
506.199	409.95
506.567	407.01
506.936	429.83
507.304	412.21
507.672	408.36
508.041	424.86
508.409	408.59
508.777	426.44
509.145	420.57
509.514	420.34
509.882	437.29
510.25	441.13
510.618	431.87
510.986	444.75
511.354	435.71
511.722	433.22
512.09	433.22
512.458	435.26
512.826	434.58
513.193	426.67
513.561	444.07
513.929	427.8
514.297	428.93
514.664	437.97
515.032	432.32
515.4	438.87
515.767	461.47
516.135	426.67
516.502	435.71
516.869	439.32
517.237	425.99
517.604	443.39
517.972	462.37
518.339	438.19
518.706	441.81
519.073	435.48
519.44	465.54
519.808	446.56
520.175	436.39
520.542	441.58
520.909	442.04
521.276	459.44
521.643	462.15
522.009	455.14
522.376	459.21
522.743	461.24
523.11	459.66
523.477	465.09
523.843	454.69
524.21	471.64
524.577	442.94
524.943	481.81
525.31	467.57
525.676	475.48
526.043	484.07
526.409	479.1
526.776	462.15
527.142	476.16
527.508	481.58
527.874	488.81
528.241	462.37
528.607	475.48
528.973	488.14
529.339	487.23
529.705	501.02
530.071	503.96
530.437	481.58
530.803	484.97
531.169	473.22
531.535	509.38
531.901	495.14
532.267	467.12
532.632	495.82
532.998	481.81
533.364	485.43
533.73	504.86
534.095	492.2
534.461	506.44
534.826	485.65
535.192	493.79
535.557	504.18
535.923	514.8
536.288	484.75
536.653	503.73
537.019	496.5
537.384	492.2
537.749	527.68
538.114	515.25
538.479	510.96
538.845	505.09
539.21	507.57
539.575	504.63
539.94	496.5
540.305	492.43
540.67	510.28
541.034	490.17
541.399	497.4
541.764	497.18
542.129	517.51
542.494	500.57
542.858	509.61
543.223	510.51
543.587	492.2
543.952	505.09
544.316	493.56
544.681	539.66
545.045	516.38
545.41	529.04
545.774	506.22
546.138	525.88
546.503	501.47
546.867	503.96
547.231	503.5
547.595	512.99
547.959	505.31
548.324	526.78
548.688	505.09
549.052	510.74
549.416	532.43
549.779	500.34
550.143	525.42
550.507	520.68
550.871	540.79
551.235	526.33
551.599	516.38
551.962	532.88
552.326	510.51
552.689	503.96
553.053	524.29
553.417	516.38
553.78	498.53
554.143	516.16
554.507	538.31
554.87	514.35
555.234	534.46
555.597	545.31
555.96	539.21
556.323	515.48
556.686	533.11
557.05	535.59
557.413	533.11
557.776	524.52
558.139	543.95
558.502	537.4
558.865	540.79
559.228	538.31
559.59	552.99
559.953	527.23
560.316	540.11
560.679	531.3
561.041	541.02
561.404	536.95
561.767	536.05
562.129	556.38
562.492	569.72
562.854	546.89
563.217	556.61
563.579	557.97
563.941	553.67
564.304	539.21
564.666	561.36
565.028	574.01
565.39	554.12
565.753	529.72
566.115	554.8
566.477	550.28
566.839	555.03
567.201	560.23
567.563	578.3
567.925	580.34
568.287	572.2
568.648	584.41
569.01	578.3
569.372	574.91
569.734	563.39
570.095	584.41
570.457	581.92
570.819	568.13
571.18	567.46
571.542	569.04
571.903	556.38
572.265	553.9
572.626	575.14
572.987	561.36
573.349	578.98
573.71	583.5
574.071	577.4
574.432	578.76
574.794	569.04
575.155	589.38
575.516	549.6
575.877	559.1
576.238	560.68
576.599	579.21
576.96	583.28
577.32	544.18
577.681	577.4
578.042	589.15
578.403	590.96
578.763	592.77
579.124	601.81
579.485	581.92
579.845	552.77
580.206	569.94
580.566	601.35
580.927	583.05
581.287	572.88
581.648	572.43
582.008	580.11
582.368	586.44
582.728	596.16
583.089	590.51
583.449	580.11
583.809	592.54
584.169	568.36
584.529	586.89
584.889	578.3
585.249	570.17
585.609	571.3
585.969	551.86
586.329	591.86
586.688	573.56
587.048	566.33
587.408	571.75
587.768	559.77
588.127	589.15
588.487	597.06
588.846	579.89
589.206	565.2
589.565	578.98
589.925	571.98
590.284	554.58
590.643	557.06
591.003	594.8
591.362	566.78
591.721	531.98
592.08	576.72
592.44	578.98
592.799	554.35
593.158	578.08
593.517	562.03
593.876	576.5
594.235	556.38
594.593	590.73
594.952	571.3
595.311	546.67
595.67	588.25
596.029	554.8
596.387	572.65
596.746	580.11
597.104	548.7
597.463	558.19
597.822	581.92
598.18	550.28
598.538	560.68
598.897	552.54
599.255	574.01
599.613	562.03
599.972	572.65
600.33	556.38
600.688	551.64
601.046	547.34
601.404	542.15
601.762	557.74
602.12	572.2
602.478	544.41
602.836	567
603.194	571.07
603.552	561.13
603.91	570.62
604.268	526.78
604.625	554.12
604.983	534.46
605.341	556.84
605.698	555.48
606.056	580.11
606.413	541.24
606.771	560.45
607.128	557.97
607.485	537.85
607.843	547.12
608.2	543.28
608.557	576.72
608.914	557.74
609.272	553.45
609.629	566.55
609.986	552.32
610.343	563.16
610.7	535.37
611.057	546.67
611.414	522.03
611.771	541.47
612.127	543.28
612.484	538.53
612.841	534.69
613.198	539.89
613.554	513.9
613.911	531.07
614.267	537.63
614.624	538.76
614.98	533.79
615.337	522.71
615.693	537.18
616.05	528.14
616.406	534.24
616.762	532.2
617.118	544.86
617.475	536.72
617.831	531.98
618.187	520
618.543	541.02
618.899	515.93
619.255	530.17
619.611	525.88
619.967	524.52
620.323	533.11
620.678	517.97
621.034	496.05
621.39	533.11
621.746	517.97
622.101	511.19
622.457	521.58
622.812	488.14
623.168	525.2
623.523	514.12
623.879	514.12
624.234	505.99
624.589	501.24
624.945	488.59
625.3	495.14
625.655	509.61
626.01	498.53
626.365	511.41
626.72	494.24
627.075	481.58
627.43	464.41
627.785	488.14
628.14	489.27
628.495	489.27
628.85	509.38
629.205	501.24
629.559	508.02
629.914	495.59
630.269	493.33
630.623	478.65
630.978	478.65
631.332	491.98
631.687	497.85
632.041	486.1
632.396	483.39
632.75	496.5
633.104	503.05
633.459	485.65
633.813	477.74
634.167	477.29
634.521	494.46
634.875	475.26
635.229	488.59
635.583	455.82
635.937	457.86
636.291	483.17
636.645	446.56
636.999	452.66
637.352	468.48
637.706	483.84
638.06	449.04
638.413	493.56
638.767	485.65
639.121	474.58
639.474	475.71
639.828	469.38
640.181	472.77
640.534	441.13
640.888	451.3
641.241	463.28
641.594	438.19
641.947	450.62
642.301	452.66
642.654	447.69
643.007	440.68
643.36	463.05
643.713	432.77
644.066	460.12
644.419	445.88
644.771	444.97
645.124	433.68
645.477	439.1
645.83	474.13
646.182	407.01
646.535	459.21
646.888	434.58
647.24	448.59
647.593	446.56
647.945	443.84
648.298	445.88
648.65	414.47
649.002	415.82
649.355	422.83
649.707	428.7
650.059	452.66
650.411	436.16
650.763	437.06
651.115	428.48
651.467	429.83
651.819	436.61
652.171	436.16
652.523	432.09
652.875	426.9
653.227	440.23
653.578	421.47
653.93	407.24
654.282	431.42
654.633	421.47
654.985	422.15
655.337	396.39
655.688	424.18
656.039	399.1
656.391	421.25
656.742	401.36
657.094	408.14
657.445	395.26
657.796	403.39
658.147	402.49
658.498	407.91
658.849	419.66
659.2	401.81
659.551	408.59
659.902	390.06
660.253	418.99
660.604	394.35
660.955	404.52
661.306	415.14
661.656	396.61
662.007	417.86
662.358	407.69
662.708	389.61
663.059	394.81
663.409	367.01
663.76	400.91
664.11	411.3
664.461	383.96
664.811	375.15
665.161	398.42
665.511	416.95
665.862	393
666.212	389.61
666.562	383.28
666.912	397.97
667.262	393.9
667.612	388.48
667.962	374.24
668.312	397.07
668.662	363.85
669.011	404.3
669.361	387.8
669.711	378.08
670.06	384.86
670.41	397.07
670.76	387.35
671.109	356.61
671.459	377.86
671.808	390.74
672.157	395.71
672.507	387.8
672.856	375.37
673.205	389.61
673.554	381.7
673.904	361.36
674.253	378.54
674.602	373.79
674.951	392.09
675.3	394.35
675.649	380.8
675.998	375.15
676.346	363.17
676.695	361.36
677.044	376.28
677.393	382.15
677.741	389.16
678.09	375.82
678.438	351.87
678.787	346.9
679.135	359.1
679.484	372.21
679.832	376.28
680.181	371.98
680.529	400.46
680.877	356.39
681.225	374.47
681.573	377.41
681.922	361.81
682.27	364.07
682.618	357.52
682.966	371.98
683.314	382.15
683.661	362.72
684.009	377.41
684.357	354.36
684.705	375.37
685.053	360.68
685.4	369.04
685.748	359.33
686.095	385.09
686.443	360.46
686.79	332.21
687.138	359.78
687.485	363.39
687.832	369.04
688.18	331.08
688.527	354.36
688.874	374.47
689.221	354.81
689.568	369.72
689.915	355.71
690.262	367.01
690.609	350.51
690.956	354.81
691.303	352.77
691.65	346.67
691.997	374.92
692.344	365.2
692.69	339.89
693.037	359.1
693.383	350.97
693.73	342.6
694.077	336.73
694.423	350.29
694.769	335.37
695.116	342.83
695.462	359.55
695.808	345.99
696.155	355.71
696.501	349.84
696.847	354.13
697.193	335.37
697.539	347.8
697.885	344.86
698.231	332.43
698.577	353
698.923	342.83
699.269	350.97
699.614	358.65
699.96	345.99
700.306	362.49
700.651	362.04
700.997	350.06
701.342	327.69
701.688	350.51
702.033	339.21
702.379	365.2
702.724	332.43
703.069	353.23
703.415	327.92
703.76	342.83
704.105	344.19
704.45	361.13
704.795	352.55
705.14	347.35
705.485	336.05
705.83	346.9
706.175	348.25
706.52	345.09
706.865	353.9
707.209	335.15
707.554	341.25
707.899	338.31
708.243	346.9
708.588	353.9
708.932	348.48
709.277	332.43
709.621	346.67
709.966	352.55
710.31	347.12
710.654	340.34
710.998	338.76
711.342	351.19
711.687	344.41
712.031	347.35
712.375	333.34
712.719	334.02
713.063	352.32
713.407	332.89
713.75	353.45
714.094	334.92
714.438	341.02
714.782	335.82
715.125	319.33
715.469	333.79
715.812	335.37
716.156	330.4
716.499	363.17
716.843	328.59
717.186	340.34
717.53	334.47
717.873	346.45
718.216	348.48
718.559	345.09
718.902	361.59
719.246	329.05
719.589	338.08
719.932	327.01
720.275	325.88
720.617	322.27
720.96	341.7
721.303	335.82
721.646	331.98
721.989	347.58
722.331	341.25
722.674	327.92
723.016	343.06
723.359	333.11
723.701	321.14
724.044	341.7
724.386	343.06
724.729	355.71
725.071	332.89
725.413	325.2
725.755	315.49
726.097	324.3
726.439	338.76
726.782	318.65
727.124	314.36
727.465	335.15
727.807	319.55
728.149	329.95
728.491	333.79
728.833	335.37
729.175	323.4
729.516	343.51
729.858	342.15
730.199	351.19
730.541	321.81
730.882	345.32
731.224	334.92
731.565	322.72
731.906	324.53
732.248	311.64
732.589	322.49
732.93	340.12
733.271	324.07
733.612	351.64
733.953	341.7
734.294	320.46
734.635	321.36
734.976	347.12
735.317	323.17
735.658	326.56
735.999	327.24
736.339	301.02
736.68	320.23
737.021	319.78
737.361	333.11
737.702	326.11
738.042	322.72
738.383	324.07
738.723	332.66
739.063	328.59
739.404	362.94
739.744	339.67
740.084	322.49
740.424	345.54
740.764	327.92
741.104	308.48
741.444	334.69
741.784	321.81
742.124	324.07
742.464	334.92
742.804	334.92
743.143	341.93
743.483	312.32
743.823	336.28
744.162	308.71
744.502	350.06
744.841	321.36
745.181	328.59
745.52	353.68
745.86	329.5
746.199	303.96
746.538	322.27
746.877	305.54
747.216	322.49
747.556	330.63
747.895	333.79
748.234	354.36
748.573	328.14
748.911	317.29
749.25	312.1
749.589	336.05
749.928	328.37
750.267	325.88
750.605	329.27
750.944	325.88
751.283	322.27
751.621	338.31
751.96	322.49
752.298	343.51
752.636	304.19
752.975	338.99
753.313	335.82
753.651	314.81
753.989	337.86
754.327	334.47
754.666	334.47
755.004	312.1
755.342	315.71
755.679	319.78
756.017	327.01
756.355	318.88
756.693	327.01
757.031	319.33
757.368	334.24
757.706	326.56
758.044	306.45
758.381	331.98
758.719	323.17
759.056	324.07
759.394	300.35
759.731	337.18
760.068	313.45
760.405	346.9
760.743	302.83
761.08	303.96
761.417	307.58
761.754	340.34
762.091	300.8
762.428	316.39
762.765	332.89
763.102	298.54
763.438	320.01
763.775	306.45
764.112	329.5
764.449	328.14
764.785	317.75
765.122	308.25
765.458	326.11
765.795	326.79
766.131	323.4
766.467	330.4
766.804	344.41
767.14	308.71
767.476	342.83
767.812	304.19
768.148	334.92
768.485	320.91
768.821	317.75
769.157	333.56
769.492	316.84
769.828	352.77
770.164	338.31
770.5	319.55
770.836	321.36
771.171	327.92
771.507	299.89
771.842	333.56
772.178	316.84
772.513	310.06
772.849	314.36
773.184	330.4
773.519	317.97
773.855	318.88
774.19	330.4
774.525	326.11
774.86	317.97
775.195	309.16
775.53	350.74
775.865	313.45
776.2	317.29
776.535	299.67
776.87	306.9
777.205	333.79
777.539	328.82
777.874	323.17
778.209	336.05
778.543	303.28
778.878	323.85
779.212	314.58
779.547	320.23
779.881	339.67
780.215	320.68
780.55	324.98
780.884	322.04
781.218	313.68
781.552	343.96
781.886	319.55
782.22	333.11
782.554	328.14
782.888	324.3
783.222	307.8
783.556	323.17
783.889	334.47
784.223	318.42
784.557	306.67
784.89	320.23
785.224	320.46
785.557	334.02
785.891	303.06
786.224	336.05
786.558	307.12
786.891	338.31
787.224	335.37
787.557	317.52
787.891	320.23
788.224	328.14
788.557	359.55
788.89	329.05
789.223	323.85
789.556	335.82
789.888	334.92
790.221	322.94
790.554	314.58
790.887	320.01
791.219	328.82
791.552	326.11
791.884	302.61
792.217	317.07
792.549	319.78
792.882	334.24
793.214	322.27
793.546	330.17
793.879	332.89
794.211	326.79
794.543	332.43
794.875	330.85
795.207	329.95
795.539	314.58
795.871	315.94
796.203	311.19
796.535	339.67
796.867	332.43
797.198	315.03
797.53	318.2
797.862	336.73
798.193	315.49
798.525	315.94
798.856	324.3
799.188	337.86
799.519	337.63
799.85	334.02
800.182	338.54
800.513	305.77
800.844	328.59
801.175	306.45
801.506	339.44
801.837	337.18
802.168	329.27
802.499	330.85
802.83	316.62
803.161	316.84
803.491	311.64
803.822	329.72
804.153	328.82
804.483	328.82
804.814	345.09
805.145	341.47
805.475	320.46
805.805	332.21
806.136	314.36
806.466	319.78
806.796	326.79
807.126	306.22
807.457	309.38
807.787	324.75
808.117	332.21
808.447	334.02
808.777	321.14
809.107	323.62
809.436	334.24
809.766	334.92
810.096	328.82
810.426	302.61
810.755	310.74
811.085	323.17
811.414	326.56
811.744	322.27
812.073	307.8
812.403	309.61
812.732	327.01
813.061	308.48
813.39	313.68
813.719	330.17
814.049	325.43
814.378	326.79
814.707	327.69
815.036	325.2
815.365	330.63
815.693	335.6
816.022	309.16
816.351	321.36
816.68	319.33
817.008	335.6
817.337	326.56
817.665	331.3
817.994	321.14
818.322	338.31
818.651	320.91
818.979	341.02
819.307	324.07
819.636	320.68
819.964	292.21
820.292	308.48
820.62	315.03
820.948	312.77
821.276	334.24
821.604	312.77
821.932	322.49
822.259	331.53
822.587	315.71
822.915	318.88
823.243	316.62
823.57	331.98
823.898	315.49
824.225	340.57
824.553	318.42
824.88	317.97
825.207	311.87
825.535	301.48
825.862	323.17
826.189	317.29
826.516	313.9
826.843	328.82
827.17	308.25
827.497	332.43
827.824	311.64
828.151	321.14
828.478	323.17
828.805	326.33
829.131	317.97
829.458	330.4
829.785	337.86
830.111	325.88
830.438	314.13
830.764	309.61
831.09	296.73
831.417	308.71
831.743	329.5
832.069	315.26
832.395	311.19
832.722	325.2
833.048	311.64
833.374	324.98
833.7	305.32
834.026	331.98
834.351	312.77
834.677	315.49
835.003	322.27
835.329	315.71
835.654	324.75
835.98	332.43
836.306	308.25
836.631	313.23
836.956	313.9
837.282	327.92
837.607	331.76
837.932	327.92
838.258	318.42
838.583	332.66
838.908	330.85
839.233	324.07
839.558	329.72
839.883	337.86
840.208	311.42
840.533	312.55
840.858	314.13
841.182	312.77
841.507	303.28
841.832	305.77
842.156	329.72
842.481	309.84
842.805	323.85
843.13	307.58
843.454	327.01
843.778	333.34
844.103	300.57
844.427	328.82
844.751	321.81
845.075	313.68
845.399	319.1
845.723	329.95
846.047	305.77
846.371	324.3
846.695	306.22
847.019	341.47
847.343	328.59
847.666	299.22
847.99	310.29
848.313	321.81
848.637	323.85
848.96	308.48
849.284	305.77
849.607	292.66
849.931	300.12
850.254	326.79
850.577	310.97
850.9	311.87
851.223	313.9
851.546	323.17
851.869	306.67
852.192	313.68
852.515	317.07
852.838	320.46
853.161	298.54
853.483	348.25
853.806	324.3
854.129	320.91
854.451	324.3
854.774	337.86
855.096	329.95
855.419	315.49
855.741	318.42
856.063	312.77
856.385	300.8
856.708	302.83
857.03	322.94
857.352	322.04
857.674	340.12
857.996	313.23
858.318	314.36
858.64	320.91
858.961	321.14
859.283	313.9
859.605	330.63
859.926	331.08
860.248	323.85
860.57	307.35
860.891	308.48
861.212	316.16
861.534	313.23
861.855	317.29
862.176	308.25
862.498	327.46
862.819	324.07
863.14	317.29
863.461	314.36
863.782	308.03
864.103	328.37
864.424	291.98
864.745	317.52
865.065	334.69
865.386	311.42
865.707	319.78
866.027	327.46
866.348	316.39
866.668	305.32
866.989	316.84
867.309	302.38
867.63	327.92
867.95	320.46
868.27	306.45
868.59	321.36
868.91	321.59
869.23	317.97
869.55	319.78
869.87	320.46
870.19	319.55
870.51	304.64
870.83	331.08
871.15	318.88
871.469	331.53
871.789	310.97
872.109	312.77
872.428	313.23
872.748	335.37
873.067	315.49
873.386	310.51
873.706	298.31
874.025	325.66
874.344	322.27
874.663	320.91
874.982	316.84
875.301	315.03
875.62	326.56
875.939	331.98
876.258	309.84
876.577	317.97
876.896	317.52
877.214	327.46
877.533	320.23
877.852	307.58
878.17	329.27
878.489	298.09
878.807	322.94
879.125	327.92
879.444	318.88
879.762	335.37
880.08	295.6
880.398	312.77
880.716	343.51
881.034	309.84
881.352	306.45
881.67	316.39
881.988	317.07
882.306	326.33
882.624	317.07
882.941	321.14
883.259	317.52
883.577	312.32
883.894	308.71
884.212	315.94
884.529	319.1
884.846	308.25
885.164	318.65
885.481	306.9
885.798	309.61
886.115	309.16
886.432	303.28
886.75	303.06
887.067	312.55
887.383	323.4
887.7	313.68
888.017	316.16
888.334	305.09
888.651	327.24
888.967	310.06
889.284	331.76
889.6	318.42
889.917	326.33
890.233	294.47
890.55	319.78
890.866	327.01
891.182	306.22
891.498	327.69
891.815	305.99
892.131	310.51
892.447	324.98
892.763	307.8
893.079	305.99
893.395	316.39
893.71	298.54
894.026	301.7
894.342	324.3
894.657	315.71
894.973	319.55
895.289	310.74
895.604	310.97
895.92	317.97
896.235	315.03
896.55	334.24
896.865	313.23
897.181	318.88
897.496	321.81
897.811	313.45
898.126	332.21
898.441	320.23
898.756	317.52
899.071	331.53
899.386	309.16
899.7	310.97
900.015	334.02
900.33	314.58
900.644	313
900.959	317.97
901.273	303.96
901.588	314.13
901.902	331.08
902.216	314.13
902.531	303.06
902.845	310.29
903.159	329.27
903.473	311.19
903.787	306.67
904.101	314.36
904.415	331.53
904.729	300.8
905.042	317.52
905.356	307.12
905.67	315.03
905.984	309.38
906.297	322.04
906.611	309.84
906.924	319.33
907.237	302.38
907.551	319.33
907.864	293.11
908.177	319.78
908.491	331.53
908.804	336.73
909.117	323.4
909.43	291.76
909.743	324.07
910.056	303.51
910.368	318.65
910.681	314.13
910.994	298.31
911.307	300.57
911.619	324.07
911.932	291.53
912.244	342.15
912.557	313.45
912.869	308.71
913.181	300.12
913.494	336.95
913.806	315.94
914.118	315.26
914.43	311.42
914.742	316.84
915.054	282.27
915.366	333.56
915.678	309.38
915.99	310.06
916.302	307.35
916.613	309.16
916.925	310.97
917.236	326.11
917.548	306.45
917.859	297.18
918.171	298.76
918.482	310.97
918.794	293.79
919.105	290.63
919.416	316.62
919.727	304.64
920.038	328.14
920.349	331.3
920.66	315.03
920.971	311.64
921.282	294.47
921.593	294.24
921.903	306.45
922.214	305.99
922.525	350.97
922.835	312.1
923.146	328.59
923.456	304.86
923.767	329.95
924.077	327.01
924.387	329.5
924.697	315.26
925.008	332.43
925.318	315.94
925.628	317.97
925.938	324.98
926.248	321.59
926.558	321.81
926.867	303.73
927.177	317.97
927.487	306.9
927.796	308.03
928.106	320.23
928.416	317.29
928.725	313.45
929.034	326.56
929.344	330.17
929.653	317.97
929.962	318.65
930.271	301.48
930.581	311.19
930.89	326.11
931.199	303.51
931.508	309.84
931.817	295.6
932.125	320.46
932.434	321.81
932.743	322.49
933.051	321.14
933.36	314.36
933.669	314.13
933.977	293.34
934.286	316.84
934.594	314.36
934.902	302.83
935.21	307.35
935.519	306.45
935.827	334.92
936.135	330.17
936.443	330.4
936.751	300.8
937.059	320.68
937.367	312.32
937.674	313
937.982	306.22
938.29	311.87
938.597	334.24
938.905	293.57
939.213	312.1
939.52	328.82
939.827	303.96
940.135	324.75
940.442	328.37
940.749	313
941.056	303.06
941.363	324.75
941.67	327.69
941.977	327.69
942.284	321.14
942.591	317.29
942.898	313.45
943.205	291.53
943.511	328.37
943.818	317.29
944.125	297.41
944.431	321.81
944.738	316.84
945.044	311.87
945.35	334.92
945.657	323.17
945.963	299.44
946.269	332.21
946.575	331.3
946.881	325.43
947.187	307.8
947.493	326.79
947.799	317.29
948.105	323.17
948.41	310.29
948.716	319.78
949.022	310.51
949.327	311.87
949.633	304.86
949.938	307.12
950.244	322.49
950.549	340.57
950.854	323.17
951.16	324.75
951.465	321.36
951.77	309.16
952.075	301.02
952.38	329.05
952.685	321.59
952.99	331.3
953.294	315.03
953.599	330.17
953.904	305.99
954.209	326.79
954.513	298.76
954.818	305.99
955.122	320.68
955.426	317.07
955.731	303.28
956.035	303.96
956.339	320.01
956.643	321.14
956.948	301.7
957.252	291.98
957.556	317.52
957.86	303.28
958.163	307.58
958.467	320.01
958.771	304.86
959.075	315.03
959.378	299.89
959.682	315.03
959.985	322.27
960.289	312.77
960.592	316.39
960.896	315.94
961.199	303.51
961.502	316.84
961.805	298.54
962.108	308.48
962.411	314.13
962.714	303.28
963.017	294.92
963.32	311.64
963.623	310.06
963.926	314.13
964.228	308.71
964.531	308.48
964.833	296.73
965.136	311.19
965.438	306.22
965.741	306.22
966.043	335.15
966.345	328.82
966.648	310.51
966.95	301.7
967.252	315.49
967.554	334.47
967.856	312.55
968.158	313.23
968.46	327.01
968.761	318.65
969.063	324.98
969.365	315.26
969.666	318.2
969.968	330.63
970.269	296.96
970.571	287.24
970.872	310.74
971.174	315.71
971.475	298.99
971.776	307.58
972.077	296.96
972.378	331.76
972.679	333.56
972.98	331.3
973.281	325.2
973.582	323.62
973.883	297.63
974.183	314.13
974.484	297.86
974.785	323.62
975.085	307.12
975.386	320.23
975.686	292.44
975.986	302.83
976.287	309.61
976.587	304.41
976.887	320.23
977.187	341.47
977.487	298.76
977.787	308.03
978.087	326.33
978.387	311.87
978.687	317.07
978.987	312.1
979.286	310.74
979.586	285.2
979.885	296.73
980.185	310.51
980.484	307.12
980.784	307.12
981.083	304.64
981.382	301.25
981.682	311.64
981.981	306.67
982.28	294.7
982.579	317.97
982.878	314.81
983.177	301.25
983.475	320.23
983.774	296.28
984.073	298.99
984.372	308.71
984.67	303.51
984.969	299.67
985.267	312.77
985.566	324.75
985.864	294.47
986.162	289.95
986.461	319.55
986.759	314.36
987.057	299.89
987.355	322.72
987.653	313.23
987.951	318.65
988.249	320.01
988.547	310.74
988.844	305.32
989.142	313.68
989.44	324.98
989.737	311.64
990.035	284.3
990.332	327.69
990.63	322.27
990.927	308.93
991.224	301.02
991.521	294.47
991.819	302.83
992.116	325.88
992.413	336.5
992.71	295.37
993.006	312.1
993.303	305.09
993.6	314.58
993.897	317.75
994.193	315.71
994.49	305.77
994.787	317.75
995.083	320.68
995.379	313
995.676	305.09
995.972	299.89
996.268	308.25
996.565	316.39
996.861	303.28
997.157	317.97
997.453	295.83
997.749	308.71
998.044	313
998.34	309.38
998.636	321.36
998.932	315.94
999.227	310.29
999.523	312.1
999.818	300.8
1000.114	316.62
1000.409	305.77
1000.704	323.4
1001	320.68
1001.295	312.77
1001.59	315.03
1001.885	302.83
1002.18	305.99
1002.475	312.77
1002.77	297.18
1003.065	329.95
1003.359	310.74
1003.654	318.42
1003.949	295.37
1004.243	310.51
1004.538	324.07
1004.832	317.29
1005.127	328.14
1005.421	314.81
1005.715	323.62
1006.009	319.33
1006.304	324.75
1006.598	321.81
1006.892	296.5
1007.186	317.75
1007.48	297.86
1007.773	327.46
1008.067	317.97
1008.361	319.33
1008.655	296.05
1008.948	318.2
1009.242	303.96
1009.535	302.83
1009.829	305.77
1010.122	305.09
1010.415	307.58
1010.708	292.21
1011.001	319.33
1011.295	306.22
1011.588	306.45
1011.881	322.04
1012.173	312.32
1012.466	301.25
1012.759	317.29
1013.052	307.35
1013.344	317.52
1013.637	297.63
1013.93	330.4
1014.222	308.93
1014.514	318.42
1014.807	326.56
1015.099	318.88
1015.391	312.55
1015.683	320.46
1015.976	312.77
1016.268	311.64
1016.56	310.74
1016.851	328.37
1017.143	316.84
1017.435	317.52
1017.727	304.64
1018.018	294.02
1018.31	308.25
1018.602	314.36
1018.893	306.67
1019.185	317.97
1019.476	306.45
1019.767	340.8
1020.058	317.07
1020.35	318.2
1020.641	286.11
1020.932	318.2
1021.223	303.51
1021.514	313.68
1021.804	325.43
1022.095	318.88
1022.386	308.48
1022.677	309.61
1022.967	315.71
1023.258	306.67
1023.548	307.12
1023.839	304.64
1024.129	315.71
1024.419	302.15
1024.709	323.85
1025	325.66
1025.29	310.97
1025.58	294.92
1025.87	308.48
1026.16	314.36
1026.449	290.18
1026.739	307.35
1027.029	309.61
1027.319	300.8
1027.608	309.38
1027.898	329.5
1028.187	308.71
1028.477	288.82
1028.766	317.97
1029.055	296.05
1029.344	296.5
1029.634	325.43
1029.923	334.24
1030.212	287.24
1030.501	304.19
1030.79	301.48
1031.078	312.1
1031.367	291.53
1031.656	291.31
1031.945	309.16
1032.233	313.23
1032.522	325.66
1032.81	322.94
1033.099	296.73
1033.387	301.7
1033.675	297.18
1033.963	313.9
1034.251	307.8
1034.54	304.41
1034.828	298.09
1035.116	308.03
1035.403	328.59
1035.691	315.03
1035.979	308.93
1036.267	292.21
1036.554	303.51
1036.842	314.58
1037.129	308.48
1037.417	315.94
1037.704	308.25
1037.992	318.42
1038.279	307.12
1038.566	314.58
1038.853	314.58
1039.14	314.58
