Data from No_light_on_white_reflection_standard_FLMS001491_024.txt Node
Date: Tue Feb 07 10:32:57 GMT 2017
User: dcchb
Spectrometer: FLMS00149
Trigger mode: 0
Integration Time (sec): 2.000000E-2
Scans to average: 10
Electric dark correction enabled: true
Nonlinearity correction enabled: false
Boxcar width: 0
XAxis mode: Wavelengths
Number of Pixels in Spectrum: 2048
>>>>>Begin Spectral Data<<<<<
341.393	-15.47
341.776	-15.47
342.16	-15.47
342.543	-69.48
342.927	-58.4
343.31	-74.9
343.693	-65.63
344.077	-60.66
344.46	-39.87
344.843	-60.89
345.226	-42.81
345.61	-36.71
345.993	-25.86
346.376	-8.23
346.759	-1.91
347.142	39
347.525	47.36
347.908	55.04
348.291	70.41
348.674	100.01
349.057	105.66
349.44	117.86
349.823	126.23
350.206	147.92
350.588	170.52
350.971	192.44
351.354	173
351.737	204.87
352.119	226.34
352.502	219.78
352.884	254.36
353.267	243.96
353.65	277.41
354.032	258.65
354.414	257.07
354.797	283.28
355.179	262.72
355.562	278.76
355.944	298.42
356.326	306.56
356.709	308.14
357.091	291.87
357.473	297.97
357.855	285.32
358.238	315.15
358.62	311.31
359.002	312.66
359.384	301.81
359.766	295.03
360.148	297.97
360.53	321.93
360.912	299.55
361.294	296.84
361.676	308.82
362.057	309.95
362.439	310.85
362.821	294.81
363.203	294.36
363.584	290.29
363.966	293
364.348	289.61
364.729	282.15
365.111	280.35
365.493	286.45
365.874	264.07
366.256	290.97
366.637	272.44
367.019	260.69
367.4	281.48
367.781	289.61
368.163	278.54
368.544	259.33
368.925	270.18
369.306	287.13
369.688	279.22
370.069	265.88
370.45	248.71
370.831	269.95
371.212	274.47
371.593	272.44
371.974	276.05
372.355	275.37
372.736	286.45
373.117	268.14
373.498	281.25
373.879	261.36
374.26	270.4
374.641	286.45
375.021	256.39
375.402	273.79
375.783	278.09
376.163	297.97
376.544	280.57
376.925	296.62
377.305	295.71
377.686	280.35
378.066	285.32
378.447	284.64
378.827	299.78
379.208	270.18
379.588	276.73
379.968	267.46
380.349	269.72
380.729	278.54
381.109	267.69
381.489	284.64
381.87	294.36
382.25	283.74
382.63	284.87
383.01	265.66
383.39	283.51
383.77	300.01
384.15	281.48
384.53	293
384.91	295.71
385.29	298.88
385.67	301.59
386.049	281.93
386.429	282.61
386.809	282.38
387.189	281.7
387.568	300.91
387.948	279.67
388.328	303.62
388.707	290.74
389.087	316.95
389.466	279.22
389.846	284.87
390.225	281.25
390.605	257.07
390.984	290.06
391.363	264.75
391.743	285.54
392.122	293.23
392.501	285.32
392.881	291.64
393.26	326.22
393.639	262.95
394.018	284.87
394.397	300.91
394.776	292.1
395.155	295.94
395.534	301.81
395.913	276.96
396.292	293
396.671	293.68
397.05	283.28
397.429	292.32
397.808	298.88
398.186	300.23
398.565	293
398.944	296.16
399.323	327.12
399.701	289.61
400.08	306.56
400.458	297.07
400.837	303.62
401.215	297.75
401.594	309.72
401.972	278.31
402.351	288.03
402.729	316.95
403.107	305.88
403.486	276.96
403.864	288.93
404.242	300.01
404.62	302.72
404.999	287.13
405.377	296.16
405.755	295.49
406.133	291.42
406.511	276.5
406.889	279.67
407.267	275.37
407.645	299.1
408.023	300.01
408.401	286.67
408.779	294.13
409.156	294.36
409.534	293.68
409.912	306.56
410.29	304.3
410.667	295.94
411.045	288.48
411.422	293.45
411.8	289.16
412.178	316.95
412.555	325.54
412.933	298.88
413.31	291.19
413.687	295.94
414.065	311.08
414.442	285.09
414.819	304.98
415.197	294.36
415.574	306.79
415.951	299.78
416.328	310.63
416.705	295.26
417.082	303.85
417.46	309.05
417.837	300.46
418.214	302.72
418.591	314.24
418.967	307.01
419.344	302.49
419.721	291.19
420.098	301.14
420.475	308.37
420.852	302.04
421.228	311.31
421.605	302.49
421.982	312.66
422.358	307.92
422.735	308.59
423.111	314.7
423.488	311.98
423.864	329.16
424.241	320.8
424.617	297.97
424.994	299.55
425.37	310.18
425.746	300.46
426.123	333
426.499	300.46
426.875	310.85
427.251	315.37
427.627	290.97
428.003	308.37
428.379	309.72
428.756	301.14
429.132	294.81
429.507	318.08
429.883	316.95
430.259	333.45
430.635	341.14
431.011	300.91
431.387	323.51
431.763	315.6
432.138	324.41
432.514	318.99
432.89	304.3
433.265	306.33
433.641	322.15
434.016	313.11
434.392	317.86
434.767	318.99
435.143	321.02
435.518	329.61
435.894	325.54
436.269	332.55
436.644	307.69
437.02	326.67
437.395	310.18
437.77	321.25
438.145	310.18
438.52	332.1
438.895	330.51
439.271	314.92
439.646	330.97
440.021	350.63
440.395	338.65
440.77	331.87
441.145	353.56
441.52	345.88
441.895	336.39
442.27	337.52
442.645	337.97
443.019	316.5
443.394	328.93
443.769	336.84
444.143	350.63
444.518	349.27
444.892	347.01
445.267	361.02
445.641	359.21
446.016	360.8
446.39	350.63
446.764	347.91
447.139	359.21
447.513	335.26
447.887	350.17
448.262	347.01
448.636	363.73
449.01	353.11
449.384	346.11
449.758	363.96
450.132	349.5
450.506	354.69
450.88	366.45
451.254	372.55
451.628	370.74
452.002	355.6
452.376	357.41
452.75	368.93
453.123	359.21
453.497	347.24
453.871	366.67
454.244	351.98
454.618	341.81
454.992	376.61
455.365	349.72
455.739	387.91
456.112	363.06
456.486	373
456.859	363.06
457.232	380.46
457.606	380.23
457.979	356.05
458.352	347.24
458.725	366.22
459.099	351.98
459.472	371.19
459.845	335.71
460.218	339.1
460.591	351.53
460.964	334.58
461.337	334.13
461.71	348.82
462.083	362.6
462.456	345.43
462.829	357.63
463.201	344.52
463.574	353.56
463.947	339.55
464.32	347.69
464.692	341.14
465.065	340.01
465.438	352.43
465.81	355.82
466.183	340.23
466.555	351.53
466.928	348.14
467.3	376.16
467.672	349.04
468.045	336.62
468.417	360.12
468.789	359.21
469.161	361.47
469.534	362.6
469.906	359.44
470.278	344.07
470.65	359.44
471.022	340.23
471.394	372.09
471.766	353.11
472.138	360.8
472.51	333.68
472.882	357.41
473.253	358.54
473.625	343.39
473.997	335.71
474.369	358.76
474.74	358.08
475.112	331.42
475.484	340.23
475.855	344.3
476.227	352.89
476.598	351.53
476.97	349.27
477.341	340.01
477.713	362.38
478.084	355.6
478.455	352.89
478.827	334.13
479.198	366.9
479.569	369.83
479.94	342.72
480.311	339.78
480.682	351.3
481.053	346.56
481.424	343.17
481.795	356.05
482.166	351.3
482.537	355.15
482.908	364.64
483.279	365.99
483.65	333.68
484.021	369.61
484.391	360.12
484.762	348.14
485.133	350.85
485.503	356.95
485.874	359.44
486.244	350.85
486.615	360.57
486.985	365.54
487.356	354.92
487.726	356.05
488.097	359.44
488.467	373.45
488.837	365.32
489.207	378.65
489.578	353.79
489.948	372.32
490.318	385.88
490.688	384.98
491.058	386.56
491.428	373.22
491.798	375.94
492.168	353.11
492.538	386.11
492.908	370.29
493.278	371.42
493.648	382.04
494.017	365.77
494.387	372.09
494.757	382.49
495.126	383.62
495.496	398.31
495.866	387.91
496.235	401.25
496.605	371.19
496.974	408.93
497.344	381.81
497.713	414.35
498.082	375.03
498.452	412.32
498.821	404.64
499.19	379.55
499.559	383.85
499.928	376.61
500.298	396.05
500.667	387.69
501.036	414.81
501.405	394.47
501.774	409.16
502.143	399.66
502.512	413.45
502.88	400.57
503.249	393.56
503.618	397.86
503.987	402.38
504.356	406.44
504.724	423.62
505.093	403.96
505.462	405.09
505.83	407.57
506.199	420
506.567	405.31
506.936	417.97
507.304	418.2
507.672	434.01
508.041	414.13
508.409	434.69
508.777	426.56
509.145	434.24
509.514	430.17
509.882	425.65
510.25	441.02
510.618	437.18
510.986	443.05
511.354	447.35
511.722	435.14
512.09	435.37
512.458	419.33
512.826	431.75
513.193	447.35
513.561	451.64
513.929	432.43
514.297	447.8
514.664	464.52
515.032	442.6
515.4	445.77
515.767	439.21
516.135	439.66
516.502	444.18
516.869	446.9
517.237	440.57
517.604	436.27
517.972	443.05
518.339	435.37
518.706	443.28
519.073	462.71
519.44	448.93
519.808	450.51
520.175	448.48
520.542	453.45
520.909	455.93
521.276	452.32
521.643	450.06
522.009	458.65
522.376	468.82
522.743	471.3
523.11	487.57
523.477	477.63
523.843	451.19
524.21	456.39
524.577	469.04
524.943	482.83
525.31	477.85
525.676	450.96
526.043	480.34
526.409	472.66
526.776	473.56
527.142	474.46
527.508	475.59
527.874	462.04
528.241	485.31
528.607	477.4
528.973	485.99
529.339	509.27
529.705	456.84
530.071	488.25
530.437	485.76
530.803	497.74
531.169	490.96
531.535	487.57
531.901	503.39
532.267	501.36
532.632	496.39
532.998	474.24
533.364	507.91
533.73	484.18
534.095	497.06
534.461	487.57
534.826	495.48
535.192	491.87
535.557	489.83
535.923	508.36
536.288	484.63
536.653	507.68
537.019	505.42
537.384	504.07
537.749	490.28
538.114	504.97
538.479	497.74
538.845	497.97
539.21	477.4
539.575	519.44
539.94	491.64
540.305	521.24
540.67	505.2
541.034	502.49
541.399	507.91
541.764	495.48
542.129	516.5
542.494	496.84
542.858	509.94
543.223	523.73
543.587	511.3
543.952	500.68
544.316	510.4
544.681	497.97
545.045	486.67
545.41	511.75
545.774	536.38
546.138	528.47
546.503	520.79
546.867	526.67
547.231	503.16
547.595	514.01
547.959	518.98
548.324	507.23
548.688	507.01
549.052	522.6
549.416	517.85
549.779	511.07
550.143	536.16
550.507	515.59
550.871	516.27
551.235	509.04
551.599	534.8
551.962	502.03
552.326	540.45
552.689	518.31
553.053	513.56
553.417	537.97
553.78	537.51
554.143	514.69
554.507	521.7
554.87	559.43
555.234	537.97
555.597	537.51
555.96	532.54
556.323	554.24
556.686	535.48
557.05	552.43
557.413	553.11
557.776	521.7
558.139	520.79
558.502	537.51
558.865	561.24
559.228	528.47
559.59	535.48
559.953	542.26
560.316	534.58
560.679	537.29
561.041	545.88
561.404	533.67
561.767	558.98
562.129	544.97
562.492	562.37
562.854	550.4
563.217	537.29
563.579	535.25
563.941	556.27
564.304	561.47
564.666	549.94
565.028	554.69
565.39	547.68
565.753	549.04
566.115	561.02
566.477	536.38
566.839	590.62
567.201	575.48
567.563	557.63
567.925	565.54
568.287	549.49
568.648	551.07
569.01	565.54
569.372	569.15
569.734	558.3
570.095	557.85
570.457	571.19
570.819	564.18
571.18	578.19
571.542	587.68
571.903	574.12
572.265	573.9
572.626	565.31
572.987	576.61
573.349	587
573.71	572.32
574.071	589.94
574.432	566.89
574.794	581.35
575.155	572.32
575.516	581.35
575.877	567.12
576.238	584.29
576.599	581.58
576.96	577.29
577.32	550.4
577.681	593.11
578.042	564.18
578.403	588.36
578.763	597.63
579.124	600.79
579.485	575.71
579.845	574.12
580.206	595.59
580.566	607.79
580.927	597.4
581.287	577.29
581.648	573.9
582.008	570.73
582.368	596.95
582.728	574.58
583.089	610.73
583.449	574.58
583.809	576.16
584.169	582.48
584.529	540.9
584.889	571.19
585.249	564.63
585.609	588.36
585.969	577.74
586.329	583.16
586.688	571.41
587.048	572.77
587.408	594.91
587.768	586.78
588.127	555.82
588.487	567.34
588.846	575.25
589.206	599.21
589.565	594.91
589.925	575.03
590.284	591.98
590.643	578.42
591.003	577.97
591.362	574.8
591.721	575.25
592.08	615.03
592.44	590.62
592.799	560.56
593.158	563.5
593.517	547.46
593.876	576.61
594.235	585.87
594.593	577.06
594.952	563.73
595.311	568.7
595.67	570.96
596.029	556.72
596.387	580
596.746	559.89
597.104	571.86
597.463	563.73
597.822	553.11
598.18	579.55
598.538	588.36
598.897	534.58
599.255	547.46
599.613	556.04
599.972	576.84
600.33	575.03
600.688	570.73
601.046	568.25
601.404	573.9
601.762	545.88
602.12	566.21
602.478	544.07
602.836	566.21
603.194	556.04
603.552	564.41
603.91	564.86
604.268	562.82
604.625	585.65
604.983	558.98
605.341	562.82
605.698	561.02
606.056	547.91
606.413	552.65
606.771	560.56
607.128	558.76
607.485	540.9
607.843	542.26
608.2	548.36
608.557	552.65
608.914	584.97
609.272	556.72
609.629	571.86
609.986	555.82
610.343	533.9
610.7	553.33
611.057	539.1
611.414	546.55
611.771	549.72
612.127	546.55
612.484	535.25
612.841	546.1
613.198	535.25
613.554	537.74
613.911	554.01
614.267	543.62
614.624	546.1
614.98	529.83
615.337	528.02
615.693	536.84
616.05	547.46
616.406	522.6
616.762	546.33
617.118	544.52
617.475	547.68
617.831	535.93
618.187	507.46
618.543	523.96
618.899	532.54
619.255	525.31
619.611	506.78
619.967	518.31
620.323	523.05
620.678	522.15
621.034	529.38
621.39	492.54
621.746	531.86
622.101	527.34
622.457	528.7
622.812	530.96
623.168	513.33
623.523	514.69
623.879	523.96
624.234	500
624.589	510.85
624.945	499.77
625.3	497.97
625.655	492.77
626.01	498.19
626.365	520.11
626.72	490.28
627.075	497.97
627.43	498.19
627.785	508.36
628.14	489.61
628.495	513.56
628.85	493
629.205	506.55
629.559	497.97
629.914	497.06
630.269	507.68
630.623	509.04
630.978	503.16
631.332	481.02
631.687	493
632.041	513.33
632.396	493
632.75	487.12
633.104	472.66
633.459	494.58
633.813	476.27
634.167	470.62
634.521	478.08
634.875	464.97
635.229	449.15
635.583	482.37
635.937	463.17
636.291	461.58
636.645	471.53
636.999	478.53
637.352	466.78
637.706	467.91
638.06	464.97
638.413	471.75
638.767	462.71
639.121	461.58
639.474	471.3
639.828	464.97
640.181	466.78
640.534	476.5
640.888	492.32
641.241	475.82
641.594	440.79
641.947	460.45
642.301	458.19
642.654	459.78
643.007	442.38
643.36	454.58
643.713	430.85
644.066	441.47
644.419	467.46
644.771	448.02
645.124	431.08
645.477	430.85
645.83	451.19
646.182	454.8
646.535	453.67
646.888	442.83
647.24	435.37
647.593	438.99
647.945	455.03
648.298	438.31
648.65	433.79
649.002	435.82
649.355	445.77
649.707	441.02
650.059	413.22
650.411	405.99
650.763	438.08
651.115	440.79
651.467	420
651.819	434.92
652.171	474.01
652.523	438.53
652.875	417.29
653.227	436.27
653.578	438.08
653.93	425.65
654.282	412.09
654.633	439.66
654.985	428.14
655.337	425.65
655.688	444.86
656.039	419.33
656.391	416.16
656.742	410.29
657.094	400.34
657.445	399.66
657.796	420
658.147	418.2
658.498	410.29
658.849	394.24
659.2	430.85
659.551	429.49
659.902	412.55
660.253	405.54
660.604	415.94
660.955	394.92
661.306	401.92
661.656	406.22
662.007	396.73
662.358	398.08
662.708	359.67
663.059	401.02
663.409	394.92
663.76	401.7
664.11	412.32
664.461	392.66
664.811	396.5
665.161	422.49
665.511	389.5
665.862	399.89
666.212	387.69
666.562	392.43
666.912	410.96
667.262	424.75
667.612	398.99
667.962	389.27
668.312	386.11
668.662	382.49
669.011	384.3
669.361	397.18
669.711	377.97
670.06	392.21
670.41	385.65
670.76	381.81
671.109	394.69
671.459	392.89
671.808	390.63
672.157	405.09
672.507	379.1
672.856	391.76
673.205	358.08
673.554	389.5
673.904	374.35
674.253	358.31
674.602	388.59
674.951	385.65
675.3	384.52
675.649	398.31
675.998	373.68
676.346	363.28
676.695	382.04
677.044	378.65
677.393	406.44
677.741	370.51
678.09	393.11
678.438	373.22
678.787	363.28
679.135	374.35
679.484	382.72
679.832	371.64
680.181	391.3
680.529	388.59
680.877	366.67
681.225	376.16
681.573	372.77
681.922	365.09
682.27	372.55
682.618	375.26
682.966	384.3
683.314	384.98
683.661	367.35
684.009	351.76
684.357	368.48
684.705	373.45
685.053	364.19
685.4	370.51
685.748	360.8
686.095	364.19
686.443	353.11
686.79	375.48
687.138	380.68
687.485	359.67
687.832	367.8
688.18	352.66
688.527	369.38
688.874	369.16
689.221	344.52
689.568	364.19
689.915	340.46
690.262	356.05
690.609	367.35
690.956	349.27
691.303	368.7
691.65	363.51
691.997	332.1
692.344	361.02
692.69	357.41
693.037	370.06
693.383	348.59
693.73	367.58
694.077	351.53
694.423	337.97
694.769	355.6
695.116	368.25
695.462	374.35
695.808	389.72
696.155	362.38
696.501	368.03
696.847	358.99
697.193	360.12
697.539	328.48
697.885	354.69
698.231	357.63
698.577	359.21
698.923	362.6
699.269	333.45
699.614	340.01
699.96	349.5
700.306	354.24
700.651	345.43
700.997	343.85
701.342	357.41
701.688	353.56
702.033	354.69
702.379	342.94
702.724	357.18
703.069	348.82
703.415	350.63
703.76	354.47
704.105	358.99
704.45	354.02
704.795	341.36
705.14	348.82
705.485	364.19
705.83	347.91
706.175	340.91
706.52	353.34
706.865	352.43
707.209	343.39
707.554	329.61
707.899	355.82
708.243	339.55
708.588	342.04
708.932	345.88
709.277	344.07
709.621	329.16
709.966	343.17
710.31	347.69
710.654	327.8
710.998	338.2
711.342	355.37
711.687	324.86
712.031	341.14
712.375	321.47
712.719	331.64
713.063	349.27
713.407	345.2
713.75	330.74
714.094	349.5
714.438	359.89
714.782	353.34
715.125	350.63
715.469	361.47
715.812	335.26
716.156	351.98
716.499	328.25
716.843	343.17
717.186	360.57
717.53	330.97
717.873	332.77
718.216	340.46
718.559	344.52
718.902	335.94
719.246	353.79
719.589	328.03
719.932	335.03
720.275	332.32
720.617	330.06
720.96	337.07
721.303	329.16
721.646	324.86
721.989	346.11
722.331	340.46
722.674	315.83
723.016	324.86
723.359	355.37
723.701	330.51
724.044	342.94
724.386	336.16
724.729	332.77
725.071	323.28
725.413	333.68
725.755	341.14
726.097	360.8
726.439	315.6
726.782	315.83
727.124	339.33
727.465	331.87
727.807	330.74
728.149	340.23
728.491	322.6
728.833	330.51
729.175	318.99
729.516	332.32
729.858	326.9
730.199	328.71
730.541	325.54
730.882	338.2
731.224	332.55
731.565	337.29
731.906	329.38
732.248	325.09
732.589	337.97
732.93	331.64
733.271	335.26
733.612	337.29
733.953	336.84
734.294	335.49
734.635	335.71
734.976	337.29
735.317	321.02
735.658	321.47
735.999	363.28
736.339	334.36
736.68	331.87
737.021	342.04
737.361	318.31
737.702	334.81
738.042	346.33
738.383	318.76
738.723	337.52
739.063	325.99
739.404	348.82
739.744	335.26
740.084	336.62
740.424	343.62
740.764	311.31
741.104	335.26
741.444	332.55
741.784	342.04
742.124	340.23
742.464	331.42
742.804	325.54
743.143	320.34
743.483	323.51
743.823	347.46
744.162	337.29
744.502	327.35
744.841	331.64
745.181	352.89
745.52	318.99
745.86	336.84
746.199	298.42
746.538	330.51
746.877	347.91
747.216	330.97
747.556	330.74
747.895	339.78
748.234	336.39
748.573	330.51
748.911	331.64
749.25	301.59
749.589	340.91
749.928	314.02
750.267	325.77
750.605	338.2
750.944	320.34
751.283	343.85
751.621	331.19
751.96	337.97
752.298	322.38
752.636	328.93
752.975	337.07
753.313	314.02
753.651	337.07
753.989	309.05
754.327	344.75
754.666	320.57
755.004	347.46
755.342	335.49
755.679	317.86
756.017	329.84
756.355	322.38
756.693	326.45
757.031	335.03
757.368	334.13
757.706	342.04
758.044	327.35
758.381	328.25
758.719	339.55
759.056	347.01
759.394	325.09
759.731	299.1
760.068	340.46
760.405	342.27
760.743	318.99
761.08	325.09
761.417	331.42
761.754	315.15
762.091	310.85
762.428	341.81
762.765	333.45
763.102	318.76
763.438	308.82
763.775	321.47
764.112	333.23
764.449	327.12
764.785	323.73
765.122	316.73
765.458	350.85
765.795	330.51
766.131	335.71
766.467	317.18
766.804	313.79
767.14	317.63
767.476	310.85
767.812	329.16
768.148	323.28
768.485	341.36
768.821	340.46
769.157	337.07
769.492	327.58
769.828	328.25
770.164	322.6
770.5	327.58
770.836	321.93
771.171	330.74
771.507	325.54
771.842	323.96
772.178	332.32
772.513	347.01
772.849	322.6
773.184	340.01
773.519	335.49
773.855	335.26
774.19	332.77
774.525	327.8
774.86	328.25
775.195	329.61
775.53	333.9
775.865	347.01
776.2	321.02
776.535	353.79
776.87	329.38
777.205	334.13
777.539	331.42
777.874	334.13
778.209	316.95
778.543	324.19
778.878	332.55
779.212	321.25
779.547	346.11
779.881	323.51
780.215	340.46
780.55	320.57
780.884	327.12
781.218	316.95
781.552	314.24
781.886	316.95
782.22	311.76
782.554	327.8
782.888	323.96
783.222	314.02
783.556	318.76
783.889	325.99
784.223	341.81
784.557	303.85
784.89	329.84
785.224	333.9
785.557	328.25
785.891	338.2
786.224	342.49
786.558	335.71
786.891	315.37
787.224	322.38
787.557	323.96
787.891	319.44
788.224	326.9
788.557	324.64
788.89	309.27
789.223	324.41
789.556	325.32
789.888	331.87
790.221	336.62
790.554	342.72
790.887	320.57
791.219	329.84
791.552	331.19
791.884	308.82
792.217	331.19
792.549	333
792.882	316.5
793.214	316.28
793.546	332.32
793.879	318.08
794.211	319.89
794.543	338.88
794.875	323.73
795.207	334.58
795.539	306.11
795.871	340.68
796.203	323.51
796.535	322.15
796.867	315.83
797.198	325.09
797.53	336.39
797.862	343.85
798.193	330.51
798.525	332.77
798.856	314.92
799.188	344.98
799.519	332.32
799.85	320.12
800.182	310.18
800.513	315.15
800.844	312.66
801.175	307.24
801.506	330.06
801.837	330.29
802.168	341.14
802.499	333
802.83	323.06
803.161	309.95
803.491	340.23
803.822	344.75
804.153	326.9
804.483	311.31
804.814	321.25
805.145	324.64
805.475	327.35
805.805	332.32
806.136	326.9
806.466	316.05
806.796	328.71
807.126	336.62
807.457	330.06
807.787	301.59
808.117	311.31
808.447	333.9
808.777	322.38
809.107	329.16
809.436	310.18
809.766	315.37
810.096	315.6
810.426	324.19
810.755	342.27
811.085	327.35
811.414	305.43
811.744	306.11
812.073	320.57
812.403	344.98
812.732	329.38
813.061	316.73
813.39	327.8
813.719	331.42
814.049	330.06
814.378	329.38
814.707	325.09
815.036	330.06
815.365	324.64
815.693	304.07
816.022	327.8
816.351	326.22
816.68	329.38
817.008	320.34
817.337	321.47
817.665	336.39
817.994	328.48
818.322	340.91
818.651	304.98
818.979	326.45
819.307	324.19
819.636	313.57
819.964	320.34
820.292	331.19
820.62	317.86
820.948	323.96
821.276	311.31
821.604	343.85
821.932	344.98
822.259	332.32
822.587	328.93
822.915	318.54
823.243	329.16
823.57	325.32
823.898	316.95
824.225	316.73
824.553	311.76
824.88	305.88
825.207	306.11
825.535	338.2
825.862	309.5
826.189	304.07
826.516	328.25
826.843	323.73
827.17	338.88
827.497	313.11
827.824	335.26
828.151	317.86
828.478	331.87
828.805	332.1
829.131	310.4
829.458	330.74
829.785	321.02
830.111	309.95
830.438	314.24
830.764	316.5
831.09	330.29
831.417	329.84
831.743	315.15
832.069	321.25
832.395	318.54
832.722	326.22
833.048	334.58
833.374	337.52
833.7	330.06
834.026	327.58
834.351	331.87
834.677	314.47
835.003	313.57
835.329	317.18
835.654	327.12
835.98	325.99
836.306	337.07
836.631	314.92
836.956	322.6
837.282	335.49
837.607	323.96
837.932	333.68
838.258	325.09
838.583	314.02
838.908	326.45
839.233	307.01
839.558	329.61
839.883	331.19
840.208	320.34
840.533	307.01
840.858	321.7
841.182	323.96
841.507	320.34
841.832	324.86
842.156	321.93
842.481	305.43
842.805	313.79
843.13	314.47
843.454	326.45
843.778	320.12
844.103	323.96
844.427	322.15
844.751	302.49
845.075	333.9
845.399	331.42
845.723	334.58
846.047	304.3
846.371	349.5
846.695	338.88
847.019	319.89
847.343	310.4
847.666	333.23
847.99	332.77
848.313	336.84
848.637	323.06
848.96	332.32
849.284	298.65
849.607	315.6
849.931	318.54
850.254	331.19
850.577	313.57
850.9	329.16
851.223	328.25
851.546	331.64
851.869	321.93
852.192	317.86
852.515	339.33
852.838	337.75
853.161	316.28
853.483	318.76
853.806	333.9
854.129	318.08
854.451	307.69
854.774	314.47
855.096	319.89
855.419	306.79
855.741	334.81
856.063	319.21
856.385	331.19
856.708	329.38
857.03	320.34
857.352	319.67
857.674	316.73
857.996	332.55
858.318	301.81
858.64	321.02
858.961	314.7
859.283	334.13
859.605	329.61
859.926	297.97
860.248	329.38
860.57	328.48
860.891	318.54
861.212	338.65
861.534	334.36
861.855	295.26
862.176	317.41
862.498	324.19
862.819	324.64
863.14	317.63
863.461	308.37
863.782	325.09
864.103	297.29
864.424	317.18
864.745	307.46
865.065	318.31
865.386	330.74
865.707	326.67
866.027	342.49
866.348	337.52
866.668	315.15
866.989	294.81
867.309	325.32
867.63	300.46
867.95	307.24
868.27	331.19
868.59	330.97
868.91	311.31
869.23	323.73
869.55	325.77
869.87	310.63
870.19	315.83
870.51	330.06
870.83	332.77
871.15	349.5
871.469	315.83
871.789	324.19
872.109	315.83
872.428	332.32
872.748	330.74
873.067	342.04
873.386	311.08
873.706	305.43
874.025	328.48
874.344	305.66
874.663	295.49
874.982	300.91
875.301	329.16
875.62	352.89
875.939	314.7
876.258	320.34
876.577	299.55
876.896	327.12
877.214	317.18
877.533	321.7
877.852	320.57
878.17	301.81
878.489	298.2
878.807	317.86
879.125	305.88
879.444	303.62
879.762	331.19
880.08	321.02
880.398	323.73
880.716	307.46
881.034	330.97
881.352	343.17
881.67	320.57
881.988	309.27
882.306	296.62
882.624	313.34
882.941	314.02
883.259	327.12
883.577	313.34
883.894	323.51
884.212	331.42
884.529	301.14
884.846	325.32
885.164	312.89
885.481	319.21
885.798	302.04
886.115	325.54
886.432	320.57
886.75	321.7
887.067	333
887.383	330.74
887.7	322.15
888.017	322.38
888.334	312.44
888.651	325.09
888.967	309.72
889.284	321.93
889.6	311.08
889.917	304.07
890.233	324.86
890.55	335.49
890.866	311.53
891.182	310.85
891.498	330.06
891.815	322.83
892.131	329.61
892.447	318.31
892.763	322.6
893.079	327.35
893.395	321.02
893.71	318.08
894.026	309.05
894.342	326.67
894.657	324.64
894.973	316.73
895.289	321.7
895.604	321.7
895.92	321.02
896.235	307.92
896.55	292.1
896.865	316.28
897.181	335.71
897.496	322.83
897.811	312.66
898.126	330.51
898.441	323.73
898.756	337.29
899.071	319.44
899.386	316.5
899.7	315.37
900.015	319.21
900.33	316.95
900.644	302.94
900.959	320.34
901.273	330.74
901.588	322.6
901.902	310.63
902.216	315.6
902.531	323.06
902.845	304.98
903.159	320.34
903.473	318.08
903.787	335.71
904.101	328.93
904.415	325.09
904.729	311.53
905.042	314.47
905.356	316.95
905.67	329.38
905.984	309.95
906.297	330.06
906.611	327.12
906.924	333
907.237	306.56
907.551	321.7
907.864	327.12
908.177	317.18
908.491	328.93
908.804	329.38
909.117	328.03
909.43	344.07
909.743	309.05
910.056	319.44
910.368	299.33
910.681	305.66
910.994	322.38
911.307	331.64
911.619	321.7
911.932	309.27
912.244	312.44
912.557	310.85
912.869	310.63
913.181	307.01
913.494	335.49
913.806	333.68
914.118	315.6
914.43	316.05
914.742	307.46
915.054	291.42
915.366	317.41
915.678	328.25
915.99	321.93
916.302	312.21
916.613	316.95
916.925	321.93
917.236	334.13
917.548	311.31
917.859	309.95
918.171	309.5
918.482	311.76
918.794	331.87
919.105	323.51
919.416	329.16
919.727	342.27
920.038	320.12
920.349	330.29
920.66	293.45
920.971	321.93
921.282	330.06
921.593	318.76
921.903	311.76
922.214	315.6
922.525	307.92
922.835	309.5
923.146	318.54
923.456	319.67
923.767	315.15
924.077	317.18
924.387	317.63
924.697	330.74
925.008	313.11
925.318	340.46
925.628	323.96
925.938	324.64
926.248	330.74
926.558	323.28
926.867	323.06
927.177	318.08
927.487	336.39
927.796	315.15
928.106	314.47
928.416	317.41
928.725	327.58
929.034	311.08
929.344	314.7
929.653	321.93
929.962	303.62
930.271	309.72
930.581	325.32
930.89	330.51
931.199	313.57
931.508	323.06
931.817	336.39
932.125	293.68
932.434	295.26
932.743	336.16
933.051	314.47
933.36	312.66
933.669	309.95
933.977	322.83
934.286	332.32
934.594	323.51
934.902	316.95
935.21	331.87
935.519	305.88
935.827	314.92
936.135	319.21
936.443	317.18
936.751	307.24
937.059	290.29
937.367	328.03
937.674	328.93
937.982	319.44
938.29	314.7
938.597	302.49
938.905	330.06
939.213	318.08
939.52	290.97
939.827	321.47
940.135	311.31
940.442	287.13
940.749	306.79
941.056	315.37
941.363	323.73
941.67	315.6
941.977	316.05
942.284	331.42
942.591	304.53
942.898	329.16
943.205	302.49
943.511	297.07
943.818	334.13
944.125	309.72
944.431	296.62
944.738	290.97
945.044	333
945.35	320.8
945.657	294.13
945.963	318.08
946.269	327.12
946.575	333.23
946.881	300.68
947.187	320.34
947.493	309.5
947.799	314.7
948.105	307.01
948.41	306.33
948.716	329.38
949.022	321.47
949.327	318.99
949.633	325.09
949.938	311.08
950.244	333.45
950.549	302.49
950.854	315.15
951.16	302.94
951.465	308.59
951.77	331.64
952.075	312.21
952.38	328.71
952.685	320.57
952.99	308.82
953.294	305.88
953.599	324.86
953.904	293.9
954.209	318.99
954.513	317.86
954.818	321.7
955.122	308.37
955.426	318.08
955.731	321.02
956.035	311.98
956.339	313.11
956.643	313.79
956.948	323.73
957.252	324.19
957.556	312.44
957.86	318.99
958.163	313.11
958.467	300.46
958.771	313.57
959.075	322.15
959.378	335.71
959.682	328.48
959.985	290.97
960.289	319.89
960.592	331.42
960.896	303.4
961.199	287.8
961.502	318.08
961.805	323.96
962.108	313.57
962.411	304.98
962.714	321.02
963.017	316.95
963.32	304.75
963.623	304.75
963.926	286.9
964.228	320.57
964.531	309.5
964.833	324.41
965.136	303.62
965.438	322.38
965.741	313.79
966.043	312.89
966.345	324.19
966.648	328.71
966.95	329.61
967.252	318.54
967.554	315.83
967.856	309.72
968.158	296.39
968.46	309.5
968.761	320.57
969.063	305.66
969.365	308.14
969.666	312.21
969.968	301.81
970.269	316.05
970.571	314.92
970.872	323.28
971.174	328.48
971.475	322.83
971.776	300.01
972.077	327.12
972.378	301.36
972.679	307.24
972.98	310.18
973.281	310.18
973.582	332.77
973.883	318.99
974.183	303.62
974.484	308.37
974.785	320.12
975.085	310.63
975.386	311.53
975.686	328.48
975.986	329.61
976.287	316.28
976.587	293.68
976.887	308.59
977.187	330.51
977.487	323.06
977.787	312.21
978.087	311.31
978.387	309.5
978.687	295.71
978.987	325.32
979.286	311.98
979.586	303.62
979.885	305.88
980.185	326.22
980.484	320.8
980.784	309.95
981.083	310.63
981.382	330.29
981.682	311.31
981.981	326.9
982.28	298.65
982.579	330.06
982.878	317.18
983.177	311.08
983.475	295.03
983.774	322.15
984.073	318.76
984.372	330.06
984.67	319.89
984.969	295.26
985.267	333.9
985.566	304.3
985.864	297.29
986.162	302.72
986.461	309.27
986.759	298.2
987.057	316.95
987.355	314.24
987.653	314.02
987.951	316.95
988.249	312.89
988.547	315.15
988.844	302.04
989.142	323.51
989.44	314.92
989.737	319.89
990.035	325.77
990.332	319.21
990.63	325.99
990.927	323.06
991.224	317.41
991.521	299.78
991.819	316.73
992.116	348.82
992.413	306.33
992.71	303.85
993.006	311.08
993.303	324.19
993.6	329.38
993.897	298.42
994.193	296.62
994.49	308.37
994.787	307.46
995.083	327.12
995.379	326.45
995.676	316.73
995.972	310.4
996.268	325.77
996.565	320.12
996.861	315.37
997.157	313.57
997.453	306.11
997.749	316.95
998.044	292.1
998.34	326.45
998.636	319.44
998.932	323.06
999.227	309.95
999.523	332.1
999.818	311.76
1000.114	344.3
1000.409	298.88
1000.704	311.53
1001	313.11
1001.295	298.42
1001.59	313.57
1001.885	316.5
1002.18	311.76
1002.475	321.47
1002.77	321.25
1003.065	303.62
1003.359	318.76
1003.654	314.24
1003.949	329.61
1004.243	314.47
1004.538	295.03
1004.832	313.34
1005.127	303.62
1005.421	293.68
1005.715	298.2
1006.009	321.47
1006.304	321.02
1006.598	340.46
1006.892	299.1
1007.186	320.8
1007.48	338.2
1007.773	321.47
1008.067	308.59
1008.361	310.85
1008.655	329.38
1008.948	309.5
1009.242	300.91
1009.535	321.93
1009.829	317.86
1010.122	308.14
1010.415	324.41
1010.708	297.75
1011.001	304.53
1011.295	315.6
1011.588	306.56
1011.881	296.16
1012.173	318.08
1012.466	304.98
1012.759	302.27
1013.052	339.33
1013.344	310.4
1013.637	327.58
1013.93	327.8
1014.222	300.46
1014.514	325.54
1014.807	310.4
1015.099	294.58
1015.391	325.09
1015.683	317.41
1015.976	317.63
1016.268	326.22
1016.56	305.66
1016.851	325.77
1017.143	303.17
1017.435	295.26
1017.727	321.25
1018.018	325.77
1018.31	333
1018.602	328.03
1018.893	308.59
1019.185	307.24
1019.476	316.95
1019.767	321.47
1020.058	304.3
1020.35	320.34
1020.641	310.63
1020.932	325.32
1021.223	315.37
1021.514	315.6
1021.804	321.02
1022.095	321.7
1022.386	299.78
1022.677	316.73
1022.967	310.18
1023.258	309.72
1023.548	298.88
1023.839	301.59
1024.129	303.85
1024.419	330.06
1024.709	311.31
1025	321.93
1025.29	301.14
1025.58	310.63
1025.87	317.18
1026.16	313.57
1026.449	308.59
1026.739	306.33
1027.029	328.25
1027.319	307.24
1027.608	307.46
1027.898	309.72
1028.187	312.21
1028.477	316.5
1028.766	321.47
1029.055	312.21
1029.344	313.11
1029.634	297.07
1029.923	317.63
1030.212	310.63
1030.501	297.07
1030.79	307.46
1031.078	319.44
1031.367	301.14
1031.656	312.44
1031.945	321.25
1032.233	310.85
1032.522	313.11
1032.81	316.73
1033.099	312.89
1033.387	313.57
1033.675	297.07
1033.963	306.33
1034.251	320.12
1034.54	321.93
1034.828	334.13
1035.116	317.41
1035.403	335.94
1035.691	314.92
1035.979	284.41
1036.267	315.6
1036.554	301.36
1036.842	316.5
1037.129	311.31
1037.417	319.89
1037.704	310.18
1037.992	303.85
1038.279	304.75
1038.566	327.12
1038.853	327.12
1039.14	327.12
