Data from No_light_on_white_reflection_standard_FLMS001491_084.txt Node
Date: Tue Feb 07 10:33:09 GMT 2017
User: dcchb
Spectrometer: FLMS00149
Trigger mode: 0
Integration Time (sec): 2.000000E-2
Scans to average: 10
Electric dark correction enabled: true
Nonlinearity correction enabled: false
Boxcar width: 0
XAxis mode: Wavelengths
Number of Pixels in Spectrum: 2048
>>>>>Begin Spectral Data<<<<<
341.393	-7.94
341.776	-7.94
342.16	-7.94
342.543	-66.24
342.927	-61.5
343.31	-75.05
343.693	-63.08
344.077	-75.28
344.46	-62.63
344.843	-56.75
345.226	-32.8
345.61	-34.6
345.993	-21.5
346.376	0.65
346.759	20.76
347.142	25.06
347.525	58.05
347.908	56.47
348.291	51.27
348.674	84.94
349.057	124.49
349.44	124.26
349.823	110.93
350.206	145.28
350.588	174.43
350.971	189.8
351.354	195.22
351.737	211.94
352.119	230.47
352.502	226.18
352.884	223.92
353.267	255.33
353.65	257.14
354.032	277.03
354.414	276.57
354.797	284.26
355.179	293.52
355.562	284.26
355.944	279.74
356.326	310.02
356.709	299.17
357.091	318.83
357.473	313.86
357.855	294.88
358.238	317.03
358.62	317.7
359.002	288.33
359.384	295.33
359.766	287.2
360.148	293.3
360.53	305.5
360.912	295.33
361.294	297.59
361.676	300.08
362.057	317.93
362.439	305.27
362.821	300.98
363.203	309.57
363.584	313.41
363.966	286.97
364.348	305.5
364.729	293.98
365.111	267.08
365.493	293.07
365.874	275.44
366.256	287.2
366.637	290.13
367.019	284.94
367.4	278.61
367.781	275.22
368.163	255.56
368.544	282.45
368.925	283.58
369.306	285.16
369.688	277.7
370.069	289.23
370.45	271.15
370.831	284.71
371.212	304.14
371.593	265.5
371.974	273.86
372.355	274.77
372.736	289.68
373.117	272.05
373.498	277.03
373.879	262.79
374.26	288.33
374.641	277.25
375.021	284.94
375.402	260.3
375.783	294.65
376.163	291.94
376.544	278.83
376.925	287.65
377.305	293.98
377.686	292.62
378.066	269.57
378.447	281.32
378.827	262.11
379.208	286.29
379.588	267.54
379.968	310.7
380.349	291.49
380.729	283.81
381.109	290.36
381.489	264.37
381.87	258.95
382.25	285.39
382.63	309.12
383.01	305.27
383.39	278.38
383.77	291.04
384.15	293.52
384.53	299.85
384.91	282
385.29	291.26
385.67	280.42
386.049	295.78
386.429	289.23
386.809	287.42
387.189	280.42
387.568	298.72
387.948	289
388.328	276.35
388.707	286.29
389.087	294.65
389.466	308.66
389.846	302.79
390.225	286.07
390.605	283.35
390.984	314.54
391.363	287.65
391.743	289
392.122	321.77
392.501	304.6
392.881	301.66
393.26	276.57
393.639	291.49
394.018	293.75
394.397	288.55
394.776	301.66
395.155	284.48
395.534	318.16
395.913	295.11
396.292	299.85
396.671	302.79
397.05	289.46
397.429	289.46
397.808	274.99
398.186	305.73
398.565	302.79
398.944	316.35
399.323	296.91
399.701	298.04
400.08	295.78
400.458	319.96
400.837	292.62
401.215	310.92
401.594	295.11
401.972	293.75
402.351	284.94
402.729	285.39
403.107	307.08
403.486	309.79
403.864	316.12
404.242	298.95
404.62	301.88
404.999	309.12
405.377	298.04
405.755	313.18
406.133	297.14
406.511	301.43
406.889	309.79
407.267	304.37
407.645	297.14
408.023	297.14
408.401	297.59
408.779	284.26
409.156	286.97
409.534	310.7
409.912	301.43
410.29	310.7
410.667	308.89
411.045	315.22
411.422	320.19
411.8	314.54
412.178	301.43
412.555	302.34
412.933	303.01
413.31	304.82
413.687	315.44
414.065	303.24
414.442	296.24
414.819	299.85
415.197	298.04
415.574	308.66
415.951	320.64
416.328	320.42
416.705	296.91
417.082	321.09
417.46	303.47
417.837	306.86
418.214	302.79
418.591	291.72
418.967	309.57
419.344	300.3
419.721	313.64
420.098	288.55
420.475	312.05
420.852	316.57
421.228	326.52
421.605	309.79
421.982	300.98
422.358	305.73
422.735	313.18
423.111	304.37
423.488	320.64
423.864	310.7
424.241	319.51
424.617	286.74
424.994	296.01
425.37	304.14
425.746	304.37
426.123	322.68
426.499	323.81
426.875	324.93
427.251	320.42
427.627	305.27
428.003	314.31
428.379	321.09
428.756	333.52
429.132	308.89
429.507	315.44
429.883	331.71
430.259	318.38
430.635	290.13
431.011	303.92
431.387	311.6
431.763	303.24
432.138	328.78
432.514	320.64
432.89	339.4
433.265	290.36
433.641	316.35
434.016	338.95
434.392	337.14
434.767	307.53
435.143	345.5
435.518	328.1
435.894	306.86
436.269	332.39
436.644	336.91
437.02	319.29
437.395	308.66
437.77	326.06
438.145	307.76
438.52	350.25
438.895	359.28
439.271	298.49
439.646	338.04
440.021	325.84
440.395	328.55
440.77	320.42
441.145	329.45
441.52	319.96
441.895	335.56
442.27	345.73
442.645	327.87
443.019	355.44
443.394	340.53
443.769	350.7
444.143	344.6
444.518	342.11
444.892	335.56
445.267	341.88
445.641	359.06
446.016	359.28
446.39	355.89
446.764	366.52
447.139	357.25
447.513	354.09
447.887	366.97
448.262	360.19
448.636	367.65
449.01	351.6
449.384	363.35
449.758	355.22
450.132	367.65
450.506	352.96
450.88	378.04
451.254	372.84
451.628	373.07
452.002	375.33
452.376	373.75
452.75	383.01
453.123	385.27
453.497	386.85
453.871	346.86
454.244	381.2
454.618	373.75
454.992	383.01
455.365	372.17
455.739	362.9
456.112	380.53
456.486	363.13
456.859	370.58
457.232	354.31
457.606	375.56
457.979	354.09
458.352	368.55
458.725	366.52
459.099	361.77
459.472	368.55
459.845	380.3
460.218	380.53
460.591	365.16
460.964	339.4
461.337	352.5
461.71	342.56
462.083	360.19
462.456	345.73
462.829	358.83
463.201	359.28
463.574	345.73
463.947	335.33
464.32	340.98
464.692	366.52
465.065	361.54
465.438	381.88
465.81	360.87
466.183	354.54
466.555	349.12
466.928	367.42
467.3	353.86
467.672	364.26
468.045	363.13
468.417	360.41
468.789	340.53
469.161	365.39
469.534	371.49
469.906	342.56
470.278	362
470.65	354.76
471.022	362.45
471.394	361.54
471.766	356.12
472.138	347.08
472.51	341.88
472.882	347.99
473.253	354.76
473.625	346.4
473.997	349.57
474.369	354.99
474.74	369
475.112	368.1
475.484	350.02
475.855	367.19
476.227	350.02
476.598	351.83
476.97	367.65
477.341	360.64
477.713	350.02
478.084	362.22
478.455	336.01
478.827	347.08
479.198	360.64
479.569	376.46
479.94	337.14
480.311	375.1
480.682	382.11
481.053	348.44
481.424	360.64
481.795	344.82
482.166	347.31
482.537	349.12
482.908	347.08
483.279	374.2
483.65	376.91
484.021	366.52
484.391	371.04
484.762	376.91
485.133	357.02
485.503	356.8
485.874	370.58
486.244	359.28
486.615	381.2
486.985	372.62
487.356	377.59
487.726	383.01
488.097	350.25
488.467	342.56
488.837	366.29
489.207	370.13
489.578	391.83
489.948	356.35
490.318	373.97
490.688	383.46
491.058	380.98
491.428	391.15
491.798	360.87
492.168	380.98
492.538	375.56
492.908	360.64
493.278	371.94
493.648	382.56
494.017	381.88
494.387	385.95
494.757	386.4
495.126	379.4
495.496	408.32
495.866	411.26
496.235	413.29
496.605	386.18
496.974	394.54
497.344	386.4
497.713	419.4
498.082	412.62
498.452	379.4
498.821	390.7
499.19	398.38
499.559	391.83
499.928	397.7
500.298	415.78
500.667	387.53
501.036	416.91
501.405	410.36
501.774	422.33
502.143	405.38
502.512	395.44
502.88	411.94
503.249	420.98
503.618	408.32
503.987	419.4
504.356	414.88
504.724	450.13
505.093	433.41
505.462	406.06
505.83	431.37
506.199	421.2
506.567	441.32
506.936	432.28
507.304	425.5
507.672	432.73
508.041	443.58
508.409	425.05
508.777	426.4
509.145	434.99
509.514	438.83
509.882	437.93
510.25	425.95
510.618	450.13
510.986	433.86
511.354	451.71
511.722	424.59
512.09	444.48
512.458	441.77
512.826	433.63
513.193	435.67
513.561	459.39
513.929	425.5
514.297	449.23
514.664	469.11
515.032	467.76
515.4	461.2
515.767	455.1
516.135	456.46
516.502	451.94
516.869	448.77
517.237	450.58
517.604	446.74
517.972	442.22
518.339	455.1
518.706	473.63
519.073	461.88
519.44	433.41
519.808	478.38
520.175	479.28
520.542	470.02
520.909	461.43
521.276	477.02
521.643	478.6
522.009	455.1
522.376	470.47
522.743	485.61
523.11	468.43
523.477	485.16
523.843	482.22
524.21	489.9
524.577	470.69
524.943	486.29
525.31	482.22
525.676	510.47
526.043	488.77
526.409	480.41
526.776	496.91
527.142	487.42
527.508	469.56
527.874	493.29
528.241	488.77
528.607	483.12
528.973	496
529.339	502.11
529.705	491.71
530.071	508.43
530.437	506.4
530.803	506.85
531.169	489.22
531.535	500.98
531.901	513.63
532.267	498.26
532.632	497.59
532.998	508.88
533.364	498.94
533.73	518.83
534.095	493.74
534.461	519.28
534.826	511.14
535.192	489.9
535.557	499.39
535.923	493.07
536.288	507.53
536.653	515.21
537.019	527.42
537.384	505.5
537.749	508.88
538.114	522.67
538.479	503.24
538.845	499.17
539.21	503.24
539.575	505.72
539.94	520.64
540.305	495.78
540.67	501.88
541.034	533.97
541.399	532.61
541.764	545.49
542.129	511.37
542.494	531.94
542.858	507.98
543.223	529
543.587	517.92
543.952	521.54
544.316	494.87
544.681	540.07
545.045	526.06
545.41	560.18
545.774	536.91
546.138	531.71
546.503	514.31
546.867	514.08
547.231	535.55
547.595	521.77
547.959	491.94
548.324	522.67
548.688	530.35
549.052	541.65
549.416	527.19
549.779	520.86
550.143	548.21
550.507	530.81
550.871	528.32
551.235	524.25
551.599	535.1
551.962	532.84
552.326	533.52
552.689	555.44
553.053	543.69
553.417	540.3
553.78	521.99
554.143	514.53
554.507	553.86
554.87	524.48
555.234	542.1
555.597	556.57
555.96	543.69
556.323	545.72
556.686	522.9
557.05	552.27
557.413	553.63
557.776	526.06
558.139	539.84
558.502	550.47
558.865	526.29
559.228	582.1
559.59	566.96
559.953	539.17
560.316	561.54
560.679	541.43
561.041	547.3
561.404	582.56
561.767	545.95
562.129	570.58
562.492	568.54
562.854	541.65
563.217	561.31
563.579	558.6
563.941	554.76
564.304	571.71
564.666	579.17
565.028	591.59
565.39	567.87
565.753	564.93
566.115	570.58
566.477	570.8
566.839	574.65
567.201	576.91
567.563	561.09
567.925	578.26
568.287	587.75
568.648	582.78
569.01	587.07
569.372	569.67
569.734	564.93
570.095	543.91
570.457	564.48
570.819	594.98
571.18	575.55
571.542	586.62
571.903	597.92
572.265	578.04
572.626	584.59
572.987	586.85
573.349	576
573.71	576.45
574.071	575.1
574.432	570.13
574.794	592.27
575.155	571.71
575.516	576
575.877	593.85
576.238	587.07
576.599	586.17
576.96	588.66
577.32	589.33
577.681	561.54
578.042	597.24
578.403	619.84
578.763	604.93
579.124	590.24
579.485	591.14
579.845	605.38
580.206	589.56
580.566	577.36
580.927	596.79
581.287	583.23
581.648	584.36
582.008	614.19
582.368	596.11
582.728	593.4
583.089	593.18
583.449	591.14
583.809	578.71
584.169	593.85
584.529	603.12
584.889	594.53
585.249	583.46
585.609	582.33
585.969	588.88
586.329	604.02
586.688	602.44
587.048	577.81
587.408	593.63
587.768	575.32
588.127	601.31
588.487	579.17
588.846	589.79
589.206	579.84
589.565	590.46
589.925	583.23
590.284	571.03
590.643	583.46
591.003	588.66
591.362	578.04
591.721	617.58
592.08	568.32
592.44	587.3
592.799	554.08
593.158	590.69
593.517	584.82
593.876	577.81
594.235	581.88
594.593	573.74
594.952	618.49
595.311	588.88
595.67	586.62
596.029	596.57
596.387	555.44
596.746	580.3
597.104	586.85
597.463	569
597.822	576
598.18	589.56
598.538	574.65
598.897	572.16
599.255	581.88
599.613	596.79
599.972	587.98
600.33	578.71
600.688	585.04
601.046	586.85
601.404	569.22
601.762	543.91
602.12	587.75
602.478	571.93
602.836	565.83
603.194	565.15
603.552	601.76
603.91	579.62
604.268	563.57
604.625	572.16
604.983	568.32
605.341	573.52
605.698	557.02
606.056	565.38
606.413	569.22
606.771	557.02
607.128	539.17
607.485	572.16
607.843	584.36
608.2	557.7
608.557	554.99
608.914	575.1
609.272	555.44
609.629	559.96
609.986	548.66
610.343	564.02
610.7	567.41
611.057	544.14
611.414	560.41
611.771	568.77
612.127	546.17
612.484	559.73
612.841	543.69
613.198	554.99
613.554	559.28
613.911	558.38
614.267	565.61
614.624	536.45
614.98	550.92
615.337	541.65
615.693	556.57
616.05	557.7
616.406	531.03
616.762	542.1
617.118	566.74
617.475	563.12
617.831	537.13
618.187	526.96
618.543	544.36
618.899	527.87
619.255	523.8
619.611	531.48
619.967	546.17
620.323	531.71
620.678	546.17
621.034	540.75
621.39	531.94
621.746	545.27
622.101	545.27
622.457	533.97
622.812	533.97
623.168	528.77
623.523	546.17
623.879	532.39
624.234	549.79
624.589	529.68
624.945	512.95
625.3	528.32
625.655	528.32
626.01	517.02
626.365	519.96
626.72	557.92
627.075	526.96
627.43	519.51
627.785	524.93
628.14	501.43
628.495	519.96
628.85	482.67
629.205	523.57
629.559	517.02
629.914	493.07
630.269	513.18
630.623	498.94
630.978	502.78
631.332	491.26
631.687	507.76
632.041	509.11
632.396	495.55
632.75	498.94
633.104	502.33
633.459	498.04
633.813	487.64
634.167	489.68
634.521	483.8
634.875	479.51
635.229	495.33
635.583	465.5
635.937	460.3
636.291	484.48
636.645	464.37
636.999	478.15
637.352	491.03
637.706	476.8
638.06	487.19
638.413	475.89
638.767	467.98
639.121	479.73
639.474	473.41
639.828	486.74
640.181	480.19
640.534	491.94
640.888	484.03
641.241	481.54
641.594	468.66
641.947	486.74
642.301	474.31
642.654	455.1
643.007	453.97
643.36	456.23
643.713	462.11
644.066	465.04
644.419	445.38
644.771	472.5
645.124	465.27
645.477	432.73
645.83	423.92
646.182	433.18
646.535	452.62
646.888	440.41
647.24	441.32
647.593	461.65
647.945	440.64
648.298	446.06
648.65	433.41
649.002	452.39
649.355	432.73
649.707	457.36
650.059	428.44
650.411	440.19
650.763	419.17
651.115	438.38
651.467	441.77
651.819	446.74
652.171	438.38
652.523	443.8
652.875	438.6
653.227	434.76
653.578	435.44
653.93	441.09
654.282	447.87
654.633	427.76
654.985	424.37
655.337	422.11
655.688	434.99
656.039	428.21
656.391	415.55
656.742	424.37
657.094	433.63
657.445	423.01
657.796	423.01
658.147	425.05
658.498	420.98
658.849	408.1
659.2	397.02
659.551	403.12
659.902	404.03
660.253	427.76
660.604	427.08
660.955	415.78
661.306	401.54
661.656	407.87
662.007	406.74
662.358	399.96
662.708	411.26
663.059	415.33
663.409	421.2
663.76	399.74
664.11	386.18
664.461	403.35
664.811	404.93
665.161	408.32
665.511	371.49
665.862	403.12
666.212	398.38
666.562	396.8
666.912	394.09
667.262	408.32
667.612	388.66
667.962	387.76
668.312	402.67
668.662	403.12
669.011	409.9
669.361	412.39
669.711	415.33
670.06	399.28
670.41	396.57
670.76	404.03
671.109	380.98
671.459	393.41
671.808	388.89
672.157	410.13
672.507	383.01
672.856	387.76
673.205	384.82
673.554	379.17
673.904	375.1
674.253	368.78
674.602	373.3
674.951	393.63
675.3	396.35
675.649	391.37
675.998	393.41
676.346	365.61
676.695	405.38
677.044	382.56
677.393	395.44
677.741	374.88
678.09	390.92
678.438	372.84
678.787	365.39
679.135	389.11
679.484	372.62
679.832	368.1
680.181	366.06
680.529	383.46
680.877	380.07
681.225	374.88
681.573	373.3
681.922	365.39
682.27	370.13
682.618	374.65
682.966	394.09
683.314	371.49
683.661	349.57
684.009	373.75
684.357	370.13
684.705	372.84
685.053	362
685.4	354.99
685.748	371.71
686.095	378.72
686.443	357.48
686.79	364.26
687.138	373.52
687.485	387.76
687.832	369.68
688.18	370.13
688.527	380.75
688.874	357.25
689.221	373.07
689.568	380.3
689.915	397.48
690.262	368.78
690.609	363.13
690.956	369.68
691.303	346.4
691.65	372.84
691.997	355.22
692.344	359.96
692.69	372.39
693.037	349.57
693.383	376.69
693.73	365.16
694.077	355.89
694.423	364.48
694.769	365.39
695.116	358.83
695.462	362
695.808	337.82
696.155	356.35
696.501	359.51
696.847	364.03
697.193	356.12
697.539	354.76
697.885	355.89
698.231	349.79
698.577	363.58
698.923	354.54
699.269	332.84
699.614	348.89
699.96	370.58
700.306	368.78
700.651	355.44
700.997	352.05
701.342	343.01
701.688	368.32
702.033	356.12
702.379	348.21
702.724	366.74
703.069	350.47
703.415	361.09
703.76	354.09
704.105	356.8
704.45	349.34
704.795	352.73
705.14	335.56
705.485	343.92
705.83	354.76
706.175	337.36
706.52	380.98
706.865	358.15
707.209	351.83
707.554	333.75
707.899	362.22
708.243	358.15
708.588	347.53
708.932	338.49
709.277	348.21
709.621	372.39
709.966	356.35
710.31	371.26
710.654	349.57
710.998	347.31
711.342	339.4
711.687	364.71
712.031	344.37
712.375	358.83
712.719	336.69
713.063	370.13
713.407	363.58
713.75	357.48
714.094	359.28
714.438	338.72
714.782	329
715.125	336.01
715.469	347.08
715.812	310.47
716.156	348.66
716.499	315.67
716.843	321.32
717.186	345.27
717.53	350.47
717.873	336.69
718.216	340.53
718.559	335.33
718.902	338.27
719.246	355.89
719.589	343.24
719.932	336.69
720.275	349.79
720.617	325.84
720.96	333.3
721.303	337.59
721.646	346.18
721.989	345.73
722.331	333.97
722.674	337.82
723.016	347.76
723.359	338.95
723.701	342.56
724.044	336.91
724.386	343.92
724.729	333.3
725.071	357.02
725.413	348.89
725.755	343.69
726.097	333.3
726.439	325.16
726.782	347.08
727.124	343.24
727.465	345.5
727.807	334.65
728.149	339.62
728.491	325.61
728.833	338.04
729.175	340.75
729.516	361.32
729.858	337.14
730.199	345.05
730.541	352.28
730.882	336.23
731.224	316.57
731.565	324.93
731.906	342.56
732.248	342.34
732.589	347.31
732.93	341.21
733.271	315.9
733.612	333.75
733.953	325.61
734.294	318.83
734.635	333.52
734.976	336.69
735.317	343.69
735.658	332.17
735.999	361.54
736.339	334.2
736.68	336.91
737.021	321.32
737.361	334.88
737.702	361.32
738.042	335.78
738.383	329
738.723	335.78
739.063	319.74
739.404	329
739.744	347.08
740.084	346.4
740.424	333.52
740.764	335.56
741.104	343.01
741.444	337.36
741.784	338.27
742.124	361.32
742.464	348.66
742.804	326.74
743.143	343.47
743.483	334.43
743.823	345.73
744.162	345.5
744.502	339.85
744.841	349.12
745.181	349.34
745.52	344.37
745.86	336.69
746.199	342.79
746.538	346.86
746.877	341.66
747.216	341.21
747.556	328.1
747.895	343.47
748.234	334.65
748.573	329.68
748.911	351.83
749.25	352.05
749.589	347.76
749.928	325.39
750.267	349.57
750.605	332.39
750.944	327.87
751.283	343.01
751.621	337.82
751.96	344.37
752.298	334.65
752.636	349.57
752.975	331.71
753.313	334.65
753.651	330.13
753.989	319.74
754.327	322.22
754.666	327.42
755.004	348.66
755.342	333.07
755.679	331.49
756.017	340.08
756.355	338.72
756.693	331.04
757.031	332.17
757.368	312.96
757.706	328.78
758.044	349.79
758.381	321.55
758.719	354.99
759.056	324.48
759.394	329.23
759.731	336.46
760.068	327.19
760.405	338.95
760.743	324.48
761.08	329.91
761.417	350.47
761.754	324.26
762.091	325.39
762.428	319.96
762.765	348.44
763.102	320.87
763.438	320.42
763.775	320.19
764.112	325.84
764.449	332.39
764.785	340.75
765.122	335.33
765.458	329.45
765.795	318.61
766.131	327.19
766.467	308.66
766.804	327.19
767.14	333.07
767.476	316.8
767.812	351.37
768.148	326.97
768.485	333.07
768.821	323.81
769.157	326.97
769.492	320.87
769.828	346.4
770.164	325.61
770.5	344.82
770.836	326.74
771.171	330.13
771.507	313.64
771.842	317.48
772.178	332.84
772.513	356.57
772.849	337.82
773.184	324.93
773.519	321.77
773.855	335.78
774.19	339.4
774.525	320.42
774.86	330.36
775.195	326.06
775.53	334.2
775.865	333.52
776.2	325.39
776.535	343.01
776.87	349.34
777.205	316.35
777.539	325.84
777.874	330.36
778.209	327.42
778.543	343.01
778.878	326.74
779.212	342.79
779.547	347.08
779.881	343.01
780.215	309.57
780.55	314.77
780.884	333.52
781.218	336.46
781.552	336.23
781.886	319.06
782.22	320.87
782.554	352.73
782.888	333.75
783.222	323.58
783.556	329.68
783.889	333.75
784.223	342.56
784.557	319.96
784.89	327.19
785.224	342.11
785.557	327.42
785.891	332.62
786.224	329.45
786.558	331.71
786.891	323.13
787.224	315.9
787.557	324.71
787.891	323.81
788.224	322.68
788.557	330.13
788.89	303.47
789.223	335.78
789.556	307.99
789.888	331.94
790.221	330.13
790.554	331.26
790.887	319.51
791.219	315.9
791.552	339.85
791.884	325.16
792.217	331.94
792.549	343.01
792.882	331.49
793.214	336.69
793.546	344.82
793.879	354.99
794.211	342.11
794.543	318.61
794.875	314.77
795.207	323.81
795.539	313.18
795.871	334.88
796.203	336.23
796.535	347.53
796.867	328.1
797.198	325.39
797.53	327.42
797.862	328.32
798.193	329.68
798.525	340.53
798.856	330.36
799.188	325.16
799.519	334.2
799.85	319.51
800.182	331.26
800.513	334.65
800.844	322.68
801.175	369.23
801.506	331.26
801.837	337.14
802.168	324.93
802.499	336.01
802.83	331.26
803.161	326.52
803.491	331.49
803.822	338.95
804.153	322.22
804.483	314.54
804.814	318.83
805.145	348.21
805.475	350.47
805.805	338.49
806.136	326.06
806.466	338.04
806.796	332.17
807.126	328.55
807.457	328.32
807.787	319.51
808.117	331.26
808.447	339.4
808.777	329.23
809.107	308.66
809.436	312.73
809.766	334.65
810.096	333.52
810.426	346.4
810.755	319.96
811.085	306.4
811.414	309.79
811.744	303.92
812.073	318.38
812.403	325.61
812.732	331.49
813.061	320.19
813.39	314.54
813.719	328.32
814.049	313.64
814.378	323.35
814.707	317.48
815.036	336.69
815.365	321.77
815.693	311.15
816.022	320.19
816.351	347.99
816.68	325.84
817.008	331.71
817.337	319.96
817.665	331.04
817.994	329.68
818.322	349.34
818.651	306.4
818.979	329.68
819.307	346.4
819.636	338.49
819.964	310.92
820.292	305.5
820.62	336.46
820.948	322.68
821.276	305.27
821.604	330.58
821.932	336.23
822.259	339.85
822.587	318.83
822.915	319.51
823.243	314.31
823.57	311.38
823.898	333.75
824.225	322.9
824.553	324.93
824.88	312.05
825.207	311.15
825.535	319.96
825.862	333.3
826.189	328.55
826.516	328.78
826.843	348.89
827.17	346.4
827.497	328.32
827.824	325.61
828.151	328.1
828.478	318.38
828.805	327.19
829.131	349.79
829.458	319.29
829.785	324.93
830.111	324.48
830.438	304.37
830.764	321.55
831.09	345.95
831.417	315.9
831.743	341.66
832.069	335.33
832.395	329
832.722	333.97
833.048	311.38
833.374	326.52
833.7	308.44
834.026	318.38
834.351	338.27
834.677	310.47
835.003	308.89
835.329	314.31
835.654	334.88
835.98	321.55
836.306	323.13
836.631	330.36
836.956	320.87
837.282	319.96
837.607	329.91
837.932	311.15
838.258	314.31
838.583	324.26
838.908	322.45
839.233	344.6
839.558	339.4
839.883	316.8
840.208	330.81
840.533	322
840.858	309.79
841.182	328.78
841.507	320.87
841.832	329.23
842.156	319.51
842.481	319.51
842.805	316.8
843.13	332.62
843.454	324.26
843.778	328.1
844.103	336.91
844.427	314.54
844.751	319.51
845.075	329.68
845.399	315.22
845.723	309.34
846.047	336.69
846.371	315.44
846.695	321.55
847.019	336.01
847.343	308.89
847.666	351.37
847.99	339.62
848.313	343.69
848.637	341.88
848.96	320.42
849.284	329.68
849.607	337.59
849.931	336.91
850.254	321.77
850.577	350.47
850.9	332.62
851.223	322
851.546	327.87
851.869	313.18
852.192	336.69
852.515	350.92
852.838	326.06
853.161	340.08
853.483	340.08
853.806	336.23
854.129	326.52
854.451	314.77
854.774	315.9
855.096	328.55
855.419	345.73
855.741	316.8
856.063	322.45
856.385	361.54
856.708	351.83
857.03	327.87
857.352	305.73
857.674	337.82
857.996	312.51
858.318	304.37
858.64	324.03
858.961	330.81
859.283	313.41
859.605	305.95
859.926	343.69
860.248	346.4
860.57	340.75
860.891	338.27
861.212	324.48
861.534	326.29
861.855	328.55
862.176	315.67
862.498	323.35
862.819	308.21
863.14	332.39
863.461	343.01
863.782	313.41
864.103	331.26
864.424	314.31
864.745	302.34
865.065	336.23
865.386	314.09
865.707	336.01
866.027	327.87
866.348	314.54
866.668	315.9
866.989	327.42
867.309	341.66
867.63	317.7
867.95	318.16
868.27	312.96
868.59	309.12
868.91	345.95
869.23	314.77
869.55	310.25
869.87	316.35
870.19	338.95
870.51	330.58
870.83	328.78
871.15	341.88
871.469	331.04
871.789	340.53
872.109	338.95
872.428	315.67
872.748	322.9
873.067	326.97
873.386	335.78
873.706	321.55
874.025	333.52
874.344	338.04
874.663	317.25
874.982	334.65
875.301	324.26
875.62	279.74
875.939	314.77
876.258	329.91
876.577	326.97
876.896	322
877.214	320.19
877.533	325.39
877.852	323.81
878.17	336.91
878.489	294.2
878.807	320.87
879.125	312.96
879.444	330.81
879.762	321.77
880.08	315.22
880.398	331.94
880.716	324.93
881.034	317.03
881.352	325.39
881.67	339.62
881.988	338.27
882.306	319.74
882.624	328.1
882.941	314.09
883.259	315.22
883.577	335.56
883.894	333.97
884.212	303.92
884.529	342.34
884.846	332.62
885.164	319.51
885.481	319.96
885.798	334.65
886.115	313.64
886.432	312.73
886.75	344.82
887.067	309.57
887.383	322.45
887.7	329
888.017	315.9
888.334	302.56
888.651	339.17
888.967	344.82
889.284	314.31
889.6	338.27
889.917	313.41
890.233	316.35
890.55	320.64
890.866	327.19
891.182	306.4
891.498	338.95
891.815	318.61
892.131	330.58
892.447	326.06
892.763	310.7
893.079	320.42
893.395	313.18
893.71	335.56
894.026	326.29
894.342	312.05
894.657	315.44
894.973	328.1
895.289	324.48
895.604	307.08
895.92	293.3
896.235	305.05
896.55	302.79
896.865	330.58
897.181	326.06
897.496	322.22
897.811	322
898.126	333.52
898.441	325.16
898.756	322.68
899.071	322
899.386	314.77
899.7	307.53
900.015	326.52
900.33	319.29
900.644	319.06
900.959	320.42
901.273	327.87
901.588	321.55
901.902	314.09
902.216	314.31
902.531	331.94
902.845	329.91
903.159	308.66
903.473	329.68
903.787	296.24
904.101	301.66
904.415	335.33
904.729	318.61
905.042	319.29
905.356	322.45
905.67	336.91
905.984	314.77
906.297	335.33
906.611	293.52
906.924	337.59
907.237	294.65
907.551	308.44
907.864	317.93
908.177	313.18
908.491	349.57
908.804	315.9
909.117	332.17
909.43	307.76
909.743	315.44
910.056	319.74
910.368	329.45
910.681	338.27
910.994	332.39
911.307	318.83
911.619	326.97
911.932	316.8
912.244	328.32
912.557	312.51
912.869	322.68
913.181	321.55
913.494	305.5
913.806	331.49
914.118	326.29
914.43	342.11
914.742	315.22
915.054	322.22
915.366	333.97
915.678	291.72
915.99	308.21
916.302	322
916.613	315.9
916.925	328.78
917.236	326.29
917.548	318.83
917.859	304.6
918.171	314.31
918.482	310.02
918.794	321.55
919.105	318.61
919.416	332.62
919.727	338.04
920.038	329.45
920.349	305.73
920.66	331.49
920.971	322.45
921.282	319.51
921.593	323.13
921.903	305.05
922.214	313.64
922.525	318.16
922.835	326.29
923.146	308.89
923.456	322
923.767	336.01
924.077	318.83
924.387	335.1
924.697	327.42
925.008	325.61
925.318	327.42
925.628	316.12
925.938	333.75
926.248	330.81
926.558	326.97
926.867	331.71
927.177	332.39
927.487	336.46
927.796	351.37
928.106	319.29
928.416	314.31
928.725	336.91
929.034	324.93
929.344	308.66
929.653	321.32
929.962	314.77
930.271	320.19
930.581	329.68
930.89	320.42
931.199	319.06
931.508	304.6
931.817	334.88
932.125	340.3
932.434	325.39
932.743	311.38
933.051	304.82
933.36	324.48
933.669	337.82
933.977	289
934.286	310.92
934.594	327.42
934.902	318.61
935.21	325.84
935.519	314.09
935.827	308.89
936.135	315.67
936.443	321.09
936.751	321.09
937.059	320.64
937.367	310.7
937.674	308.89
937.982	318.83
938.29	344.14
938.597	307.76
938.905	304.6
939.213	317.25
939.52	322.22
939.827	317.48
940.135	326.29
940.442	312.51
940.749	318.61
941.056	337.59
941.363	325.39
941.67	323.35
941.977	316.8
942.284	339.62
942.591	337.36
942.898	324.26
943.205	330.58
943.511	306.86
943.818	323.58
944.125	305.95
944.431	300.08
944.738	313.18
945.044	329
945.35	312.51
945.657	313.86
945.963	310.25
946.269	343.47
946.575	328.32
946.881	310.47
947.187	321.09
947.493	324.71
947.799	326.74
948.105	312.05
948.41	325.61
948.716	314.54
949.022	332.39
949.327	314.54
949.633	311.6
949.938	327.65
950.244	322.45
950.549	329.68
950.854	316.57
951.16	341.66
951.465	324.03
951.77	321.77
952.075	327.87
952.38	296.24
952.685	323.35
952.99	317.48
953.294	322.68
953.599	304.37
953.904	310.7
954.209	344.37
954.513	309.57
954.818	310.47
955.122	338.04
955.426	334.88
955.731	323.58
956.035	324.26
956.339	308.89
956.643	310.7
956.948	318.38
957.252	329
957.556	302.11
957.86	326.52
958.163	301.66
958.467	329.68
958.771	320.19
959.075	313.86
959.378	323.81
959.682	309.57
959.985	338.27
960.289	321.32
960.592	297.82
960.896	314.99
961.199	340.08
961.502	304.82
961.805	310.02
962.108	332.17
962.411	327.19
962.714	319.29
963.017	324.71
963.32	331.04
963.623	308.66
963.926	309.34
964.228	326.29
964.531	310.47
964.833	311.6
965.136	307.31
965.438	336.23
965.741	312.73
966.043	331.71
966.345	325.16
966.648	307.76
966.95	314.31
967.252	298.27
967.554	325.16
967.856	330.58
968.158	286.74
968.46	304.14
968.761	329.23
969.063	319.74
969.365	314.31
969.666	320.19
969.968	313.86
970.269	319.74
970.571	319.06
970.872	306.18
971.174	311.83
971.475	321.77
971.776	333.07
972.077	338.04
972.378	305.27
972.679	327.19
972.98	317.93
973.281	316.35
973.582	334.65
973.883	326.52
974.183	302.11
974.484	346.63
974.785	317.48
975.085	343.24
975.386	321.32
975.686	317.25
975.986	312.51
976.287	325.84
976.587	324.48
976.887	323.13
977.187	304.37
977.487	319.96
977.787	315.67
978.087	318.61
978.387	331.49
978.687	313.18
978.987	312.51
979.286	339.4
979.586	322
979.885	312.05
980.185	338.27
980.484	328.55
980.784	319.74
981.083	330.58
981.382	310.47
981.682	319.51
981.981	335.78
982.28	329.68
982.579	338.04
982.878	324.93
983.177	307.76
983.475	328.78
983.774	307.08
984.073	324.93
984.372	313.86
984.67	303.47
984.969	334.65
985.267	322.9
985.566	321.09
985.864	313.86
986.162	303.92
986.461	324.93
986.759	315.67
987.057	338.72
987.355	306.4
987.653	326.74
987.951	318.61
988.249	314.77
988.547	317.03
988.844	332.39
989.142	317.25
989.44	307.31
989.737	301.21
990.035	308.89
990.332	309.34
990.63	309.57
990.927	323.58
991.224	322.22
991.521	314.77
991.819	330.36
992.116	318.61
992.413	327.19
992.71	333.07
993.006	315.22
993.303	319.51
993.6	327.65
993.897	324.48
994.193	336.91
994.49	319.29
994.787	311.6
995.083	340.98
995.379	325.16
995.676	310.25
995.972	311.15
996.268	308.21
996.565	329.23
996.861	318.83
997.157	334.2
997.453	317.48
997.749	310.25
998.044	311.15
998.34	304.6
998.636	330.81
998.932	305.27
999.227	324.93
999.523	321.55
999.818	316.8
1000.114	311.38
1000.409	332.39
1000.704	307.53
1001	319.29
1001.295	315.22
1001.59	325.84
1001.885	313.64
1002.18	320.87
1002.475	310.92
1002.77	321.09
1003.065	311.83
1003.359	307.76
1003.654	316.57
1003.949	329.91
1004.243	316.8
1004.538	305.5
1004.832	319.74
1005.127	303.47
1005.421	315.44
1005.715	319.06
1006.009	322
1006.304	305.27
1006.598	333.52
1006.892	311.83
1007.186	295.78
1007.48	319.74
1007.773	322.22
1008.067	315.22
1008.361	303.47
1008.655	329.68
1008.948	315.44
1009.242	325.61
1009.535	316.8
1009.829	314.09
1010.122	327.65
1010.415	313.64
1010.708	316.8
1011.001	316.57
1011.295	325.61
1011.588	321.55
1011.881	329.45
1012.173	317.48
1012.466	314.99
1012.759	323.35
1013.052	317.7
1013.344	321.55
1013.637	313.64
1013.93	313.41
1014.222	319.51
1014.514	310.47
1014.807	286.97
1015.099	309.79
1015.391	315.67
1015.683	306.86
1015.976	320.19
1016.268	304.14
1016.56	323.35
1016.851	307.76
1017.143	324.48
1017.435	313.41
1017.727	308.89
1018.018	301.21
1018.31	298.95
1018.602	322.68
1018.893	313.41
1019.185	320.64
1019.476	323.35
1019.767	309.34
1020.058	320.64
1020.35	326.06
1020.641	319.29
1020.932	324.93
1021.223	331.04
1021.514	313.86
1021.804	316.57
1022.095	318.16
1022.386	335.33
1022.677	327.87
1022.967	327.87
1023.258	318.38
1023.548	322.68
1023.839	309.12
1024.129	314.77
1024.419	315.22
1024.709	301.43
1025	332.84
1025.29	304.14
1025.58	317.25
1025.87	303.92
1026.16	296.01
1026.449	329.45
1026.739	342.11
1027.029	310.47
1027.319	314.77
1027.608	310.02
1027.898	313.64
1028.187	309.34
1028.477	303.01
1028.766	316.57
1029.055	315.9
1029.344	318.83
1029.634	322
1029.923	307.99
1030.212	328.32
1030.501	326.29
1030.79	308.89
1031.078	335.33
1031.367	303.69
1031.656	315.67
1031.945	303.69
1032.233	324.48
1032.522	324.48
1032.81	308.66
1033.099	303.47
1033.387	344.37
1033.675	333.3
1033.963	295.11
1034.251	314.99
1034.54	329
1034.828	316.12
1035.116	336.91
1035.403	314.31
1035.691	316.8
1035.979	321.32
1036.267	300.75
1036.554	300.08
1036.842	325.61
1037.129	315.44
1037.417	313.86
1037.704	306.86
1037.992	339.4
1038.279	321.77
1038.566	316.35
1038.853	316.35
1039.14	316.35
