Data from No_light_on_white_reflection_standard_FLMS001491_058.txt Node
Date: Tue Feb 07 10:33:03 GMT 2017
User: dcchb
Spectrometer: FLMS00149
Trigger mode: 0
Integration Time (sec): 2.000000E-2
Scans to average: 10
Electric dark correction enabled: true
Nonlinearity correction enabled: false
Boxcar width: 0
XAxis mode: Wavelengths
Number of Pixels in Spectrum: 2048
>>>>>Begin Spectral Data<<<<<
341.393	-9.03
341.776	-9.03
342.16	-9.03
342.543	-54.9
342.927	-43.37
343.31	-58.06
343.693	-75.69
344.077	-56.93
344.46	-67.55
344.843	-54
345.226	-15.8
345.61	-38.63
345.993	-14.45
346.376	-0.44
346.759	2.73
347.142	28.26
347.525	33.01
347.908	55.15
348.291	49.05
348.674	87.02
349.057	126.34
349.44	130.41
349.823	140.58
350.206	153
350.588	159.78
350.971	191.42
351.354	183.51
351.737	203.85
352.119	231.42
352.502	213.79
352.884	237.75
353.267	254.92
353.65	261.7
354.032	261.7
354.414	253.79
354.797	270.74
355.179	296.73
355.562	297.18
355.944	286.56
356.326	315.49
356.709	299.67
357.091	276.84
357.473	319.78
357.855	299.22
358.238	317.07
358.62	312.77
359.002	315.03
359.384	302.61
359.766	294.47
360.148	319.33
360.53	325.2
360.912	299.67
361.294	304.19
361.676	321.81
362.057	318.65
362.439	303.28
362.821	296.28
363.203	310.51
363.584	290.4
363.966	302.38
364.348	299.22
364.729	275.94
365.111	289.05
365.493	276.84
365.874	288.59
366.256	291.08
366.637	290.63
367.019	266
367.4	280.68
367.781	282.94
368.163	303.51
368.544	295.83
368.925	306.9
369.306	285.43
369.688	280.91
370.069	272.78
370.45	262.15
370.831	261.7
371.212	267.8
371.593	264.41
371.974	293.11
372.355	275.94
372.736	279.78
373.117	273.91
373.498	288.14
373.879	283.17
374.26	261.7
374.641	274.13
375.021	269.16
375.402	279.33
375.783	291.98
376.163	268.48
376.544	292.89
376.925	283.62
377.305	274.36
377.686	282.49
378.066	288.37
378.447	293.11
378.827	288.59
379.208	291.31
379.588	272.55
379.968	284.75
380.349	269.16
380.729	279.33
381.109	286.56
381.489	307.58
381.87	296.5
382.25	281.81
382.63	274.36
383.01	264.87
383.39	286.56
383.77	297.41
384.15	282.72
384.53	289.05
384.91	289.72
385.29	268.26
385.67	292.44
386.049	305.09
386.429	286.33
386.809	306.22
387.189	298.54
387.568	301.7
387.948	308.93
388.328	302.61
388.707	310.06
389.087	301.48
389.466	297.86
389.846	312.77
390.225	312.77
390.605	278.65
390.984	315.71
391.363	303.73
391.743	301.7
392.122	277.97
392.501	311.19
392.881	300.35
393.26	286.11
393.639	305.54
394.018	289.5
394.397	271.65
394.776	296.5
395.155	300.35
395.534	291.31
395.913	300.57
396.292	307.35
396.671	301.02
397.05	304.41
397.429	284.98
397.808	283.17
398.186	296.5
398.565	311.87
398.944	303.51
399.323	305.77
399.701	294.24
400.08	308.71
400.458	298.54
400.837	301.25
401.215	300.12
401.594	306.45
401.972	289.05
402.351	302.38
402.729	300.12
403.107	295.6
403.486	324.98
403.864	306.22
404.242	306.9
404.62	298.99
404.999	309.84
405.377	297.63
405.755	306.67
406.133	311.64
406.511	288.14
406.889	321.59
407.267	297.86
407.645	317.97
408.023	303.73
408.401	321.14
408.779	304.64
409.156	316.16
409.534	309.61
409.912	324.3
410.29	331.3
410.667	301.93
411.045	302.83
411.422	324.3
411.8	294.24
412.178	320.68
412.555	315.49
412.933	323.85
413.31	295.15
413.687	315.26
414.065	310.06
414.442	298.31
414.819	316.84
415.197	315.03
415.574	303.96
415.951	289.72
416.328	315.71
416.705	303.51
417.082	312.1
417.46	332.89
417.837	303.06
418.214	310.29
418.591	310.74
418.967	298.31
419.344	322.49
419.721	308.93
420.098	289.27
420.475	311.19
420.852	291.76
421.228	307.12
421.605	317.97
421.982	296.28
422.358	316.62
422.735	325.43
423.111	303.06
423.488	310.97
423.864	322.94
424.241	301.48
424.617	315.26
424.994	308.71
425.37	328.82
425.746	297.86
426.123	338.99
426.499	318.65
426.875	303.28
427.251	324.3
427.627	320.46
428.003	323.17
428.379	317.29
428.756	337.18
429.132	323.17
429.507	322.94
429.883	313.23
430.259	318.65
430.635	320.91
431.011	310.29
431.387	328.59
431.763	339.67
432.138	318.88
432.514	320.23
432.89	319.33
433.265	336.5
433.641	339.21
434.016	331.53
434.392	320.91
434.767	322.49
435.143	329.5
435.518	326.11
435.894	326.79
436.269	340.34
436.644	317.97
437.02	347.58
437.395	332.66
437.77	345.54
438.145	331.76
438.52	328.14
438.895	332.89
439.271	323.85
439.646	346.22
440.021	326.56
440.395	348.03
440.77	336.5
441.145	334.47
441.52	323.17
441.895	338.99
442.27	333.11
442.645	337.41
443.019	343.51
443.394	365.43
443.769	353.68
444.143	341.93
444.518	370.63
444.892	368.82
445.267	378.31
445.641	327.69
446.016	352.1
446.39	354.81
446.764	349.84
447.139	348.48
447.513	347.35
447.887	341.25
448.262	367.01
448.636	362.26
449.01	370.4
449.384	372.21
449.758	353.9
450.132	380.8
450.506	360.68
450.88	376.73
451.254	367.46
451.628	356.39
452.002	385.09
452.376	353.23
452.75	367.24
453.123	370.85
453.497	381.7
453.871	364.3
454.244	376.95
454.618	377.86
454.992	369.72
455.365	374.69
455.739	393.9
456.112	358.87
456.486	365.2
456.859	376.95
457.232	362.72
457.606	374.92
457.979	362.26
458.352	353.45
458.725	378.99
459.099	384.86
459.472	355.94
459.845	380.8
460.218	376.73
460.591	370.85
460.964	364.75
461.337	346.45
461.71	368.82
462.083	376.28
462.456	368.59
462.829	369.5
463.201	364.3
463.574	375.6
463.947	366.78
464.32	378.76
464.692	365.65
465.065	355.49
465.438	359.55
465.81	364.52
466.183	365.43
466.555	359.55
466.928	368.82
467.3	346.22
467.672	368.14
468.045	341.7
468.417	361.59
468.789	366.56
469.161	356.39
469.534	345.32
469.906	373.11
470.278	377.63
470.65	362.49
471.022	379.44
471.394	369.5
471.766	352.32
472.138	365.2
472.51	337.63
472.882	363.85
473.253	370.63
473.625	355.03
473.997	360.91
474.369	368.82
474.74	370.63
475.112	377.63
475.484	364.52
475.855	344.86
476.227	343.06
476.598	342.6
476.97	350.06
477.341	358.2
477.713	373.79
478.084	350.97
478.455	351.64
478.827	373.34
479.198	353
479.569	360.68
479.94	360.91
480.311	366.78
480.682	363.62
481.053	336.95
481.424	350.29
481.795	344.19
482.166	364.98
482.537	347.12
482.908	352.32
483.279	353.9
483.65	341.02
484.021	395.48
484.391	365.43
484.762	358.65
485.133	361.81
485.503	377.63
485.874	353.9
486.244	364.75
486.615	355.03
486.985	379.21
487.356	388.48
487.726	357.52
488.097	375.37
488.467	397.07
488.837	388.03
489.207	400
489.578	400.68
489.948	379.21
490.318	376.95
490.688	371.53
491.058	388.7
491.428	359.1
491.798	375.82
492.168	366.78
492.538	373.11
492.908	394.58
493.278	378.99
493.648	375.15
494.017	375.82
494.387	400.23
494.757	390.96
495.126	407.24
495.496	394.35
495.866	416.5
496.235	385.31
496.605	393.22
496.974	395.71
497.344	402.94
497.713	371.08
498.082	391.64
498.452	398.65
498.821	393
499.19	403.17
499.559	410.17
499.928	391.19
500.298	396.61
500.667	401.81
501.036	402.04
501.405	396.39
501.774	417.86
502.143	425.09
502.512	421.25
502.88	403.62
503.249	426.9
503.618	410.4
503.987	392.55
504.356	404.75
504.724	408.36
505.093	420.34
505.462	426.67
505.83	423.05
506.199	423.05
506.567	422.83
506.936	428.25
507.304	434.58
507.672	441.36
508.041	433.45
508.409	426.9
508.777	417.4
509.145	416.27
509.514	434.13
509.882	440.45
510.25	452.88
510.618	442.49
510.986	421.02
511.354	459.21
511.722	430.29
512.09	467.12
512.458	447.46
512.826	454.92
513.193	450.85
513.561	443.62
513.929	452.21
514.297	447.46
514.664	459.89
515.032	473
515.4	445.43
515.767	446.1
516.135	462.15
516.502	465.54
516.869	485.43
517.237	470.06
517.604	447.46
517.972	464.18
518.339	463.73
518.706	458.53
519.073	467.8
519.44	466.44
519.808	471.41
520.175	456.95
520.542	485.43
520.909	442.71
521.276	484.97
521.643	477.97
522.009	470.51
522.376	468.93
522.743	485.43
523.11	485.88
523.477	491.53
523.843	491.53
524.21	470.06
524.577	497.85
524.943	484.07
525.31	476.16
525.676	484.97
526.043	493.11
526.409	477.29
526.776	490.62
527.142	489.94
527.508	485.88
527.874	507.35
528.241	470.06
528.607	493.11
528.973	498.76
529.339	500.79
529.705	494.69
530.071	506.44
530.437	491.07
530.803	500.11
531.169	520.23
531.535	511.64
531.901	494.24
532.267	480.91
532.632	499.44
532.998	514.58
533.364	499.21
533.73	516.84
534.095	499.89
534.461	498.76
534.826	505.99
535.192	517.97
535.557	489.94
535.923	509.83
536.288	501.24
536.653	511.64
537.019	509.38
537.384	515.71
537.749	510.06
538.114	520.68
538.479	515.93
538.845	506.67
539.21	542.15
539.575	520.45
539.94	514.35
540.305	501.24
540.67	552.32
541.034	508.02
541.399	520
541.764	516.38
542.129	517.74
542.494	509.38
542.858	523.39
543.223	500.79
543.587	523.62
543.952	518.64
544.316	529.72
544.681	542.37
545.045	522.03
545.41	523.39
545.774	520.45
546.138	534.69
546.503	511.41
546.867	529.94
547.231	530.85
547.595	526.1
547.959	517.06
548.324	545.31
548.688	531.3
549.052	531.07
549.416	546.21
549.779	508.25
550.143	533.56
550.507	530.85
550.871	539.89
551.235	538.08
551.599	542.6
551.962	545.31
552.326	529.72
552.689	548.47
553.053	524.52
553.417	541.02
553.78	550.28
554.143	540.56
554.507	550.28
554.87	550.96
555.234	556.16
555.597	527.68
555.96	556.16
556.323	555.48
556.686	557.51
557.05	548.7
557.413	513.45
557.776	538.76
558.139	550.28
558.502	531.07
558.865	557.29
559.228	560.9
559.59	538.76
559.953	555.93
560.316	559.77
560.679	563.16
561.041	556.38
561.404	558.64
561.767	557.29
562.129	548.93
562.492	556.16
562.854	574.69
563.217	571.07
563.579	579.43
563.941	561.58
564.304	562.94
564.666	567.23
565.028	591.41
565.39	558.19
565.753	580.11
566.115	573.33
566.477	564.97
566.839	563.16
567.201	587.8
567.563	602.03
567.925	569.94
568.287	567.91
568.648	583.05
569.01	566.78
569.372	575.59
569.734	586.67
570.095	601.35
570.457	582.82
570.819	591.41
571.18	585.31
571.542	589.6
571.903	596.16
572.265	593.44
572.626	588.47
572.987	584.86
573.349	599.55
573.71	604.07
574.071	574.46
574.432	601.13
574.794	600.9
575.155	601.58
575.516	581.24
575.877	592.09
576.238	602.48
576.599	604.74
576.96	604.74
577.32	597.51
577.681	588.02
578.042	581.92
578.403	582.15
578.763	607.68
579.124	598.64
579.485	607
579.845	583.28
580.206	606.1
580.566	610.85
580.927	562.71
581.287	575.59
581.648	599.09
582.008	599.77
582.368	575.14
582.728	597.51
583.089	599.32
583.449	589.38
583.809	568.81
584.169	592.99
584.529	604.74
584.889	595.7
585.249	595.25
585.609	602.94
585.969	585.99
586.329	585.31
586.688	610.39
587.048	602.94
587.408	596.61
587.768	609.72
588.127	574.24
588.487	591.86
588.846	607.68
589.206	587.8
589.565	599.32
589.925	577.63
590.284	564.52
590.643	597.29
591.003	606.1
591.362	589.6
591.721	607.23
592.08	585.76
592.44	575.82
592.799	601.81
593.158	594.35
593.517	610.62
593.876	592.77
594.235	556.84
594.593	608.13
594.952	588.7
595.311	583.5
595.67	561.13
596.029	576.95
596.387	580.56
596.746	607.68
597.104	585.76
597.463	583.73
597.822	600
598.18	584.18
598.538	570.17
598.897	581.69
599.255	567
599.613	601.13
599.972	571.3
600.33	579.21
600.688	588.02
601.046	576.72
601.404	577.17
601.762	554.58
602.12	594.35
602.478	579.21
602.836	591.19
603.194	599.32
603.552	583.5
603.91	578.98
604.268	569.26
604.625	574.91
604.983	567.46
605.341	565.42
605.698	597.51
606.056	568.36
606.413	588.02
606.771	567.91
607.128	583.05
607.485	568.36
607.843	576.27
608.2	567.23
608.557	598.42
608.914	560.45
609.272	530.85
609.629	569.49
609.986	580.79
610.343	552.99
610.7	555.93
611.057	565.87
611.414	571.07
611.771	588.93
612.127	590.06
612.484	560.9
612.841	562.49
613.198	576.5
613.554	559.1
613.911	550.06
614.267	548.7
614.624	560.68
614.98	549.38
615.337	546.21
615.693	556.16
616.05	550.06
616.406	538.08
616.762	558.64
617.118	543.5
617.475	546.44
617.831	537.4
618.187	545.99
618.543	563.16
618.899	573.56
619.255	547.34
619.611	533.33
619.967	538.08
620.323	556.16
620.678	531.3
621.034	546.44
621.39	545.08
621.746	520.9
622.101	541.69
622.457	538.53
622.812	527.68
623.168	538.98
623.523	540.56
623.879	537.63
624.234	514.8
624.589	531.3
624.945	525.42
625.3	520.9
625.655	507.12
626.01	533.56
626.365	503.96
626.72	535.59
627.075	532.88
627.43	534.24
627.785	524.52
628.14	510.96
628.495	520.45
628.85	500.11
629.205	490.17
629.559	518.42
629.914	527.23
630.269	481.58
630.623	511.64
630.978	523.39
631.332	503.73
631.687	504.41
632.041	520.9
632.396	498.76
632.75	492.2
633.104	465.31
633.459	489.72
633.813	497.18
634.167	476.16
634.521	515.25
634.875	491.07
635.229	495.82
635.583	476.61
635.937	482.49
636.291	494.69
636.645	495.37
636.999	490.85
637.352	501.47
637.706	498.53
638.06	506.22
638.413	473.67
638.767	485.65
639.121	475.93
639.474	499.44
639.828	480.68
640.181	484.52
640.534	467.8
640.888	483.17
641.241	452.88
641.594	467.8
641.947	461.92
642.301	468.93
642.654	467.57
643.007	488.36
643.36	471.64
643.713	457.86
644.066	482.94
644.419	477.06
644.771	488.36
645.124	460.57
645.477	476.39
645.83	451.53
646.182	440.45
646.535	449.95
646.888	446.56
647.24	446.56
647.593	442.04
647.945	450.62
648.298	451.53
648.65	428.7
649.002	449.72
649.355	444.3
649.707	427.57
650.059	433.22
650.411	424.18
650.763	452.66
651.115	445.2
651.467	444.07
651.819	455.14
652.171	455.14
652.523	430.96
652.875	454.01
653.227	410.62
653.578	416.05
653.93	433.22
654.282	430.06
654.633	427.57
654.985	429.61
655.337	444.52
655.688	431.19
656.039	410.4
656.391	417.86
656.742	428.48
657.094	415.82
657.445	425.09
657.796	423.73
658.147	429.61
658.498	445.43
658.849	410.62
659.2	428.48
659.551	420.12
659.902	418.53
660.253	427.57
660.604	430.06
660.955	425.09
661.306	413.11
661.656	411.3
662.007	412.66
662.358	422.83
662.708	404.07
663.059	406.33
663.409	415.82
663.76	413.79
664.11	425.77
664.461	400.46
664.811	420.34
665.161	410.85
665.511	409.72
665.862	401.59
666.212	419.89
666.562	387.8
666.912	417.86
667.262	402.26
667.612	422.83
667.962	409.49
668.312	410.4
668.662	398.42
669.011	410.85
669.361	392.55
669.711	405.65
670.06	390.29
670.41	401.81
670.76	395.94
671.109	398.42
671.459	386.67
671.808	392.32
672.157	393.68
672.507	414.69
672.856	389.16
673.205	389.38
673.554	380.8
673.904	400.46
674.253	403.39
674.602	357.07
674.951	406.78
675.3	421.47
675.649	396.61
675.998	381.92
676.346	383.28
676.695	368.82
677.044	421.47
677.393	395.03
677.741	372.66
678.09	376.28
678.438	380.34
678.787	381.47
679.135	381.25
679.484	368.37
679.832	384.41
680.181	378.31
680.529	374.24
680.877	380.34
681.225	385.09
681.573	384.64
681.922	379.67
682.27	397.07
682.618	399.55
682.966	381.47
683.314	409.27
683.661	391.87
684.009	358.65
684.357	375.37
684.705	389.83
685.053	373.79
685.4	372.66
685.748	387.8
686.095	383.51
686.443	378.08
686.79	376.95
687.138	360
687.485	387.57
687.832	351.42
688.18	383.28
688.527	367.46
688.874	378.76
689.221	356.61
689.568	389.38
689.915	391.19
690.262	364.3
690.609	353.9
690.956	353
691.303	375.6
691.65	364.52
691.997	378.31
692.344	355.49
692.69	345.09
693.037	352.55
693.383	361.81
693.73	374.47
694.077	359.33
694.423	361.59
694.769	351.64
695.116	386.9
695.462	351.87
695.808	363.62
696.155	376.28
696.501	347.8
696.847	361.59
697.193	349.16
697.539	366.33
697.885	384.64
698.231	338.31
698.577	369.95
698.923	346.67
699.269	375.82
699.614	388.25
699.96	365.43
700.306	362.94
700.651	348.93
700.997	377.41
701.342	345.77
701.688	355.26
702.033	373.11
702.379	368.14
702.724	332.21
703.069	349.16
703.415	352.32
703.76	375.37
704.105	358.42
704.45	355.94
704.795	360.68
705.14	341.25
705.485	341.25
705.83	362.49
706.175	357.52
706.52	360.68
706.865	374.69
707.209	353.68
707.554	331.53
707.899	349.61
708.243	344.86
708.588	342.38
708.932	348.93
709.277	347.12
709.621	367.24
709.966	366.78
710.31	350.74
710.654	362.94
710.998	349.38
711.342	361.36
711.687	344.19
712.031	340.34
712.375	350.06
712.719	349.38
713.063	338.76
713.407	349.38
713.75	369.27
714.094	347.12
714.438	371.98
714.782	343.28
715.125	350.51
715.469	338.76
715.812	350.06
716.156	343.51
716.499	330.17
716.843	361.13
717.186	359.33
717.53	352.77
717.873	338.99
718.216	357.29
718.559	331.53
718.902	348.25
719.246	343.73
719.589	340.34
719.932	379.67
720.275	348.71
720.617	333.34
720.96	348.25
721.303	344.41
721.646	351.42
721.989	346.22
722.331	363.62
722.674	346.9
723.016	355.49
723.359	355.26
723.701	330.17
724.044	348.93
724.386	345.54
724.729	333.56
725.071	333.56
725.413	359.78
725.755	336.5
726.097	357.97
726.439	345.09
726.782	327.69
727.124	350.97
727.465	316.62
727.807	338.54
728.149	358.2
728.491	343.73
728.833	356.39
729.175	347.12
729.516	333.79
729.858	341.02
730.199	341.25
730.541	345.99
730.882	325.66
731.224	342.6
731.565	352.32
731.906	324.75
732.248	339.21
732.589	333.11
732.93	352.32
733.271	337.41
733.612	348.48
733.953	329.27
734.294	343.73
734.635	351.42
734.976	362.94
735.317	323.62
735.658	331.76
735.999	339.89
736.339	322.04
736.68	329.27
737.021	348.93
737.361	348.48
737.702	336.73
738.042	336.73
738.383	353.9
738.723	355.26
739.063	342.6
739.404	348.03
739.744	345.09
740.084	349.61
740.424	336.28
740.764	338.99
741.104	352.55
741.444	344.86
741.784	334.02
742.124	336.5
742.464	333.34
742.804	338.76
743.143	340.12
743.483	339.44
743.823	320.23
744.162	355.94
744.502	338.08
744.841	357.29
745.181	347.35
745.52	330.4
745.86	351.19
746.199	331.76
746.538	344.41
746.877	337.63
747.216	360
747.556	323.85
747.895	341.7
748.234	335.6
748.573	324.3
748.911	334.92
749.25	332.21
749.589	343.28
749.928	341.02
750.267	346.9
750.605	338.54
750.944	334.69
751.283	340.8
751.621	343.51
751.96	346.67
752.298	339.89
752.636	343.96
752.975	348.93
753.313	345.54
753.651	316.62
753.989	318.65
754.327	348.03
754.666	344.19
755.004	355.49
755.342	322.27
755.679	340.34
756.017	342.15
756.355	330.85
756.693	345.99
757.031	333.11
757.368	346.45
757.706	338.76
758.044	335.15
758.381	330.4
758.719	355.49
759.056	325.88
759.394	326.11
759.731	332.21
760.068	347.12
760.405	322.27
760.743	320.23
761.08	339.67
761.417	324.07
761.754	338.31
762.091	319.1
762.428	316.16
762.765	326.79
763.102	333.34
763.438	321.59
763.775	352.1
764.112	324.75
764.449	345.32
764.785	313.9
765.122	318.2
765.458	336.95
765.795	315.26
766.131	336.73
766.467	347.8
766.804	350.97
767.14	346.9
767.476	342.15
767.812	345.54
768.148	342.83
768.485	329.27
768.821	337.18
769.157	349.84
769.492	325.2
769.828	310.29
770.164	332.43
770.5	327.01
770.836	323.17
771.171	331.3
771.507	331.76
771.842	350.51
772.178	348.25
772.513	344.64
772.849	355.94
773.184	333.11
773.519	343.06
773.855	338.54
774.19	343.96
774.525	348.71
774.86	333.79
775.195	340.34
775.53	339.44
775.865	322.94
776.2	348.71
776.535	339.21
776.87	329.95
777.205	330.17
777.539	319.78
777.874	324.53
778.209	331.53
778.543	317.97
778.878	327.46
779.212	329.27
779.547	333.34
779.881	360
780.215	320.91
780.55	337.41
780.884	345.99
781.218	342.83
781.552	338.08
781.886	343.28
782.22	306.22
782.554	324.07
782.888	320.23
783.222	327.69
783.556	341.93
783.889	328.82
784.223	329.27
784.557	330.85
784.89	337.63
785.224	326.79
785.557	342.6
785.891	333.11
786.224	343.73
786.558	343.51
786.891	342.15
787.224	339.44
787.557	342.38
787.891	335.82
788.224	317.29
788.557	338.76
788.89	328.37
789.223	323.17
789.556	343.96
789.888	344.41
790.221	287.46
790.554	339.67
790.887	327.92
791.219	329.95
791.552	333.79
791.884	339.67
792.217	331.08
792.549	338.76
792.882	327.69
793.214	347.12
793.546	330.63
793.879	310.06
794.211	338.08
794.543	329.72
794.875	322.94
795.207	347.12
795.539	330.85
795.871	321.81
796.203	321.59
796.535	352.1
796.867	322.49
797.198	318.42
797.53	336.73
797.862	323.4
798.193	341.02
798.525	318.65
798.856	331.76
799.188	324.07
799.519	316.16
799.85	319.1
800.182	318.42
800.513	342.38
800.844	311.87
801.175	332.66
801.506	334.92
801.837	335.37
802.168	316.16
802.499	324.07
802.83	329.27
803.161	331.08
803.491	320.23
803.822	314.13
804.153	337.86
804.483	315.94
804.814	339.44
805.145	339.44
805.475	334.92
805.805	327.24
806.136	304.86
806.466	333.34
806.796	332.89
807.126	320.91
807.457	333.34
807.787	323.62
808.117	309.61
808.447	322.04
808.777	334.69
809.107	314.13
809.436	332.43
809.766	334.47
810.096	332.43
810.426	310.51
810.755	330.63
811.085	322.49
811.414	338.99
811.744	315.26
812.073	337.63
812.403	320.23
812.732	326.33
813.061	317.75
813.39	346.9
813.719	323.85
814.049	332.43
814.378	316.62
814.707	328.14
815.036	335.15
815.365	362.49
815.693	327.24
816.022	317.07
816.351	335.82
816.68	347.12
817.008	318.88
817.337	315.71
817.665	325.66
817.994	315.26
818.322	333.11
818.651	339.44
818.979	342.15
819.307	331.98
819.636	310.29
819.964	321.59
820.292	324.98
820.62	327.69
820.948	332.43
821.276	324.3
821.604	342.15
821.932	334.24
822.259	327.69
822.587	347.35
822.915	326.79
823.243	338.99
823.57	317.29
823.898	319.1
824.225	332.66
824.553	327.01
824.88	330.17
825.207	307.8
825.535	341.02
825.862	319.78
826.189	323.85
826.516	317.07
826.843	321.14
827.17	322.94
827.497	326.11
827.824	309.84
828.151	322.72
828.478	338.76
828.805	312.32
829.131	317.75
829.458	330.17
829.785	305.32
830.111	307.12
830.438	331.3
830.764	342.38
831.09	319.1
831.417	320.91
831.743	336.05
832.069	320.23
832.395	334.02
832.722	344.41
833.048	324.07
833.374	322.94
833.7	329.95
834.026	344.86
834.351	327.69
834.677	325.88
835.003	335.37
835.329	323.85
835.654	323.17
835.98	324.75
836.306	317.75
836.631	327.24
836.956	320.23
837.282	331.53
837.607	323.4
837.932	319.55
838.258	327.92
838.583	309.61
838.908	329.5
839.233	340.12
839.558	332.21
839.883	339.21
840.208	338.76
840.533	329.27
840.858	325.88
841.182	310.06
841.507	341.47
841.832	338.54
842.156	326.79
842.481	337.86
842.805	333.56
843.13	326.11
843.454	322.94
843.778	338.54
844.103	336.28
844.427	304.86
844.751	330.17
845.075	310.29
845.399	340.34
845.723	306.67
846.047	324.53
846.371	345.77
846.695	338.08
847.019	327.01
847.343	336.28
847.666	323.85
847.99	323.4
848.313	328.82
848.637	330.85
848.96	322.27
849.284	320.46
849.607	347.12
849.931	333.56
850.254	323.85
850.577	324.98
850.9	328.14
851.223	327.92
851.546	322.72
851.869	331.53
852.192	321.59
852.515	329.72
852.838	331.3
853.161	320.68
853.483	320.46
853.806	331.53
854.129	322.94
854.451	338.08
854.774	338.76
855.096	325.43
855.419	328.37
855.741	325.2
856.063	327.46
856.385	322.04
856.708	315.03
857.03	347.12
857.352	333.79
857.674	345.77
857.996	325.88
858.318	321.36
858.64	343.96
858.961	315.26
859.283	332.66
859.605	338.31
859.926	341.02
860.248	319.55
860.57	321.14
860.891	312.1
861.212	324.53
861.534	351.19
861.855	327.69
862.176	342.38
862.498	334.69
862.819	328.14
863.14	335.15
863.461	324.07
863.782	336.5
864.103	340.12
864.424	329.95
864.745	328.14
865.065	333.56
865.386	336.5
865.707	344.41
866.027	303.06
866.348	345.32
866.668	312.55
866.989	320.01
867.309	317.29
867.63	332.21
867.95	337.18
868.27	320.91
868.59	323.85
868.91	317.97
869.23	317.52
869.55	316.62
869.87	330.4
870.19	329.5
870.51	316.16
870.83	350.97
871.15	331.3
871.469	327.69
871.789	336.05
872.109	335.15
872.428	343.28
872.748	311.87
873.067	322.04
873.386	325.66
873.706	344.19
874.025	335.6
874.344	331.3
874.663	339.21
874.982	329.95
875.301	324.98
875.62	335.6
875.939	309.38
876.258	338.76
876.577	309.61
876.896	317.52
877.214	313.45
877.533	309.61
877.852	328.82
878.17	310.06
878.489	322.04
878.807	325.88
879.125	333.79
879.444	336.5
879.762	308.48
880.08	312.77
880.398	335.37
880.716	322.49
881.034	311.42
881.352	305.77
881.67	309.16
881.988	317.07
882.306	308.71
882.624	301.48
882.941	313
883.259	330.63
883.577	303.06
883.894	317.75
884.212	324.07
884.529	339.44
884.846	331.3
885.164	329.27
885.481	317.07
885.798	332.43
886.115	324.75
886.432	306.45
886.75	321.59
887.067	320.68
887.383	349.61
887.7	328.14
888.017	337.63
888.334	332.89
888.651	334.69
888.967	331.98
889.284	306.22
889.6	327.69
889.917	330.4
890.233	320.68
890.55	313.45
890.866	306.67
891.182	345.09
891.498	309.38
891.815	336.28
892.131	331.08
892.447	308.48
892.763	317.97
893.079	321.36
893.395	314.36
893.71	334.02
894.026	339.44
894.342	327.92
894.657	334.69
894.973	321.14
895.289	310.51
895.604	310.74
895.92	336.05
896.235	322.27
896.55	308.48
896.865	323.85
897.181	324.98
897.496	336.05
897.811	341.02
898.126	326.33
898.441	346.22
898.756	299.44
899.071	332.21
899.386	341.25
899.7	338.31
900.015	317.97
900.33	313.68
900.644	328.82
900.959	318.2
901.273	324.98
901.588	301.25
901.902	313.9
902.216	315.71
902.531	344.86
902.845	306.45
903.159	316.39
903.473	326.79
903.787	334.47
904.101	330.4
904.415	301.48
904.729	341.25
905.042	330.4
905.356	303.06
905.67	325.43
905.984	310.51
906.297	321.81
906.611	333.56
906.924	306.22
907.237	328.59
907.551	319.55
907.864	344.19
908.177	320.46
908.491	308.25
908.804	326.56
909.117	298.99
909.43	330.63
909.743	323.85
910.056	327.92
910.368	318.65
910.681	315.49
910.994	326.33
911.307	322.27
911.619	332.21
911.932	324.07
912.244	324.3
912.557	342.6
912.869	328.14
913.181	315.26
913.494	329.5
913.806	321.59
914.118	317.29
914.43	299.22
914.742	314.13
915.054	313.68
915.366	311.42
915.678	310.06
915.99	311.64
916.302	327.01
916.613	304.19
916.925	340.8
917.236	323.4
917.548	317.07
917.859	319.78
918.171	347.58
918.482	315.03
918.794	303.73
919.105	311.19
919.416	333.11
919.727	308.25
920.038	316.39
920.349	337.18
920.66	341.02
920.971	313
921.282	332.21
921.593	329.27
921.903	320.46
922.214	311.42
922.525	319.55
922.835	327.46
923.146	335.15
923.456	327.24
923.767	315.26
924.077	325.88
924.387	343.73
924.697	322.04
925.008	339.21
925.318	302.61
925.628	327.01
925.938	315.26
926.248	320.91
926.558	321.36
926.867	338.76
927.177	320.91
927.487	313
927.796	337.86
928.106	299.67
928.416	309.61
928.725	326.56
929.034	318.2
929.344	301.25
929.653	323.4
929.962	324.3
930.271	301.02
930.581	317.75
930.89	310.74
931.199	336.95
931.508	334.47
931.817	327.46
932.125	329.05
932.434	329.05
932.743	323.17
933.051	317.97
933.36	334.69
933.669	315.49
933.977	309.61
934.286	318.42
934.594	329.05
934.902	302.83
935.21	334.69
935.519	329.95
935.827	334.02
936.135	302.15
936.443	325.88
936.751	318.42
937.059	292.21
937.367	319.33
937.674	323.62
937.982	334.69
938.29	319.55
938.597	305.09
938.905	301.7
939.213	321.36
939.52	335.6
939.827	331.98
940.135	328.82
940.442	324.07
940.749	327.46
941.056	321.36
941.363	310.97
941.67	318.2
941.977	339.89
942.284	314.13
942.591	323.17
942.898	299.22
943.205	322.27
943.511	312.55
943.818	323.17
944.125	336.95
944.431	315.71
944.738	328.59
945.044	300.35
945.35	305.09
945.657	315.94
945.963	318.65
946.269	326.11
946.575	314.13
946.881	330.17
947.187	309.38
947.493	324.53
947.799	295.37
948.105	340.8
948.41	322.04
948.716	326.33
949.022	332.66
949.327	310.97
949.633	332.21
949.938	307.8
950.244	317.52
950.549	308.25
950.854	346.9
951.16	318.65
951.465	316.84
951.77	324.98
952.075	319.33
952.38	317.29
952.685	325.66
952.99	327.01
953.294	294.24
953.599	324.75
953.904	330.4
954.209	322.27
954.513	328.14
954.818	312.1
955.122	316.16
955.426	297.63
955.731	307.35
956.035	301.25
956.339	301.93
956.643	330.85
956.948	313.45
957.252	312.77
957.556	327.46
957.86	324.3
958.163	327.69
958.467	333.79
958.771	325.66
959.075	321.36
959.378	321.14
959.682	305.09
959.985	320.91
960.289	324.53
960.592	328.37
960.896	304.64
961.199	315.71
961.502	308.48
961.805	321.59
962.108	335.6
962.411	325.2
962.714	330.85
963.017	312.55
963.32	322.27
963.623	307.35
963.926	320.91
964.228	324.75
964.531	324.07
964.833	320.46
965.136	301.02
965.438	325.43
965.741	320.46
966.043	316.39
966.345	338.76
966.648	329.5
966.95	329.72
967.252	309.84
967.554	316.39
967.856	320.23
968.158	310.51
968.46	322.04
968.761	317.29
969.063	312.32
969.365	313.45
969.666	312.77
969.968	314.81
970.269	320.46
970.571	313.45
970.872	334.69
971.174	319.55
971.475	323.17
971.776	309.38
972.077	319.1
972.378	325.43
972.679	325.88
972.98	308.48
973.281	297.86
973.582	338.31
973.883	321.81
974.183	345.32
974.484	320.46
974.785	307.12
975.085	325.66
975.386	298.09
975.686	321.36
975.986	330.85
976.287	311.87
976.587	319.33
976.887	317.97
977.187	333.34
977.487	314.58
977.787	338.54
978.087	312.55
978.387	297.86
978.687	301.02
978.987	322.27
979.286	316.62
979.586	331.53
979.885	347.58
980.185	312.55
980.484	334.24
980.784	310.06
981.083	321.14
981.382	322.49
981.682	335.15
981.981	301.25
982.28	323.4
982.579	312.55
982.878	323.85
983.177	302.61
983.475	321.14
983.774	312.1
984.073	309.84
984.372	350.06
984.67	327.69
984.969	310.06
985.267	325.43
985.566	298.54
985.864	323.4
986.162	329.72
986.461	309.16
986.759	324.07
987.057	321.36
987.355	311.87
987.653	309.16
987.951	330.4
988.249	315.26
988.547	321.36
988.844	318.2
989.142	322.27
989.44	320.91
989.737	304.64
990.035	320.46
990.332	342.15
990.63	309.61
990.927	319.55
991.224	336.5
991.521	318.88
991.819	329.72
992.116	304.86
992.413	322.94
992.71	322.49
993.006	293.57
993.303	301.25
993.6	320.23
993.897	329.95
994.193	315.49
994.49	313.68
994.787	336.95
995.083	315.49
995.379	326.79
995.676	308.03
995.972	321.81
996.268	315.03
996.565	320.91
996.861	346.67
997.157	327.69
997.453	310.51
997.749	341.93
998.044	296.73
998.34	308.93
998.636	320.91
998.932	316.39
999.227	309.61
999.523	301.02
999.818	322.72
1000.114	315.49
1000.409	331.53
1000.704	306.22
1001	292.21
1001.295	308.03
1001.59	317.29
1001.885	305.54
1002.18	335.82
1002.475	324.07
1002.77	335.82
1003.065	322.94
1003.359	341.25
1003.654	335.82
1003.949	338.08
1004.243	319.33
1004.538	306.22
1004.832	313
1005.127	333.34
1005.421	308.93
1005.715	320.68
1006.009	312.77
1006.304	314.58
1006.598	327.24
1006.892	322.49
1007.186	324.75
1007.48	327.01
1007.773	306.9
1008.067	313.45
1008.361	319.78
1008.655	301.25
1008.948	347.12
1009.242	325.88
1009.535	337.41
1009.829	299.67
1010.122	299.67
1010.415	318.88
1010.708	322.94
1011.001	312.55
1011.295	343.28
1011.588	301.93
1011.881	327.69
1012.173	333.56
1012.466	317.07
1012.759	329.27
1013.052	310.29
1013.344	302.61
1013.637	324.3
1013.93	307.58
1014.222	316.16
1014.514	307.8
1014.807	316.39
1015.099	312.55
1015.391	322.04
1015.683	325.2
1015.976	320.91
1016.268	319.55
1016.56	321.36
1016.851	322.27
1017.143	324.75
1017.435	307.12
1017.727	306.45
1018.018	329.72
1018.31	334.24
1018.602	337.86
1018.893	329.27
1019.185	324.3
1019.476	321.59
1019.767	311.87
1020.058	315.94
1020.35	330.85
1020.641	309.16
1020.932	308.48
1021.223	331.08
1021.514	328.59
1021.804	321.59
1022.095	315.71
1022.386	290.85
1022.677	320.23
1022.967	301.7
1023.258	304.64
1023.548	338.76
1023.839	323.85
1024.129	337.18
1024.419	313.68
1024.709	327.69
1025	312.55
1025.29	315.03
1025.58	305.09
1025.87	303.73
1026.16	308.48
1026.449	316.62
1026.739	308.03
1027.029	299.22
1027.319	294.92
1027.608	330.17
1027.898	317.29
1028.187	297.86
1028.477	318.2
1028.766	317.52
1029.055	296.5
1029.344	315.03
1029.634	334.69
1029.923	315.03
1030.212	310.06
1030.501	320.46
1030.79	321.14
1031.078	301.7
1031.367	291.76
1031.656	312.77
1031.945	324.98
1032.233	323.85
1032.522	314.81
1032.81	326.11
1033.099	296.73
1033.387	303.96
1033.675	317.75
1033.963	311.87
1034.251	338.08
1034.54	311.64
1034.828	328.82
1035.116	324.75
1035.403	343.06
1035.691	316.84
1035.979	335.82
1036.267	321.36
1036.554	317.75
1036.842	320.68
1037.129	331.98
1037.417	314.36
1037.704	311.19
1037.992	317.07
1038.279	303.96
1038.566	315.94
1038.853	315.94
1039.14	315.94
