Data from No_light_on_white_reflection_standard_FLMS001491_078.txt Node
Date: Tue Feb 07 10:33:07 GMT 2017
User: dcchb
Spectrometer: FLMS00149
Trigger mode: 0
Integration Time (sec): 2.000000E-2
Scans to average: 10
Electric dark correction enabled: true
Nonlinearity correction enabled: false
Boxcar width: 0
XAxis mode: Wavelengths
Number of Pixels in Spectrum: 2048
>>>>>Begin Spectral Data<<<<<
341.393	-5.65
341.776	-5.65
342.16	-5.65
342.543	-56.72
342.927	-48.36
343.31	-65.31
343.693	-69.38
344.077	-64.18
344.46	-53.11
344.843	-41.35
345.226	-35.93
345.61	-41.35
345.993	-19.21
346.376	-4.75
346.759	9.49
347.142	18.98
347.525	52.2
347.908	60.79
348.291	77.51
348.674	71.86
349.057	103.73
349.44	127.23
349.823	157.06
350.206	153.89
350.588	189.6
350.971	183.72
351.354	196.38
351.737	199.54
352.119	225.76
352.502	232.99
352.884	245.19
353.267	263.72
353.65	265.76
354.032	269.15
354.414	273.21
354.797	282.7
355.179	292.87
355.562	308.24
355.944	296.72
356.326	284.29
356.709	319.09
357.091	295.13
357.473	295.36
357.855	287.68
358.238	307.79
358.62	319.77
359.002	299.43
359.384	301.69
359.766	318.86
360.148	303.95
360.53	308.47
360.912	301.69
361.294	297.17
361.676	311.18
362.057	293.78
362.439	291.74
362.821	311.63
363.203	285.64
363.584	294.23
363.966	294.68
364.348	313.44
364.729	294.91
365.111	290.84
365.493	296.49
365.874	288.35
366.256	261.69
366.637	284.96
367.019	282.25
367.4	280.9
367.781	276.15
368.163	278.64
368.544	281.8
368.925	294.91
369.306	290.39
369.688	279.99
370.069	285.87
370.45	282.93
370.831	267.34
371.212	276.38
371.593	298.52
371.974	273.44
372.355	269.82
372.736	269.37
373.117	284.74
373.498	272.54
373.879	282.03
374.26	284.29
374.641	295.59
375.021	301.91
375.402	296.94
375.783	272.08
376.163	276.15
376.544	284.96
376.925	323.38
377.305	299.65
377.686	286.32
378.066	298.07
378.447	285.42
378.827	290.61
379.208	292.2
379.588	277.73
379.968	283.38
380.349	295.13
380.729	282.03
381.109	294.68
381.489	279.09
381.87	282.7
382.25	284.96
382.63	306.66
383.01	286.77
383.39	296.26
383.77	288.58
384.15	284.51
384.53	269.6
384.91	281.12
385.29	295.13
385.67	298.52
386.049	292.2
386.429	279.09
386.809	306.88
387.189	300.56
387.568	303.49
387.948	282.7
388.328	263.72
388.707	296.94
389.087	290.61
389.466	279.54
389.846	301.01
390.225	308.24
390.605	288.35
390.984	305.3
391.363	297.62
391.743	284.06
392.122	303.49
392.501	324.74
392.881	295.36
393.26	316.83
393.639	307.34
394.018	280.9
394.397	315.92
394.776	300.56
395.155	311.86
395.534	291.97
395.913	301.69
396.292	292.87
396.671	293.33
397.05	332.65
397.429	319.99
397.808	300.33
398.186	312.08
398.565	301.24
398.944	317.73
399.323	286.09
399.701	310.5
400.08	299.2
400.458	285.87
400.837	288.58
401.215	298.98
401.594	291.07
401.972	284.29
402.351	323.83
402.729	312.08
403.107	312.99
403.486	306.88
403.864	286.77
404.242	298.3
404.62	302.14
404.999	328.8
405.377	294.23
405.755	302.59
406.133	313.21
406.511	298.75
406.889	290.61
407.267	314.57
407.645	310.95
408.023	306.43
408.401	304.4
408.779	303.27
409.156	295.59
409.534	293.78
409.912	302.82
410.29	324.06
410.667	306.66
411.045	311.86
411.422	306.88
411.8	296.49
412.178	311.63
412.555	296.49
412.933	301.01
413.31	300.78
413.687	313.44
414.065	305.75
414.442	305.08
414.819	293.1
415.197	317.28
415.574	311.63
415.951	306.21
416.328	303.49
416.705	285.64
417.082	306.21
417.46	318.86
417.837	310.95
418.214	316.15
418.591	304.4
418.967	290.16
419.344	301.69
419.721	309.37
420.098	312.76
420.475	315.02
420.852	291.29
421.228	318.41
421.605	312.53
421.982	330.39
422.358	314.57
422.735	306.43
423.111	318.86
423.488	329.03
423.864	313.66
424.241	319.31
424.617	311.86
424.994	309.14
425.37	319.77
425.746	296.26
426.123	330.16
426.499	321.57
426.875	320.67
427.251	317.96
427.627	310.73
428.003	295.36
428.379	307.56
428.756	322.7
429.132	310.73
429.507	335.36
429.883	315.02
430.259	325.42
430.635	323.61
431.011	324.96
431.387	305.98
431.763	328.35
432.138	314.79
432.514	314.34
432.89	324.29
433.265	337.39
433.641	322.48
434.016	323.61
434.392	331.74
434.767	329.26
435.143	317.05
435.518	323.38
435.894	312.53
436.269	311.63
436.644	334.68
437.02	346.21
437.395	341.01
437.77	332.65
438.145	321.12
438.52	328.58
438.895	341.46
439.271	331.06
439.646	323.83
440.021	326.77
440.395	338.07
440.77	351.63
441.145	340.1
441.52	362.25
441.895	343.27
442.27	332.65
442.645	353.89
443.019	348.69
443.394	360.67
443.769	354.34
444.143	336.94
444.518	358.18
444.892	356.37
445.267	339.88
445.641	343.27
446.016	355.24
446.39	345.75
446.764	357.5
447.139	344.85
447.513	348.69
447.887	368.8
448.262	372.42
448.636	351.18
449.01	361.57
449.384	369.26
449.758	379.2
450.132	360.67
450.506	379.2
450.88	367.9
451.254	388.46
451.628	378.07
452.002	378.52
452.376	378.07
452.75	368.8
453.123	374.23
453.497	375.13
453.871	382.14
454.244	367
454.618	377.17
454.992	346.66
455.365	386.2
455.739	365.19
456.112	370.84
456.486	369.48
456.859	358.86
457.232	364.51
457.606	376.71
457.979	359.99
458.352	381.68
458.725	378.97
459.099	349.6
459.472	365.19
459.845	362.93
460.218	365.19
460.591	374.45
460.964	349.37
461.337	380.55
461.71	344.4
462.083	373.32
462.456	356.83
462.829	360.67
463.201	355.24
463.574	369.26
463.947	369.26
464.32	346.66
464.692	365.41
465.065	366.32
465.438	369.48
465.81	354.57
466.183	362.48
466.555	378.07
466.928	376.26
467.3	350.5
467.672	341.23
468.045	369.71
468.417	364.28
468.789	357.05
469.161	375.36
469.534	353.21
469.906	363.83
470.278	359.54
470.65	357.05
471.022	347.34
471.394	339.65
471.766	339.43
472.138	369.48
472.51	351.4
472.882	356.15
473.253	355.24
473.625	353.89
473.997	336.49
474.369	359.76
474.74	337.39
475.112	382.59
475.484	368.8
475.855	334
476.227	367.45
476.598	352.53
476.97	342.36
477.341	352.99
477.713	351.63
478.084	353.21
478.455	346.43
478.827	353.89
479.198	350.73
479.569	353.21
479.94	344.17
480.311	358.63
480.682	348.69
481.053	374
481.424	352.99
481.795	361.57
482.166	355.7
482.537	362.7
482.908	357.05
483.279	366.77
483.65	379.88
484.021	380.1
484.391	377.39
484.762	364.96
485.133	361.57
485.503	375.36
485.874	383.49
486.244	347.79
486.615	378.75
486.985	372.19
487.356	365.19
487.726	364.51
488.097	349.82
488.467	380.1
488.837	383.04
489.207	356.83
489.578	343.49
489.948	382.36
490.318	384.62
490.688	363.38
491.058	367.67
491.428	396.37
491.798	380.33
492.168	400.22
492.538	382.36
492.908	390.27
493.278	382.14
493.648	381.46
494.017	381.68
494.387	377.84
494.757	382.81
495.126	392.98
495.496	381.46
495.866	377.84
496.235	404.06
496.605	378.52
496.974	376.26
497.344	377.39
497.713	407.45
498.082	412.19
498.452	388.24
498.821	383.04
499.19	418.07
499.559	422.81
499.928	419.88
500.298	406.99
500.667	390.72
501.036	412.42
501.405	378.97
501.774	401.12
502.143	398.41
502.512	415.36
502.88	400.67
503.249	412.42
503.618	431.85
503.987	403.38
504.356	409.48
504.724	402.7
505.093	406.32
505.462	425.53
505.83	426.88
506.199	435.69
506.567	434.56
506.936	422.36
507.304	409.71
507.672	434.79
508.041	432.08
508.409	428.92
508.777	435.02
509.145	442.02
509.514	442.25
509.882	436.82
510.25	428.69
510.618	436.6
510.986	437.73
511.354	437.73
511.722	440.21
512.09	440.44
512.458	417.62
512.826	428.46
513.193	463.72
513.561	447.9
513.929	465.98
514.297	464.39
514.664	440.44
515.032	462.13
515.4	436.15
515.767	451.06
516.135	454.23
516.502	450.16
516.869	461
517.237	473.43
517.604	451.51
517.972	458.07
518.339	472.3
518.706	449.25
519.073	466.65
519.44	463.04
519.808	483.38
520.175	456.71
520.542	481.8
520.909	477.5
521.276	477.28
521.643	479.76
522.009	452.64
522.376	465.52
522.743	497.61
523.11	479.54
523.477	487.22
523.843	483.15
524.21	478.63
524.577	472.98
524.943	476.15
525.31	467.33
525.676	496.03
526.043	488.12
526.409	472.3
526.776	512.75
527.142	491.51
527.508	498.07
527.874	471.85
528.241	491.51
528.607	482.7
528.973	484.28
529.339	482.25
529.705	494.9
530.071	507.33
530.437	500.1
530.803	517.5
531.169	512.08
531.535	505.98
531.901	502.81
532.267	500.55
532.632	502.59
532.998	503.49
533.364	497.39
533.73	498.29
534.095	507.11
534.461	500.1
534.826	517.27
535.192	518.86
535.557	506.88
535.923	500.33
536.288	495.58
536.653	524.51
537.019	512.98
537.384	513.88
537.749	533.09
538.114	518.18
538.479	516.6
538.845	500.55
539.21	495.81
539.575	522.7
539.94	541.91
540.305	529.7
540.67	526.54
541.034	534.68
541.399	509.59
541.764	511.62
542.129	534
542.494	524.96
542.858	512.75
543.223	523.15
543.587	501.46
543.952	526.09
544.316	526.99
544.681	526.77
545.045	519.99
545.41	534.68
545.774	525.86
546.138	537.84
546.503	521.34
546.867	534
547.231	520.66
547.595	512.98
547.959	516.6
548.324	526.77
548.688	517.05
549.052	509.59
549.416	550.49
549.779	529.93
550.143	531.51
550.507	547.1
550.871	547.78
551.235	548.01
551.599	525.41
551.962	522.47
552.326	552.75
552.689	538.97
553.053	545.52
553.417	545.75
553.78	556.14
554.143	535.13
554.507	533.32
554.87	528.12
555.234	523.15
555.597	541.91
555.96	543.26
556.323	555.92
556.686	556.6
557.05	564.96
557.413	537.84
557.776	546.43
558.139	548.69
558.502	582.58
558.865	552.75
559.228	549.14
559.59	537.61
559.953	548.91
560.316	555.47
560.679	540.78
561.041	572.41
561.404	547.33
561.767	564.28
562.129	567.89
562.492	574
562.854	592.3
563.217	556.37
563.579	564.28
563.941	561.34
564.304	563.15
564.666	566.31
565.028	562.47
565.39	553.88
565.753	574.9
566.115	557.5
566.477	578.29
566.839	571.51
567.201	551.62
567.563	551.4
567.925	551.85
568.287	567.44
568.648	570.61
569.01	583.26
569.372	590.04
569.734	563.83
570.095	592.75
570.457	591.85
570.819	560.66
571.18	563.6
571.542	588.01
571.903	580.78
572.265	586.88
572.626	593.88
572.987	590.27
573.349	612.41
573.71	586.88
574.071	592.75
574.432	566.09
574.794	582.13
575.155	582.36
575.516	596.14
575.877	570.83
576.238	581.45
576.599	588.91
576.96	590.72
577.32	576.48
577.681	606.31
578.042	603.15
578.403	605.86
578.763	617.61
579.124	580.78
579.485	597.5
579.845	590.72
580.206	600.66
580.566	599.98
580.927	574.67
581.287	603.37
581.648	597.5
582.008	613.32
582.368	611.06
582.728	604.73
583.089	592.3
583.449	601.57
583.809	593.2
584.169	588.69
584.529	611.74
584.889	597.72
585.249	598.18
585.609	600.66
585.969	594.79
586.329	594.56
586.688	588.69
587.048	583.49
587.408	584.39
587.768	593.43
588.127	599.98
588.487	583.04
588.846	597.95
589.206	592.75
589.565	579.87
589.925	594.33
590.284	574.22
590.643	575.13
591.003	594.33
591.362	595.46
591.721	598.4
592.08	575.58
592.44	585.75
592.799	593.2
593.158	606.31
593.517	581.68
593.876	586.65
594.235	570.15
594.593	588.01
594.952	580.55
595.311	583.94
595.67	571.28
596.029	602.92
596.387	572.41
596.746	596.37
597.104	590.49
597.463	594.11
597.822	591.85
598.18	568.8
598.538	595.24
598.897	589.14
599.255	575.58
599.613	592.07
599.972	588.46
600.33	582.58
600.688	591.62
601.046	567.89
601.404	588.69
601.762	583.94
602.12	558.4
602.478	585.52
602.836	589.81
603.194	562.7
603.552	560.66
603.91	560.89
604.268	573.09
604.625	562.25
604.983	557.73
605.341	581
605.698	595.01
606.056	562.47
606.413	573.09
606.771	584.62
607.128	558.86
607.485	562.02
607.843	586.65
608.2	567.22
608.557	575.13
608.914	571.28
609.272	583.94
609.629	570.61
609.986	552.08
610.343	569.7
610.7	553.43
611.057	553.66
611.414	560.66
611.771	551.62
612.127	544.84
612.484	558.63
612.841	562.02
613.198	579.42
613.554	552.3
613.911	564.05
614.267	535.13
614.624	550.27
614.98	550.27
615.337	533.77
615.693	536.94
616.05	554.11
616.406	543.49
616.762	538.97
617.118	519.53
617.475	528.12
617.831	538.29
618.187	548.69
618.543	541.68
618.899	541
619.255	551.17
619.611	540.32
619.967	537.84
620.323	536.48
620.678	540.32
621.034	535.58
621.39	556.6
621.746	527.9
622.101	531.29
622.457	543.71
622.812	535.58
623.168	529.48
623.523	510.72
623.879	517.05
624.234	521.12
624.589	523.83
624.945	534.22
625.3	519.08
625.655	513.43
626.01	527.44
626.365	507.33
626.72	526.77
627.075	507.11
627.43	513.66
627.785	507.33
628.14	524.28
628.495	524.05
628.85	500.55
629.205	519.31
629.559	521.12
629.914	520.21
630.269	525.64
630.623	504.62
630.978	514.56
631.332	510.04
631.687	495.58
632.041	491.29
632.396	490.61
632.75	504.17
633.104	506.65
633.459	487.44
633.813	491.96
634.167	499.2
634.521	512.08
634.875	488.35
635.229	483.38
635.583	476.15
635.937	491.51
636.291	488.35
636.645	498.74
636.999	465.3
637.352	502.59
637.706	493.09
638.06	481.12
638.413	462.81
638.767	492.19
639.121	458.74
639.474	457.16
639.828	476.37
640.181	468.01
640.534	457.16
640.888	478.41
641.241	458.07
641.594	466.2
641.947	454.68
642.301	470.5
642.654	463.04
643.007	472.08
643.36	454.23
643.713	468.46
644.066	446.32
644.419	464.39
644.771	472.53
645.124	462.81
645.477	457.84
645.83	463.94
646.182	456.71
646.535	474.34
646.888	465.52
647.24	435.24
647.593	446.32
647.945	437.05
648.298	435.02
648.65	438.86
649.002	449.03
649.355	455.36
649.707	457.84
650.059	443.83
650.411	433.66
650.763	437.5
651.115	452.19
651.467	422.81
651.819	436.37
652.171	469.14
652.523	453.55
652.875	433.43
653.227	431.63
653.578	432.31
653.93	437.95
654.282	441.12
654.633	434.79
654.985	438.86
655.337	428.24
655.688	413.77
656.039	440.67
656.391	421.23
656.742	415.81
657.094	431.85
657.445	418.29
657.796	414
658.147	442.25
658.498	420.1
658.849	424.85
659.2	403.83
659.551	424.4
659.902	419.88
660.253	414.68
660.604	411.29
660.955	411.51
661.306	425.98
661.656	422.81
662.007	424.62
662.358	429.37
662.708	408.35
663.059	406.77
663.409	413.1
663.76	414.23
664.11	413.55
664.461	400.89
664.811	407.22
665.161	400.44
665.511	390.72
665.862	406.09
666.212	381.23
666.562	401.57
666.912	396.15
667.262	428.46
667.612	377.17
667.962	417.39
668.312	395.7
668.662	387.79
669.011	395.7
669.361	382.36
669.711	383.04
670.06	395.92
670.41	393.89
670.76	395.47
671.109	414.23
671.459	376.71
671.808	386.2
672.157	394.34
672.507	397.28
672.856	391.18
673.205	376.04
673.554	379.65
673.904	383.72
674.253	364.96
674.602	416.03
674.951	380.55
675.3	411.06
675.649	376.26
675.998	360.22
676.346	362.93
676.695	399.76
677.044	416.26
677.393	376.49
677.741	399.54
678.09	353.44
678.438	370.16
678.787	381.01
679.135	388.92
679.484	368.35
679.832	380.78
680.181	386.88
680.529	386.2
680.877	369.71
681.225	393.44
681.573	379.65
681.922	377.39
682.27	389.59
682.618	374.91
682.966	367.22
683.314	381.23
683.661	375.36
684.009	383.27
684.357	373.1
684.705	378.07
685.053	390.72
685.4	361.57
685.748	375.81
686.095	371.74
686.443	394.79
686.79	365.19
687.138	398.41
687.485	381.91
687.832	387.33
688.18	367.45
688.527	369.26
688.874	368.8
689.221	367
689.568	374.45
689.915	366.09
690.262	392.31
690.609	378.3
690.956	368.35
691.303	374.45
691.65	366.54
691.997	355.47
692.344	347.34
692.69	351.63
693.037	332.65
693.383	358.63
693.73	354.57
694.077	354.79
694.423	358.86
694.769	352.76
695.116	358.41
695.462	364.51
695.808	373.78
696.155	362.25
696.501	358.63
696.847	366.77
697.193	362.02
697.539	360.89
697.885	365.41
698.231	351.18
698.577	354.57
698.923	351.63
699.269	363.61
699.614	349.37
699.96	364.06
700.306	334.23
700.651	354.79
700.997	371.74
701.342	354.34
701.688	376.26
702.033	369.26
702.379	354.11
702.724	341.91
703.069	355.24
703.415	353.89
703.76	363.38
704.105	363.15
704.45	370.16
704.795	347.11
705.14	374.91
705.485	355.02
705.83	353.21
706.175	363.61
706.52	359.31
706.865	371.97
707.209	383.27
707.554	349.37
707.899	348.24
708.243	378.97
708.588	341.91
708.932	360.22
709.277	342.59
709.621	376.49
709.966	352.53
710.31	350.05
710.654	367.22
710.998	347.56
711.342	367.45
711.687	338.97
712.031	360.89
712.375	352.76
712.719	349.6
713.063	358.41
713.407	349.82
713.75	338.3
714.094	362.93
714.438	361.57
714.782	347.56
715.125	342.36
715.469	350.73
715.812	354.34
716.156	334
716.499	331.74
716.843	374.68
717.186	338.97
717.53	375.81
717.873	338.52
718.216	350.73
718.559	355.92
718.902	328.13
719.246	322.7
719.589	350.27
719.932	345.3
720.275	352.53
720.617	341.69
720.96	354.34
721.303	343.27
721.646	346.43
721.989	339.2
722.331	331.29
722.674	346.21
723.016	352.76
723.359	333.32
723.701	352.53
724.044	328.8
724.386	339.2
724.729	319.77
725.071	331.29
725.413	353.21
725.755	341.01
726.097	319.31
726.439	336.04
726.782	343.72
727.124	354.79
727.465	351.86
727.807	332.42
728.149	337.39
728.491	340.56
728.833	328.58
729.175	348.01
729.516	315.92
729.858	344.85
730.199	344.4
730.541	333.32
730.882	336.26
731.224	332.87
731.565	339.2
731.906	337.39
732.248	330.84
732.589	344.85
732.93	334.68
733.271	327.9
733.612	347.11
733.953	329.26
734.294	345.98
734.635	355.24
734.976	347.79
735.317	336.94
735.658	336.71
735.999	343.72
736.339	341.69
736.68	333.55
737.021	340.78
737.361	340.1
737.702	328.8
738.042	334
738.383	351.86
738.723	351.63
739.063	322.48
739.404	344.4
739.744	352.99
740.084	358.86
740.424	356.37
740.764	337.62
741.104	322.48
741.444	313.44
741.784	330.16
742.124	340.56
742.464	334.23
742.804	343.72
743.143	332.42
743.483	331.52
743.823	356.6
744.162	337.84
744.502	350.27
744.841	350.73
745.181	335.36
745.52	339.2
745.86	349.6
746.199	317.28
746.538	341.23
746.877	357.96
747.216	345.98
747.556	337.62
747.895	338.97
748.234	326.09
748.573	336.71
748.911	323.38
749.25	334.45
749.589	344.62
749.928	337.39
750.267	328.35
750.605	319.31
750.944	348.24
751.283	338.07
751.621	327
751.96	360.22
752.298	335.13
752.636	371.06
752.975	346.66
753.313	318.18
753.651	336.04
753.989	323.16
754.327	357.05
754.666	346.66
755.004	338.3
755.342	328.35
755.679	317.05
756.017	343.27
756.355	336.71
756.693	341.69
757.031	320.44
757.368	331.52
757.706	329.03
758.044	335.58
758.381	353.21
758.719	352.08
759.056	326.09
759.394	334.45
759.731	343.95
760.068	313.66
760.405	317.51
760.743	337.17
761.08	333.55
761.417	326.09
761.754	333.78
762.091	341.23
762.428	331.74
762.765	329.93
763.102	334.45
763.438	327.45
763.775	319.09
764.112	324.06
764.449	320.44
764.785	333.1
765.122	334.68
765.458	330.84
765.795	319.77
766.131	314.79
766.467	326.09
766.804	339.43
767.14	316.6
767.476	313.66
767.812	324.96
768.148	330.16
768.485	342.36
768.821	341.91
769.157	347.11
769.492	308.01
769.828	325.87
770.164	364.28
770.5	340.1
770.836	344.85
771.171	322.93
771.507	328.35
771.842	339.43
772.178	324.29
772.513	328.13
772.849	342.82
773.184	339.88
773.519	339.65
773.855	338.07
774.19	340.33
774.525	337.84
774.86	319.99
775.195	336.04
775.53	337.39
775.865	336.71
776.2	342.59
776.535	357.05
776.87	338.75
777.205	334.91
777.539	340.1
777.874	341.91
778.209	324.74
778.543	324.06
778.878	327
779.212	337.39
779.547	332.87
779.881	319.09
780.215	334.91
780.55	339.43
780.884	344.85
781.218	332.19
781.552	341.01
781.886	320.67
782.22	334.68
782.554	338.97
782.888	303.49
783.222	330.61
783.556	343.04
783.889	321.35
784.223	344.4
784.557	336.04
784.89	342.14
785.224	340.1
785.557	323.16
785.891	334
786.224	349.6
786.558	361.35
786.891	325.42
787.224	334.91
787.557	330.84
787.891	329.03
788.224	338.75
788.557	332.87
788.89	343.95
789.223	324.06
789.556	333.55
789.888	341.69
790.221	329.26
790.554	335.13
790.887	319.77
791.219	334.45
791.552	330.84
791.884	346.66
792.217	343.27
792.549	335.36
792.882	327.67
793.214	322.03
793.546	357.28
793.879	339.43
794.211	331.06
794.543	336.26
794.875	327.67
795.207	316.15
795.539	329.03
795.871	316.38
796.203	328.8
796.535	340.78
796.867	339.88
797.198	351.86
797.53	313.66
797.862	309.6
798.193	330.84
798.525	344.4
798.856	311.4
799.188	329.93
799.519	348.47
799.85	327.9
800.182	349.6
800.513	327.45
800.844	334.45
801.175	305.3
801.506	322.03
801.837	327.22
802.168	340.56
802.499	336.94
802.83	331.06
803.161	321.12
803.491	321.57
803.822	314.34
804.153	315.7
804.483	338.3
804.814	351.4
805.145	344.17
805.475	315.02
805.805	350.95
806.136	317.96
806.466	335.58
806.796	334.23
807.126	325.42
807.457	327.67
807.787	329.48
808.117	324.96
808.447	341.46
808.777	330.61
809.107	336.94
809.436	320.22
809.766	319.77
810.096	320.9
810.426	325.64
810.755	312.08
811.085	329.71
811.414	342.82
811.744	328.35
812.073	318.41
812.403	333.32
812.732	350.27
813.061	336.04
813.39	339.2
813.719	329.93
814.049	340.1
814.378	342.14
814.707	340.33
815.036	340.33
815.365	338.3
815.693	329.03
816.022	342.59
816.351	303.27
816.68	321.12
817.008	329.26
817.337	327.67
817.665	315.25
817.994	339.65
818.322	329.03
818.651	338.75
818.979	316.6
819.307	332.42
819.636	320.67
819.964	320.9
820.292	327.45
820.62	357.28
820.948	339.65
821.276	322.03
821.604	317.73
821.932	335.13
822.259	332.65
822.587	318.18
822.915	322.93
823.243	340.1
823.57	309.14
823.898	318.64
824.225	319.99
824.553	327
824.88	322.48
825.207	322.03
825.535	345.08
825.862	340.56
826.189	343.72
826.516	316.38
826.843	326.55
827.17	303.72
827.497	323.83
827.824	320.67
828.151	334.91
828.478	354.57
828.805	319.09
829.131	305.3
829.458	318.64
829.785	339.2
830.111	323.83
830.438	309.6
830.764	316.6
831.09	319.99
831.417	324.96
831.743	305.08
832.069	323.61
832.395	342.14
832.722	327.45
833.048	340.1
833.374	338.3
833.7	319.99
834.026	355.47
834.351	318.18
834.677	325.87
835.003	335.58
835.329	345.53
835.654	338.75
835.98	322.25
836.306	328.13
836.631	338.07
836.956	346.66
837.282	310.27
837.607	340.56
837.932	327.9
838.258	338.07
838.583	335.13
838.908	334.45
839.233	320.67
839.558	337.84
839.883	321.35
840.208	313.66
840.533	329.03
840.858	310.05
841.182	317.51
841.507	315.92
841.832	328.35
842.156	324.74
842.481	327.22
842.805	311.4
843.13	329.03
843.454	356.15
843.778	338.07
844.103	307.56
844.427	323.61
844.751	307.79
845.075	342.14
845.399	319.09
845.723	328.35
846.047	317.28
846.371	328.13
846.695	318.86
847.019	310.27
847.343	335.36
847.666	333.1
847.99	344.62
848.313	320.44
848.637	338.3
848.96	329.03
849.284	336.04
849.607	340.1
849.931	323.16
850.254	329.03
850.577	325.19
850.9	341.01
851.223	304.17
851.546	317.05
851.869	316.6
852.192	324.96
852.515	319.77
852.838	333.1
853.161	305.75
853.483	331.52
853.806	308.92
854.129	322.7
854.451	328.8
854.774	305.53
855.096	308.01
855.419	311.63
855.741	331.74
856.063	332.19
856.385	309.6
856.708	328.8
857.03	347.34
857.352	341.69
857.674	327.45
857.996	317.73
858.318	324.74
858.64	329.26
858.961	327
859.283	344.62
859.605	346.43
859.926	318.64
860.248	321.8
860.57	313.89
860.891	303.27
861.212	344.4
861.534	339.65
861.855	324.96
862.176	319.99
862.498	344.17
862.819	318.86
863.14	343.04
863.461	313.66
863.782	334.91
864.103	325.42
864.424	326.09
864.745	322.93
865.065	338.07
865.386	322.7
865.707	331.06
866.027	321.35
866.348	324.29
866.668	325.64
866.989	306.88
867.309	317.28
867.63	327.9
867.95	329.71
868.27	331.52
868.59	327.9
868.91	319.31
869.23	318.41
869.55	328.35
869.87	327.22
870.19	336.04
870.51	311.86
870.83	342.14
871.15	317.51
871.469	330.39
871.789	329.48
872.109	318.86
872.428	349.82
872.748	334.68
873.067	315.7
873.386	313.21
873.706	324.29
874.025	336.04
874.344	337.17
874.663	341.46
874.982	309.6
875.301	323.61
875.62	323.38
875.939	331.97
876.258	320.67
876.577	339.65
876.896	296.04
877.214	316.6
877.533	335.36
877.852	314.34
878.17	336.49
878.489	326.55
878.807	313.89
879.125	312.53
879.444	313.44
879.762	316.38
880.08	318.41
880.398	327
880.716	325.19
881.034	312.53
881.352	317.05
881.67	322.93
881.988	338.07
882.306	325.64
882.624	324.29
882.941	319.09
883.259	304.62
883.577	309.82
883.894	333.1
884.212	327.9
884.529	314.57
884.846	319.09
885.164	342.36
885.481	319.09
885.798	337.39
886.115	319.31
886.432	342.36
886.75	328.13
887.067	327
887.383	291.29
887.7	315.02
888.017	326.55
888.334	323.83
888.651	339.2
888.967	324.51
889.284	317.05
889.6	308.01
889.917	313.89
890.233	312.31
890.55	311.63
890.866	331.97
891.182	330.84
891.498	307.79
891.815	324.29
892.131	345.08
892.447	329.71
892.763	317.28
893.079	322.48
893.395	338.97
893.71	340.33
894.026	327
894.342	322.93
894.657	336.94
894.973	316.15
895.289	305.75
895.604	322.7
895.92	309.6
896.235	324.29
896.55	321.12
896.865	324.96
897.181	319.99
897.496	317.05
897.811	308.92
898.126	308.47
898.441	312.76
898.756	318.41
899.071	327.67
899.386	300.56
899.7	313.21
900.015	325.64
900.33	310.95
900.644	322.03
900.959	352.76
901.273	337.62
901.588	336.26
901.902	341.91
902.216	307.56
902.531	318.64
902.845	313.21
903.159	333.78
903.473	309.14
903.787	332.87
904.101	323.16
904.415	332.87
904.729	328.13
905.042	323.61
905.356	318.64
905.67	324.74
905.984	336.71
906.297	333.78
906.611	326.32
906.924	302.82
907.237	334.68
907.551	345.75
907.864	300.78
908.177	332.87
908.491	317.73
908.804	313.89
909.117	349.37
909.43	323.83
909.743	323.16
910.056	319.77
910.368	302.14
910.681	322.25
910.994	332.65
911.307	333.55
911.619	328.13
911.932	329.71
912.244	315.47
912.557	309.14
912.869	303.04
913.181	328.13
913.494	332.19
913.806	328.35
914.118	327
914.43	319.31
914.742	305.08
915.054	334.23
915.366	311.18
915.678	321.12
915.99	307.34
916.302	325.87
916.613	307.79
916.925	346.66
917.236	311.63
917.548	308.92
917.859	315.02
918.171	315.47
918.482	324.29
918.794	308.69
919.105	326.09
919.416	337.39
919.727	299.88
920.038	303.95
920.349	312.53
920.66	320.67
920.971	317.73
921.282	315.92
921.593	338.07
921.903	345.53
922.214	309.82
922.525	309.14
922.835	325.87
923.146	306.88
923.456	312.31
923.767	320.22
924.077	310.5
924.387	334.91
924.697	317.51
925.008	340.33
925.318	328.35
925.628	318.41
925.938	315.47
926.248	321.57
926.558	333.1
926.867	295.81
927.177	331.06
927.487	324.74
927.796	303.27
928.106	333.1
928.416	322.7
928.725	319.54
929.034	307.34
929.344	338.75
929.653	324.96
929.962	336.26
930.271	317.96
930.581	312.31
930.89	324.74
931.199	322.03
931.508	318.86
931.817	321.12
932.125	328.58
932.434	328.8
932.743	343.72
933.051	320.22
933.36	316.83
933.669	326.32
933.977	312.08
934.286	336.26
934.594	317.73
934.902	307.34
935.21	322.25
935.519	325.19
935.827	314.34
936.135	319.99
936.443	346.43
936.751	327
937.059	319.31
937.367	335.13
937.674	312.76
937.982	318.86
938.29	340.33
938.597	327.9
938.905	319.54
939.213	320.67
939.52	323.38
939.827	317.73
940.135	329.48
940.442	321.8
940.749	314.79
941.056	309.82
941.363	315.25
941.67	305.53
941.977	328.8
942.284	323.61
942.591	326.77
942.898	303.95
943.205	303.04
943.511	309.82
943.818	324.51
944.125	324.74
944.431	338.07
944.738	316.6
945.044	319.99
945.35	324.96
945.657	314.57
945.963	301.01
946.269	315.25
946.575	308.01
946.881	294.23
947.187	324.51
947.493	327.22
947.799	317.73
948.105	326.77
948.41	319.09
948.716	304.85
949.022	317.28
949.327	308.92
949.633	327
949.938	308.69
950.244	323.16
950.549	329.03
950.854	319.77
951.16	331.74
951.465	310.05
951.77	311.86
952.075	310.27
952.38	302.82
952.685	328.35
952.99	326.77
953.294	312.76
953.599	341.01
953.904	314.57
954.209	325.87
954.513	353.66
954.818	351.4
955.122	328.8
955.426	328.58
955.731	321.12
956.035	332.19
956.339	311.18
956.643	317.96
956.948	327.67
957.252	327.67
957.556	310.5
957.86	316.6
958.163	327.45
958.467	323.61
958.771	344.4
959.075	297.17
959.378	325.42
959.682	313.21
959.985	329.26
960.289	317.05
960.592	307.11
960.896	321.12
961.199	331.52
961.502	321.35
961.805	334
962.108	305.53
962.411	319.77
962.714	327.22
963.017	321.35
963.32	336.49
963.623	319.77
963.926	318.64
964.228	308.24
964.531	319.54
964.833	315.92
965.136	298.52
965.438	340.78
965.741	307.56
966.043	299.88
966.345	331.97
966.648	333.78
966.95	334
967.252	329.93
967.554	316.6
967.856	337.84
968.158	315.47
968.46	314.12
968.761	322.25
969.063	310.5
969.365	311.18
969.666	318.86
969.968	302.59
970.269	313.21
970.571	330.16
970.872	337.62
971.174	334.45
971.475	323.38
971.776	311.4
972.077	316.15
972.378	316.38
972.679	317.96
972.98	328.58
973.281	325.64
973.582	314.57
973.883	327.67
974.183	316.15
974.484	323.16
974.785	317.05
975.085	311.86
975.386	301.01
975.686	321.57
975.986	318.18
976.287	345.75
976.587	310.95
976.887	323.61
977.187	307.56
977.487	288.81
977.787	333.32
978.087	303.49
978.387	326.09
978.687	331.29
978.987	328.58
979.286	322.25
979.586	309.6
979.885	324.06
980.185	299.2
980.484	330.61
980.784	330.16
981.083	341.91
981.382	328.58
981.682	348.01
981.981	306.66
982.28	336.49
982.579	297.62
982.878	318.86
983.177	323.16
983.475	331.97
983.774	324.51
984.073	327.45
984.372	307.79
984.67	314.34
984.969	296.49
985.267	312.31
985.566	301.46
985.864	316.83
986.162	321.12
986.461	317.05
986.759	322.48
987.057	301.91
987.355	312.76
987.653	320.44
987.951	295.13
988.249	319.99
988.547	317.96
988.844	325.87
989.142	326.32
989.44	351.86
989.737	305.08
990.035	325.64
990.332	323.16
990.63	300.56
990.927	314.12
991.224	316.38
991.521	298.3
991.819	325.19
992.116	328.13
992.413	316.6
992.71	332.65
993.006	309.14
993.303	317.28
993.6	320.9
993.897	311.86
994.193	319.99
994.49	324.74
994.787	342.36
995.083	331.74
995.379	315.7
995.676	328.8
995.972	314.79
996.268	314.34
996.565	333.55
996.861	330.84
997.157	302.59
997.453	316.83
997.749	326.09
998.044	314.34
998.34	331.29
998.636	317.51
998.932	301.91
999.227	333.55
999.523	329.26
999.818	330.39
1000.114	304.85
1000.409	319.31
1000.704	330.16
1001	316.38
1001.295	330.39
1001.59	327.45
1001.885	310.73
1002.18	299.88
1002.475	304.17
1002.77	333.78
1003.065	322.25
1003.359	337.62
1003.654	322.93
1003.949	295.81
1004.243	300.11
1004.538	332.87
1004.832	313.89
1005.127	312.53
1005.421	316.83
1005.715	315.25
1006.009	322.93
1006.304	329.71
1006.598	299.65
1006.892	303.04
1007.186	297.85
1007.48	323.16
1007.773	331.29
1008.067	302.14
1008.361	327.68
1008.655	319.54
1008.948	322.7
1009.242	330.61
1009.535	322.25
1009.829	313.44
1010.122	325.19
1010.415	280.22
1010.708	328.35
1011.001	358.18
1011.295	320.22
1011.588	331.29
1011.881	305.98
1012.173	316.6
1012.466	325.19
1012.759	317.28
1013.052	319.09
1013.344	328.35
1013.637	307.79
1013.93	298.98
1014.222	329.03
1014.514	332.19
1014.807	308.92
1015.099	308.01
1015.391	324.51
1015.683	334
1015.976	307.56
1016.268	303.72
1016.56	312.53
1016.851	348.24
1017.143	317.05
1017.435	312.99
1017.727	311.4
1018.018	336.26
1018.31	333.55
1018.602	329.26
1018.893	317.73
1019.185	324.74
1019.476	322.7
1019.767	326.55
1020.058	310.27
1020.35	314.57
1020.641	336.71
1020.932	320.67
1021.223	332.87
1021.514	309.6
1021.804	319.77
1022.095	324.51
1022.386	317.05
1022.677	329.26
1022.967	304.17
1023.258	334.23
1023.548	317.73
1023.839	303.95
1024.129	335.36
1024.419	332.19
1024.709	333.1
1025	316.83
1025.29	312.08
1025.58	319.09
1025.87	326.77
1026.16	315.92
1026.449	325.64
1026.739	331.06
1027.029	322.25
1027.319	320.22
1027.608	334.45
1027.898	313.89
1028.187	315.25
1028.477	323.61
1028.766	309.14
1029.055	325.64
1029.344	313.89
1029.634	294.46
1029.923	301.46
1030.212	311.4
1030.501	303.72
1030.79	301.69
1031.078	321.35
1031.367	296.26
1031.656	340.78
1031.945	298.07
1032.233	342.82
1032.522	322.7
1032.81	324.96
1033.099	328.13
1033.387	317.96
1033.675	311.18
1033.963	318.18
1034.251	334.91
1034.54	322.03
1034.828	309.37
1035.116	337.17
1035.403	306.21
1035.691	324.06
1035.979	293.78
1036.267	326.77
1036.554	318.18
1036.842	311.86
1037.129	317.73
1037.417	305.3
1037.704	314.57
1037.992	315.02
1038.279	313.21
1038.566	321.12
1038.853	321.12
1039.14	321.12
