Data from No_light_on_white_reflection_standard_FLMS001491_057.txt Node
Date: Tue Feb 07 10:33:03 GMT 2017
User: dcchb
Spectrometer: FLMS00149
Trigger mode: 0
Integration Time (sec): 2.000000E-2
Scans to average: 10
Electric dark correction enabled: true
Nonlinearity correction enabled: false
Boxcar width: 0
XAxis mode: Wavelengths
Number of Pixels in Spectrum: 2048
>>>>>Begin Spectral Data<<<<<
341.393	-37.13
341.776	-37.13
342.16	-37.13
342.543	-52.5
342.927	-74.87
343.31	-65.83
343.693	-61.54
344.077	-59.05
344.46	-52.5
344.843	-42.56
345.226	-46.62
345.61	-40.97
345.993	-25.61
346.376	-17.25
346.759	16.43
347.142	40.83
347.525	36.31
347.908	71.34
348.291	58.46
348.674	86.71
349.057	101.85
349.44	107.5
349.823	136.42
350.206	169.42
350.588	163.09
350.971	178.46
351.354	201.28
351.737	196.53
352.119	222.3
352.502	245.8
352.884	227.04
353.267	239.92
353.65	260.49
354.032	260.49
354.414	279.02
354.797	267.94
355.179	286.02
355.562	278.79
355.944	281.28
356.326	304.78
356.709	285.12
357.091	307.49
357.473	302.52
357.855	299.81
358.238	295.51
358.62	306.59
359.002	295.06
359.384	319.02
359.766	311.11
360.148	287.38
360.53	293.26
360.912	310.66
361.294	298.9
361.676	285.57
362.057	301.62
362.439	291.9
362.821	293.48
363.203	300.71
363.584	280.83
363.966	291.67
364.348	279.47
364.729	272.69
365.111	305.01
365.493	283.76
365.874	282.41
366.256	295.74
366.637	282.63
367.019	290.09
367.4	281.28
367.781	262.52
368.163	268.4
368.544	249.87
368.925	276.08
369.306	276.98
369.688	283.09
370.069	263.43
370.45	276.98
370.831	278.57
371.212	270.88
371.593	282.41
371.974	274.05
372.355	285.57
372.736	281.96
373.117	266.14
373.498	267.27
373.879	264.1
374.26	277.66
374.641	286.25
375.021	283.54
375.402	275.63
375.783	257.1
376.163	283.99
376.544	276.98
376.925	294.38
377.305	289.64
377.686	288.28
378.066	273.14
378.447	281.5
378.827	298.23
379.208	285.12
379.588	274.95
379.968	292.35
380.349	277.44
380.729	281.28
381.109	286.48
381.489	283.09
381.87	271.79
382.25	301.62
382.63	280.37
383.01	281.96
383.39	287.38
383.77	298
384.15	295.29
384.53	297.77
384.91	292.35
385.29	295.29
385.67	273.59
386.049	294.16
386.429	288.28
386.809	305.01
387.189	294.16
387.568	295.29
387.948	294.38
388.328	305.01
388.707	301.39
389.087	279.7
389.466	308.17
389.846	288.06
390.225	312.69
390.605	280.37
390.984	282.41
391.363	290.77
391.743	300.71
392.122	286.02
392.501	290.32
392.881	288.74
393.26	300.71
393.639	294.61
394.018	283.09
394.397	295.97
394.776	300.26
395.155	286.25
395.534	297.77
395.913	276.31
396.292	286.25
396.671	302.29
397.05	282.63
397.429	292.58
397.808	297.77
398.186	298.9
398.565	280.15
398.944	289.41
399.323	286.7
399.701	300.26
400.08	298.23
400.458	297.77
400.837	282.86
401.215	298
401.594	304.33
401.972	296.19
402.351	298.9
402.729	304.33
403.107	304.78
403.486	300.94
403.864	296.42
404.242	273.82
404.62	300.49
404.999	287.83
405.377	290.54
405.755	290.54
406.133	304.1
406.511	298.23
406.889	294.38
407.267	310.2
407.645	309.98
408.023	290.32
408.401	301.16
408.779	289.41
409.156	309.3
409.534	303.88
409.912	299.81
410.29	309.75
410.667	299.58
411.045	291.9
411.422	298.23
411.8	315.63
412.178	313.82
412.555	319.69
412.933	311.79
413.31	318.11
413.687	317.66
414.065	318.57
414.442	294.61
414.819	290.09
415.197	297.55
415.574	299.81
415.951	315.85
416.328	315.4
416.705	313.59
417.082	314.27
417.46	332.58
417.837	314.95
418.214	312.69
418.591	327.6
418.967	321.05
419.344	316.08
419.721	321.5
420.098	311.11
420.475	330.99
420.852	305.23
421.228	321.05
421.605	312.92
421.982	321.05
422.358	305.46
422.735	291.9
423.111	302.29
423.488	311.56
423.864	309.75
424.241	338.9
424.617	294.84
424.994	311.11
425.37	330.54
425.746	325.8
426.123	314.05
426.499	311.11
426.875	317.21
427.251	312.01
427.627	301.62
428.003	336.87
428.379	298.23
428.756	302.75
429.132	319.47
429.507	316.31
429.883	319.92
430.259	295.97
430.635	326.93
431.011	305.23
431.387	290.32
431.763	335.97
432.138	314.72
432.514	322.63
432.89	313.14
433.265	328.96
433.641	324.67
434.016	329.64
434.392	340.03
434.767	338.9
435.143	318.11
435.518	317.89
435.894	328.06
436.269	313.82
436.644	319.24
437.02	325.12
437.395	331.45
437.77	335.29
438.145	347.49
438.52	315.4
438.895	327.83
439.271	316.53
439.646	350.43
440.021	346.59
440.395	325.34
440.77	330.09
441.145	315.63
441.52	315.63
441.895	349.98
442.27	345.01
442.645	346.36
443.019	315.18
443.394	342.29
443.769	361.05
444.143	324.89
444.518	345.46
444.892	360.15
445.267	335.06
445.641	350.65
446.016	335.06
446.39	367.6
446.764	349.52
447.139	367.15
447.513	354.95
447.887	340.94
448.262	350.43
448.636	360.37
449.01	362.86
449.384	342.29
449.758	340.94
450.132	346.13
450.506	375.96
450.88	371.9
451.254	355.63
451.628	357.89
452.002	373.93
452.376	363.08
452.75	387.72
453.123	370.09
453.497	382.97
453.871	387.04
454.244	372.57
454.618	395.85
454.992	368.96
455.365	369.19
455.739	379.13
456.112	372.35
456.486	353.82
456.859	346.59
457.232	380.26
457.606	351.11
457.979	380.48
458.352	367.38
458.725	363.99
459.099	370.77
459.472	361.5
459.845	342.52
460.218	368.96
460.591	363.54
460.964	371.45
461.337	366.25
461.71	362.41
462.083	359.47
462.456	364.89
462.829	360.37
463.201	368.73
463.574	356.3
463.947	366.47
464.32	337.32
464.692	347.94
465.065	368.73
465.438	358.11
465.81	350.65
466.183	356.53
466.555	358.11
466.928	342.29
467.3	353.14
467.672	338.9
468.045	359.92
468.417	350.65
468.789	353.14
469.161	361.05
469.534	339.81
469.906	333.71
470.278	361.28
470.65	344.78
471.022	341.84
471.394	360.37
471.766	341.16
472.138	353.59
472.51	356.76
472.882	363.54
473.253	358.79
473.625	370.99
473.997	357.89
474.369	353.37
474.74	362.86
475.112	339.13
475.484	340.94
475.855	355.4
476.227	334.84
476.598	344.1
476.97	361.73
477.341	330.09
477.713	352.46
478.084	358.79
478.455	372.57
478.827	354.27
479.198	344.33
479.569	366.47
479.94	349.75
480.311	351.11
480.682	354.72
481.053	326.93
481.424	347.72
481.795	358.56
482.166	339.13
482.537	360.15
482.908	365.57
483.279	371.67
483.65	345.01
484.021	349.07
484.391	373.48
484.762	370.99
485.133	351.11
485.503	347.26
485.874	343.65
486.244	372.57
486.615	345.23
486.985	348.85
487.356	367.38
487.726	373.93
488.097	369.64
488.467	359.24
488.837	363.76
489.207	379.35
489.578	352.24
489.948	369.86
490.318	356.53
490.688	406.47
491.058	385.23
491.428	380.94
491.798	373.93
492.168	385.23
492.538	389.98
492.908	386.59
493.278	366.7
493.648	388.62
494.017	364.44
494.387	381.16
494.757	407.38
495.126	386.13
495.496	380.26
495.866	391.11
496.235	408.05
496.605	399.47
496.974	378.9
497.344	390.65
497.713	396.08
498.082	409.18
498.452	381.61
498.821	385
499.19	400.37
499.559	404.89
499.928	390.43
500.298	394.95
500.667	399.01
501.036	384.55
501.405	411.22
501.774	407.6
502.143	397.66
502.512	418.9
502.88	418.68
503.249	421.16
503.618	395.4
503.987	436.08
504.356	431.78
504.724	383.87
505.093	419.35
505.462	425.45
505.83	419.58
506.199	419.35
506.567	422.52
506.936	410.54
507.304	446.7
507.672	419.13
508.041	423.87
508.409	431.56
508.777	435.62
509.145	423.42
509.514	426.58
509.882	433.36
510.25	423.42
510.618	423.42
510.986	421.39
511.354	420.26
511.722	450.99
512.09	427.71
512.458	442.63
512.826	444.89
513.193	436.98
513.561	460.03
513.929	439.24
514.297	428.39
514.664	438.11
515.032	451.89
515.4	450.31
515.767	434.49
516.135	461.61
516.502	436.75
516.869	453.02
517.237	466.81
517.604	483.53
517.972	450.99
518.339	449.64
518.706	459.58
519.073	436.3
519.44	470.43
519.808	454.15
520.175	469.97
520.542	453.02
520.909	444.44
521.276	456.19
521.643	468.84
522.009	466.13
522.376	475.4
522.743	451.67
523.11	481.72
523.477	467.49
523.843	473.59
524.21	458.9
524.577	474.49
524.943	480.82
525.31	475.62
525.676	497.32
526.043	482.4
526.409	494.83
526.776	488.5
527.142	469.75
527.508	475.4
527.874	471.78
528.241	503.64
528.607	492.35
528.973	500.93
529.339	481.5
529.705	496.19
530.071	497.54
530.437	498.22
530.803	506.13
531.169	512.68
531.535	508.62
531.901	483.76
532.267	489.18
532.632	494.61
532.998	498.9
533.364	493.02
533.73	512.68
534.095	517.2
534.461	511.78
534.826	503.64
535.192	540.93
535.557	500.71
535.923	512.01
536.288	499.8
536.653	504.1
537.019	502.74
537.384	516.98
537.749	498.22
538.114	513.14
538.479	501.61
538.845	526.02
539.21	495.51
539.575	503.42
539.94	523.53
540.305	530.99
540.67	517.43
541.034	511.33
541.399	505
541.764	519.24
542.129	510.42
542.494	512.23
542.858	507.49
543.223	488.73
543.587	524.89
543.952	519.01
544.316	507.03
544.681	530.76
545.045	514.04
545.41	529.63
545.774	522.4
546.138	511.1
546.503	535.06
546.867	528.5
547.231	530.99
547.595	491.67
547.959	523.08
548.324	514.94
548.688	545.45
549.052	524.66
549.416	538.9
549.779	549.07
550.143	521.5
550.507	524.21
550.871	522.85
551.235	549.07
551.599	536.86
551.962	544.32
552.326	554.72
552.689	542.29
553.053	544.1
553.417	542.74
553.78	551.55
554.143	531.67
554.507	541.84
554.87	531.67
555.234	535.96
555.597	520.59
555.96	536.86
556.323	534.38
556.686	559.91
557.05	530.76
557.413	529.18
557.776	546.81
558.139	561.27
558.502	541.16
558.865	548.62
559.228	547.26
559.59	557.65
559.953	576.41
560.316	566.02
560.679	548.16
561.041	554.72
561.404	556.98
561.767	547.94
562.129	556.52
562.492	555.4
562.854	570.76
563.217	570.08
563.579	567.6
563.941	580.48
564.304	561.5
564.666	572.12
565.028	559.24
565.39	581.83
565.753	567.15
566.115	557.88
566.477	579.58
566.839	574.83
567.201	579.8
567.563	578.22
567.925	583.19
568.287	578.67
568.648	584.32
569.01	579.35
569.372	571.67
569.734	600.82
570.095	564.43
570.457	571.44
570.819	579.58
571.18	571.67
571.542	579.35
571.903	583.64
572.265	583.42
572.626	563.08
572.987	572.12
573.349	584.32
573.71	571.67
574.071	569.41
574.432	570.76
574.794	589.29
575.155	580.93
575.516	589.29
575.877	586.35
576.238	575.51
576.599	593.13
576.96	596.75
577.32	580.93
577.681	596.3
578.042	582.06
578.403	590.42
578.763	619.57
579.124	622.74
579.485	602.63
579.845	583.87
580.206	577.54
580.566	582.51
580.927	596.3
581.287	608.73
581.648	567.6
582.008	611.89
582.368	592.46
582.728	599.69
583.089	577.32
583.449	582.06
583.809	594.94
584.169	588.84
584.529	593.13
584.889	597.43
585.249	603.76
585.609	592.91
585.969	601.27
586.329	606.02
586.688	582.74
587.048	592.91
587.408	593.36
587.768	584.77
588.127	585.22
588.487	575.51
588.846	597.65
589.206	569.86
589.565	573.02
589.925	605.79
590.284	580.25
590.643	570.31
591.003	591.78
591.362	589.74
591.721	584.09
592.08	595.39
592.44	577.77
592.799	568.28
593.158	576.64
593.517	592.23
593.876	583.64
594.235	587.48
594.593	585.9
594.952	577.77
595.311	581.61
595.67	586.81
596.029	572.12
596.387	583.64
596.746	585.45
597.104	587.03
597.463	599.46
597.822	580.71
598.18	596.07
598.538	582.06
598.897	590.65
599.255	555.85
599.613	579.12
599.972	563.53
600.33	587.26
600.688	561.27
601.046	569.63
601.404	571.67
601.762	587.48
602.12	582.96
602.478	584.77
602.836	565.79
603.194	578.9
603.552	564.43
603.91	559.24
604.268	586.35
604.625	586.13
604.983	596.07
605.341	566.24
605.698	577.77
606.056	556.75
606.413	580.48
606.771	554.49
607.128	593.36
607.485	556.52
607.843	559.01
608.2	554.27
608.557	572.34
608.914	567.37
609.272	574.6
609.629	552.23
609.986	572.8
610.343	544.1
610.7	559.91
611.057	568.95
611.414	563.08
611.771	559.24
612.127	564.21
612.484	569.86
612.841	531.21
613.198	573.25
613.554	548.84
613.911	547.71
614.267	564.21
614.624	547.94
614.98	540.03
615.337	561.72
615.693	540.93
616.05	543.42
616.406	545
616.762	538.45
617.118	542.29
617.475	546.13
617.831	515.62
618.187	535.28
618.543	540.03
618.899	528.05
619.255	525.11
619.611	517.66
619.967	534.38
620.323	541.84
620.678	552.23
621.034	545.9
621.39	519.92
621.746	533.93
622.101	530.54
622.457	521.5
622.812	524.66
623.168	525.34
623.523	516.3
623.879	522.63
624.234	526.92
624.589	541.16
624.945	528.96
625.3	517.2
625.655	524.44
626.01	534.38
626.365	517.2
626.72	519.92
627.075	501.84
627.43	520.82
627.785	506.13
628.14	526.47
628.495	514.94
628.85	514.04
629.205	507.26
629.559	513.59
629.914	490.31
630.269	490.54
630.623	499.58
630.978	490.54
631.332	505.45
631.687	505
632.041	480.14
632.396	488.05
632.75	498
633.104	511.33
633.459	509.29
633.813	473.59
634.167	499.35
634.521	482.18
634.875	494.38
635.229	479.46
635.583	486.47
635.937	481.05
636.291	483.98
636.645	484.21
636.999	487.83
637.352	494.83
637.706	473.82
638.06	492.12
638.413	473.59
638.767	474.72
639.121	479.46
639.474	443.31
639.828	467.26
640.181	454.38
640.534	478.33
640.888	458.22
641.241	480.37
641.594	459.13
641.947	464.32
642.301	467.26
642.654	441.05
643.007	474.49
643.36	447.6
643.713	448.51
644.066	435.62
644.419	457.32
644.771	467.71
645.124	459.13
645.477	451.44
645.83	451.22
646.182	474.49
646.535	411.67
646.888	475.85
647.24	441.95
647.593	424.55
647.945	461.61
648.298	445.79
648.65	466.81
649.002	429.52
649.355	445.34
649.707	431.33
650.059	435.17
650.411	442.86
650.763	431.78
651.115	427.71
651.467	431.78
651.819	447.38
652.171	438.56
652.523	438.56
652.875	418.9
653.227	418
653.578	439.01
653.93	438.34
654.282	430.65
654.633	416.42
654.985	434.72
655.337	424.1
655.688	417.77
656.039	421.39
656.391	402.86
656.742	426.58
657.094	416.64
657.445	434.95
657.796	412.8
658.147	411.9
658.498	407.15
658.849	416.42
659.2	406.02
659.551	410.99
659.902	418.45
660.253	415.29
660.604	426.58
660.955	408.28
661.306	411.67
661.656	405.79
662.007	400.37
662.358	399.92
662.708	423.87
663.059	393.37
663.409	420.71
663.76	378.9
664.11	399.92
664.461	412.35
664.811	414.61
665.161	409.86
665.511	413.7
665.862	402.4
666.212	406.92
666.562	394.04
666.912	406.25
667.262	419.58
667.612	409.64
667.962	401.05
668.312	395.17
668.662	384.78
669.011	394.5
669.361	381.84
669.711	392.91
670.06	389.52
670.41	411.22
670.76	397.43
671.109	396.3
671.459	388.39
671.808	394.72
672.157	390.65
672.507	380.48
672.856	392.24
673.205	395.4
673.554	392.69
673.904	389.3
674.253	399.69
674.602	402.4
674.951	399.92
675.3	378.9
675.649	390.2
675.998	386.81
676.346	388.62
676.695	373.48
677.044	376.19
677.393	377.32
677.741	394.04
678.09	366.47
678.438	395.85
678.787	401.27
679.135	392.46
679.484	394.04
679.832	378.9
680.181	403.76
680.529	372.12
680.877	396.08
681.225	380.94
681.573	371.67
681.922	384.78
682.27	397.89
682.618	369.86
682.966	381.39
683.314	384.55
683.661	362.86
684.009	366.25
684.357	365.12
684.705	375.74
685.053	364.21
685.4	362.18
685.748	359.47
686.095	370.99
686.443	364.67
686.79	367.6
687.138	351.56
687.485	351.33
687.832	352.01
688.18	364.89
688.527	388.17
688.874	369.41
689.221	377.32
689.568	366.02
689.915	359.47
690.262	356.98
690.609	366.25
690.956	369.86
691.303	351.33
691.65	365.34
691.997	357.43
692.344	354.5
692.69	338.23
693.037	353.14
693.383	375.96
693.73	365.12
694.077	359.92
694.423	366.02
694.769	356.98
695.116	370.32
695.462	347.26
695.808	351.78
696.155	361.28
696.501	359.47
696.847	363.54
697.193	368.73
697.539	356.53
697.885	362.41
698.231	362.18
698.577	362.41
698.923	368.06
699.269	352.01
699.614	376.19
699.96	377.77
700.306	344.78
700.651	359.02
700.997	358.56
701.342	363.08
701.688	367.38
702.033	349.3
702.379	352.46
702.724	350.65
703.069	363.08
703.415	361.73
703.76	347.49
704.105	363.31
704.45	358.34
704.795	337.77
705.14	346.81
705.485	357.66
705.83	362.63
706.175	350.65
706.52	356.3
706.865	345.91
707.209	373.93
707.554	366.25
707.899	340.71
708.243	350.65
708.588	366.25
708.932	354.5
709.277	341.39
709.621	354.5
709.966	351.33
710.31	329.86
710.654	357.21
710.998	362.18
711.342	349.3
711.687	342.75
712.031	346.36
712.375	335.06
712.719	355.85
713.063	351.78
713.407	376.42
713.75	354.95
714.094	337.1
714.438	345.23
714.782	347.26
715.125	348.39
715.469	347.26
715.812	365.34
716.156	358.34
716.499	337.32
716.843	327.83
717.186	361.95
717.53	331.67
717.873	331.9
718.216	352.01
718.559	333.48
718.902	343.42
719.246	338
719.589	328.51
719.932	340.94
720.275	363.76
720.617	340.26
720.96	331.45
721.303	360.15
721.646	342.75
721.989	324.89
722.331	333.48
722.674	334.84
723.016	336.87
723.359	338
723.701	327.15
724.044	345.68
724.386	353.37
724.729	337.55
725.071	355.85
725.413	340.26
725.755	340.71
726.097	337.1
726.439	346.81
726.782	328.06
727.124	320.82
727.465	339.58
727.807	333.48
728.149	332.12
728.491	317.66
728.833	334.84
729.175	331.45
729.516	333.25
729.858	340.26
730.199	334.16
730.541	343.2
730.882	319.47
731.224	349.3
731.565	357.66
731.906	328.96
732.248	349.3
732.589	330.09
732.93	338.45
733.271	329.41
733.612	349.07
733.953	312.92
734.294	342.97
734.635	330.77
734.976	338.9
735.317	338.45
735.658	339.36
735.999	336.42
736.339	334.84
736.68	352.69
737.021	300.26
737.361	333.03
737.702	340.71
738.042	336.64
738.383	330.32
738.723	347.26
739.063	348.85
739.404	342.07
739.744	352.46
740.084	347.94
740.424	329.41
740.764	352.91
741.104	323.54
741.444	359.92
741.784	325.8
742.124	315.63
742.464	342.29
742.804	334.38
743.143	353.37
743.483	342.29
743.823	327.15
744.162	334.61
744.502	325.8
744.841	345.68
745.181	333.25
745.52	336.87
745.86	346.59
746.199	347.26
746.538	348.39
746.877	330.32
747.216	316.98
747.556	324.89
747.895	341.16
748.234	321.73
748.573	333.93
748.911	309.75
749.25	333.03
749.589	352.24
749.928	330.32
750.267	323.08
750.605	340.94
750.944	329.86
751.283	351.11
751.621	319.69
751.96	334.61
752.298	321.73
752.636	352.46
752.975	322.41
753.313	348.39
753.651	338.9
753.989	348.62
754.327	327.6
754.666	318.57
755.004	352.01
755.342	326.25
755.679	338.68
756.017	338.45
756.355	330.09
756.693	344.78
757.031	351.33
757.368	334.16
757.706	344.33
758.044	321.73
758.381	333.03
758.719	318.57
759.056	325.8
759.394	330.54
759.731	333.03
760.068	317.44
760.405	320.82
760.743	339.81
761.08	319.92
761.417	319.02
761.754	310.43
762.091	324.89
762.428	314.27
762.765	337.55
763.102	349.98
763.438	331.22
763.775	330.09
764.112	325.57
764.449	310.66
764.785	339.36
765.122	325.8
765.458	328.28
765.795	327.83
766.131	336.19
766.467	330.32
766.804	326.93
767.14	316.31
767.476	326.47
767.812	345.01
768.148	314.95
768.485	330.09
768.821	332.58
769.157	315.4
769.492	343.88
769.828	333.71
770.164	330.77
770.5	330.54
770.836	327.83
771.171	327.83
771.507	341.62
771.842	313.82
772.178	309.75
772.513	346.36
772.849	321.73
773.184	328.28
773.519	340.71
773.855	329.64
774.19	323.99
774.525	339.81
774.86	329.64
775.195	330.32
775.53	319.47
775.865	333.48
776.2	332.35
776.535	316.76
776.87	326.47
777.205	324.67
777.539	323.54
777.874	339.58
778.209	333.93
778.543	338.23
778.878	329.19
779.212	327.15
779.547	331.22
779.881	335.97
780.215	313.37
780.55	319.47
780.884	326.02
781.218	307.94
781.552	342.75
781.886	328.96
782.22	339.36
782.554	328.96
782.888	334.84
783.222	338.68
783.556	316.98
783.889	321.73
784.223	324.67
784.557	343.88
784.89	326.7
785.224	339.81
785.557	345.01
785.891	312.01
786.224	330.77
786.558	319.92
786.891	327.38
787.224	315.4
787.557	319.69
787.891	325.34
788.224	339.81
788.557	308.62
788.89	329.19
789.223	318.34
789.556	330.09
789.888	327.83
790.221	300.94
790.554	353.14
790.887	317.44
791.219	325.8
791.552	330.32
791.884	343.2
792.217	339.36
792.549	316.98
792.882	315.18
793.214	337.77
793.546	339.81
793.879	330.99
794.211	351.11
794.543	333.03
794.875	332.35
795.207	328.28
795.539	313.14
795.871	314.72
796.203	326.47
796.535	333.25
796.867	330.09
797.198	318.11
797.53	341.39
797.862	309.07
798.193	306.36
798.525	316.31
798.856	321.05
799.188	335.74
799.519	307.27
799.85	328.28
800.182	337.1
800.513	315.63
800.844	316.53
801.175	325.34
801.506	311.56
801.837	316.76
802.168	312.24
802.499	342.75
802.83	332.58
803.161	325.34
803.491	331.22
803.822	326.02
804.153	319.92
804.483	327.83
804.814	324.89
805.145	337.32
805.475	325.8
805.805	322.41
806.136	334.16
806.466	320.82
806.796	329.86
807.126	323.08
807.457	331.22
807.787	318.34
808.117	307.72
808.447	310.88
808.777	319.02
809.107	335.97
809.436	321.28
809.766	331.67
810.096	326.25
810.426	318.11
810.755	313.82
811.085	313.37
811.414	293.71
811.744	315.63
812.073	330.09
812.403	332.8
812.732	313.37
813.061	339.13
813.39	341.62
813.719	324.89
814.049	294.84
814.378	336.87
814.707	344.78
815.036	327.83
815.365	316.76
815.693	332.12
816.022	306.59
816.351	321.5
816.68	333.93
817.008	319.02
817.337	323.76
817.665	319.02
817.994	303.88
818.322	331.45
818.651	302.75
818.979	322.63
819.307	332.58
819.636	332.35
819.964	317.21
820.292	310.88
820.62	312.92
820.948	328.73
821.276	306.81
821.604	323.31
821.932	328.06
822.259	323.08
822.587	339.58
822.915	326.25
823.243	327.6
823.57	317.44
823.898	346.13
824.225	307.49
824.553	323.99
824.88	325.8
825.207	326.47
825.535	334.84
825.862	322.18
826.189	293.48
826.516	324.67
826.843	325.57
827.17	320.82
827.497	338.45
827.824	339.36
828.151	325.57
828.478	323.99
828.805	332.58
829.131	311.11
829.458	331.67
829.785	325.8
830.111	317.66
830.438	319.02
830.764	331.22
831.09	313.14
831.417	327.38
831.743	324.21
832.069	319.92
832.395	311.33
832.722	319.92
833.048	310.88
833.374	321.73
833.7	341.39
834.026	335.06
834.351	327.38
834.677	316.08
835.003	347.26
835.329	302.52
835.654	324.89
835.98	327.15
836.306	325.34
836.631	307.27
836.956	332.12
837.282	321.05
837.607	314.05
837.932	342.07
838.258	325.34
838.583	316.08
838.908	300.26
839.233	324.44
839.558	324.67
839.883	324.21
840.208	328.96
840.533	328.96
840.858	340.03
841.182	298.45
841.507	333.25
841.832	332.12
842.156	314.05
842.481	337.55
842.805	338.68
843.13	316.08
843.454	315.63
843.778	325.34
844.103	313.14
844.427	319.24
844.751	334.38
845.075	339.36
845.399	312.92
845.723	299.36
846.047	327.83
846.371	315.4
846.695	323.08
847.019	324.44
847.343	326.25
847.666	331.45
847.99	322.18
848.313	332.35
848.637	344.1
848.96	321.05
849.284	313.82
849.607	317.89
849.931	315.63
850.254	305.68
850.577	325.12
850.9	312.01
851.223	321.5
851.546	319.47
851.869	298.68
852.192	318.11
852.515	336.19
852.838	349.98
853.161	307.49
853.483	338.23
853.806	328.73
854.129	319.69
854.451	313.14
854.774	322.86
855.096	322.63
855.419	322.86
855.741	324.44
856.063	327.83
856.385	306.36
856.708	321.73
857.03	334.38
857.352	316.31
857.674	336.19
857.996	312.69
858.318	311.79
858.64	297.55
858.961	322.86
859.283	316.08
859.605	344.33
859.926	327.38
860.248	333.71
860.57	314.27
860.891	323.54
861.212	319.47
861.534	307.94
861.855	327.15
862.176	307.04
862.498	326.93
862.819	315.18
863.14	339.58
863.461	318.34
863.782	326.25
864.103	326.02
864.424	340.26
864.745	321.28
865.065	301.39
865.386	324.44
865.707	304.78
866.027	316.08
866.348	313.82
866.668	320.6
866.989	329.41
867.309	317.21
867.63	320.6
867.95	335.51
868.27	314.72
868.59	314.95
868.91	315.4
869.23	312.01
869.55	311.79
869.87	334.16
870.19	313.59
870.51	328.96
870.83	321.5
871.15	308.62
871.469	344.1
871.789	307.72
872.109	329.19
872.428	332.58
872.748	326.93
873.067	323.76
873.386	332.35
873.706	316.31
874.025	304.78
874.344	323.76
874.663	311.79
874.982	310.2
875.301	327.83
875.62	331.45
875.939	323.76
876.258	320.82
876.577	326.7
876.896	332.35
877.214	320.15
877.533	323.08
877.852	298.68
878.17	331.67
878.489	323.31
878.807	336.42
879.125	319.69
879.444	329.64
879.762	320.15
880.08	303.65
880.398	330.09
880.716	325.57
881.034	316.76
881.352	322.63
881.67	322.63
881.988	328.51
882.306	309.53
882.624	316.98
882.941	334.38
883.259	314.72
883.577	331.45
883.894	325.8
884.212	290.77
884.529	315.4
884.846	302.97
885.164	330.54
885.481	304.33
885.798	314.27
886.115	319.24
886.432	303.65
886.75	321.73
887.067	326.47
887.383	306.81
887.7	314.05
888.017	352.46
888.334	350.88
888.651	311.56
888.967	333.93
889.284	305.46
889.6	331.45
889.917	327.15
890.233	303.88
890.55	305.46
890.866	335.74
891.182	310.88
891.498	315.63
891.815	324.67
892.131	319.47
892.447	329.19
892.763	303.65
893.079	313.59
893.395	321.5
893.71	319.69
894.026	334.38
894.342	317.66
894.657	342.97
894.973	314.27
895.289	302.97
895.604	317.89
895.92	331.22
896.235	327.38
896.55	310.43
896.865	328.06
897.181	326.47
897.496	322.41
897.811	329.86
898.126	322.41
898.441	330.99
898.756	324.67
899.071	316.31
899.386	299.13
899.7	333.71
900.015	313.14
900.33	332.12
900.644	315.18
900.959	328.06
901.273	327.38
901.588	316.08
901.902	320.15
902.216	329.64
902.531	313.82
902.845	326.93
903.159	319.92
903.473	327.38
903.787	328.06
904.101	338
904.415	326.47
904.729	327.15
905.042	330.32
905.356	318.57
905.67	308.85
905.984	326.02
906.297	332.8
906.611	312.24
906.924	316.31
907.237	333.48
907.551	324.44
907.864	326.7
908.177	317.89
908.491	324.44
908.804	335.97
909.117	314.05
909.43	315.4
909.743	333.48
910.056	322.86
910.368	308.62
910.681	316.08
910.994	327.15
911.307	303.2
911.619	333.03
911.932	309.53
912.244	320.6
912.557	336.42
912.869	321.05
913.181	332.35
913.494	304.78
913.806	312.01
914.118	339.58
914.43	335.29
914.742	315.4
915.054	311.56
915.366	343.88
915.678	314.72
915.99	305.68
916.302	310.88
916.613	326.02
916.925	311.56
917.236	326.25
917.548	303.42
917.859	311.56
918.171	326.25
918.482	320.15
918.794	311.33
919.105	307.49
919.416	296.19
919.727	306.59
920.038	314.5
920.349	291
920.66	327.6
920.971	314.95
921.282	327.38
921.593	327.38
921.903	317.66
922.214	326.25
922.525	323.76
922.835	323.08
923.146	328.51
923.456	330.77
923.767	328.96
924.077	307.27
924.387	313.59
924.697	327.15
925.008	327.15
925.318	327.6
925.628	329.19
925.938	322.41
926.248	321.73
926.558	325.57
926.867	332.35
927.177	312.46
927.487	306.59
927.796	342.52
928.106	311.56
928.416	319.69
928.725	319.47
929.034	288.51
929.344	316.76
929.653	304.55
929.962	319.92
930.271	316.98
930.581	318.11
930.89	330.77
931.199	315.4
931.508	327.15
931.817	310.88
932.125	300.94
932.434	297.1
932.743	330.99
933.051	331.22
933.36	321.28
933.669	317.66
933.977	313.82
934.286	324.89
934.594	321.5
934.902	319.47
935.21	317.21
935.519	330.77
935.827	312.69
936.135	288.06
936.443	315.85
936.751	326.47
937.059	320.15
937.367	320.82
937.674	308.62
937.982	302.97
938.29	306.36
938.597	323.08
938.905	309.98
939.213	342.29
939.52	324.67
939.827	323.08
940.135	310.66
940.442	328.28
940.749	321.95
941.056	293.26
941.363	300.71
941.67	316.98
941.977	310.43
942.284	304.78
942.591	316.76
942.898	323.76
943.205	313.14
943.511	335.06
943.818	313.59
944.125	321.28
944.431	303.42
944.738	316.76
945.044	307.27
945.35	305.91
945.657	308.4
945.963	343.65
946.269	312.46
946.575	319.47
946.881	319.92
947.187	306.36
947.493	315.18
947.799	322.41
948.105	300.94
948.41	316.31
948.716	319.02
949.022	304.55
949.327	302.07
949.633	319.69
949.938	308.4
950.244	298.9
950.549	320.15
950.854	314.95
951.16	305.46
951.465	323.08
951.77	319.47
952.075	316.98
952.38	348.62
952.685	314.27
952.99	323.31
953.294	333.25
953.599	322.41
953.904	312.46
954.209	327.38
954.513	299.81
954.818	306.36
955.122	322.41
955.426	324.21
955.731	326.7
956.035	298
956.339	324.67
956.643	311.11
956.948	304.55
957.252	318.57
957.556	314.72
957.86	317.89
958.163	324.67
958.467	308.62
958.771	320.15
959.075	329.64
959.378	300.26
959.682	330.77
959.985	323.08
960.289	317.66
960.592	338.9
960.896	338.45
961.199	309.53
961.502	315.18
961.805	316.76
962.108	316.31
962.411	310.88
962.714	305.01
963.017	308.62
963.32	326.02
963.623	332.8
963.926	289.41
964.228	304.55
964.531	301.62
964.833	316.08
965.136	312.01
965.438	317.21
965.741	334.84
966.043	320.15
966.345	308.85
966.648	313.37
966.95	316.53
967.252	317.66
967.554	315.4
967.856	304.1
968.158	325.57
968.46	316.31
968.761	320.37
969.063	314.27
969.365	312.24
969.666	319.92
969.968	322.41
970.269	287.61
970.571	302.52
970.872	305.68
971.174	350.65
971.475	322.18
971.776	318.34
972.077	323.31
972.378	321.95
972.679	309.98
972.98	314.27
973.281	316.98
973.582	319.02
973.883	319.24
974.183	304.78
974.484	311.56
974.785	307.49
975.085	330.32
975.386	325.8
975.686	305.91
975.986	319.02
976.287	305.46
976.587	316.76
976.887	307.94
977.187	309.75
977.487	329.86
977.787	310.66
978.087	320.6
978.387	331.67
978.687	335.97
978.987	320.6
979.286	338.23
979.586	318.57
979.885	319.92
980.185	321.28
980.484	323.99
980.784	309.98
981.083	329.64
981.382	297.32
981.682	336.42
981.981	305.68
982.28	317.89
982.579	327.15
982.878	300.94
983.177	321.73
983.475	334.61
983.774	296.19
984.073	330.32
984.372	309.53
984.67	311.79
984.969	330.77
985.267	301.39
985.566	312.69
985.864	306.59
986.162	298.9
986.461	329.64
986.759	317.44
987.057	307.27
987.355	303.2
987.653	301.62
987.951	313.59
988.249	309.75
988.547	311.79
988.844	308.4
989.142	312.92
989.44	317.44
989.737	309.75
990.035	315.18
990.332	330.99
990.63	333.03
990.927	328.28
991.224	295.29
991.521	329.86
991.819	314.95
992.116	319.47
992.413	320.15
992.71	308.4
993.006	338.68
993.303	309.53
993.6	296.19
993.897	306.14
994.193	315.85
994.49	319.92
994.787	321.95
995.083	327.38
995.379	312.46
995.676	328.51
995.972	331.45
996.268	323.54
996.565	311.33
996.861	320.82
997.157	327.38
997.453	305.46
997.749	308.17
998.044	319.47
998.34	309.75
998.636	309.3
998.932	297.55
999.227	319.69
999.523	315.63
999.818	325.57
1000.114	318.11
1000.409	293.71
1000.704	314.5
1001	305.68
1001.295	303.2
1001.59	330.99
1001.885	322.86
1002.18	307.49
1002.475	327.6
1002.77	326.93
1003.065	314.05
1003.359	322.86
1003.654	325.12
1003.949	314.05
1004.243	310.43
1004.538	302.97
1004.832	290.32
1005.127	325.12
1005.421	315.18
1005.715	301.84
1006.009	337.55
1006.304	327.6
1006.598	309.75
1006.892	321.5
1007.186	326.02
1007.48	337.32
1007.773	310.43
1008.067	300.26
1008.361	313.14
1008.655	335.06
1008.948	334.16
1009.242	320.82
1009.535	316.08
1009.829	314.72
1010.122	317.66
1010.415	299.13
1010.708	317.89
1011.001	315.85
1011.295	321.95
1011.588	323.76
1011.881	284.67
1012.173	311.56
1012.466	326.02
1012.759	307.04
1013.052	302.07
1013.344	317.89
1013.637	319.24
1013.93	319.02
1014.222	326.02
1014.514	300.94
1014.807	308.85
1015.099	307.49
1015.391	322.18
1015.683	326.25
1015.976	325.8
1016.268	322.63
1016.56	314.5
1016.851	307.04
1017.143	291.45
1017.435	304.1
1017.727	309.75
1018.018	294.61
1018.31	296.87
1018.602	340.26
1018.893	306.36
1019.185	310.66
1019.476	307.72
1019.767	332.12
1020.058	321.73
1020.35	318.79
1020.641	323.54
1020.932	316.08
1021.223	325.57
1021.514	308.17
1021.804	293.71
1022.095	294.84
1022.386	321.05
1022.677	299.13
1022.967	316.31
1023.258	318.34
1023.548	320.37
1023.839	320.37
1024.129	305.01
1024.419	304.55
1024.709	302.29
1025	317.44
1025.29	323.54
1025.58	339.13
1025.87	329.41
1026.16	326.25
1026.449	322.86
1026.739	309.75
1027.029	307.27
1027.319	315.63
1027.608	305.46
1027.898	311.79
1028.187	324.67
1028.477	321.73
1028.766	320.6
1029.055	306.81
1029.344	319.69
1029.634	314.05
1029.923	306.36
1030.212	296.87
1030.501	314.27
1030.79	329.86
1031.078	319.47
1031.367	304.33
1031.656	316.76
1031.945	324.21
1032.233	318.34
1032.522	307.27
1032.81	314.05
1033.099	320.6
1033.387	305.01
1033.675	320.37
1033.963	312.92
1034.251	314.5
1034.54	322.63
1034.828	305.46
1035.116	329.19
1035.403	297.1
1035.691	309.3
1035.979	302.97
1036.267	316.76
1036.554	319.69
1036.842	306.59
1037.129	332.12
1037.417	320.37
1037.704	319.92
1037.992	309.53
1038.279	296.19
1038.566	305.91
1038.853	305.91
1039.14	305.91
