Data from No_light_on_white_reflection_standard_FLMS001491_021.txt Node
Date: Tue Feb 07 10:32:56 GMT 2017
User: dcchb
Spectrometer: FLMS00149
Trigger mode: 0
Integration Time (sec): 2.000000E-2
Scans to average: 10
Electric dark correction enabled: true
Nonlinearity correction enabled: false
Boxcar width: 0
XAxis mode: Wavelengths
Number of Pixels in Spectrum: 2048
>>>>>Begin Spectral Data<<<<<
341.393	-21.78
341.776	-21.78
342.16	-21.78
342.543	-77.6
342.927	-57.03
343.31	-78.5
343.693	-53.42
344.077	-71.72
344.46	-55.9
344.843	-62.68
345.226	-50.7
345.61	-46.64
345.993	-13.64
346.376	5.79
346.759	22.29
347.142	6.47
347.525	55.06
347.908	56.86
348.291	71.78
348.674	101.38
349.057	113.58
349.44	109.06
349.823	134.37
350.206	127.82
350.588	165.56
350.971	189.29
351.354	208.5
351.737	227.48
352.119	192.45
352.502	225.9
352.884	241.04
353.267	239.46
353.65	248.5
354.032	248.04
354.414	258.44
354.797	264.09
355.179	270.64
355.562	285.56
355.944	297.08
356.326	299.12
356.709	319.91
357.091	292.34
357.473	287.82
357.855	299.57
358.238	317.87
358.62	314.48
359.002	307.93
359.384	320.36
359.766	290.53
360.148	312
360.53	309.29
360.912	300.02
361.294	299.79
361.676	297.08
362.057	289.85
362.439	300.47
362.821	293.47
363.203	274.26
363.584	308.38
363.966	262.73
364.348	277.2
364.729	273.13
365.111	285.78
365.493	285.56
365.874	274.03
366.256	250.08
366.637	272.45
367.019	292.11
367.4	284.65
367.781	280.13
368.163	272.22
368.544	270.87
368.925	267.03
369.306	280.81
369.688	258.67
370.069	276.29
370.45	267.93
370.831	260.25
371.212	258.67
371.593	264.77
371.974	269.29
372.355	269.51
372.736	264.77
373.117	265.44
373.498	283.07
373.879	283.75
374.26	264.99
374.641	273.13
375.021	260.47
375.402	287.14
375.783	267.03
376.163	265.44
376.544	261.38
376.925	281.94
377.305	280.36
377.686	263.64
378.066	283.07
378.447	267.93
378.827	271.55
379.208	275.61
379.588	276.29
379.968	287.14
380.349	278.1
380.729	272.68
381.109	254.6
381.489	280.59
381.87	279.91
382.25	274.03
382.63	267.7
383.01	277.2
383.39	283.3
383.77	277.65
384.15	280.13
384.53	279.46
384.91	280.81
385.29	283.07
385.67	299.79
386.049	275.84
386.429	253.92
386.809	278.78
387.189	284.2
387.568	273.81
387.948	269.74
388.328	259.8
388.707	281.49
389.087	293.01
389.466	307.93
389.846	281.94
390.225	277.2
390.605	299.34
390.984	276.52
391.363	283.52
391.743	278.78
392.122	291.66
392.501	298.21
392.881	301.83
393.26	302.51
393.639	276.52
394.018	286.24
394.397	314.26
394.776	282.85
395.155	295.95
395.534	281.49
395.913	303.86
396.292	274.94
396.671	304.31
397.05	272.22
397.429	280.59
397.808	269.74
398.186	284.43
398.565	296.18
398.944	318.78
399.323	314.71
399.701	305.22
400.08	272.9
400.458	297.31
400.837	283.75
401.215	306.12
401.594	290.76
401.972	285.78
402.351	286.46
402.729	292.11
403.107	296.18
403.486	289.63
403.864	306.8
404.242	272.45
404.62	301.83
404.999	300.92
405.377	302.05
405.755	299.12
406.133	295.05
406.511	295.27
406.889	295.5
407.267	306.35
407.645	293.92
408.023	293.92
408.401	298.21
408.779	305.9
409.156	295.95
409.534	311.77
409.912	299.12
410.29	287.37
410.667	298.21
411.045	306.57
411.422	278.55
411.8	280.81
412.178	285.11
412.555	287.82
412.933	301.15
413.31	290.3
413.687	315.84
414.065	280.36
414.442	297.08
414.819	328.72
415.197	290.76
415.574	304.77
415.951	303.41
416.328	293.24
416.705	300.25
417.082	293.69
417.46	310.42
417.837	296.18
418.214	304.31
418.591	288.04
418.967	294.37
419.344	309.51
419.721	303.64
420.098	295.95
420.475	297.31
420.852	317.65
421.228	293.92
421.605	304.99
421.982	302.05
422.358	318.78
422.735	313.35
423.111	306.8
423.488	298.44
423.864	303.86
424.241	321.04
424.617	304.99
424.994	307.93
425.37	304.99
425.746	314.71
426.123	296.63
426.499	305.44
426.875	306.35
427.251	303.41
427.627	319.45
428.003	308.61
428.379	317.2
428.756	316.52
429.132	312.9
429.507	314.03
429.883	315.16
430.259	328.04
430.635	295.27
431.011	293.24
431.387	332.11
431.763	304.77
432.138	312
432.514	315.39
432.89	307.25
433.265	327.36
433.641	336.63
434.016	306.8
434.392	317.87
434.767	316.97
435.143	311.77
435.518	341.83
435.894	315.61
436.269	334.6
436.644	297.31
437.02	326.23
437.395	325.33
437.77	325.1
438.145	326.46
438.52	337.53
438.895	321.71
439.271	320.36
439.646	318.78
440.021	323.75
440.395	316.74
440.77	326.91
441.145	311.77
441.52	359.91
441.895	329.62
442.27	340.92
442.645	321.49
443.019	342.05
443.394	328.27
443.769	330.53
444.143	328.27
444.518	361.94
444.892	325.78
445.267	322.17
445.641	340.25
446.016	356.06
446.39	362.84
446.764	380.7
447.139	375.95
447.513	363.75
447.887	356.06
448.262	364.2
448.636	340.47
449.01	360.81
449.384	361.94
449.758	359.68
450.132	364.88
450.506	357.87
450.88	345.44
451.254	357.42
451.628	365.78
452.002	360.81
452.376	355.61
452.75	379.11
453.123	339.34
453.497	376.85
453.871	367.59
454.244	382.96
454.618	366.69
454.992	374.59
455.365	363.97
455.739	385.22
456.112	361.94
456.486	358.1
456.859	352.45
457.232	375.5
457.606	374.82
457.979	359.23
458.352	359.45
458.725	357.19
459.099	356.52
459.472	370.53
459.845	366.46
460.218	367.59
460.591	358.55
460.964	372.33
461.337	353.35
461.71	359.45
462.083	346.57
462.456	354.26
462.829	356.97
463.201	354.71
463.574	356.29
463.947	354.93
464.32	340.02
464.692	380.7
465.065	344.76
465.438	351.32
465.81	349.96
466.183	339.57
466.555	344.31
466.928	344.09
467.3	351.77
467.672	364.2
468.045	346.57
468.417	349.28
468.789	340.25
469.161	358.1
469.534	349.74
469.906	349.06
470.278	348.61
470.65	361.71
471.022	335.73
471.394	340.47
471.766	342.96
472.138	364.2
472.51	346.12
472.882	347.25
473.253	344.76
473.625	351.77
473.997	343.64
474.369	341.6
474.74	360.13
475.112	356.29
475.484	346.35
475.855	337.31
476.227	347.48
476.598	332.11
476.97	353.58
477.341	349.74
477.713	321.94
478.084	361.04
478.455	343.64
478.827	367.82
479.198	340.7
479.569	340.47
479.94	344.31
480.311	338.66
480.682	364.2
481.053	361.04
481.424	354.48
481.795	353.8
482.166	355.39
482.537	360.36
482.908	371.43
483.279	348.15
483.65	339.79
484.021	354.26
484.391	343.86
484.762	351.54
485.133	344.99
485.503	366.69
485.874	366.91
486.244	349.74
486.615	373.69
486.985	356.97
487.356	354.48
487.726	365.78
488.097	385.22
488.467	346.57
488.837	356.97
489.207	367.59
489.578	364.43
489.948	355.39
490.318	370.98
490.688	353.58
491.058	383.86
491.428	372.56
491.798	373.24
492.168	357.65
492.538	368.27
492.908	368.04
493.278	364.65
493.648	375.05
494.017	364.88
494.387	371.43
494.757	385.44
495.126	403.29
495.496	391.32
495.866	375.05
496.235	375.95
496.605	381.37
496.974	397.19
497.344	384.31
497.713	386.35
498.082	366.46
498.452	387.25
498.821	405.55
499.19	382.5
499.559	390.87
499.928	389.06
500.298	385.22
500.667	398.55
501.036	396.74
501.405	394.93
501.774	422.73
502.143	408.72
502.512	413.69
502.88	410.53
503.249	384.76
503.618	405.1
503.987	398.77
504.356	431.09
504.724	392.45
505.093	414.59
505.462	401.26
505.83	420.92
506.199	403.29
506.567	407.14
506.936	426.57
507.304	390.41
507.672	414.59
508.041	431.99
508.409	432.22
508.777	414.59
509.145	405.1
509.514	422.5
509.882	420.7
510.25	427.93
510.618	448.27
510.986	417.31
511.354	437.19
511.722	436.74
512.09	430.86
512.458	414.37
512.826	445.33
513.193	425.89
513.561	434.93
513.929	442.62
514.297	447.59
514.664	427.7
515.032	422.05
515.4	429.28
515.767	450.52
516.135	419.57
516.502	452.33
516.869	441.26
517.237	432.45
517.604	455.95
517.972	454.59
518.339	438.32
518.706	448.49
519.073	415.27
519.44	460.92
519.808	450.07
520.175	438.55
520.542	448.72
520.909	460.69
521.276	463.86
521.643	461.82
522.009	482.84
522.376	460.69
522.743	468.38
523.11	459.56
523.477	468.15
523.843	457.76
524.21	445.1
524.577	461.6
524.943	496.17
525.31	462.28
525.676	467.47
526.043	486.68
526.409	485.55
526.776	450.98
527.142	455.27
527.508	507.7
527.874	498.89
528.241	495.72
528.607	487.81
528.973	506.12
529.339	487.81
529.705	464.76
530.071	481.03
530.437	487.36
530.803	483.07
531.169	477.19
531.535	476.74
531.901	482.16
532.267	498.66
532.632	482.16
532.998	504.99
533.364	492.78
533.73	478.32
534.095	485.1
534.461	507.47
534.826	503.86
535.192	480.81
535.557	487.81
535.923	508.6
536.288	493.01
536.653	520.35
537.019	497.76
537.384	490.75
537.749	492.33
538.114	503.86
538.479	475.61
538.845	505.66
539.21	492.56
539.575	512.9
539.94	498.21
540.305	495.72
540.67	492.33
541.034	495.72
541.399	501.82
541.764	500.24
542.129	484.2
542.494	522.84
542.858	502.05
543.223	502.5
543.587	496.17
543.952	489.39
544.316	521.26
544.681	518.09
545.045	513.57
545.41	508.6
545.774	514.48
546.138	511.99
546.503	517.42
546.867	513.8
547.231	514.48
547.595	496.17
547.959	530.52
548.324	502.27
548.688	516.51
549.052	502.5
549.416	515.16
549.779	487.59
550.143	507.02
550.507	509.73
550.871	523.97
551.235	530.52
551.599	521.26
551.962	516.29
552.326	511.54
552.689	527.36
553.053	512.44
553.417	530.3
553.78	528.04
554.143	521.94
554.507	525.55
554.87	511.99
555.234	534.59
555.597	548.83
555.96	521.26
556.323	516.74
556.686	529.39
557.05	531.65
557.413	535.95
557.776	535.72
558.139	526.23
558.502	526.23
558.865	553.12
559.228	550.64
559.59	526.46
559.953	535.72
560.316	527.58
560.679	541.82
561.041	537.75
561.404	544.53
561.767	559.45
562.129	533.01
562.492	538.66
562.854	563.06
563.217	532.1
563.579	553.57
563.941	565.32
564.304	546.34
564.666	542.5
565.028	564.19
565.39	564.42
565.753	551.54
566.115	556.06
566.477	559.45
566.839	573.91
567.201	551.09
567.563	563.52
567.925	535.49
568.287	564.65
568.648	565.1
569.01	559
569.372	559.9
569.734	557.87
570.095	576.17
570.457	571.43
570.819	578.21
571.18	575.49
571.542	561.48
571.903	566
572.265	566.23
572.626	568.49
572.987	566.68
573.349	559.22
573.71	577.3
574.071	569.17
574.432	569.17
574.794	578.43
575.155	561.03
575.516	581.82
575.877	554.7
576.238	566.91
576.599	587.92
576.96	581.82
577.32	587.02
577.681	573.69
578.042	591.31
578.403	569.39
578.763	593.12
579.124	569.39
579.485	570.52
579.845	566.91
580.206	588.83
580.566	591.99
580.927	579.34
581.287	568.49
581.648	562.16
582.008	583.4
582.368	579.56
582.728	576.17
583.089	568.26
583.449	574.14
583.809	581.59
584.169	577.75
584.529	582.05
584.889	575.49
585.249	571.65
585.609	594.7
585.969	572.78
586.329	573.23
586.688	579.11
587.048	568.94
587.408	576.62
587.768	572.78
588.127	559.67
588.487	569.39
588.846	581.59
589.206	552.9
589.565	570.97
589.925	591.76
590.284	574.36
590.643	561.93
591.003	573.91
591.362	564.19
591.721	580.92
592.08	560.13
592.44	555.83
592.799	572.1
593.158	588.37
593.517	575.49
593.876	573.69
594.235	559.45
594.593	582.95
594.952	568.49
595.311	555.38
595.67	575.04
596.029	556.28
596.387	546.57
596.746	581.14
597.104	563.29
597.463	555.83
597.822	577.53
598.18	548.6
598.538	549.28
598.897	570.75
599.255	584.31
599.613	568.71
599.972	548.15
600.33	546.34
600.688	567.58
601.046	563.06
601.404	542.73
601.762	545.89
602.12	579.11
602.478	562.61
602.836	558.09
603.194	562.39
603.552	557.64
603.91	556.06
604.268	539.11
604.625	547.25
604.983	561.71
605.341	573.91
605.698	547.47
606.056	563.97
606.413	519.68
606.771	554.7
607.128	578.66
607.485	544.31
607.843	551.09
608.2	539.34
608.557	534.14
608.914	568.26
609.272	546.12
609.629	574.14
609.986	553.57
610.343	532.56
610.7	549.73
611.057	547.47
611.414	541.14
611.771	542.27
612.127	538.66
612.484	533.46
612.841	538.66
613.198	540.24
613.554	534.14
613.911	542.05
614.267	541.14
614.624	534.82
614.98	529.62
615.337	537.75
615.693	537.53
616.05	515.38
616.406	560.35
616.762	538.43
617.118	544.31
617.475	525.1
617.831	535.95
618.187	534.36
618.543	524.42
618.899	513.35
619.255	513.57
619.611	514.7
619.967	543.63
620.323	521.26
620.678	506.34
621.034	526
621.39	514.7
621.746	497.53
622.101	495.5
622.457	516.51
622.812	502.95
623.168	507.02
623.523	524.42
623.879	521.03
624.234	519
624.589	492.78
624.945	523.52
625.3	516.74
625.655	519.68
626.01	496.85
626.365	503.86
626.72	504.08
627.075	501.37
627.43	481.71
627.785	490.52
628.14	501.37
628.495	506.12
628.85	492.78
629.205	500.24
629.559	488.49
629.914	487.13
630.269	481.48
630.623	493.24
630.978	497.08
631.332	477.64
631.687	492.33
632.041	479.45
632.396	487.81
632.75	470.41
633.104	476.51
633.459	473.12
633.813	479.22
634.167	493.01
634.521	483.97
634.875	467.47
635.229	472.45
635.583	471.09
635.937	460.69
636.291	464.76
636.645	470.64
636.999	470.86
637.352	459.34
637.706	467.7
638.06	471.77
638.413	464.54
638.767	456.63
639.121	460.92
639.474	458.43
639.828	459.34
640.181	469.06
640.534	454.14
640.888	485.78
641.241	451.43
641.594	451.43
641.947	476.29
642.301	461.15
642.654	424.08
643.007	452.78
643.36	424.31
643.713	445.78
644.066	487.36
644.419	451.2
644.771	437.42
645.124	443.97
645.477	435.61
645.83	443.07
646.182	419.34
646.535	441.49
646.888	450.75
647.24	431.09
647.593	425.44
647.945	454.82
648.298	422.5
648.65	431.99
649.002	416.4
649.355	439.9
649.707	420.92
650.059	433.35
650.411	427.93
650.763	439
651.115	422.5
651.467	435.84
651.819	423.86
652.171	448.72
652.523	416.18
652.875	417.31
653.227	418.44
653.578	414.37
653.93	437.87
654.282	409.62
654.633	419.57
654.985	407.36
655.337	410.3
655.688	415.5
656.039	399.23
656.391	424.31
656.742	409.62
657.094	400.81
657.445	406.23
657.796	427.02
658.147	413.01
658.498	395.61
658.849	393.8
659.2	400.36
659.551	381.37
659.902	406.01
660.253	415.27
660.604	414.37
660.955	408.27
661.306	386.12
661.656	396.29
662.007	408.49
662.358	402.62
662.708	397.19
663.059	418.44
663.409	393.8
663.76	414.14
664.11	411.43
664.461	389.74
664.811	376.85
665.161	382.05
665.511	399.9
665.862	405.55
666.212	380.47
666.562	397.19
666.912	390.19
667.262	381.37
667.612	397.87
667.962	376.18
668.312	386.57
668.662	376.18
669.011	370.98
669.361	381.15
669.711	374.14
670.06	383.63
670.41	369.4
670.76	373.46
671.109	388.61
671.459	385.89
671.808	370.08
672.157	394.26
672.507	380.47
672.856	382.96
673.205	371.88
673.554	393.58
673.904	380.47
674.253	377.53
674.602	376.63
674.951	382.5
675.3	372.79
675.649	372.56
675.998	351.09
676.346	362.62
676.695	356.06
677.044	361.71
677.393	364.65
677.741	383.86
678.09	387.93
678.438	367.36
678.787	363.52
679.135	366.46
679.484	352.9
679.832	377.31
680.181	383.86
680.529	357.42
680.877	356.97
681.225	380.24
681.573	369.62
681.922	367.82
682.27	371.43
682.618	373.24
682.966	366.01
683.314	349.06
683.661	371.88
684.009	388.61
684.357	372.79
684.705	352
685.053	337.08
685.4	329.85
685.748	354.03
686.095	349.06
686.443	364.88
686.79	354.26
687.138	360.81
687.485	330.75
687.832	347.48
688.18	359.91
688.527	353.13
688.874	355.39
689.221	373.01
689.568	349.06
689.915	360.58
690.262	340.47
690.609	360.81
690.956	355.16
691.303	359.45
691.65	353.58
691.997	337.99
692.344	350.87
692.69	363.97
693.037	366.23
693.383	322.62
693.73	352.45
694.077	342.51
694.423	346.57
694.769	357.65
695.116	350.19
695.462	346.8
695.808	364.43
696.155	347.93
696.501	331.66
696.847	362.17
697.193	342.28
697.539	345.67
697.885	339.12
698.231	331.88
698.577	357.65
698.923	351.77
699.269	344.99
699.614	370.75
699.96	343.18
700.306	350.41
700.651	355.16
700.997	340.25
701.342	355.16
701.688	340.7
702.033	341.38
702.379	349.74
702.724	354.03
703.069	335.73
703.415	332.34
703.76	353.13
704.105	356.52
704.45	360.81
704.795	331.21
705.14	330.53
705.485	340.47
705.83	349.51
706.175	348.38
706.52	339.12
706.865	336.4
707.209	341.38
707.554	340.02
707.899	344.54
708.243	335.73
708.588	341.6
708.932	354.26
709.277	337.76
709.621	345.22
709.966	329.62
710.31	350.64
710.654	337.08
710.998	340.7
711.342	350.87
711.687	356.29
712.031	325.1
712.375	347.93
712.719	323.52
713.063	355.84
713.407	337.99
713.75	338.89
714.094	345.44
714.438	350.87
714.782	346.57
715.125	345.44
715.469	330.08
715.812	341.15
716.156	309.06
716.499	328.04
716.843	339.79
717.186	335.05
717.53	336.18
717.873	318.1
718.216	316.52
718.559	344.31
718.902	328.95
719.246	333.01
719.589	325.78
719.932	332.56
720.275	344.31
720.617	347.25
720.96	344.99
721.303	336.86
721.646	326.91
721.989	355.61
722.331	345.44
722.674	343.64
723.016	322.84
723.359	347.7
723.701	341.15
724.044	330.3
724.386	324.65
724.729	333.47
725.071	346.35
725.413	322.84
725.755	324.2
726.097	316.97
726.439	323.75
726.782	336.18
727.124	322.84
727.465	328.27
727.807	336.86
728.149	322.17
728.491	325.78
728.833	332.11
729.175	330.08
729.516	333.92
729.858	341.83
730.199	325.1
730.541	322.62
730.882	321.49
731.224	329.4
731.565	319.91
731.906	332.79
732.248	314.71
732.589	319
732.93	338.21
733.271	329.85
733.612	337.76
733.953	338.21
734.294	306.35
734.635	340.47
734.976	335.05
735.317	327.59
735.658	332.56
735.999	343.41
736.339	328.49
736.68	333.92
737.021	330.08
737.361	336.18
737.702	320.58
738.042	339.57
738.383	320.58
738.723	334.37
739.063	332.34
739.404	334.6
739.744	336.18
740.084	323.75
740.424	343.18
740.764	327.59
741.104	340.25
741.444	326.01
741.784	343.64
742.124	326.01
742.464	314.26
742.804	344.99
743.143	324.43
743.483	336.63
743.823	333.24
744.162	330.08
744.502	331.21
744.841	330.53
745.181	318.55
745.52	331.88
745.86	318.55
746.199	339.79
746.538	343.18
746.877	344.09
747.216	346.35
747.556	337.31
747.895	314.26
748.234	322.39
748.573	343.41
748.911	331.43
749.25	322.17
749.589	342.96
749.928	339.57
750.267	337.76
750.605	335.27
750.944	308.16
751.283	342.28
751.621	327.59
751.96	325.1
752.298	319.68
752.636	327.14
752.975	334.37
753.313	326.69
753.651	317.87
753.989	321.94
754.327	326.69
754.666	331.21
755.004	346.8
755.342	330.98
755.679	333.24
756.017	328.49
756.355	338.66
756.693	333.92
757.031	308.38
757.368	333.69
757.706	319
758.044	338.21
758.381	323.97
758.719	308.83
759.056	301.15
759.394	309.06
759.731	342.28
760.068	317.87
760.405	340.25
760.743	336.63
761.08	344.31
761.417	337.53
761.754	328.27
762.091	331.66
762.428	344.54
762.765	335.73
763.102	317.2
763.438	337.08
763.775	333.69
764.112	326.23
764.449	326.69
764.785	324.2
765.122	326.01
765.458	346.8
765.795	323.07
766.131	312.22
766.467	331.43
766.804	307.48
767.14	339.57
767.476	312.9
767.812	343.18
768.148	321.71
768.485	305.9
768.821	328.27
769.157	317.65
769.492	319.23
769.828	331.21
770.164	317.2
770.5	332.79
770.836	334.82
771.171	329.4
771.507	313.81
771.842	316.07
772.178	305.67
772.513	317.65
772.849	318.1
773.184	315.84
773.519	319.45
773.855	344.09
774.19	323.52
774.525	332.56
774.86	335.5
775.195	310.19
775.53	334.37
775.865	305.9
776.2	316.97
776.535	323.75
776.87	334.82
777.205	322.17
777.539	335.95
777.874	313.81
778.209	334.14
778.543	339.57
778.878	312.45
779.212	320.36
779.547	325.78
779.881	315.39
780.215	325.78
780.55	323.52
780.884	333.69
781.218	335.73
781.552	318.78
781.886	321.94
782.22	328.27
782.554	317.2
782.888	319.68
783.222	310.42
783.556	323.75
783.889	322.17
784.223	310.64
784.557	335.27
784.89	333.69
785.224	319.91
785.557	318.1
785.891	342.28
786.224	332.79
786.558	320.81
786.891	327.59
787.224	343.41
787.557	322.39
787.891	316.97
788.224	315.84
788.557	312
788.89	326.69
789.223	312.45
789.556	313.58
789.888	330.75
790.221	302.05
790.554	322.17
790.887	312.68
791.219	333.92
791.552	327.59
791.884	309.96
792.217	324.43
792.549	314.03
792.882	325.1
793.214	319.68
793.546	328.04
793.879	316.07
794.211	331.66
794.543	313.13
794.875	332.56
795.207	307.7
795.539	324.65
795.871	344.99
796.203	331.66
796.535	304.54
796.867	331.21
797.198	312
797.53	326.91
797.862	321.94
798.193	318.78
798.525	302.28
798.856	307.93
799.188	331.43
799.519	325.1
799.85	324.65
800.182	325.78
800.513	321.71
800.844	333.24
801.175	302.05
801.506	328.04
801.837	314.26
802.168	332.11
802.499	306.12
802.83	322.17
803.161	323.97
803.491	315.16
803.822	322.62
804.153	325.78
804.483	330.75
804.814	326.23
805.145	313.58
805.475	316.07
805.805	317.65
806.136	307.93
806.466	302.05
806.796	318.55
807.126	321.49
807.457	295.95
807.787	326.69
808.117	314.26
808.447	315.39
808.777	318.78
809.107	323.3
809.436	307.7
809.766	313.13
810.096	321.26
810.426	324.2
810.755	321.04
811.085	307.48
811.414	320.58
811.744	327.14
812.073	338.66
812.403	315.16
812.732	309.06
813.061	307.48
813.39	305.9
813.719	326.46
814.049	315.16
814.378	311.09
814.707	315.39
815.036	324.2
815.365	310.19
815.693	299.34
816.022	326.69
816.351	336.86
816.68	325.56
817.008	314.94
817.337	322.62
817.665	332.56
817.994	305.44
818.322	323.07
818.651	316.97
818.979	326.23
819.307	326.91
819.636	319.68
819.964	307.48
820.292	306.57
820.62	330.3
820.948	310.42
821.276	314.26
821.604	321.26
821.932	331.21
822.259	306.57
822.587	329.17
822.915	319
823.243	339.79
823.57	315.16
823.898	312.9
824.225	307.03
824.553	305.9
824.88	321.71
825.207	317.42
825.535	316.97
825.862	315.39
826.189	302.05
826.516	314.03
826.843	314.71
827.17	333.92
827.497	324.65
827.824	337.08
828.151	341.6
828.478	318.78
828.805	328.72
829.131	309.74
829.458	334.6
829.785	321.71
830.111	312
830.438	322.62
830.764	318.78
831.09	305.9
831.417	329.85
831.743	329.85
832.069	319.45
832.395	315.16
832.722	310.87
833.048	333.24
833.374	301.6
833.7	330.3
834.026	330.75
834.351	333.01
834.677	316.74
835.003	318.1
835.329	301.6
835.654	318.32
835.98	314.48
836.306	329.4
836.631	323.75
836.956	335.73
837.282	322.39
837.607	315.39
837.932	340.25
838.258	309.06
838.583	328.72
838.908	331.21
839.233	326.46
839.558	317.2
839.883	321.04
840.208	323.97
840.533	309.74
840.858	314.26
841.182	327.14
841.507	315.84
841.832	327.36
842.156	300.25
842.481	311.77
842.805	304.09
843.13	310.19
843.454	333.01
843.778	329.62
844.103	296.63
844.427	324.43
844.751	315.84
845.075	314.71
845.399	322.17
845.723	307.25
846.047	326.91
846.371	314.94
846.695	326.23
847.019	300.02
847.343	310.42
847.666	333.47
847.99	306.12
848.313	304.77
848.637	307.7
848.96	322.39
849.284	323.97
849.607	313.81
849.931	309.06
850.254	336.4
850.577	326.91
850.9	314.94
851.223	330.98
851.546	343.18
851.869	308.61
852.192	295.73
852.515	312
852.838	318.32
853.161	333.69
853.483	317.42
853.806	312.9
854.129	315.84
854.451	327.82
854.774	310.64
855.096	327.59
855.419	322.62
855.741	302.51
856.063	318.78
856.385	313.13
856.708	327.59
857.03	308.16
857.352	314.03
857.674	328.72
857.996	331.88
858.318	308.38
858.64	336.86
858.961	331.88
859.283	312.9
859.605	341.83
859.926	300.47
860.248	316.07
860.57	320.13
860.891	312.9
861.212	330.75
861.534	310.64
861.855	337.31
862.176	312.9
862.498	323.07
862.819	346.8
863.14	316.74
863.461	327.36
863.782	314.03
864.103	297.76
864.424	307.48
864.745	304.09
865.065	320.36
865.386	318.1
865.707	326.91
866.027	314.26
866.348	317.87
866.668	315.16
866.989	326.23
867.309	296.63
867.63	305.67
867.95	315.84
868.27	324.88
868.59	316.97
868.91	302.05
869.23	325.33
869.55	326.69
869.87	323.75
870.19	308.16
870.51	321.26
870.83	297.31
871.15	316.97
871.469	324.65
871.789	320.13
872.109	318.78
872.428	309.06
872.748	295.95
873.067	322.17
873.386	331.21
873.706	315.61
874.025	306.35
874.344	307.03
874.663	327.36
874.982	321.94
875.301	329.4
875.62	321.04
875.939	329.4
876.258	325.56
876.577	322.62
876.896	326.46
877.214	311.55
877.533	317.87
877.852	303.64
878.17	325.33
878.489	314.03
878.807	311.32
879.125	318.32
879.444	322.17
879.762	309.96
880.08	323.52
880.398	299.79
880.716	313.13
881.034	323.75
881.352	330.3
881.67	308.83
881.988	314.03
882.306	308.16
882.624	309.74
882.941	323.52
883.259	316.74
883.577	316.29
883.894	304.99
884.212	328.72
884.529	321.71
884.846	315.84
885.164	311.77
885.481	331.66
885.798	307.48
886.115	295.05
886.432	275.39
886.75	319.23
887.067	311.77
887.383	297.76
887.7	307.03
888.017	332.56
888.334	329.85
888.651	322.62
888.967	304.54
889.284	331.43
889.6	343.18
889.917	307.48
890.233	322.39
890.55	319.91
890.866	316.52
891.182	311.32
891.498	332.34
891.815	313.35
892.131	300.02
892.447	305.67
892.763	291.88
893.079	318.78
893.395	330.75
893.71	323.75
894.026	308.83
894.342	331.21
894.657	321.94
894.973	320.13
895.289	292.11
895.604	316.29
895.92	323.75
896.235	301.83
896.55	310.42
896.865	312.22
897.181	314.26
897.496	318.55
897.811	317.87
898.126	331.21
898.441	294.14
898.756	296.63
899.071	308.38
899.386	310.19
899.7	318.55
900.015	317.65
900.33	312.22
900.644	323.97
900.959	298.44
901.273	325.56
901.588	314.26
901.902	307.03
902.216	316.74
902.531	318.55
902.845	320.58
903.159	317.65
903.473	307.48
903.787	311.32
904.101	314.03
904.415	307.48
904.729	323.52
905.042	308.61
905.356	334.6
905.67	319.23
905.984	314.48
906.297	303.64
906.611	328.04
906.924	312.22
907.237	307.25
907.551	317.87
907.864	345.67
908.177	320.81
908.491	313.13
908.804	327.36
909.117	313.13
909.43	312.68
909.743	320.13
910.056	303.41
910.368	309.06
910.681	324.88
910.994	300.25
911.307	302.05
911.619	319.23
911.932	303.86
912.244	296.18
912.557	324.88
912.869	327.82
913.181	319.91
913.494	324.88
913.806	328.27
914.118	312
914.43	294.6
914.742	318.78
915.054	317.42
915.366	309.51
915.678	312.68
915.99	301.15
916.302	323.75
916.613	307.03
916.925	301.83
917.236	314.26
917.548	319
917.859	295.73
918.171	321.71
918.482	307.25
918.794	303.41
919.105	321.94
919.416	308.61
919.727	321.94
920.038	309.51
920.349	314.26
920.66	316.97
920.971	301.38
921.282	302.05
921.593	317.87
921.903	311.09
922.214	296.63
922.525	316.74
922.835	313.35
923.146	308.61
923.456	331.21
923.767	300.47
924.077	317.87
924.387	312.22
924.697	314.03
925.008	311.32
925.318	315.16
925.628	307.93
925.938	304.99
926.248	325.1
926.558	309.74
926.867	315.39
927.177	329.4
927.487	307.93
927.796	312
928.106	311.09
928.416	332.34
928.725	341.15
929.034	329.62
929.344	317.2
929.653	327.82
929.962	336.63
930.271	322.84
930.581	300.92
930.89	310.87
931.199	316.97
931.508	326.91
931.817	315.84
932.125	320.36
932.434	293.24
932.743	325.56
933.051	323.3
933.36	319.68
933.669	299.79
933.977	285.56
934.286	322.39
934.594	329.85
934.902	317.2
935.21	324.2
935.519	319.45
935.827	313.81
936.135	307.7
936.443	313.13
936.751	304.99
937.059	307.25
937.367	303.18
937.674	318.78
937.982	315.16
938.29	320.81
938.597	306.12
938.905	301.38
939.213	299.57
939.52	305.9
939.827	303.18
940.135	308.16
940.442	316.07
940.749	299.12
941.056	312.45
941.363	310.42
941.67	318.78
941.977	318.78
942.284	312
942.591	307.25
942.898	311.77
943.205	303.41
943.511	304.99
943.818	303.41
944.125	305.22
944.431	311.77
944.738	312.22
945.044	301.6
945.35	333.69
945.657	315.84
945.963	300.7
946.269	307.25
946.575	319.68
946.881	305.22
947.187	325.33
947.493	307.93
947.799	304.99
948.105	322.62
948.41	312.22
948.716	333.69
949.022	327.14
949.327	300.02
949.633	308.61
949.938	307.48
950.244	306.12
950.549	319.91
950.854	304.77
951.16	301.15
951.465	313.58
951.77	309.29
952.075	328.95
952.38	317.42
952.685	302.96
952.99	318.55
953.294	303.64
953.599	325.56
953.904	309.74
954.209	294.82
954.513	323.52
954.818	301.6
955.122	306.8
955.426	322.62
955.731	325.1
956.035	315.61
956.339	317.65
956.643	306.8
956.948	306.8
957.252	319.23
957.556	308.83
957.86	312.45
958.163	313.81
958.467	335.5
958.771	307.25
959.075	311.32
959.378	323.3
959.682	312
959.985	296.4
960.289	294.37
960.592	312.22
960.896	316.74
961.199	319
961.502	313.35
961.805	336.18
962.108	320.13
962.411	307.03
962.714	326.69
963.017	310.64
963.32	309.06
963.623	333.47
963.926	325.78
964.228	299.12
964.531	313.13
964.833	305.22
965.136	321.49
965.438	321.26
965.741	323.97
966.043	304.31
966.345	311.32
966.648	296.63
966.95	313.81
967.252	319.91
967.554	328.72
967.856	295.05
968.158	300.47
968.46	329.17
968.761	310.87
969.063	304.77
969.365	300.25
969.666	314.71
969.968	312.22
970.269	316.07
970.571	312.22
970.872	288.95
971.174	309.74
971.475	304.54
971.776	310.87
972.077	316.52
972.378	333.92
972.679	336.4
972.98	319.68
973.281	300.92
973.582	285.33
973.883	316.97
974.183	290.76
974.484	307.25
974.785	317.87
975.085	307.93
975.386	307.93
975.686	311.77
975.986	309.29
976.287	307.25
976.587	309.06
976.887	324.2
977.187	315.84
977.487	332.56
977.787	333.24
978.087	312.45
978.387	310.87
978.687	300.7
978.987	312.45
979.286	305.44
979.586	322.84
979.885	289.4
980.185	295.73
980.484	308.38
980.784	336.18
981.083	313.58
981.382	325.1
981.682	293.47
981.981	330.75
982.28	315.84
982.579	289.85
982.878	312.68
983.177	310.64
983.475	302.51
983.774	320.58
984.073	325.1
984.372	322.39
984.67	308.61
984.969	300.7
985.267	331.88
985.566	339.57
985.864	308.83
986.162	300.25
986.461	305.67
986.759	303.64
987.057	307.93
987.355	287.37
987.653	310.87
987.951	306.12
988.249	339.79
988.547	323.3
988.844	335.27
989.142	330.53
989.44	311.55
989.737	310.87
990.035	301.15
990.332	323.07
990.63	313.35
990.927	312
991.224	292.34
991.521	308.83
991.819	300.25
992.116	316.29
992.413	324.2
992.71	321.04
993.006	335.05
993.303	304.99
993.6	307.48
993.897	303.64
994.193	343.64
994.49	329.17
994.787	303.41
995.083	317.2
995.379	316.29
995.676	307.7
995.972	302.96
996.268	305.22
996.565	301.15
996.861	283.3
997.157	309.51
997.453	299.79
997.749	317.42
998.044	330.08
998.34	314.26
998.636	304.77
998.932	317.42
999.227	313.35
999.523	304.54
999.818	328.95
1000.114	325.1
1000.409	300.92
1000.704	297.31
1001	320.58
1001.295	305.44
1001.59	312.68
1001.885	314.48
1002.18	314.94
1002.475	300.47
1002.77	325.78
1003.065	325.33
1003.359	314.03
1003.654	293.24
1003.949	305.22
1004.243	321.26
1004.538	310.42
1004.832	323.3
1005.127	306.57
1005.421	311.09
1005.715	303.41
1006.009	307.25
1006.304	298.66
1006.598	302.96
1006.892	315.61
1007.186	319.68
1007.48	297.53
1007.773	303.86
1008.067	318.78
1008.361	317.2
1008.655	303.41
1008.948	307.03
1009.242	309.74
1009.535	327.36
1009.829	302.05
1010.122	316.07
1010.415	306.35
1010.708	310.19
1011.001	315.61
1011.295	307.03
1011.588	317.2
1011.881	302.73
1012.173	309.74
1012.466	304.99
1012.759	313.13
1013.052	314.71
1013.344	304.54
1013.637	321.26
1013.93	321.04
1014.222	308.38
1014.514	330.08
1014.807	331.21
1015.099	321.49
1015.391	306.57
1015.683	301.38
1015.976	297.99
1016.268	308.38
1016.56	289.85
1016.851	305.9
1017.143	317.87
1017.435	302.05
1017.727	322.62
1018.018	296.86
1018.31	328.95
1018.602	314.26
1018.893	297.08
1019.185	316.97
1019.476	304.77
1019.767	323.3
1020.058	302.96
1020.35	334.6
1020.641	312.68
1020.932	310.87
1021.223	313.13
1021.514	321.49
1021.804	304.31
1022.095	301.6
1022.386	334.14
1022.677	324.2
1022.967	303.18
1023.258	304.09
1023.548	295.27
1023.839	303.41
1024.129	298.44
1024.419	303.64
1024.709	311.32
1025	301.83
1025.29	308.61
1025.58	313.58
1025.87	305.67
1026.16	307.03
1026.449	318.78
1026.739	304.77
1027.029	316.29
1027.319	301.83
1027.608	321.26
1027.898	310.87
1028.187	303.64
1028.477	325.33
1028.766	314.26
1029.055	315.61
1029.344	283.3
1029.634	300.92
1029.923	312.45
1030.212	309.96
1030.501	305.9
1030.79	308.16
1031.078	325.78
1031.367	296.86
1031.656	318.78
1031.945	301.15
1032.233	314.94
1032.522	308.16
1032.81	323.52
1033.099	321.49
1033.387	305.44
1033.675	316.29
1033.963	325.33
1034.251	324.2
1034.54	317.42
1034.828	302.51
1035.116	313.58
1035.403	298.66
1035.691	306.57
1035.979	300.47
1036.267	299.34
1036.554	315.16
1036.842	308.83
1037.129	320.36
1037.417	316.52
1037.704	309.29
1037.992	318.1
1038.279	317.65
1038.566	318.32
1038.853	318.32
1039.14	318.32
