Data from No_light_on_white_reflection_standard_FLMS001491_095.txt Node
Date: Tue Feb 07 10:33:11 GMT 2017
User: dcchb
Spectrometer: FLMS00149
Trigger mode: 0
Integration Time (sec): 2.000000E-2
Scans to average: 10
Electric dark correction enabled: true
Nonlinearity correction enabled: false
Boxcar width: 0
XAxis mode: Wavelengths
Number of Pixels in Spectrum: 2048
>>>>>Begin Spectral Data<<<<<
341.393	-5.45
341.776	-5.45
342.16	-5.45
342.543	-71.89
342.927	-70.76
343.31	-56.07
343.693	-90.65
344.077	-49.52
344.46	-46.13
344.843	-66.69
345.226	-28.5
345.61	-39.35
345.993	-1.61
346.376	4.27
346.759	3.36
347.142	24.6
347.525	43.13
347.908	44.49
348.291	74.55
348.674	84.26
349.057	99.86
349.44	143.24
349.823	140.98
350.206	149.57
350.588	160.19
350.971	177.59
351.354	202.68
351.737	220.53
352.119	222.56
352.502	240.87
352.884	253.98
353.267	227.31
353.65	261.43
354.032	263.92
354.414	269.34
354.797	267.76
355.179	289
355.562	296.01
355.944	304.6
356.326	290.59
356.709	297.59
357.091	318.61
357.473	307.08
357.855	302.79
358.238	331.94
358.62	307.76
359.002	302.56
359.384	306.4
359.766	327.42
360.148	304.37
360.53	319.74
360.912	309.34
361.294	294.2
361.676	291.26
362.057	319.74
362.439	305.95
362.821	292.85
363.203	296.01
363.584	292.62
363.966	298.72
364.348	292.17
364.729	285.39
365.111	290.36
365.493	277.48
365.874	289.91
366.256	287.65
366.637	290.36
367.019	278.61
367.4	281.77
367.781	237.93
368.163	299.85
368.544	298.72
368.925	303.47
369.306	256.24
369.688	275.9
370.069	278.83
370.45	289.68
370.831	269.34
371.212	281.77
371.593	275.9
371.974	270.47
372.355	287.42
372.736	291.26
373.117	273.86
373.498	263.24
373.879	263.69
374.26	285.16
374.641	286.52
375.021	264.15
375.402	274.77
375.783	272.05
376.163	268.89
376.544	268.89
376.925	275.44
377.305	282
377.686	280.87
378.066	263.24
378.447	283.58
378.827	277.03
379.208	279.51
379.588	295.33
379.968	296.69
380.349	273.64
380.729	283.58
381.109	269.34
381.489	291.26
381.87	274.99
382.25	300.53
382.63	296.01
383.01	285.84
383.39	263.47
383.77	289.68
384.15	283.35
384.53	301.21
384.91	291.04
385.29	286.29
385.67	284.71
386.049	307.99
386.429	285.16
386.809	280.42
387.189	293.52
387.568	291.94
387.948	298.27
388.328	316.57
388.707	283.81
389.087	280.19
389.466	285.84
389.846	300.53
390.225	292.39
390.605	305.95
390.984	297.59
391.363	303.69
391.743	305.95
392.122	299.17
392.501	307.99
392.881	315.22
393.26	303.69
393.639	313.86
394.018	288.1
394.397	303.47
394.776	293.98
395.155	289.46
395.534	301.88
395.913	284.26
396.292	308.89
396.671	291.94
397.05	291.49
397.429	311.38
397.808	300.08
398.186	277.03
398.565	307.76
398.944	308.89
399.323	288.1
399.701	297.37
400.08	292.85
400.458	307.08
400.837	299.4
401.215	312.05
401.594	294.2
401.972	286.07
402.351	287.87
402.729	316.12
403.107	310.02
403.486	298.72
403.864	317.93
404.242	288.1
404.62	298.72
404.999	287.87
405.377	287.87
405.755	314.77
406.133	286.52
406.511	286.97
406.889	305.95
407.267	314.31
407.645	289
408.023	282
408.401	302.11
408.779	316.35
409.156	301.21
409.534	292.62
409.912	308.44
410.29	284.03
410.667	285.84
411.045	300.3
411.422	290.13
411.8	311.83
412.178	288.78
412.555	310.25
412.933	314.54
413.31	306.18
413.687	297.14
414.065	299.4
414.442	290.13
414.819	296.46
415.197	302.56
415.574	314.31
415.951	319.29
416.328	324.03
416.705	314.54
417.082	313.86
417.46	323.81
417.837	291.49
418.214	311.15
418.591	282.9
418.967	326.29
419.344	315.9
419.721	285.84
420.098	313.41
420.475	336.46
420.852	312.05
421.228	313.64
421.605	311.15
421.982	327.65
422.358	317.03
422.735	318.38
423.111	335.1
423.488	322.68
423.864	320.64
424.241	320.19
424.617	313.86
424.994	316.12
425.37	309.57
425.746	329.68
426.123	337.14
426.499	302.79
426.875	320.19
427.251	306.86
427.627	310.7
428.003	307.99
428.379	336.01
428.756	326.97
429.132	313.64
429.507	324.26
429.883	338.49
430.259	329.23
430.635	315.22
431.011	319.96
431.387	340.08
431.763	349.57
432.138	337.14
432.514	317.25
432.89	318.83
433.265	315.44
433.641	331.94
434.016	301.43
434.392	330.13
434.767	324.48
435.143	313.18
435.518	327.19
435.894	317.03
436.269	339.4
436.644	334.2
437.02	323.58
437.395	318.83
437.77	341.21
438.145	342.34
438.52	309.34
438.895	320.87
439.271	328.1
439.646	333.52
440.021	331.26
440.395	330.36
440.77	341.43
441.145	345.27
441.52	319.06
441.895	349.57
442.27	367.65
442.645	354.99
443.019	355.89
443.394	327.19
443.769	346.86
444.143	351.83
444.518	354.31
444.892	353.63
445.267	346.4
445.641	343.24
446.016	367.19
446.39	357.25
446.764	358.83
447.139	350.7
447.513	369.45
447.887	354.99
448.262	364.26
448.636	359.74
449.01	381.2
449.384	356.57
449.758	350.7
450.132	367.42
450.506	371.71
450.88	385.27
451.254	377.36
451.628	358.61
452.002	343.01
452.376	383.69
452.75	368.32
453.123	356.12
453.497	375.1
453.871	373.97
454.244	394.99
454.618	384.14
454.992	376.23
455.365	341.88
455.739	378.72
456.112	380.75
456.486	371.94
456.859	351.37
457.232	380.98
457.606	362.9
457.979	363.8
458.352	362.22
458.725	365.84
459.099	340.98
459.472	355.67
459.845	356.57
460.218	367.65
460.591	353.86
460.964	360.87
461.337	349.79
461.71	362.45
462.083	366.29
462.456	371.49
462.829	354.31
463.201	359.28
463.574	350.47
463.947	363.35
464.32	355.22
464.692	358.15
465.065	360.87
465.438	357.25
465.81	344.82
466.183	354.09
466.555	355.89
466.928	362.22
467.3	361.32
467.672	373.52
468.045	358.15
468.417	366.06
468.789	365.16
469.161	371.71
469.534	364.03
469.906	349.34
470.278	358.38
470.65	362.9
471.022	341.66
471.394	358.61
471.766	354.09
472.138	338.04
472.51	372.84
472.882	367.42
473.253	354.09
473.625	358.61
473.997	354.09
474.369	338.95
474.74	342.11
475.112	358.15
475.484	351.15
475.855	362
476.227	342.11
476.598	382.56
476.97	357.7
477.341	363.8
477.713	358.15
478.084	352.05
478.455	356.8
478.827	350.02
479.198	344.37
479.569	350.02
479.94	363.58
480.311	366.06
480.682	339.62
481.053	353.63
481.424	362.22
481.795	353.18
482.166	355.89
482.537	351.37
482.908	362.67
483.279	355.67
483.65	383.69
484.021	356.12
484.391	382.11
484.762	382.56
485.133	380.75
485.503	376.46
485.874	379.17
486.244	372.17
486.615	369.45
486.985	359.74
487.356	379.62
487.726	348.44
488.097	371.04
488.467	370.58
488.837	362
489.207	372.84
489.578	383.92
489.948	374.65
490.318	375.56
490.688	377.36
491.058	373.75
491.428	379.4
491.798	395.22
492.168	381.2
492.538	362.67
492.908	374.88
493.278	370.36
493.648	380.75
494.017	383.92
494.387	385.95
494.757	377.14
495.126	396.35
495.496	384.82
495.866	381.2
496.235	403.58
496.605	387.31
496.974	368.32
497.344	398.61
497.713	403.8
498.082	391.83
498.452	381.43
498.821	402.9
499.19	403.12
499.559	399.74
499.928	420.07
500.298	402.45
500.667	411.71
501.036	401.32
501.405	397.25
501.774	421.2
502.143	401.32
502.512	409.68
502.88	419.85
503.249	423.69
503.618	397.48
503.987	418.49
504.356	419.4
504.724	415.55
505.093	425.95
505.462	408.55
505.83	423.69
506.199	423.92
506.567	412.62
506.936	437.93
507.304	418.94
507.672	421.88
508.041	427.08
508.409	420.07
508.777	449
509.145	452.16
509.514	453.07
509.882	426.18
510.25	451.49
510.618	430.47
510.986	433.86
511.354	452.62
511.722	434.31
512.09	446.51
512.458	443.12
512.826	440.64
513.193	441.32
513.561	450.58
513.929	458.72
514.297	470.69
514.664	458.26
515.032	434.99
515.4	426.63
515.767	460.3
516.135	457.81
516.502	447.64
516.869	460.07
517.237	465.72
517.604	467.3
517.972	447.19
518.339	467.53
518.706	471.82
519.073	470.47
519.44	467.53
519.808	467.08
520.175	482.22
520.542	461.88
520.909	458.26
521.276	463.91
521.643	469.79
522.009	466.4
522.376	467.76
522.743	485.83
523.11	464.37
523.477	469.34
523.843	473.41
524.21	487.42
524.577	477.47
524.943	467.98
525.31	487.87
525.676	476.57
526.043	498.72
526.409	500.75
526.776	496.23
527.142	481.54
527.508	509.34
527.874	471.6
528.241	483.57
528.607	489.22
528.973	478.83
529.339	498.72
529.705	504.59
530.071	502.11
530.437	492.84
530.803	500.07
531.169	511.82
531.535	499.62
531.901	494.65
532.267	493.97
532.632	485.38
532.998	487.19
533.364	509.34
533.73	496.68
534.095	493.52
534.461	514.08
534.826	506.85
535.192	515.66
535.557	504.82
535.923	517.25
536.288	519.05
536.653	510.47
537.019	513.4
537.384	506.4
537.749	500.3
538.114	509.11
538.479	520.64
538.845	520.64
539.21	501.88
539.575	536
539.94	513.4
540.305	516.79
540.67	503.24
541.034	520.41
541.399	501.2
541.764	513.4
542.129	529.22
542.494	521.31
542.858	537.58
543.223	524.7
543.587	502.33
543.952	520.64
544.316	532.16
544.681	524.48
545.045	527.19
545.41	537.81
545.774	536.23
546.138	531.71
546.503	514.99
546.867	531.94
547.231	514.31
547.595	512.95
547.959	515.66
548.324	526.96
548.688	514.99
549.052	547.08
549.416	530.35
549.779	545.72
550.143	530.81
550.507	538.49
550.871	525.83
551.235	536.45
551.599	517.92
551.962	539.84
552.326	543.91
552.689	541.88
553.053	551.14
553.417	538.49
553.78	552.73
554.143	555.44
554.507	570.58
554.87	550.69
555.234	549.79
555.597	556.57
555.96	542.78
556.323	534.65
556.686	553.86
557.05	552.95
557.413	553.4
557.776	531.03
558.139	544.14
558.502	556.79
558.865	543.69
559.228	547.53
559.59	571.48
559.953	557.25
560.316	559.28
560.679	555.89
561.041	559.05
561.404	558.6
561.767	559.51
562.129	554.76
562.492	573.52
562.854	593.18
563.217	545.27
563.579	570.35
563.941	576.91
564.304	561.54
564.666	569.45
565.028	562.44
565.39	594.53
565.753	554.31
566.115	563.8
566.477	565.61
566.839	571.26
567.201	585.04
567.563	591.82
567.925	585.27
568.287	564.02
568.648	570.58
569.01	569.9
569.372	580.52
569.734	564.93
570.095	579.62
570.457	580.75
570.819	569.22
571.18	594.31
571.542	570.35
571.903	586.62
572.265	564.48
572.626	613.74
572.987	586.62
573.349	599.73
573.71	593.18
574.071	592.5
574.432	580.3
574.794	591.82
575.155	590.24
575.516	594.76
575.877	581.2
576.238	595.89
576.599	586.17
576.96	581.65
577.32	592.72
577.681	603.12
578.042	586.4
578.403	591.37
578.763	608.09
579.124	594.53
579.485	602.44
579.845	601.76
580.206	582.1
580.566	586.62
580.927	591.59
581.287	587.98
581.648	599.96
582.008	612.39
582.368	605.15
582.728	596.57
583.089	588.88
583.449	611.48
583.809	599.5
584.169	603.57
584.529	594.76
584.889	593.85
585.249	617.36
585.609	600.41
585.969	598.6
586.329	580.3
586.688	576.68
587.048	610.13
587.408	612.16
587.768	606.51
588.127	597.7
588.487	608.77
588.846	579.62
589.206	589.33
589.565	620.29
589.925	588.88
590.284	581.65
590.643	582.78
591.003	572.61
591.362	609.22
591.721	591.37
592.08	576.91
592.44	588.88
592.799	592.72
593.158	590.01
593.517	586.85
593.876	592.27
594.235	599.73
594.593	566.06
594.952	587.3
595.311	585.95
595.67	577.58
596.029	590.92
596.387	592.72
596.746	564.7
597.104	590.46
597.463	568.77
597.822	587.3
598.18	578.04
598.538	560.86
598.897	567.64
599.255	597.92
599.613	588.88
599.972	573.29
600.33	567.64
600.688	581.2
601.046	586.62
601.404	590.46
601.762	576.23
602.12	591.37
602.478	559.05
602.836	595.21
603.194	578.26
603.552	592.27
603.91	570.35
604.268	566.28
604.625	555.21
604.983	585.27
605.341	575.32
605.698	576.68
606.056	577.81
606.413	555.21
606.771	587.3
607.128	596.57
607.485	558.15
607.843	565.15
608.2	577.58
608.557	550.92
608.914	586.4
609.272	555.66
609.629	567.64
609.986	572.84
610.343	557.92
610.7	538.71
611.057	568.09
611.414	559.28
611.771	572.61
612.127	551.6
612.484	569
612.841	573.97
613.198	559.05
613.554	552.5
613.911	558.83
614.267	546.62
614.624	539.39
614.98	544.82
615.337	542.1
615.693	574.87
616.05	559.51
616.406	540.97
616.762	553.18
617.118	549.79
617.475	550.92
617.831	543.69
618.187	552.27
618.543	554.08
618.899	538.94
619.255	510.69
619.611	537.81
619.967	538.49
620.323	547.08
620.678	548.21
621.034	519.96
621.39	538.49
621.746	526.74
622.101	551.14
622.457	538.71
622.812	542.33
623.168	536
623.523	524.48
623.879	526.74
624.234	522.22
624.589	533.29
624.945	558.38
625.3	514.76
625.655	542.78
626.01	528.09
626.365	541.88
626.72	529
627.075	522.9
627.43	498.49
627.785	518.38
628.14	500.07
628.495	511.14
628.85	514.76
629.205	517.47
629.559	513.63
629.914	507.98
630.269	507.3
630.623	513.18
630.978	491.03
631.332	498.26
631.687	502.78
632.041	530.81
632.396	515.44
632.75	502.56
633.104	503.24
633.459	500.3
633.813	515.21
634.167	503.91
634.521	501.88
634.875	499.62
635.229	483.57
635.583	480.64
635.937	472.5
636.291	478.6
636.645	468.66
636.999	484.7
637.352	468.43
637.706	470.02
638.06	487.42
638.413	484.93
638.767	477.02
639.121	485.83
639.474	473.18
639.828	488.09
640.181	467.3
640.534	463.01
640.888	485.83
641.241	451.26
641.594	461.43
641.947	483.35
642.301	462.56
642.654	466.63
643.007	451.49
643.36	471.37
643.713	460.98
644.066	465.04
644.419	458.49
644.771	452.84
645.124	446.74
645.477	472.28
645.83	448.77
646.182	443.12
646.535	453.52
646.888	458.49
647.24	447.42
647.593	459.39
647.945	432.05
648.298	450.81
648.65	448.77
649.002	436.8
649.355	436.8
649.707	444.93
650.059	462.78
650.411	442.22
650.763	455.78
651.115	457.59
651.467	411.49
651.819	429.34
652.171	451.26
652.523	427.53
652.875	439.06
653.227	438.6
653.578	431.15
653.93	425.72
654.282	428.66
654.633	442.22
654.985	431.82
655.337	425.72
655.688	425.95
656.039	411.49
656.391	434.54
656.742	435.89
657.094	422.56
657.445	425.5
657.796	413.29
658.147	437.02
658.498	412.62
658.849	420.53
659.2	430.24
659.551	419.17
659.902	418.04
660.253	425.05
660.604	404.25
660.955	407.19
661.306	418.49
661.656	412.39
662.007	414.88
662.358	420.07
662.708	403.8
663.059	415.1
663.409	395.89
663.76	406.74
664.11	416.91
664.461	409.9
664.811	416.46
665.161	410.36
665.511	379.17
665.862	411.71
666.212	408.32
666.562	417.59
666.912	397.7
667.262	409.23
667.612	411.03
667.962	418.27
668.312	413.52
668.662	394.99
669.011	395.22
669.361	406.29
669.711	390.92
670.06	383.92
670.41	404.48
670.76	375.33
671.109	397.02
671.459	397.48
671.808	388.66
672.157	392.28
672.507	408.32
672.856	400.64
673.205	413.07
673.554	378.04
673.904	394.76
674.253	397.7
674.602	405.38
674.951	391.37
675.3	396.12
675.649	381.66
675.998	396.57
676.346	368.55
676.695	394.09
677.044	386.85
677.393	395.44
677.741	378.72
678.09	391.83
678.438	381.2
678.787	388.21
679.135	372.17
679.484	379.4
679.832	393.86
680.181	377.81
680.529	364.48
680.877	367.87
681.225	380.98
681.573	382.33
681.922	393.63
682.27	367.19
682.618	396.12
682.966	380.3
683.314	371.26
683.661	377.14
684.009	359.28
684.357	364.48
684.705	377.14
685.053	352.28
685.4	387.76
685.748	363.35
686.095	373.07
686.443	375.56
686.79	368.55
687.138	384.14
687.485	370.81
687.832	387.53
688.18	356.57
688.527	368.55
688.874	360.19
689.221	370.81
689.568	366.97
689.915	362.67
690.262	376.69
690.609	374.43
690.956	366.06
691.303	360.19
691.65	375.33
691.997	376.91
692.344	368.32
692.69	365.84
693.037	362.22
693.383	367.65
693.73	363.8
694.077	348.44
694.423	350.47
694.769	358.61
695.116	359.51
695.462	363.8
695.808	362.9
696.155	366.06
696.501	346.4
696.847	350.92
697.193	363.13
697.539	331.94
697.885	344.37
698.231	349.57
698.577	350.02
698.923	371.26
699.269	352.05
699.614	360.19
699.96	353.41
700.306	368.78
700.651	369
700.997	353.63
701.342	353.18
701.688	359.51
702.033	356.57
702.379	352.28
702.724	368.1
703.069	338.27
703.415	355.44
703.76	355.89
704.105	373.97
704.45	367.65
704.795	353.63
705.14	348.89
705.485	361.77
705.83	358.83
706.175	357.02
706.52	337.36
706.865	346.86
707.209	340.98
707.554	345.05
707.899	332.62
708.243	345.5
708.588	353.63
708.932	353.63
709.277	354.76
709.621	354.54
709.966	353.41
710.31	346.18
710.654	346.86
710.998	362
711.342	345.73
711.687	334.88
712.031	349.79
712.375	345.27
712.719	341.88
713.063	336.69
713.407	345.05
713.75	342.11
714.094	331.71
714.438	329.23
714.782	352.73
715.125	355.67
715.469	342.79
715.812	356.57
716.156	355.67
716.499	350.02
716.843	354.09
717.186	343.01
717.53	351.83
717.873	352.5
718.216	333.52
718.559	340.3
718.902	346.63
719.246	333.75
719.589	356.57
719.932	344.37
720.275	343.69
720.617	345.73
720.96	340.98
721.303	335.56
721.646	333.97
721.989	316.8
722.331	353.18
722.674	357.48
723.016	338.49
723.359	354.09
723.701	354.76
724.044	350.7
724.386	338.72
724.729	341.66
725.071	359.28
725.413	337.36
725.755	333.07
726.097	357.7
726.439	328.55
726.782	346.4
727.124	341.21
727.465	345.73
727.807	344.82
728.149	339.4
728.491	347.31
728.833	341.66
729.175	342.56
729.516	333.75
729.858	353.86
730.199	347.53
730.541	344.82
730.882	346.63
731.224	328.1
731.565	348.44
731.906	338.04
732.248	328.1
732.589	350.7
732.93	355.67
733.271	337.59
733.612	341.88
733.953	346.4
734.294	342.34
734.635	340.98
734.976	339.85
735.317	346.4
735.658	339.85
735.999	335.56
736.339	329.91
736.68	324.93
737.021	350.25
737.361	328.1
737.702	332.17
738.042	330.13
738.383	344.37
738.723	326.74
739.063	334.88
739.404	336.23
739.744	341.66
740.084	341.21
740.424	329
740.764	348.44
741.104	322
741.444	336.46
741.784	334.2
742.124	333.52
742.464	341.43
742.804	346.63
743.143	320.64
743.483	341.88
743.823	317.93
744.162	342.56
744.502	330.13
744.841	338.04
745.181	335.33
745.52	336.46
745.86	343.01
746.199	327.65
746.538	322.45
746.877	342.11
747.216	339.85
747.556	334.43
747.895	361.09
748.234	333.07
748.573	328.32
748.911	342.79
749.25	321.55
749.589	356.35
749.928	322.22
750.267	354.99
750.605	324.26
750.944	352.96
751.283	321.55
751.621	317.48
751.96	344.82
752.298	347.31
752.636	336.69
752.975	310.02
753.313	344.37
753.651	344.82
753.989	327.19
754.327	357.02
754.666	329
755.004	306.18
755.342	346.18
755.679	341.66
756.017	327.87
756.355	325.16
756.693	312.96
757.031	327.19
757.368	332.84
757.706	343.92
758.044	327.65
758.381	345.27
758.719	352.05
759.056	338.49
759.394	359.74
759.731	338.95
760.068	328.78
760.405	310.92
760.743	359.96
761.08	315.44
761.417	336.69
761.754	338.04
762.091	321.77
762.428	338.72
762.765	329.45
763.102	315.9
763.438	330.81
763.775	328.78
764.112	335.56
764.449	320.64
764.785	318.16
765.122	302.56
765.458	330.36
765.795	340.98
766.131	334.43
766.467	338.49
766.804	337.14
767.14	338.04
767.476	311.15
767.812	345.27
768.148	327.87
768.485	333.3
768.821	338.95
769.157	332.39
769.492	333.52
769.828	325.16
770.164	343.47
770.5	327.65
770.836	342.79
771.171	335.56
771.507	328.32
771.842	303.47
772.178	329.68
772.513	343.92
772.849	327.87
773.184	350.02
773.519	336.91
773.855	317.7
774.19	335.1
774.525	316.35
774.86	312.05
775.195	330.81
775.53	356.8
775.865	320.42
776.2	328.1
776.535	330.36
776.87	328.78
777.205	340.98
777.539	317.03
777.874	332.62
778.209	341.66
778.543	330.13
778.878	325.16
779.212	342.11
779.547	340.75
779.881	327.87
780.215	311.83
780.55	324.03
780.884	334.2
781.218	330.13
781.552	342.11
781.886	319.74
782.22	338.27
782.554	322.45
782.888	331.49
783.222	331.49
783.556	335.33
783.889	331.94
784.223	335.1
784.557	349.57
784.89	332.84
785.224	334.65
785.557	345.05
785.891	328.55
786.224	332.39
786.558	341.21
786.891	333.3
787.224	337.59
787.557	344.37
787.891	346.63
788.224	333.52
788.557	337.82
788.89	314.09
789.223	322.68
789.556	349.34
789.888	336.46
790.221	345.73
790.554	342.56
790.887	320.64
791.219	328.55
791.552	323.13
791.884	316.12
792.217	330.36
792.549	318.61
792.882	320.87
793.214	341.43
793.546	309.12
793.879	345.95
794.211	336.46
794.543	340.53
794.875	319.06
795.207	320.64
795.539	317.7
795.871	345.5
796.203	335.33
796.535	341.21
796.867	337.82
797.198	348.21
797.53	308.21
797.862	325.39
798.193	342.56
798.525	324.48
798.856	332.62
799.188	335.33
799.519	315.44
799.85	318.16
800.182	343.69
800.513	338.72
800.844	335.78
801.175	325.61
801.506	336.23
801.837	327.87
802.168	309.34
802.499	315.9
802.83	334.65
803.161	343.24
803.491	337.36
803.822	331.71
804.153	355.67
804.483	324.71
804.814	313.18
805.145	328.78
805.475	332.84
805.805	332.62
806.136	322.22
806.466	321.32
806.796	321.77
807.126	334.43
807.457	322.45
807.787	325.61
808.117	339.85
808.447	329
808.777	345.5
809.107	342.34
809.436	316.35
809.766	327.19
810.096	325.39
810.426	309.12
810.755	335.56
811.085	322.45
811.414	326.97
811.744	325.84
812.073	343.92
812.403	310.7
812.732	323.13
813.061	332.62
813.39	331.49
813.719	328.78
814.049	328.55
814.378	338.04
814.707	335.56
815.036	321.09
815.365	338.04
815.693	331.04
816.022	327.65
816.351	321.09
816.68	321.32
817.008	317.48
817.337	316.12
817.665	314.09
817.994	325.16
818.322	293.52
818.651	334.65
818.979	328.78
819.307	322.9
819.636	343.92
819.964	336.23
820.292	320.42
820.62	334.43
820.948	319.29
821.276	333.07
821.604	319.74
821.932	323.13
822.259	326.06
822.587	340.75
822.915	310.47
823.243	319.29
823.57	333.3
823.898	330.13
824.225	332.84
824.553	323.58
824.88	324.93
825.207	334.43
825.535	322.68
825.862	337.36
826.189	323.58
826.516	333.07
826.843	321.09
827.17	308.89
827.497	319.74
827.824	314.99
828.151	340.53
828.478	347.99
828.805	350.92
829.131	331.94
829.458	314.31
829.785	336.91
830.111	330.36
830.438	316.8
830.764	311.6
831.09	322
831.417	324.03
831.743	329.23
832.069	328.32
832.395	319.29
832.722	336.69
833.048	319.29
833.374	323.13
833.7	343.01
834.026	318.16
834.351	331.04
834.677	330.13
835.003	319.29
835.329	301.43
835.654	326.06
835.98	329.23
836.306	328.55
836.631	330.13
836.956	313.64
837.282	322.9
837.607	325.61
837.932	329.45
838.258	327.87
838.583	338.04
838.908	325.84
839.233	303.69
839.558	334.65
839.883	345.05
840.208	329.45
840.533	326.52
840.858	338.49
841.182	344.6
841.507	334.65
841.832	329.23
842.156	333.3
842.481	338.27
842.805	324.48
843.13	318.16
843.454	310.47
843.778	308.21
844.103	323.81
844.427	338.27
844.751	324.93
845.075	339.85
845.399	327.19
845.723	314.77
846.047	306.4
846.371	331.94
846.695	322.45
847.019	322.45
847.343	326.74
847.666	319.06
847.99	307.99
848.313	328.78
848.637	321.32
848.96	332.84
849.284	328.1
849.607	349.79
849.931	346.4
850.254	333.75
850.577	324.26
850.9	303.69
851.223	322.9
851.546	319.29
851.869	324.03
852.192	326.06
852.515	326.06
852.838	314.77
853.161	315.9
853.483	312.05
853.806	328.55
854.129	321.55
854.451	315.22
854.774	320.64
855.096	323.13
855.419	349.57
855.741	342.11
856.063	322.68
856.385	326.97
856.708	320.87
857.03	318.16
857.352	322.45
857.674	336.01
857.996	312.96
858.318	325.39
858.64	329
858.961	329.45
859.283	333.07
859.605	335.33
859.926	305.27
860.248	332.84
860.57	306.86
860.891	311.15
861.212	322.9
861.534	331.71
861.855	335.56
862.176	333.3
862.498	316.8
862.819	328.78
863.14	329
863.461	326.74
863.782	321.32
864.103	305.5
864.424	318.61
864.745	313.41
865.065	325.61
865.386	349.12
865.707	329.23
866.027	335.56
866.348	338.49
866.668	325.39
866.989	340.53
867.309	313.41
867.63	338.95
867.95	345.27
868.27	317.25
868.59	317.25
868.91	302.34
869.23	330.81
869.55	333.52
869.87	319.51
870.19	324.26
870.51	327.65
870.83	320.19
871.15	327.19
871.469	337.59
871.789	320.19
872.109	333.75
872.428	312.96
872.748	328.1
873.067	317.7
873.386	339.62
873.706	314.31
874.025	324.03
874.344	308.44
874.663	327.19
874.982	328.32
875.301	303.92
875.62	315.9
875.939	322.68
876.258	348.89
876.577	322.22
876.896	316.8
877.214	320.64
877.533	325.39
877.852	312.05
878.17	323.35
878.489	335.78
878.807	321.32
879.125	307.53
879.444	311.15
879.762	308.44
880.08	304.37
880.398	324.03
880.716	312.05
881.034	330.36
881.352	322.68
881.67	328.32
881.988	324.71
882.306	300.53
882.624	319.96
882.941	327.87
883.259	308.89
883.577	324.93
883.894	302.79
884.212	312.51
884.529	329.45
884.846	328.32
885.164	319.96
885.481	309.12
885.798	340.98
886.115	329.91
886.432	323.35
886.75	324.71
887.067	310.47
887.383	319.74
887.7	314.99
888.017	312.96
888.334	322.22
888.651	332.62
888.967	330.58
889.284	321.32
889.6	329.68
889.917	320.87
890.233	318.38
890.55	337.59
890.866	326.06
891.182	327.19
891.498	348.44
891.815	338.72
892.131	327.42
892.447	327.19
892.763	329.45
893.079	333.52
893.395	298.04
893.71	319.06
894.026	302.34
894.342	310.02
894.657	331.04
894.973	319.29
895.289	324.26
895.604	320.42
895.92	320.42
896.235	333.52
896.55	317.48
896.865	315.67
897.181	313.86
897.496	328.32
897.811	340.98
898.126	316.12
898.441	315.44
898.756	320.87
899.071	319.74
899.386	314.09
899.7	314.77
900.015	312.51
900.33	335.1
900.644	326.29
900.959	330.81
901.273	312.96
901.588	303.01
901.902	309.34
902.216	315.67
902.531	314.77
902.845	315.67
903.159	331.04
903.473	327.42
903.787	309.34
904.101	322
904.415	321.77
904.729	311.83
905.042	325.39
905.356	313.41
905.67	307.99
905.984	321.77
906.297	300.98
906.611	312.51
906.924	317.7
907.237	309.34
907.551	332.84
907.864	309.79
908.177	325.39
908.491	313.41
908.804	321.09
909.117	324.93
909.43	340.75
909.743	311.38
910.056	311.83
910.368	306.86
910.681	326.74
910.994	322.68
911.307	317.93
911.619	312.51
911.932	322.9
912.244	316.12
912.557	319.74
912.869	318.16
913.181	308.44
913.494	311.83
913.806	328.55
914.118	325.16
914.43	302.79
914.742	326.97
915.054	294.88
915.366	342.56
915.678	311.83
915.99	295.11
916.302	318.83
916.613	323.35
916.925	314.54
917.236	303.69
917.548	329
917.859	321.77
918.171	329.23
918.482	323.81
918.794	309.79
919.105	300.08
919.416	317.25
919.727	309.79
920.038	306.86
920.349	304.82
920.66	313.64
920.971	312.73
921.282	319.51
921.593	318.38
921.903	305.95
922.214	321.32
922.525	331.49
922.835	340.53
923.146	302.11
923.456	308.89
923.767	321.77
924.077	335.1
924.387	327.42
924.697	340.3
925.008	323.35
925.318	325.61
925.628	311.15
925.938	337.36
926.248	317.03
926.558	324.03
926.867	315.44
927.177	326.97
927.487	316.12
927.796	304.14
928.106	326.06
928.416	321.09
928.725	310.02
929.034	325.39
929.344	342.11
929.653	313.41
929.962	320.64
930.271	312.73
930.581	325.61
930.89	321.32
931.199	321.32
931.508	314.99
931.817	310.02
932.125	331.71
932.434	327.87
932.743	314.99
933.051	323.13
933.36	319.29
933.669	305.73
933.977	353.41
934.286	312.05
934.594	335.78
934.902	310.92
935.21	318.61
935.519	320.42
935.827	339.62
936.135	321.55
936.443	315.22
936.751	322
937.059	314.54
937.367	324.93
937.674	325.61
937.982	330.81
938.29	344.6
938.597	317.25
938.905	314.54
939.213	296.69
939.52	329
939.827	329
940.135	298.72
940.442	332.39
940.749	304.14
941.056	307.31
941.363	314.31
941.67	317.25
941.977	319.74
942.284	322.68
942.591	331.49
942.898	332.84
943.205	312.96
943.511	312.73
943.818	330.13
944.125	320.19
944.431	327.19
944.738	324.48
945.044	317.03
945.35	315.22
945.657	321.32
945.963	306.4
946.269	315.44
946.575	326.29
946.881	311.6
947.187	320.64
947.493	331.26
947.799	332.17
948.105	325.39
948.41	312.28
948.716	314.31
949.022	330.13
949.327	314.77
949.633	315.44
949.938	317.03
950.244	329.23
950.549	323.58
950.854	319.51
951.16	335.78
951.465	304.37
951.77	323.58
952.075	315.22
952.38	304.14
952.685	292.17
952.99	320.19
953.294	309.12
953.599	331.94
953.904	317.48
954.209	321.32
954.513	326.97
954.818	302.11
955.122	318.16
955.426	331.49
955.731	305.73
956.035	314.31
956.339	332.39
956.643	310.47
956.948	313.18
957.252	317.25
957.556	316.12
957.86	317.48
958.163	310.25
958.467	333.52
958.771	307.99
959.075	333.3
959.378	338.27
959.682	324.48
959.985	324.48
960.289	341.66
960.592	310.47
960.896	306.4
961.199	307.76
961.502	307.76
961.805	318.61
962.108	310.47
962.411	308.21
962.714	311.15
963.017	318.16
963.32	332.39
963.623	311.15
963.926	318.83
964.228	308.44
964.531	307.99
964.833	332.84
965.136	324.71
965.438	340.75
965.741	333.52
966.043	322.9
966.345	297.59
966.648	323.35
966.95	324.71
967.252	305.95
967.554	305.5
967.856	309.12
968.158	313.64
968.46	335.33
968.761	334.43
969.063	331.71
969.365	312.96
969.666	338.49
969.968	315.67
970.269	339.4
970.571	324.71
970.872	320.87
971.174	329.45
971.475	327.19
971.776	315.9
972.077	315.22
972.378	310.7
972.679	334.88
972.98	321.55
973.281	317.93
973.582	302.79
973.883	317.48
974.183	312.96
974.484	307.99
974.785	317.7
975.085	306.4
975.386	321.32
975.686	343.01
975.986	330.58
976.287	308.21
976.587	331.94
976.887	330.58
977.187	315.67
977.487	322.45
977.787	312.28
978.087	345.5
978.387	323.13
978.687	334.2
978.987	307.08
979.286	311.38
979.586	324.93
979.885	316.8
980.185	314.99
980.484	312.73
980.784	329
981.083	321.55
981.382	315.67
981.682	317.03
981.981	320.64
982.28	322.22
982.579	328.78
982.878	304.6
983.177	331.94
983.475	311.83
983.774	336.01
984.073	334.88
984.372	323.81
984.67	306.4
984.969	315.67
985.267	318.38
985.566	323.13
985.864	312.28
986.162	326.97
986.461	315.22
986.759	310.02
987.057	302.34
987.355	310.02
987.653	296.24
987.951	314.31
988.249	329.23
988.547	328.55
988.844	336.01
989.142	325.84
989.44	311.6
989.737	325.61
990.035	317.93
990.332	324.26
990.63	294.88
990.927	312.96
991.224	308.89
991.521	315.67
991.819	311.38
992.116	309.57
992.413	301.66
992.71	315.9
993.006	324.26
993.303	316.35
993.6	333.3
993.897	336.91
994.193	312.05
994.49	324.26
994.787	330.13
995.083	302.11
995.379	311.83
995.676	320.19
995.972	332.39
996.268	324.03
996.565	308.89
996.861	314.99
997.157	330.81
997.453	328.55
997.749	323.58
998.044	323.13
998.34	306.18
998.636	312.05
998.932	320.42
999.227	311.83
999.523	330.58
999.818	333.75
1000.114	314.77
1000.409	316.8
1000.704	321.09
1001	312.28
1001.295	338.04
1001.59	312.73
1001.885	320.64
1002.18	311.83
1002.475	317.25
1002.77	303.24
1003.065	311.83
1003.359	298.49
1003.654	324.48
1003.949	314.77
1004.243	324.93
1004.538	297.82
1004.832	307.53
1005.127	329.23
1005.421	321.77
1005.715	338.72
1006.009	333.07
1006.304	307.99
1006.598	298.49
1006.892	321.09
1007.186	309.57
1007.48	328.78
1007.773	314.99
1008.067	315.22
1008.361	322.45
1008.655	294.65
1008.948	309.57
1009.242	324.71
1009.535	334.43
1009.829	339.17
1010.122	337.14
1010.415	301.66
1010.708	338.72
1011.001	297.37
1011.295	317.7
1011.588	320.19
1011.881	301.88
1012.173	316.35
1012.466	316.12
1012.759	318.38
1013.052	293.3
1013.344	313.86
1013.637	337.36
1013.93	323.58
1014.222	332.84
1014.514	319.74
1014.807	313.18
1015.099	320.87
1015.391	325.16
1015.683	332.62
1015.976	321.32
1016.268	336.46
1016.56	309.34
1016.851	310.25
1017.143	309.57
1017.435	301.43
1017.727	333.3
1018.018	319.06
1018.31	315.9
1018.602	319.51
1018.893	307.31
1019.185	320.64
1019.476	324.48
1019.767	301.88
1020.058	323.13
1020.35	327.65
1020.641	324.48
1020.932	324.03
1021.223	304.6
1021.514	316.57
1021.804	304.14
1022.095	319.96
1022.386	310.92
1022.677	320.87
1022.967	305.73
1023.258	315.67
1023.548	335.1
1023.839	306.63
1024.129	322.68
1024.419	324.93
1024.709	305.5
1025	311.15
1025.29	302.79
1025.58	311.6
1025.87	334.88
1026.16	328.1
1026.449	320.64
1026.739	311.83
1027.029	310.47
1027.319	324.48
1027.608	328.55
1027.898	331.49
1028.187	315.44
1028.477	314.99
1028.766	319.29
1029.055	310.92
1029.344	331.49
1029.634	304.37
1029.923	313.41
1030.212	307.31
1030.501	324.26
1030.79	320.64
1031.078	335.56
1031.367	310.25
1031.656	320.42
1031.945	331.49
1032.233	311.6
1032.522	317.7
1032.81	328.1
1033.099	307.76
1033.387	316.8
1033.675	294.43
1033.963	306.4
1034.251	311.6
1034.54	309.12
1034.828	319.51
1035.116	298.72
1035.403	309.12
1035.691	311.15
1035.979	318.61
1036.267	315.22
1036.554	307.53
1036.842	313.64
1037.129	314.54
1037.417	301.21
1037.704	322.68
1037.992	319.74
1038.279	312.28
1038.566	315.44
1038.853	315.44
1039.14	315.44
