Data from No_light_on_white_reflection_standard_FLMS001491_083.txt Node
Date: Tue Feb 07 10:33:08 GMT 2017
User: dcchb
Spectrometer: FLMS00149
Trigger mode: 0
Integration Time (sec): 2.000000E-2
Scans to average: 10
Electric dark correction enabled: true
Nonlinearity correction enabled: false
Boxcar width: 0
XAxis mode: Wavelengths
Number of Pixels in Spectrum: 2048
>>>>>Begin Spectral Data<<<<<
341.393	-15.82
341.776	-15.82
342.16	-15.82
342.543	-60.56
342.927	-67.34
343.31	-63.73
343.693	-58.3
344.077	-56.5
344.46	-60.56
344.843	-66.66
345.226	-25.76
345.61	-26.21
345.993	0.9
346.376	-23.95
346.759	-6.33
347.142	20.11
347.525	52.43
347.908	34.8
348.291	78.42
348.674	86.33
349.057	115.03
349.44	122.93
349.823	133.33
350.206	150.5
350.588	179.66
350.971	178.3
351.354	198.86
351.737	186.89
352.119	233.89
352.502	235.7
352.884	234.8
353.267	263.95
353.65	247.9
354.032	287.22
354.414	262.59
354.797	273.21
355.179	294
355.562	277.51
355.944	296.26
356.326	292.2
356.709	297.17
357.091	304.4
357.473	310.05
357.855	300.56
358.238	299.43
358.62	327.22
359.002	317.28
359.384	313.21
359.766	303.49
360.148	294.91
360.53	305.3
360.912	305.08
361.294	304.4
361.676	304.62
362.057	299.88
362.439	317.51
362.821	319.77
363.203	274.57
363.584	288.13
363.966	293.55
364.348	293.55
364.729	280.9
365.111	292.42
365.493	283.16
365.874	289.26
366.256	261.24
366.637	285.42
367.019	274.12
367.4	285.87
367.781	287
368.163	278.41
368.544	251.29
368.925	277.05
369.306	283.83
369.688	276.38
370.069	268.47
370.45	284.29
370.831	296.72
371.212	273.89
371.593	268.24
371.974	268.24
372.355	263.27
372.736	292.2
373.117	282.7
373.498	265.76
373.879	264.63
374.26	270.73
374.641	259.65
375.021	273.67
375.402	288.81
375.783	275.25
376.163	304.17
376.544	259.88
376.925	269.82
377.305	263.27
377.686	288.58
378.066	281.57
378.447	290.39
378.827	274.57
379.208	299.43
379.588	284.51
379.968	296.49
380.349	285.42
380.729	270.28
381.109	285.87
381.489	292.2
381.87	304.17
382.25	293.55
382.63	281.12
383.01	271.63
383.39	271.41
383.77	285.42
384.15	260.33
384.53	298.75
384.91	304.4
385.29	297.62
385.67	302.82
386.049	281.12
386.429	283.16
386.809	286.32
387.189	284.06
387.568	299.65
387.948	293.1
388.328	306.88
388.707	279.99
389.087	260.33
389.466	295.13
389.846	306.21
390.225	289.48
390.605	275.92
390.984	286.09
391.363	286.32
391.743	263.72
392.122	280.22
392.501	297.62
392.881	299.2
393.26	321.57
393.639	289.71
394.018	304.4
394.397	281.57
394.776	307.56
395.155	270.28
395.534	292.87
395.913	301.91
396.292	297.62
396.671	275.7
397.05	301.46
397.429	307.79
397.808	313.44
398.186	274.12
398.565	285.19
398.944	299.2
399.323	307.34
399.701	308.47
400.08	302.14
400.458	301.24
400.837	296.72
401.215	277.51
401.594	284.74
401.972	305.98
402.351	302.36
402.729	301.91
403.107	292.42
403.486	296.04
403.864	282.25
404.242	293.78
404.62	287.45
404.999	285.87
405.377	278.64
405.755	290.16
406.133	292.87
406.511	314.12
406.889	299.43
407.267	304.17
407.645	282.03
408.023	324.51
408.401	295.59
408.779	304.62
409.156	309.37
409.534	314.12
409.912	296.94
410.29	291.97
410.667	298.07
411.045	316.15
411.422	308.92
411.8	284.51
412.178	303.72
412.555	289.03
412.933	296.72
413.31	312.08
413.687	307.34
414.065	316.15
414.442	300.56
414.819	289.26
415.197	285.19
415.574	296.26
415.951	306.21
416.328	310.5
416.705	299.43
417.082	307.11
417.46	303.72
417.837	308.47
418.214	311.18
418.591	307.79
418.967	313.21
419.344	307.79
419.721	293.78
420.098	304.4
420.475	329.03
420.852	309.37
421.228	340.56
421.605	329.48
421.982	304.62
422.358	309.37
422.735	305.98
423.111	301.69
423.488	311.4
423.864	311.86
424.241	342.14
424.617	296.72
424.994	305.75
425.37	298.07
425.746	304.4
426.123	317.96
426.499	314.79
426.875	323.83
427.251	292.87
427.627	321.35
428.003	308.01
428.379	314.12
428.756	313.89
429.132	314.12
429.507	316.6
429.883	328.35
430.259	324.06
430.635	310.27
431.011	316.6
431.387	297.85
431.763	343.95
432.138	306.21
432.514	309.6
432.89	319.09
433.265	304.62
433.641	315.47
434.016	304.4
434.392	323.38
434.767	342.82
435.143	319.77
435.518	332.19
435.894	306.43
436.269	317.96
436.644	331.06
437.02	314.57
437.395	325.42
437.77	321.8
438.145	330.61
438.52	322.03
438.895	343.72
439.271	340.1
439.646	337.39
440.021	315.02
440.395	350.95
440.77	344.17
441.145	324.74
441.52	342.14
441.895	326.09
442.27	336.26
442.645	344.4
443.019	341.69
443.394	324.74
443.769	339.88
444.143	345.3
444.518	329.71
444.892	322.7
445.267	344.62
445.641	348.47
446.016	365.64
446.39	356.6
446.764	368.35
447.139	347.56
447.513	331.52
447.887	351.86
448.262	334.91
448.636	334.23
449.01	355.02
449.384	381.46
449.758	372.42
450.132	353.66
450.506	360.67
450.88	375.36
451.254	358.86
451.628	383.27
452.002	377.17
452.376	361.35
452.75	379.88
453.123	369.48
453.497	361.12
453.871	387.79
454.244	363.15
454.618	362.48
454.992	345.08
455.365	348.69
455.739	366.54
456.112	375.13
456.486	378.97
456.859	369.03
457.232	355.47
457.606	348.24
457.979	360.22
458.352	361.35
458.725	345.98
459.099	371.06
459.472	367
459.845	359.09
460.218	357.73
460.591	348.01
460.964	364.74
461.337	345.98
461.71	363.83
462.083	371.06
462.456	351.4
462.829	354.57
463.201	373.78
463.574	351.4
463.947	343.27
464.32	344.85
464.692	338.3
465.065	331.74
465.438	347.56
465.81	340.1
466.183	351.63
466.555	360.44
466.928	347.79
467.3	331.97
467.672	362.93
468.045	335.58
468.417	353.89
468.789	364.51
469.161	334
469.534	362.7
469.906	354.11
470.278	345.08
470.65	357.28
471.022	355.7
471.394	349.14
471.766	347.34
472.138	338.75
472.51	359.09
472.882	376.26
473.253	343.04
473.625	353.66
473.997	363.61
474.369	362.25
474.74	354.79
475.112	354.57
475.484	348.92
475.855	352.08
476.227	353.21
476.598	341.23
476.97	338.97
477.341	354.34
477.713	344.85
478.084	359.99
478.455	353.89
478.827	345.53
479.198	358.86
479.569	363.61
479.94	367.67
480.311	349.82
480.682	345.53
481.053	358.18
481.424	361.57
481.795	363.61
482.166	353.66
482.537	351.63
482.908	341.69
483.279	352.31
483.65	368.35
484.021	365.87
484.391	350.05
484.762	360.89
485.133	359.54
485.503	367.9
485.874	376.71
486.244	355.7
486.615	366.77
486.985	365.19
487.356	361.57
487.726	361.12
488.097	363.61
488.467	376.71
488.837	376.26
489.207	378.52
489.578	370.39
489.948	364.51
490.318	383.94
490.688	390.27
491.058	367
491.428	370.39
491.798	370.39
492.168	391.85
492.538	391.18
492.908	376.49
493.278	378.97
493.648	377.39
494.017	377.17
494.387	383.72
494.757	379.2
495.126	366.54
495.496	386.2
495.866	369.71
496.235	379.65
496.605	386.88
496.974	388.69
497.344	397.05
497.713	377.17
498.082	398.86
498.452	375.81
498.821	386.2
499.19	391.85
499.559	387.11
499.928	399.31
500.298	405.64
500.667	405.19
501.036	395.02
501.405	393.66
501.774	410.38
502.143	412.19
502.512	425.75
502.88	411.51
503.249	391.85
503.618	426.66
503.987	402.02
504.356	410.16
504.724	389.59
505.093	399.31
505.462	421.23
505.83	407.67
506.199	420.33
506.567	417.39
506.936	425.98
507.304	413.55
507.672	437.73
508.041	431.85
508.409	437.95
508.777	416.49
509.145	415.81
509.514	433.43
509.882	410.84
510.25	413.32
510.618	428.24
510.986	425.3
511.354	438.63
511.722	415.58
512.09	442.25
512.458	423.04
512.826	428.69
513.193	442.7
513.561	444.73
513.929	464.39
514.297	423.94
514.664	446.99
515.032	442.93
515.4	434.11
515.767	447.67
516.135	444.96
516.502	462.13
516.869	453.55
517.237	461
517.604	455.81
517.972	451.06
518.339	485.41
518.706	461
519.073	468.01
519.44	458.52
519.808	449.03
520.175	470.5
520.542	451.51
520.909	462.59
521.276	465.3
521.643	455.36
522.009	481.12
522.376	454.68
522.743	479.31
523.11	497.16
523.477	488.12
523.843	487.22
524.21	482.25
524.577	460.78
524.943	488.35
525.31	466.88
525.676	487.9
526.043	485.86
526.409	465.3
526.776	480.44
527.142	482.7
527.508	495.35
527.874	497.61
528.241	485.86
528.607	488.57
528.973	476.15
529.339	483.15
529.705	486.31
530.071	487.9
530.437	508.46
530.803	505.52
531.169	503.94
531.535	515.47
531.901	487.22
532.267	485.64
532.632	508.91
532.998	487.22
533.364	508.24
533.73	507.33
534.095	509.82
534.461	494.9
534.826	490.83
535.192	500.55
535.557	519.76
535.923	496.48
536.288	495.58
536.653	508.69
537.019	503.94
537.384	507.78
537.749	529.03
538.114	515.01
538.479	516.82
538.845	512.98
539.21	531.06
539.575	497.61
539.94	510.72
540.305	521.57
540.67	495.81
541.034	526.31
541.399	525.86
541.764	516.6
542.129	504.17
542.494	498.97
542.858	521.12
543.223	517.05
543.587	515.92
543.952	502.13
544.316	513.21
544.681	508.91
545.045	512.08
545.41	491.51
545.774	515.01
546.138	526.09
546.503	528.12
546.867	531.51
547.231	536.48
547.595	526.09
547.959	534
548.324	536.26
548.688	535.35
549.052	527.9
549.416	525.64
549.779	534.45
550.143	535.81
550.507	520.21
550.871	533.55
551.235	530.16
551.599	515.69
551.962	521.34
552.326	517.05
552.689	516.14
553.053	559.31
553.417	575.58
553.78	536.48
554.143	544.84
554.507	530.38
554.87	550.95
555.234	545.75
555.597	541.45
555.96	562.7
556.323	554.56
556.686	535.58
557.05	559.08
557.413	536.94
557.776	557.5
558.139	546.43
558.502	538.97
558.865	538.97
559.228	559.53
559.59	575.13
559.953	537.16
560.316	560.21
560.679	565.63
561.041	558.4
561.404	560.89
561.767	532.19
562.129	539.42
562.492	549.36
562.854	552.98
563.217	555.24
563.579	558.18
563.941	553.88
564.304	569.02
564.666	575.13
565.028	581.45
565.39	572.87
565.753	560.44
566.115	568.8
566.477	592.07
566.839	554.34
567.201	562.47
567.563	571.96
567.925	569.25
568.287	582.13
568.648	578.29
569.01	573.32
569.372	561.79
569.734	582.81
570.095	576.93
570.457	576.71
570.819	562.47
571.18	585.52
571.542	577.61
571.903	585.97
572.265	586.2
572.626	589.36
572.987	593.2
573.349	576.26
573.71	577.61
574.071	577.84
574.432	582.13
574.794	591.62
575.155	604.05
575.516	588.46
575.877	594.56
576.238	592.98
576.599	599.98
576.96	589.14
577.32	577.84
577.681	590.94
578.042	561.57
578.403	579.19
578.763	585.52
579.124	587.78
579.485	598.63
579.845	597.72
580.206	592.07
580.566	576.03
580.927	603.6
581.287	590.49
581.648	580.55
582.008	604.05
582.368	579.65
582.728	588.69
583.089	581
583.449	585.07
583.809	576.26
584.169	585.75
584.529	588.46
584.889	608.57
585.249	593.43
585.609	572.41
585.969	583.26
586.329	576.93
586.688	598.18
587.048	596.82
587.408	602.7
587.768	573.32
588.127	587.1
588.487	596.82
588.846	586.43
589.206	592.07
589.565	577.84
589.925	582.36
590.284	576.93
590.643	593.66
591.003	588.23
591.362	598.18
591.721	580.78
592.08	554.11
592.44	592.07
592.799	583.94
593.158	586.43
593.517	596.59
593.876	568.8
594.235	588.01
594.593	575.58
594.952	566.09
595.311	584.17
595.67	578.29
596.029	605.18
596.387	601.34
596.746	597.72
597.104	604.96
597.463	573.32
597.822	584.62
598.18	565.86
598.538	561.12
598.897	566.09
599.255	570.61
599.613	562.25
599.972	589.81
600.33	570.38
600.688	571.51
601.046	582.58
601.404	566.99
601.762	572.64
602.12	567.22
602.478	564.05
602.836	580.1
603.194	573.54
603.552	564.28
603.91	569.93
604.268	563.83
604.625	562.47
604.983	575.8
605.341	564.28
605.698	581
606.056	568.57
606.413	553.88
606.771	568.8
607.128	559.08
607.485	551.4
607.843	554.56
608.2	546.43
608.557	548.69
608.914	571.06
609.272	573.09
609.629	567.22
609.986	551.17
610.343	562.25
610.7	544.17
611.057	544.84
611.414	572.19
611.771	550.04
612.127	523.83
612.484	556.14
612.841	557.95
613.198	557.05
613.554	558.4
613.911	561.12
614.267	548.46
614.624	558.4
614.98	545.75
615.337	544.62
615.693	547.33
616.05	555.69
616.406	548.91
616.762	576.71
617.118	553.43
617.475	549.82
617.831	530.38
618.187	534.9
618.543	549.82
618.899	561.57
619.255	537.16
619.611	536.26
619.967	535.13
620.323	540.55
620.678	518.86
621.034	522.92
621.39	535.35
621.746	514.11
622.101	527.22
622.457	521.34
622.812	500.55
623.168	523.38
623.523	517.5
623.879	529.03
624.234	508.01
624.589	517.73
624.945	532.64
625.3	502.36
625.655	500.33
626.01	519.53
626.365	525.86
626.72	510.5
627.075	499.2
627.43	504.17
627.785	514.34
628.14	512.08
628.495	492.19
628.85	489.7
629.205	504.85
629.559	492.64
629.914	504.85
630.269	518.18
630.623	506.43
630.978	491.29
631.332	508.01
631.687	494.68
632.041	490.61
632.396	517.05
632.75	493.77
633.104	494.9
633.459	499.87
633.813	487.44
634.167	496.94
634.521	492.64
634.875	474.34
635.229	504.62
635.583	477.73
635.937	493.55
636.291	478.18
636.645	484.51
636.999	482.47
637.352	474.79
637.706	477.73
638.06	501.68
638.413	479.99
638.767	486.09
639.121	471.85
639.474	452.19
639.828	464.62
640.181	475.24
640.534	451.29
640.888	458.29
641.241	471.63
641.594	444.96
641.947	460.1
642.301	466.2
642.654	463.94
643.007	448.58
643.36	466.65
643.713	457.84
644.066	460.1
644.419	463.94
644.771	446.99
645.124	480.89
645.477	438.18
645.83	427.56
646.182	466.43
646.535	437.05
646.888	458.07
647.24	447.45
647.593	427.11
647.945	436.15
648.298	426.43
648.65	438.63
649.002	428.69
649.355	445.86
649.707	448.58
650.059	439.54
650.411	417.84
650.763	421.68
651.115	441.8
651.467	428.46
651.819	430.72
652.171	444.06
652.523	428.69
652.875	427.79
653.227	414.68
653.578	419.2
653.93	425.07
654.282	434.79
654.633	418.52
654.985	428.24
655.337	406.54
655.688	438.86
656.039	433.43
656.391	427.56
656.742	421.68
657.094	409.71
657.445	412.87
657.796	406.09
658.147	426.43
658.498	409.03
658.849	414.23
659.2	393.21
659.551	423.27
659.902	408.35
660.253	413.1
660.604	416.71
660.955	397.5
661.306	403.83
661.656	388.01
662.007	412.19
662.358	410.38
662.708	393.44
663.059	402.25
663.409	404.74
663.76	395.47
664.11	392.31
664.461	393.44
664.811	421.68
665.161	395.92
665.511	416.71
665.862	403.38
666.212	391.4
666.562	398.41
666.912	402.7
667.262	420.78
667.612	412.42
667.962	399.76
668.312	400.89
668.662	394.34
669.011	394.11
669.361	382.81
669.711	382.81
670.06	400.89
670.41	384.85
670.76	390.27
671.109	380.55
671.459	402.25
671.808	387.56
672.157	384.85
672.507	379.88
672.856	397.5
673.205	399.99
673.554	407.67
673.904	378.97
674.253	395.92
674.602	397.28
674.951	387.56
675.3	384.4
675.649	373.32
675.998	393.44
676.346	383.49
676.695	392.76
677.044	369.48
677.393	369.71
677.741	383.04
678.09	375.13
678.438	371.52
678.787	367.67
679.135	380.55
679.484	358.18
679.832	372.42
680.181	362.02
680.529	373.55
680.877	361.12
681.225	362.48
681.573	366.77
681.922	390.72
682.27	384.4
682.618	383.04
682.966	372.42
683.314	373.1
683.661	372.19
684.009	370.39
684.357	373.1
684.705	373.1
685.053	378.75
685.4	364.74
685.748	369.71
686.095	358.63
686.443	376.71
686.79	389.82
687.138	354.34
687.485	378.75
687.832	360.89
688.18	383.04
688.527	384.85
688.874	368.13
689.221	378.52
689.568	374.68
689.915	353.44
690.262	373.1
690.609	369.71
690.956	375.81
691.303	354.11
691.65	367
691.997	370.84
692.344	353.21
692.69	384.17
693.037	363.38
693.383	377.39
693.73	366.09
694.077	357.5
694.423	361.12
694.769	371.97
695.116	379.2
695.462	361.35
695.808	329.03
696.155	329.03
696.501	352.76
696.847	359.99
697.193	343.04
697.539	363.83
697.885	367.22
698.231	366.32
698.577	364.28
698.923	352.76
699.269	353.66
699.614	343.27
699.96	347.79
700.306	359.54
700.651	342.14
700.997	358.86
701.342	343.27
701.688	350.5
702.033	374
702.379	367.67
702.724	347.34
703.069	347.11
703.415	340.1
703.76	349.6
704.105	350.5
704.45	342.59
704.795	367.67
705.14	349.37
705.485	339.65
705.83	350.73
706.175	323.38
706.52	353.66
706.865	351.86
707.209	341.23
707.554	363.15
707.899	353.66
708.243	352.99
708.588	333.1
708.932	339.2
709.277	355.7
709.621	348.92
709.966	342.36
710.31	333.32
710.654	344.85
710.998	350.95
711.342	337.84
711.687	324.96
712.031	367
712.375	355.92
712.719	338.07
713.063	344.85
713.407	320.44
713.75	342.59
714.094	342.36
714.438	341.69
714.782	338.07
715.125	342.36
715.469	355.47
715.812	344.17
716.156	330.84
716.499	326.55
716.843	339.65
717.186	318.86
717.53	342.82
717.873	342.59
718.216	340.1
718.559	347.79
718.902	345.08
719.246	344.17
719.589	311.86
719.932	322.48
720.275	336.94
720.617	335.58
720.96	339.88
721.303	338.3
721.646	355.24
721.989	319.77
722.331	347.34
722.674	349.14
723.016	338.52
723.359	327.67
723.701	333.1
724.044	332.87
724.386	332.42
724.729	336.26
725.071	329.26
725.413	355.7
725.755	356.83
726.097	327
726.439	325.87
726.782	332.87
727.124	347.56
727.465	312.53
727.807	328.35
728.149	351.18
728.491	351.63
728.833	351.4
729.175	331.29
729.516	332.65
729.858	340.1
730.199	351.63
730.541	336.71
730.882	335.81
731.224	334.91
731.565	351.63
731.906	347.11
732.248	346.88
732.589	325.19
732.93	328.58
733.271	338.97
733.612	349.14
733.953	340.1
734.294	335.13
734.635	329.93
734.976	340.78
735.317	321.12
735.658	343.72
735.999	346.21
736.339	313.89
736.68	317.05
737.021	335.58
737.361	333.78
737.702	324.74
738.042	328.8
738.383	313.21
738.723	354.57
739.063	346.43
739.404	328.35
739.744	354.34
740.084	328.58
740.424	334.68
740.764	334.45
741.104	328.35
741.444	335.81
741.784	324.06
742.124	341.23
742.464	317.28
742.804	346.88
743.143	352.53
743.483	331.97
743.823	330.16
744.162	318.86
744.502	327.67
744.841	331.52
745.181	322.03
745.52	338.3
745.86	361.12
746.199	345.08
746.538	331.06
746.877	348.01
747.216	324.06
747.556	330.84
747.895	310.73
748.234	325.19
748.573	334.45
748.911	340.78
749.25	302.59
749.589	341.23
749.928	338.3
750.267	327.22
750.605	318.86
750.944	324.06
751.283	336.04
751.621	330.84
751.96	343.49
752.298	319.77
752.636	319.31
752.975	343.04
753.313	314.57
753.651	333.32
753.989	349.14
754.327	330.61
754.666	332.65
755.004	307.79
755.342	349.37
755.679	326.77
756.017	341.01
756.355	329.03
756.693	316.15
757.031	334.68
757.368	324.06
757.706	324.51
758.044	323.16
758.381	335.81
758.719	334.91
759.056	319.99
759.394	342.36
759.731	319.77
760.068	316.38
760.405	337.39
760.743	314.12
761.08	343.27
761.417	324.51
761.754	316.38
762.091	328.58
762.428	335.36
762.765	359.31
763.102	316.6
763.438	311.86
763.775	312.08
764.112	338.07
764.449	343.27
764.785	342.82
765.122	345.3
765.458	332.65
765.795	319.77
766.131	335.13
766.467	327.9
766.804	328.13
767.14	328.13
767.476	336.49
767.812	344.62
768.148	298.75
768.485	327.67
768.821	315.92
769.157	326.55
769.492	329.03
769.828	326.09
770.164	337.39
770.5	343.95
770.836	336.04
771.171	320.9
771.507	347.11
771.842	324.51
772.178	335.13
772.513	308.01
772.849	347.11
773.184	326.09
773.519	318.18
773.855	326.77
774.19	357.96
774.525	318.64
774.86	355.47
775.195	335.36
775.53	317.51
775.865	309.14
776.2	347.56
776.535	323.61
776.87	342.36
777.205	340.33
777.539	342.36
777.874	342.36
778.209	325.19
778.543	333.1
778.878	350.95
779.212	338.52
779.547	324.96
779.881	325.87
780.215	320.67
780.55	314.79
780.884	331.29
781.218	334.23
781.552	302.82
781.886	323.38
782.22	336.71
782.554	322.93
782.888	333.55
783.222	326.32
783.556	317.96
783.889	338.97
784.223	319.99
784.557	320.67
784.89	325.87
785.224	305.3
785.557	308.24
785.891	319.54
786.224	329.71
786.558	320.9
786.891	311.63
787.224	330.84
787.557	341.23
787.891	326.77
788.224	299.43
788.557	326.09
788.89	331.74
789.223	325.87
789.556	305.08
789.888	332.65
790.221	308.69
790.554	329.71
790.887	336.49
791.219	328.35
791.552	314.34
791.884	314.34
792.217	331.97
792.549	335.81
792.882	347.11
793.214	336.94
793.546	303.04
793.879	332.42
794.211	316.83
794.543	331.74
794.875	325.19
795.207	309.6
795.539	330.84
795.871	320.9
796.203	317.51
796.535	324.51
796.867	321.8
797.198	311.18
797.53	327.45
797.862	310.5
798.193	318.64
798.525	334
798.856	320.22
799.188	313.89
799.519	311.63
799.85	327.22
800.182	338.07
800.513	338.75
800.844	314.12
801.175	315.02
801.506	335.36
801.837	326.77
802.168	327.9
802.499	335.58
802.83	336.04
803.161	324.96
803.491	315.92
803.822	341.46
804.153	332.42
804.483	333.78
804.814	312.76
805.145	294.46
805.475	338.07
805.805	299.2
806.136	320.44
806.466	329.03
806.796	317.73
807.126	330.84
807.457	301.01
807.787	340.1
808.117	308.92
808.447	312.53
808.777	321.35
809.107	307.11
809.436	324.06
809.766	321.35
810.096	336.26
810.426	343.49
810.755	321.35
811.085	311.63
811.414	329.03
811.744	319.09
812.073	327.22
812.403	311.18
812.732	320.44
813.061	322.93
813.39	345.75
813.719	340.56
814.049	336.49
814.378	327
814.707	312.53
815.036	334
815.365	319.99
815.693	330.39
816.022	347.56
816.351	326.09
816.68	326.32
817.008	329.26
817.337	322.25
817.665	330.61
817.994	350.95
818.322	314.57
818.651	327
818.979	330.16
819.307	329.03
819.636	314.57
819.964	320.67
820.292	328.58
820.62	331.29
820.948	335.36
821.276	327
821.604	317.28
821.932	332.87
822.259	304.17
822.587	327.22
822.915	320.9
823.243	319.77
823.57	334.91
823.898	320.22
824.225	313.21
824.553	317.73
824.88	320.9
825.207	311.63
825.535	335.13
825.862	323.38
826.189	307.56
826.516	303.95
826.843	324.96
827.17	324.29
827.497	317.05
827.824	336.49
828.151	324.51
828.478	323.61
828.805	282.7
829.131	336.26
829.458	335.81
829.785	313.89
830.111	319.99
830.438	324.96
830.764	331.06
831.09	334.45
831.417	323.16
831.743	322.93
832.069	344.85
832.395	324.06
832.722	325.42
833.048	330.39
833.374	335.58
833.7	312.99
834.026	322.7
834.351	331.06
834.677	322.93
835.003	310.5
835.329	344.85
835.654	320.44
835.98	314.34
836.306	306.21
836.631	322.93
836.956	307.11
837.282	322.48
837.607	326.55
837.932	331.52
838.258	323.38
838.583	317.96
838.908	322.03
839.233	332.87
839.558	315.7
839.883	319.09
840.208	328.8
840.533	315.92
840.858	327.22
841.182	330.16
841.507	321.12
841.832	324.29
842.156	331.52
842.481	305.98
842.805	326.32
843.13	332.19
843.454	329.03
843.778	332.65
844.103	317.05
844.427	331.06
844.751	336.04
845.075	331.52
845.399	330.16
845.723	317.96
846.047	322.03
846.371	298.52
846.695	308.92
847.019	302.82
847.343	321.57
847.666	336.26
847.99	317.51
848.313	318.86
848.637	331.29
848.96	315.92
849.284	313.89
849.607	327.22
849.931	323.16
850.254	316.38
850.577	313.44
850.9	315.7
851.223	310.95
851.546	320.44
851.869	338.07
852.192	313.44
852.515	333.32
852.838	317.05
853.161	315.25
853.483	309.82
853.806	325.64
854.129	323.16
854.451	341.91
854.774	320.9
855.096	337.17
855.419	318.41
855.741	328.8
856.063	319.99
856.385	312.99
856.708	325.64
857.03	334.23
857.352	322.25
857.674	338.07
857.996	311.86
858.318	328.35
858.64	326.77
858.961	319.99
859.283	317.73
859.605	303.72
859.926	325.87
860.248	330.16
860.57	320.67
860.891	331.06
861.212	327.68
861.534	307.56
861.855	307.79
862.176	331.52
862.498	323.83
862.819	334
863.14	322.48
863.461	321.12
863.782	318.41
864.103	297.39
864.424	325.87
864.745	334.45
865.065	302.36
865.386	314.12
865.707	322.48
866.027	309.82
866.348	306.43
866.668	316.6
866.989	343.27
867.309	320.9
867.63	321.8
867.95	315.47
868.27	317.73
868.59	331.06
868.91	326.77
869.23	320.9
869.55	315.25
869.87	303.95
870.19	321.12
870.51	295.36
870.83	321.8
871.15	332.65
871.469	346.66
871.789	317.28
872.109	307.11
872.428	331.06
872.748	329.48
873.067	315.92
873.386	308.47
873.706	309.37
874.025	333.78
874.344	301.69
874.663	321.8
874.982	315.47
875.301	315.25
875.62	312.76
875.939	318.41
876.258	307.11
876.577	332.42
876.896	312.76
877.214	300.56
877.533	327.45
877.852	318.18
878.17	327.67
878.489	341.69
878.807	313.89
879.125	315.47
879.444	324.06
879.762	340.1
880.08	319.99
880.398	317.96
880.716	318.64
881.034	305.98
881.352	339.65
881.67	327.67
881.988	323.61
882.306	317.05
882.624	312.53
882.941	293.78
883.259	306.66
883.577	343.04
883.894	324.51
884.212	314.12
884.529	312.99
884.846	308.47
885.164	347.79
885.481	314.57
885.798	334.45
886.115	329.71
886.432	324.74
886.75	314.34
887.067	325.19
887.383	325.87
887.7	300.56
888.017	318.86
888.334	314.34
888.651	317.96
888.967	319.77
889.284	328.8
889.6	323.16
889.917	327
890.233	312.99
890.55	304.17
890.866	312.99
891.182	318.64
891.498	313.21
891.815	305.98
892.131	313.66
892.447	312.31
892.763	327.22
893.079	309.37
893.395	315.02
893.71	326.77
894.026	321.57
894.342	309.6
894.657	316.83
894.973	322.48
895.289	304.62
895.604	345.3
895.92	328.8
896.235	298.52
896.55	295.59
896.865	334.23
897.181	329.71
897.496	318.41
897.811	314.79
898.126	300.11
898.441	337.39
898.756	332.65
899.071	296.72
899.386	318.86
899.7	315.7
900.015	334
900.33	315.7
900.644	315.7
900.959	308.47
901.273	317.51
901.588	332.87
901.902	328.35
902.216	321.12
902.531	296.26
902.845	321.57
903.159	299.65
903.473	330.16
903.787	322.48
904.101	333.32
904.415	341.69
904.729	312.99
905.042	343.04
905.356	312.08
905.67	331.29
905.984	296.94
906.297	337.39
906.611	320.9
906.924	329.93
907.237	319.77
907.551	316.15
907.864	306.43
908.177	306.21
908.491	333.32
908.804	320.22
909.117	331.97
909.43	324.29
909.743	324.29
910.056	317.73
910.368	318.86
910.681	327
910.994	317.28
911.307	319.99
911.619	279.54
911.932	324.96
912.244	319.09
912.557	314.12
912.869	312.53
913.181	321.12
913.494	330.61
913.806	303.49
914.118	327.45
914.43	315.47
914.742	335.58
915.054	326.09
915.366	316.6
915.678	340.78
915.99	323.83
916.302	326.55
916.613	319.31
916.925	316.38
917.236	312.99
917.548	327.45
917.859	306.21
918.171	299.2
918.482	324.29
918.794	298.52
919.105	317.51
919.416	347.11
919.727	308.24
920.038	308.24
920.349	330.39
920.66	332.42
920.971	321.12
921.282	316.38
921.593	323.83
921.903	291.74
922.214	315.02
922.525	307.79
922.835	303.49
923.146	300.33
923.456	318.18
923.767	325.87
924.077	315.25
924.387	308.92
924.697	310.95
925.008	323.61
925.318	317.05
925.628	326.55
925.938	342.59
926.248	318.64
926.558	316.83
926.867	315.92
927.177	318.41
927.487	315.47
927.796	331.74
928.106	303.95
928.416	318.86
928.725	315.7
929.034	325.64
929.344	336.71
929.653	330.16
929.962	317.73
930.271	313.44
930.581	319.99
930.89	310.27
931.199	310.5
931.508	345.53
931.817	325.87
932.125	320.67
932.434	310.05
932.743	300.33
933.051	316.38
933.36	328.13
933.669	305.3
933.977	319.09
934.286	327.9
934.594	290.39
934.902	318.86
935.21	315.92
935.519	322.25
935.827	326.09
936.135	334
936.443	327.45
936.751	313.21
937.059	324.96
937.367	319.54
937.674	325.42
937.982	300.11
938.29	305.53
938.597	302.36
938.905	315.02
939.213	316.38
939.52	314.12
939.827	315.47
940.135	313.89
940.442	337.39
940.749	322.03
941.056	332.65
941.363	329.71
941.67	307.79
941.977	297.85
942.284	297.39
942.591	309.82
942.898	336.04
943.205	319.09
943.511	309.14
943.818	303.04
944.125	307.34
944.431	319.77
944.738	331.97
945.044	311.63
945.35	319.77
945.657	314.34
945.963	313.89
946.269	341.46
946.575	333.78
946.881	309.14
947.187	322.25
947.493	309.14
947.799	310.5
948.105	312.08
948.41	305.53
948.716	307.11
949.022	319.09
949.327	322.25
949.633	329.93
949.938	323.83
950.244	327.22
950.549	318.41
950.854	318.41
951.16	330.39
951.465	323.38
951.77	332.65
952.075	304.85
952.38	309.82
952.685	310.27
952.99	322.93
953.294	329.26
953.599	334.91
953.904	306.43
954.209	320.44
954.513	322.93
954.818	313.66
955.122	320.22
955.426	312.76
955.731	321.8
956.035	310.27
956.339	301.01
956.643	318.64
956.948	300.78
957.252	301.91
957.556	324.29
957.86	318.41
958.163	297.62
958.467	293.33
958.771	315.02
959.075	325.19
959.378	316.38
959.682	314.79
959.985	317.51
960.289	311.4
960.592	327.22
960.896	325.87
961.199	319.99
961.502	312.08
961.805	303.72
962.108	331.74
962.411	311.63
962.714	318.41
963.017	331.06
963.32	312.53
963.623	331.06
963.926	327
964.228	323.16
964.531	307.56
964.833	330.84
965.136	329.48
965.438	335.36
965.741	306.21
966.043	314.79
966.345	328.13
966.648	326.55
966.95	303.95
967.252	334.91
967.554	322.25
967.856	327.45
968.158	291.52
968.46	316.15
968.761	305.3
969.063	321.12
969.365	312.31
969.666	325.87
969.968	317.05
970.269	304.4
970.571	315.7
970.872	310.95
971.174	304.85
971.475	301.01
971.776	317.51
972.077	306.43
972.378	307.34
972.679	301.91
972.98	321.12
973.281	328.8
973.582	306.21
973.883	297.62
974.183	310.95
974.484	306.21
974.785	309.37
975.085	313.21
975.386	317.96
975.686	318.64
975.986	306.88
976.287	312.76
976.587	310.27
976.887	326.32
977.187	318.18
977.487	316.83
977.787	313.44
978.087	307.79
978.387	296.94
978.687	322.7
978.987	317.51
979.286	298.3
979.586	310.05
979.885	315.47
980.185	307.34
980.484	314.79
980.784	303.72
981.083	319.31
981.382	314.79
981.682	341.01
981.981	326.55
982.28	320.9
982.579	328.8
982.878	319.99
983.177	301.46
983.475	319.77
983.774	330.16
984.073	331.74
984.372	319.54
984.67	317.96
984.969	298.07
985.267	316.38
985.566	301.46
985.864	298.07
986.162	315.7
986.461	315.02
986.759	317.05
987.057	304.17
987.355	322.48
987.653	313.21
987.951	313.44
988.249	322.25
988.547	317.96
988.844	306.43
989.142	312.53
989.44	323.16
989.737	309.82
990.035	319.77
990.332	291.97
990.63	316.6
990.927	337.62
991.224	323.38
991.521	301.91
991.819	311.63
992.116	310.05
992.413	337.84
992.71	323.16
993.006	335.13
993.303	316.15
993.6	343.95
993.897	315.92
994.193	320.9
994.49	301.91
994.787	323.61
995.083	314.57
995.379	316.83
995.676	321.8
995.972	336.71
996.268	314.57
996.565	331.52
996.861	332.87
997.157	316.15
997.453	337.62
997.749	300.11
998.044	337.17
998.34	305.53
998.636	319.54
998.932	310.5
999.227	310.05
999.523	302.36
999.818	318.86
1000.114	311.63
1000.409	295.59
1000.704	310.05
1001	311.18
1001.295	329.71
1001.59	319.77
1001.885	317.96
1002.18	321.57
1002.475	317.51
1002.77	317.96
1003.065	330.39
1003.359	321.8
1003.654	308.24
1003.949	313.21
1004.243	315.92
1004.538	311.4
1004.832	311.63
1005.127	317.51
1005.421	311.63
1005.715	318.41
1006.009	304.4
1006.304	304.62
1006.598	320.44
1006.892	291.29
1007.186	324.96
1007.48	318.86
1007.773	332.65
1008.067	304.17
1008.361	312.08
1008.655	292.2
1008.948	319.31
1009.242	330.61
1009.535	328.58
1009.829	311.4
1010.122	319.99
1010.415	286.32
1010.708	303.95
1011.001	315.25
1011.295	325.42
1011.588	310.95
1011.881	319.54
1012.173	310.73
1012.466	315.7
1012.759	318.18
1013.052	322.7
1013.344	306.66
1013.637	327
1013.93	319.09
1014.222	319.09
1014.514	307.56
1014.807	315.25
1015.099	329.03
1015.391	328.13
1015.683	317.96
1015.976	333.1
1016.268	328.13
1016.56	324.51
1016.851	306.88
1017.143	299.65
1017.435	340.33
1017.727	324.96
1018.018	321.8
1018.31	312.31
1018.602	316.38
1018.893	330.84
1019.185	330.16
1019.476	288.35
1019.767	316.15
1020.058	334.45
1020.35	308.92
1020.641	310.05
1020.932	322.48
1021.223	322.25
1021.514	322.03
1021.804	322.25
1022.095	298.52
1022.386	322.93
1022.677	314.34
1022.967	301.91
1023.258	309.82
1023.548	313.89
1023.839	319.31
1024.129	319.31
1024.419	313.89
1024.709	291.29
1025	328.35
1025.29	317.05
1025.58	323.16
1025.87	319.77
1026.16	301.01
1026.449	329.03
1026.739	308.69
1027.029	331.74
1027.319	322.25
1027.608	328.13
1027.898	328.13
1028.187	297.39
1028.477	301.91
1028.766	322.93
1029.055	302.82
1029.344	309.6
1029.634	347.34
1029.923	312.53
1030.212	304.17
1030.501	335.58
1030.79	314.34
1031.078	304.4
1031.367	302.14
1031.656	308.01
1031.945	318.18
1032.233	322.48
1032.522	329.03
1032.81	318.41
1033.099	329.93
1033.387	312.08
1033.675	285.42
1033.963	317.05
1034.251	327.45
1034.54	312.53
1034.828	322.93
1035.116	307.79
1035.403	323.38
1035.691	319.31
1035.979	326.09
1036.267	284.29
1036.554	320.22
1036.842	318.41
1037.129	326.09
1037.417	318.18
1037.704	302.59
1037.992	299.88
1038.279	318.18
1038.566	315.7
1038.853	315.7
1039.14	315.7
