Data from No_light_on_white_reflection_standard_FLMS001491_098.txt Node
Date: Tue Feb 07 10:33:11 GMT 2017
User: dcchb
Spectrometer: FLMS00149
Trigger mode: 0
Integration Time (sec): 2.000000E-2
Scans to average: 10
Electric dark correction enabled: true
Nonlinearity correction enabled: false
Boxcar width: 0
XAxis mode: Wavelengths
Number of Pixels in Spectrum: 2048
>>>>>Begin Spectral Data<<<<<
341.393	-17.16
341.776	-17.16
342.16	-17.16
342.543	-54.67
342.927	-67.33
343.31	-63.26
343.693	-58.29
344.077	-74.79
344.46	-69.81
344.843	-61.23
345.226	-42.24
345.61	-23.04
345.993	-22.13
346.376	0.01
346.759	-4.96
347.142	47.92
347.525	44.98
347.908	56.28
348.291	82.27
348.674	97.64
349.057	90.63
349.44	104.64
349.823	151.42
350.206	124.53
350.588	160.01
350.971	176.73
351.354	187.13
351.737	192.55
352.119	218.31
352.502	214.02
352.884	241.59
353.267	235.71
353.65	259.89
354.032	267.8
354.414	257.41
354.797	270.06
355.179	280.68
355.562	282.49
355.944	308.03
356.326	294.47
356.709	310.51
357.091	299.89
357.473	285.2
357.855	313.9
358.238	301.02
358.62	311.87
359.002	318.42
359.384	310.06
359.766	302.61
360.148	301.48
360.53	317.75
360.912	289.95
361.294	310.29
361.676	272.32
362.057	295.83
362.439	287.01
362.821	291.98
363.203	287.69
363.584	305.77
363.966	269.16
364.348	282.94
364.729	284.53
365.111	263.06
365.493	266.22
365.874	276.84
366.256	295.83
366.637	286.79
367.019	261.25
367.4	268.03
367.781	287.92
368.163	278.65
368.544	275.49
368.925	288.37
369.306	298.31
369.688	257.86
370.069	266.9
370.45	293.34
370.831	284.53
371.212	266.45
371.593	266.22
371.974	256.96
372.355	277.29
372.736	289.95
373.117	258.09
373.498	284.98
373.879	299.67
374.26	247.24
374.641	289.5
375.021	246.11
375.402	280.46
375.783	278.2
376.163	270.97
376.544	278.65
376.925	261.48
377.305	288.37
377.686	281.36
378.066	292.89
378.447	280.91
378.827	291.08
379.208	259.89
379.588	255.83
379.968	262.61
380.349	280.23
380.729	296.96
381.109	275.94
381.489	270.06
381.87	264.41
382.25	277.29
382.63	296.96
383.01	277.07
383.39	292.66
383.77	288.59
384.15	268.03
384.53	272.1
384.91	279.78
385.29	269.39
385.67	288.14
386.049	294.24
386.429	275.49
386.809	285.43
387.189	289.05
387.568	285.66
387.948	294.47
388.328	282.49
388.707	279.78
389.087	292.89
389.466	280.91
389.846	289.5
390.225	296.5
390.605	297.41
390.984	281.36
391.363	286.56
391.743	290.18
392.122	286.33
392.501	288.82
392.881	279.55
393.26	292.66
393.639	295.6
394.018	300.35
394.397	280.23
394.776	296.28
395.155	265.32
395.534	287.24
395.913	278.2
396.292	298.76
396.671	273.23
397.05	295.6
397.429	290.4
397.808	299.44
398.186	289.05
398.565	297.41
398.944	296.73
399.323	279.33
399.701	298.31
400.08	287.46
400.458	286.56
400.837	288.37
401.215	281.36
401.594	289.27
401.972	276.17
402.351	293.79
402.729	286.33
403.107	320.68
403.486	295.37
403.864	306.67
404.242	293.79
404.62	292.89
404.999	306.9
405.377	304.41
405.755	297.18
406.133	303.28
406.511	302.15
406.889	282.72
407.267	295.15
407.645	316.62
408.023	301.48
408.401	309.84
408.779	302.83
409.156	302.38
409.534	288.59
409.912	295.15
410.29	288.37
410.667	298.54
411.045	288.14
411.422	303.51
411.8	307.12
412.178	307.35
412.555	310.74
412.933	305.32
413.31	301.7
413.687	286.33
414.065	306.67
414.442	292.89
414.819	282.49
415.197	298.76
415.574	299.22
415.951	303.73
416.328	297.18
416.705	298.99
417.082	299.89
417.46	301.02
417.837	295.6
418.214	315.49
418.591	304.19
418.967	300.12
419.344	298.54
419.721	295.37
420.098	295.6
420.475	311.64
420.852	298.31
421.228	312.32
421.605	310.74
421.982	308.25
422.358	319.55
422.735	312.55
423.111	290.85
423.488	294.02
423.864	287.46
424.241	303.73
424.617	317.52
424.994	308.03
425.37	319.78
425.746	301.25
426.123	308.93
426.499	301.7
426.875	287.46
427.251	289.72
427.627	313.45
428.003	308.93
428.379	330.4
428.756	309.16
429.132	315.26
429.507	290.63
429.883	303.28
430.259	310.51
430.635	323.17
431.011	311.87
431.387	299.44
431.763	316.62
432.138	302.15
432.514	296.73
432.89	333.56
433.265	322.94
433.641	300.8
434.016	312.32
434.392	303.73
434.767	309.61
435.143	327.46
435.518	304.41
435.894	344.86
436.269	330.17
436.644	336.73
437.02	315.71
437.395	318.2
437.77	318.65
438.145	314.58
438.52	310.29
438.895	340.8
439.271	325.88
439.646	307.12
440.021	358.65
440.395	328.37
440.77	340.34
441.145	335.15
441.52	331.3
441.895	320.46
442.27	327.69
442.645	336.95
443.019	345.09
443.394	348.71
443.769	338.31
444.143	343.96
444.518	341.25
444.892	348.25
445.267	340.12
445.641	338.31
446.016	338.54
446.39	354.58
446.764	351.87
447.139	352.55
447.513	350.29
447.887	357.52
448.262	367.69
448.636	373.11
449.01	371.3
449.384	362.49
449.758	351.42
450.132	357.52
450.506	361.81
450.88	361.36
451.254	370.4
451.628	354.58
452.002	352.1
452.376	359.1
452.75	360
453.123	366.56
453.497	359.55
453.871	367.24
454.244	389.83
454.618	376.5
454.992	388.7
455.365	371.53
455.739	385.31
456.112	364.07
456.486	351.42
456.859	363.62
457.232	351.87
457.606	360
457.979	374.69
458.352	345.99
458.725	369.95
459.099	350.74
459.472	358.65
459.845	357.97
460.218	371.3
460.591	346.22
460.964	362.94
461.337	371.53
461.71	353
462.083	343.06
462.456	355.03
462.829	344.64
463.201	335.15
463.574	344.19
463.947	354.13
464.32	373.11
464.692	369.5
465.065	348.03
465.438	347.12
465.81	347.12
466.183	357.29
466.555	371.53
466.928	365.65
467.3	339.89
467.672	335.37
468.045	352.77
468.417	350.51
468.789	358.2
469.161	357.97
469.534	347.35
469.906	357.52
470.278	348.03
470.65	350.06
471.022	342.83
471.394	360
471.766	371.53
472.138	354.36
472.51	348.48
472.882	356.61
473.253	345.09
473.625	355.49
473.997	330.17
474.369	360.46
474.74	360.23
475.112	345.32
475.484	345.54
475.855	365.2
476.227	365.43
476.598	352.32
476.97	370.85
477.341	347.35
477.713	339.44
478.084	344.64
478.455	367.46
478.827	347.12
479.198	341.47
479.569	360.46
479.94	348.25
480.311	357.29
480.682	343.73
481.053	338.08
481.424	350.51
481.795	359.55
482.166	357.29
482.537	340.34
482.908	354.13
483.279	358.2
483.65	342.15
484.021	344.86
484.391	377.18
484.762	361.59
485.133	355.94
485.503	373.34
485.874	372.21
486.244	347.12
486.615	361.36
486.985	372.43
487.356	386.44
487.726	335.15
488.097	376.73
488.467	372.43
488.837	371.53
489.207	374.47
489.578	376.95
489.948	381.92
490.318	361.81
490.688	382.15
491.058	387.35
491.428	413.11
491.798	360.23
492.168	390.29
492.538	376.95
492.908	376.05
493.278	359.1
493.648	383.51
494.017	364.98
494.387	388.93
494.757	381.25
495.126	369.5
495.496	394.13
495.866	389.61
496.235	398.87
496.605	393.68
496.974	400.23
497.344	403.17
497.713	400
498.082	389.61
498.452	395.48
498.821	382.15
499.19	416.27
499.559	391.64
499.928	389.38
500.298	377.18
500.667	399.55
501.036	372.89
501.405	383.28
501.774	391.64
502.143	419.66
502.512	394.58
502.88	395.48
503.249	393.22
503.618	409.72
503.987	395.26
504.356	391.87
504.724	411.3
505.093	411.98
505.462	425.09
505.83	409.95
506.199	412.88
506.567	417.18
506.936	420.57
507.304	419.89
507.672	421.92
508.041	418.08
508.409	417.4
508.777	418.31
509.145	410.62
509.514	440.45
509.882	427.35
510.25	423.73
510.618	404.52
510.986	434.13
511.354	425.09
511.722	432.32
512.09	442.71
512.458	446.56
512.826	432.77
513.193	432.55
513.561	412.43
513.929	425.77
514.297	443.39
514.664	445.43
515.032	454.01
515.4	453.11
515.767	439.1
516.135	459.44
516.502	437.29
516.869	453.34
517.237	432.77
517.604	460.57
517.972	452.43
518.339	463.28
518.706	446.33
519.073	447.01
519.44	451.98
519.808	443.17
520.175	461.47
520.542	466.67
520.909	426.22
521.276	474.35
521.643	462.15
522.009	482.94
522.376	463.28
522.743	472.32
523.11	461.7
523.477	455.82
523.843	484.52
524.21	461.47
524.577	467.35
524.943	461.24
525.31	481.81
525.676	472.54
526.043	479.1
526.409	485.65
526.776	492.88
527.142	470.51
527.508	491.3
527.874	501.7
528.241	472.77
528.607	459.89
528.973	462.15
529.339	468.02
529.705	479.55
530.071	476.16
530.437	506.89
530.803	506.89
531.169	499.89
531.535	466.22
531.901	498.08
532.267	505.99
532.632	478.42
532.998	491.53
533.364	487.68
533.73	501.02
534.095	511.87
534.461	477.97
534.826	500.34
535.192	491.3
535.557	506.89
535.923	501.02
536.288	519.77
536.653	513.22
537.019	492.88
537.384	497.4
537.749	516.38
538.114	514.8
538.479	478.65
538.845	493.79
539.21	504.63
539.575	529.27
539.94	484.3
540.305	507.35
540.67	526.1
541.034	493.33
541.399	523.16
541.764	503.05
542.129	501.24
542.494	508.7
542.858	509.61
543.223	520.45
543.587	521.58
543.952	507.35
544.316	531.53
544.681	508.02
545.045	501.24
545.41	507.8
545.774	506.22
546.138	477.06
546.503	518.64
546.867	521.13
547.231	509.61
547.595	514.8
547.959	526.55
548.324	513.45
548.688	495.37
549.052	543.28
549.416	531.98
549.779	520.68
550.143	507.35
550.507	549.6
550.871	531.75
551.235	523.62
551.599	520
551.962	523.84
552.326	538.98
552.689	531.07
553.053	524.52
553.417	542.6
553.78	530.62
554.143	554.35
554.507	521.13
554.87	552.77
555.234	543.28
555.597	536.27
555.96	545.08
556.323	552.54
556.686	531.53
557.05	539.66
557.413	561.81
557.776	544.18
558.139	554.8
558.502	572.2
558.865	543.95
559.228	543.73
559.59	572.43
559.953	529.49
560.316	546.44
560.679	536.27
561.041	561.13
561.404	554.12
561.767	553.22
562.129	564.52
562.492	544.41
562.854	542.82
563.217	562.94
563.579	543.95
563.941	555.93
564.304	568.81
564.666	551.64
565.028	574.91
565.39	560.68
565.753	580.79
566.115	566.55
566.477	571.3
566.839	595.48
567.201	565.2
567.563	579.21
567.925	547.8
568.287	567.23
568.648	574.91
569.01	567.23
569.372	574.46
569.734	557.06
570.095	569.72
570.457	573.78
570.819	565.87
571.18	559.77
571.542	565.42
571.903	588.02
572.265	592.99
572.626	583.95
572.987	593.44
573.349	587.12
573.71	573.33
574.071	594.57
574.432	581.02
574.794	589.6
575.155	584.41
575.516	581.47
575.877	570.17
576.238	599.55
576.599	579.66
576.96	570.85
577.32	594.35
577.681	593.22
578.042	603.61
578.403	572.43
578.763	612.2
579.124	569.94
579.485	584.18
579.845	600.68
580.206	588.7
580.566	585.31
580.927	576.27
581.287	571.75
581.648	587.34
582.008	599.55
582.368	579.21
582.728	613.33
583.089	595.03
583.449	571.3
583.809	570.39
584.169	599.55
584.529	567.68
584.889	597.29
585.249	586.44
585.609	580.79
585.969	607.68
586.329	595.48
586.688	574.46
587.048	589.15
587.408	592.54
587.768	573.33
588.127	563.84
588.487	588.25
588.846	596.16
589.206	560.68
589.565	577.85
589.925	579.66
590.284	565.65
590.643	600
591.003	564.07
591.362	582.37
591.721	562.26
592.08	581.69
592.44	586.67
592.799	592.77
593.158	562.71
593.517	556.38
593.876	569.94
594.235	564.52
594.593	544.63
594.952	593.44
595.311	576.5
595.67	583.73
596.029	568.59
596.387	578.76
596.746	579.21
597.104	584.86
597.463	577.63
597.822	573.78
598.18	575.82
598.538	580.79
598.897	562.03
599.255	574.46
599.613	580.11
599.972	569.49
600.33	551.19
600.688	570.17
601.046	583.5
601.404	548.25
601.762	562.49
602.12	576.27
602.478	562.71
602.836	553.22
603.194	566.1
603.552	571.07
603.91	572.2
604.268	560.45
604.625	564.52
604.983	549.6
605.341	547.57
605.698	563.62
606.056	569.94
606.413	575.37
606.771	576.27
607.128	581.69
607.485	547.12
607.843	555.25
608.2	545.31
608.557	580.79
608.914	545.99
609.272	546.67
609.629	572.65
609.986	569.94
610.343	541.92
610.7	543.05
611.057	563.39
611.414	529.94
611.771	570.39
612.127	534.01
612.484	541.69
612.841	566.78
613.198	563.39
613.554	540.56
613.911	534.24
614.267	517.29
614.624	529.27
614.98	535.14
615.337	546.67
615.693	536.72
616.05	530.85
616.406	523.16
616.762	519.55
617.118	518.87
617.475	541.47
617.831	530.17
618.187	524.52
618.543	538.98
618.899	523.16
619.255	534.46
619.611	532.66
619.967	544.63
620.323	523.39
620.678	527.01
621.034	506.67
621.39	558.42
621.746	538.76
622.101	513.45
622.457	522.49
622.812	524.75
623.168	523.84
623.523	514.58
623.879	523.62
624.234	508.93
624.589	515.71
624.945	501.47
625.3	496.05
625.655	510.06
626.01	524.07
626.365	510.06
626.72	533.56
627.075	495.37
627.43	531.53
627.785	500.57
628.14	529.49
628.495	489.27
628.85	508.48
629.205	482.49
629.559	486.33
629.914	490.85
630.269	496.95
630.623	508.93
630.978	495.82
631.332	483.84
631.687	487.46
632.041	500.34
632.396	491.53
632.75	480
633.104	504.18
633.459	485.65
633.813	476.39
634.167	487.23
634.521	475.93
634.875	462.15
635.229	501.92
635.583	475.03
635.937	505.99
636.291	464.86
636.645	458.08
636.999	470.06
637.352	488.81
637.706	485.43
638.06	475.03
638.413	476.84
638.767	466.44
639.121	468.7
639.474	457.18
639.828	454.24
640.181	453.34
640.534	445.88
640.888	466.22
641.241	458.31
641.594	455.6
641.947	458.99
642.301	442.71
642.654	465.76
643.007	467.57
643.36	454.24
643.713	434.8
644.066	444.75
644.419	449.49
644.771	445.43
645.124	434.35
645.477	455.82
645.83	448.82
646.182	435.48
646.535	449.72
646.888	423.96
647.24	446.33
647.593	420.34
647.945	433.9
648.298	441.13
648.65	429.16
649.002	454.24
649.355	444.07
649.707	440.68
650.059	439.1
650.411	450.4
650.763	444.3
651.115	443.62
651.467	450.85
651.819	431.42
652.171	441.36
652.523	423.28
652.875	434.8
653.227	427.57
653.578	428.25
653.93	422.83
654.282	432.77
654.633	407.69
654.985	437.06
655.337	428.93
655.688	426.22
656.039	416.95
656.391	436.84
656.742	408.14
657.094	430.06
657.445	404.75
657.796	437.29
658.147	429.38
658.498	412.21
658.849	422.15
659.2	399.1
659.551	413.34
659.902	404.07
660.253	412.21
660.604	404.3
660.955	397.07
661.306	403.62
661.656	398.42
662.007	412.88
662.358	404.3
662.708	399.78
663.059	392.09
663.409	419.44
663.76	399.78
664.11	405.65
664.461	414.01
664.811	376.5
665.161	405.43
665.511	395.71
665.862	412.43
666.212	398.42
666.562	376.28
666.912	375.15
667.262	407.46
667.612	383.73
667.962	398.2
668.312	406.33
668.662	428.25
669.011	419.44
669.361	395.03
669.711	384.64
670.06	385.77
670.41	390.51
670.76	381.92
671.109	386.67
671.459	382.83
671.808	374.24
672.157	385.54
672.507	377.63
672.856	394.35
673.205	376.73
673.554	373.11
673.904	380.8
674.253	385.54
674.602	371.3
674.951	372.89
675.3	379.44
675.649	377.41
675.998	379.89
676.346	373.11
676.695	367.46
677.044	376.05
677.393	391.64
677.741	377.63
678.09	375.15
678.438	362.49
678.787	371.53
679.135	376.05
679.484	372.89
679.832	366.33
680.181	364.52
680.529	368.59
680.877	369.95
681.225	381.47
681.573	365.2
681.922	352.77
682.27	373.79
682.618	383.05
682.966	370.4
683.314	357.74
683.661	364.98
684.009	378.31
684.357	353
684.705	362.26
685.053	357.97
685.4	371.76
685.748	385.99
686.095	367.24
686.443	369.95
686.79	365.65
687.138	364.75
687.485	365.43
687.832	360.46
688.18	363.62
688.527	372.89
688.874	374.02
689.221	368.59
689.568	375.6
689.915	363.85
690.262	354.13
690.609	362.49
690.956	355.03
691.303	376.05
691.65	336.5
691.997	370.85
692.344	364.75
692.69	359.78
693.037	360.46
693.383	360.46
693.73	354.58
694.077	364.3
694.423	370.17
694.769	364.07
695.116	352.55
695.462	340.57
695.808	341.93
696.155	366.33
696.501	343.51
696.847	351.19
697.193	357.97
697.539	353.23
697.885	328.59
698.231	337.63
698.577	344.64
698.923	355.49
699.269	360.91
699.614	342.6
699.96	341.7
700.306	347.35
700.651	358.42
700.997	329.72
701.342	353.68
701.688	326.11
702.033	347.35
702.379	341.7
702.724	333.56
703.069	335.15
703.415	342.15
703.76	337.86
704.105	328.82
704.45	363.62
704.795	324.3
705.14	345.09
705.485	342.6
705.83	348.48
706.175	346.22
706.52	334.24
706.865	346.9
707.209	322.04
707.554	322.04
707.899	328.59
708.243	348.03
708.588	360.46
708.932	333.11
709.277	349.16
709.621	338.08
709.966	319.78
710.31	338.31
710.654	336.73
710.998	333.56
711.342	353.23
711.687	340.8
712.031	356.39
712.375	309.16
712.719	354.36
713.063	336.5
713.407	334.24
713.75	332.43
714.094	333.34
714.438	324.3
714.782	337.41
715.125	345.32
715.469	341.47
715.812	341.47
716.156	350.29
716.499	336.28
716.843	366.33
717.186	351.87
717.53	333.79
717.873	350.29
718.216	328.59
718.559	328.82
718.902	331.3
719.246	331.3
719.589	321.59
719.932	344.19
720.275	329.5
720.617	332.66
720.96	343.73
721.303	343.28
721.646	346.22
721.989	339.44
722.331	318.2
722.674	336.05
723.016	351.64
723.359	343.51
723.701	343.96
724.044	335.15
724.386	332.66
724.729	332.43
725.071	334.69
725.413	326.11
725.755	342.83
726.097	330.4
726.439	335.82
726.782	343.51
727.124	330.4
727.465	344.19
727.807	324.98
728.149	338.31
728.491	332.21
728.833	348.71
729.175	311.87
729.516	316.62
729.858	327.46
730.199	340.12
730.541	345.77
730.882	332.66
731.224	332.43
731.565	335.15
731.906	335.82
732.248	345.54
732.589	339.89
732.93	322.04
733.271	329.05
733.612	338.31
733.953	327.46
734.294	339.21
734.635	329.95
734.976	336.05
735.317	345.77
735.658	326.56
735.999	324.75
736.339	328.82
736.68	331.53
737.021	354.13
737.361	333.11
737.702	326.11
738.042	335.6
738.383	331.98
738.723	329.5
739.063	320.23
739.404	315.94
739.744	343.51
740.084	355.94
740.424	330.63
740.764	336.5
741.104	322.49
741.444	318.65
741.784	343.28
742.124	341.02
742.464	334.47
742.804	313.9
743.143	332.43
743.483	335.82
743.823	336.5
744.162	337.18
744.502	336.28
744.841	338.31
745.181	343.96
745.52	321.36
745.86	318.42
746.199	317.07
746.538	327.69
746.877	329.27
747.216	329.5
747.556	319.55
747.895	328.82
748.234	337.41
748.573	351.64
748.911	327.01
749.25	323.62
749.589	345.77
749.928	312.77
750.267	320.91
750.605	333.56
750.944	316.39
751.283	327.69
751.621	327.92
751.96	326.79
752.298	341.7
752.636	346.67
752.975	341.7
753.313	324.98
753.651	329.27
753.989	336.28
754.327	321.36
754.666	322.94
755.004	328.14
755.342	324.98
755.679	325.2
756.017	315.94
756.355	335.37
756.693	317.97
757.031	327.24
757.368	329.72
757.706	343.06
758.044	331.76
758.381	321.81
758.719	326.79
759.056	331.98
759.394	328.14
759.731	322.27
760.068	322.94
760.405	315.49
760.743	318.2
761.08	327.01
761.417	314.58
761.754	317.29
762.091	332.66
762.428	332.21
762.765	320.01
763.102	313.23
763.438	315.94
763.775	320.01
764.112	332.66
764.449	327.24
764.785	296.73
765.122	329.72
765.458	317.75
765.795	321.14
766.131	320.91
766.467	317.52
766.804	306.45
767.14	310.51
767.476	329.95
767.812	343.51
768.148	327.24
768.485	324.98
768.821	328.14
769.157	326.33
769.492	327.01
769.828	324.07
770.164	328.14
770.5	326.79
770.836	339.44
771.171	341.25
771.507	335.37
771.842	309.16
772.178	331.53
772.513	311.64
772.849	342.6
773.184	302.38
773.519	341.02
773.855	334.24
774.19	313.45
774.525	340.34
774.86	317.97
775.195	323.17
775.53	344.41
775.865	322.27
776.2	344.86
776.535	342.15
776.87	322.94
777.205	333.56
777.539	314.58
777.874	322.04
778.209	324.07
778.543	334.47
778.878	322.72
779.212	315.03
779.547	335.15
779.881	335.15
780.215	312.32
780.55	308.03
780.884	336.73
781.218	338.76
781.552	338.76
781.886	334.24
782.22	309.16
782.554	336.95
782.888	346.22
783.222	321.59
783.556	323.17
783.889	317.75
784.223	303.51
784.557	308.71
784.89	325.43
785.224	333.56
785.557	315.94
785.891	333.56
786.224	310.29
786.558	321.36
786.891	316.16
787.224	313.9
787.557	329.95
787.891	321.81
788.224	319.78
788.557	335.15
788.89	328.59
789.223	329.27
789.556	313.45
789.888	337.63
790.221	319.33
790.554	321.14
790.887	314.81
791.219	341.25
791.552	319.55
791.884	324.98
792.217	341.25
792.549	337.41
792.882	319.55
793.214	304.64
793.546	315.71
793.879	327.24
794.211	322.49
794.543	296.5
794.875	322.72
795.207	322.04
795.539	334.47
795.871	319.78
796.203	316.84
796.535	310.51
796.867	318.65
797.198	323.62
797.53	340.8
797.862	336.73
798.193	325.2
798.525	315.26
798.856	309.84
799.188	315.71
799.519	312.77
799.85	321.59
800.182	314.13
800.513	333.11
800.844	333.11
801.175	322.72
801.506	319.78
801.837	316.16
802.168	316.84
802.499	327.69
802.83	328.14
803.161	317.07
803.491	338.76
803.822	320.46
804.153	303.06
804.483	316.39
804.814	326.79
805.145	331.3
805.475	324.75
805.805	331.53
806.136	319.78
806.466	325.88
806.796	318.42
807.126	310.51
807.457	328.82
807.787	311.42
808.117	326.11
808.447	339.44
808.777	332.89
809.107	325.2
809.436	322.27
809.766	305.77
810.096	318.42
810.426	304.41
810.755	331.98
811.085	331.76
811.414	317.75
811.744	325.66
812.073	321.81
812.403	323.85
812.732	337.41
813.061	315.26
813.39	321.14
813.719	313
814.049	332.21
814.378	316.62
814.707	321.59
815.036	304.86
815.365	341.02
815.693	317.97
816.022	329.27
816.351	311.42
816.68	318.65
817.008	310.06
817.337	346.22
817.665	334.24
817.994	322.27
818.322	318.88
818.651	321.59
818.979	301.48
819.307	315.49
819.636	327.92
819.964	322.72
820.292	321.14
820.62	333.11
820.948	305.54
821.276	321.59
821.604	310.97
821.932	314.13
822.259	324.75
822.587	317.29
822.915	321.36
823.243	309.61
823.57	303.96
823.898	317.07
824.225	317.07
824.553	317.75
824.88	311.64
825.207	343.06
825.535	324.75
825.862	320.91
826.189	321.81
826.516	337.86
826.843	339.44
827.17	325.88
827.497	322.04
827.824	320.68
828.151	318.65
828.478	305.09
828.805	325.43
829.131	310.97
829.458	326.33
829.785	330.4
830.111	338.08
830.438	321.59
830.764	322.94
831.09	313
831.417	322.49
831.743	326.11
832.069	324.98
832.395	341.02
832.722	316.62
833.048	316.16
833.374	322.72
833.7	323.62
834.026	321.36
834.351	332.21
834.677	306.45
835.003	326.56
835.329	319.55
835.654	311.19
835.98	322.04
836.306	310.06
836.631	315.03
836.956	329.95
837.282	343.06
837.607	322.94
837.932	302.15
838.258	306.22
838.583	337.18
838.908	317.29
839.233	305.32
839.558	302.83
839.883	338.08
840.208	319.33
840.533	328.37
840.858	308.03
841.182	325.2
841.507	318.2
841.832	320.91
842.156	327.01
842.481	318.65
842.805	317.97
843.13	316.39
843.454	316.39
843.778	321.14
844.103	314.36
844.427	301.48
844.751	293.11
845.075	304.41
845.399	338.31
845.723	321.59
846.047	327.46
846.371	324.53
846.695	327.24
847.019	320.91
847.343	309.61
847.666	317.52
847.99	339.67
848.313	321.36
848.637	330.63
848.96	323.85
849.284	320.46
849.607	307.8
849.931	306.22
850.254	307.12
850.577	317.75
850.9	330.85
851.223	329.27
851.546	310.06
851.869	338.08
852.192	302.38
852.515	327.46
852.838	324.98
853.161	316.39
853.483	320.23
853.806	329.72
854.129	309.38
854.451	312.77
854.774	306.22
855.096	310.74
855.419	317.75
855.741	296.5
856.063	320.01
856.385	332.21
856.708	339.21
857.03	309.61
857.352	296.28
857.674	313.23
857.996	309.84
858.318	313.68
858.64	305.54
858.961	302.83
859.283	315.71
859.605	318.42
859.926	319.1
860.248	321.36
860.57	304.64
860.891	319.33
861.212	302.15
861.534	319.33
861.855	305.54
862.176	334.92
862.498	315.49
862.819	309.84
863.14	327.92
863.461	312.77
863.782	315.26
864.103	311.87
864.424	314.36
864.745	307.12
865.065	310.74
865.386	304.41
865.707	310.06
866.027	293.11
866.348	325.2
866.668	303.51
866.989	314.13
867.309	328.37
867.63	327.46
867.95	316.16
868.27	295.37
868.59	323.4
868.91	315.71
869.23	327.01
869.55	328.37
869.87	316.62
870.19	344.19
870.51	326.79
870.83	311.87
871.15	327.92
871.469	313.9
871.789	305.99
872.109	337.41
872.428	339.89
872.748	306.67
873.067	309.61
873.386	327.24
873.706	313.9
874.025	312.55
874.344	314.13
874.663	324.07
874.982	331.53
875.301	329.05
875.62	309.61
875.939	321.36
876.258	318.65
876.577	327.69
876.896	336.28
877.214	303.28
877.533	317.97
877.852	317.07
878.17	334.02
878.489	315.71
878.807	338.54
879.125	301.93
879.444	299.44
879.762	316.62
880.08	315.71
880.398	302.83
880.716	305.09
881.034	314.36
881.352	305.54
881.67	312.55
881.988	326.33
882.306	311.87
882.624	315.94
882.941	315.26
883.259	306.9
883.577	310.06
883.894	329.95
884.212	312.32
884.529	312.55
884.846	319.78
885.164	302.83
885.481	315.49
885.798	298.09
886.115	347.58
886.432	326.79
886.75	304.41
887.067	344.64
887.383	304.41
887.7	297.63
888.017	305.54
888.334	309.61
888.651	319.78
888.967	320.23
889.284	326.79
889.6	313.45
889.917	299.44
890.233	333.11
890.55	318.2
890.866	309.38
891.182	311.87
891.498	328.37
891.815	301.25
892.131	306.9
892.447	317.52
892.763	310.06
893.079	314.13
893.395	323.17
893.71	326.79
894.026	318.88
894.342	308.48
894.657	323.62
894.973	309.38
895.289	310.74
895.604	312.32
895.92	310.29
896.235	319.1
896.55	319.1
896.865	317.75
897.181	290.18
897.496	323.4
897.811	302.38
898.126	313.23
898.441	313.45
898.756	320.01
899.071	320.91
899.386	318.2
899.7	301.7
900.015	305.99
900.33	305.32
900.644	310.06
900.959	309.38
901.273	327.01
901.588	306.9
901.902	328.14
902.216	338.99
902.531	315.94
902.845	324.07
903.159	320.68
903.473	304.64
903.787	300.8
904.101	315.49
904.415	322.49
904.729	322.72
905.042	325.43
905.356	319.55
905.67	320.91
905.984	332.21
906.297	329.27
906.611	320.23
906.924	310.51
907.237	341.93
907.551	322.49
907.864	325.66
908.177	294.24
908.491	287.46
908.804	319.78
909.117	318.88
909.43	294.7
909.743	320.46
910.056	317.07
910.368	336.73
910.681	315.71
910.994	311.19
911.307	308.48
911.619	276.84
911.932	310.51
912.244	297.18
912.557	308.71
912.869	334.47
913.181	325.66
913.494	321.59
913.806	328.59
914.118	329.95
914.43	310.51
914.742	327.01
915.054	302.15
915.366	320.23
915.678	326.33
915.99	316.16
916.302	319.55
916.613	329.27
916.925	294.24
917.236	303.28
917.548	322.04
917.859	329.05
918.171	318.42
918.482	318.2
918.794	318.88
919.105	305.54
919.416	311.64
919.727	305.54
920.038	325.43
920.349	308.03
920.66	290.18
920.971	331.53
921.282	307.12
921.593	312.1
921.903	315.71
922.214	316.16
922.525	305.32
922.835	295.6
923.146	306.67
923.456	309.38
923.767	317.97
924.077	306.9
924.387	307.35
924.697	334.47
925.008	296.28
925.318	328.37
925.628	326.11
925.938	326.56
926.248	310.74
926.558	306.67
926.867	315.03
927.177	312.77
927.487	292.44
927.796	313.9
928.106	295.6
928.416	323.4
928.725	313.68
929.034	307.8
929.344	339.44
929.653	310.74
929.962	305.99
930.271	310.06
930.581	313
930.89	322.49
931.199	314.36
931.508	296.28
931.817	308.03
932.125	296.73
932.434	299.44
932.743	312.32
933.051	320.46
933.36	327.69
933.669	314.81
933.977	320.68
934.286	304.86
934.594	320.23
934.902	320.91
935.21	301.7
935.519	324.3
935.827	328.14
936.135	312.55
936.443	328.82
936.751	319.55
937.059	327.69
937.367	320.91
937.674	317.07
937.982	318.88
938.29	310.51
938.597	323.62
938.905	304.19
939.213	305.54
939.52	297.63
939.827	331.53
940.135	322.04
940.442	314.81
940.749	314.36
941.056	306.67
941.363	324.98
941.67	306.67
941.977	326.79
942.284	326.79
942.591	312.32
942.898	314.13
943.205	317.75
943.511	309.61
943.818	325.66
944.125	321.14
944.431	307.12
944.738	321.59
945.044	307.35
945.35	316.62
945.657	294.47
945.963	309.61
946.269	321.14
946.575	326.11
946.881	325.2
947.187	299.22
947.493	326.33
947.799	292.44
948.105	303.96
948.41	313.23
948.716	297.63
949.022	324.53
949.327	311.19
949.633	331.76
949.938	311.42
950.244	318.65
950.549	319.78
950.854	318.88
951.16	291.76
951.465	314.58
951.77	307.12
952.075	324.07
952.38	316.39
952.685	325.43
952.99	335.82
953.294	310.97
953.599	315.26
953.904	303.96
954.209	316.62
954.513	326.56
954.818	298.09
955.122	319.1
955.426	329.27
955.731	285.43
956.035	329.72
956.339	320.23
956.643	307.8
956.948	334.24
957.252	311.19
957.556	300.8
957.86	289.5
958.163	297.63
958.467	304.64
958.771	303.96
959.075	308.25
959.378	326.11
959.682	303.28
959.985	314.58
960.289	316.62
960.592	327.92
960.896	308.03
961.199	300.12
961.502	295.15
961.805	326.11
962.108	314.58
962.411	304.64
962.714	341.47
963.017	306.45
963.32	306.67
963.623	307.8
963.926	323.62
964.228	308.48
964.531	315.49
964.833	309.61
965.136	318.42
965.438	329.05
965.741	293.57
966.043	277.29
966.345	321.59
966.648	323.17
966.95	310.51
967.252	317.52
967.554	301.7
967.856	304.86
968.158	300.8
968.46	313.23
968.761	320.46
969.063	311.42
969.365	310.97
969.666	312.32
969.968	318.42
970.269	306.67
970.571	302.83
970.872	325.88
971.174	331.3
971.475	314.13
971.776	303.73
972.077	289.72
972.378	306.22
972.679	317.75
972.98	306.22
973.281	309.84
973.582	314.81
973.883	315.49
974.183	319.33
974.484	317.97
974.785	307.8
975.085	322.94
975.386	289.05
975.686	285.43
975.986	311.87
976.287	328.59
976.587	314.36
976.887	322.49
977.187	303.73
977.487	300.35
977.787	296.28
978.087	306.9
978.387	305.09
978.687	318.65
978.987	320.68
979.286	326.33
979.586	306.67
979.885	320.91
980.185	307.12
980.484	314.81
980.784	312.77
981.083	311.42
981.382	307.35
981.682	317.29
981.981	305.54
982.28	333.34
982.579	331.53
982.878	332.43
983.177	316.39
983.475	316.16
983.774	326.79
984.073	284.3
984.372	319.1
984.67	307.8
984.969	303.06
985.267	304.86
985.566	317.07
985.864	295.6
986.162	313.9
986.461	300.35
986.759	323.85
987.057	329.5
987.355	322.27
987.653	313.9
987.951	342.83
988.249	312.77
988.547	303.28
988.844	325.66
989.142	313.45
989.44	322.94
989.737	298.09
990.035	313.68
990.332	316.16
990.63	335.82
990.927	306.22
991.224	305.09
991.521	308.93
991.819	323.4
992.116	303.06
992.413	302.61
992.71	296.5
993.006	301.93
993.303	316.16
993.6	289.95
993.897	310.29
994.193	321.36
994.49	306.22
994.787	326.79
995.083	314.36
995.379	323.17
995.676	308.48
995.972	307.58
996.268	324.07
996.565	294.47
996.861	298.76
997.157	315.71
997.453	310.29
997.749	319.78
998.044	296.28
998.34	310.06
998.636	309.38
998.932	334.47
999.227	305.77
999.523	311.19
999.818	303.73
1000.114	304.86
1000.409	325.66
1000.704	303.96
1001	326.33
1001.295	317.97
1001.59	315.26
1001.885	323.85
1002.18	321.14
1002.475	310.51
1002.77	287.92
1003.065	284.75
1003.359	286.33
1003.654	316.62
1003.949	313.23
1004.243	308.93
1004.538	317.75
1004.832	317.97
1005.127	306.45
1005.421	301.7
1005.715	308.03
1006.009	310.51
1006.304	322.27
1006.598	316.39
1006.892	326.33
1007.186	300.8
1007.48	319.78
1007.773	319.55
1008.067	331.76
1008.361	318.42
1008.655	302.38
1008.948	301.25
1009.242	310.74
1009.535	298.99
1009.829	310.74
1010.122	321.14
1010.415	304.64
1010.708	325.43
1011.001	307.12
1011.295	312.55
1011.588	319.78
1011.881	301.7
1012.173	311.42
1012.466	308.71
1012.759	311.19
1013.052	314.81
1013.344	300.12
1013.637	318.88
1013.93	326.56
1014.222	309.16
1014.514	317.52
1014.807	297.41
1015.099	312.77
1015.391	309.38
1015.683	304.19
1015.976	309.38
1016.268	309.16
1016.56	315.03
1016.851	318.42
1017.143	326.56
1017.435	310.06
1017.727	311.19
1018.018	299.44
1018.31	311.87
1018.602	314.36
1018.893	316.16
1019.185	315.03
1019.476	311.19
1019.767	312.77
1020.058	315.94
1020.35	320.01
1020.641	319.1
1020.932	290.18
1021.223	310.29
1021.514	321.36
1021.804	314.13
1022.095	291.53
1022.386	290.4
1022.677	303.51
1022.967	309.16
1023.258	312.32
1023.548	290.85
1023.839	304.19
1024.129	318.65
1024.419	290.18
1024.709	304.64
1025	307.35
1025.29	308.25
1025.58	304.19
1025.87	315.03
1026.16	296.73
1026.449	323.62
1026.739	325.66
1027.029	328.59
1027.319	303.28
1027.608	327.92
1027.898	326.79
1028.187	315.03
1028.477	311.19
1028.766	315.26
1029.055	305.77
1029.344	301.93
1029.634	316.62
1029.923	323.17
1030.212	305.54
1030.501	309.16
1030.79	307.12
1031.078	289.27
1031.367	303.28
1031.656	315.94
1031.945	311.42
1032.233	274.81
1032.522	312.55
1032.81	301.48
1033.099	313.9
1033.387	303.96
1033.675	320.46
1033.963	319.55
1034.251	293.79
1034.54	305.09
1034.828	314.58
1035.116	321.14
1035.403	320.23
1035.691	306.67
1035.979	321.81
1036.267	316.16
1036.554	320.01
1036.842	310.74
1037.129	304.41
1037.417	318.2
1037.704	310.97
1037.992	314.36
1038.279	311.87
1038.566	290.63
1038.853	290.63
1039.14	290.63
