Data from No_light_on_white_reflection_standard_FLMS001491_089.txt Node
Date: Tue Feb 07 10:33:10 GMT 2017
User: dcchb
Spectrometer: FLMS00149
Trigger mode: 0
Integration Time (sec): 2.000000E-2
Scans to average: 10
Electric dark correction enabled: true
Nonlinearity correction enabled: false
Boxcar width: 0
XAxis mode: Wavelengths
Number of Pixels in Spectrum: 2048
>>>>>Begin Spectral Data<<<<<
341.393	-9.32
341.776	-9.32
342.16	-9.32
342.543	-54.52
342.927	-85.93
343.31	-66.04
343.693	-79.38
344.077	-83.44
344.46	-59.94
344.843	-44.12
345.226	-38.7
345.61	-29.43
345.993	-29.21
346.376	6.05
346.759	25.25
347.142	28.19
347.525	47.17
347.908	49.66
348.291	64.8
348.674	98.25
349.057	110.9
349.44	123.56
349.823	143.67
350.206	148.19
350.588	167.17
350.971	177.57
351.354	181.41
351.737	190
352.119	204.68
352.502	234.29
352.884	259.6
353.267	245.36
353.65	247.62
354.032	265.47
354.414	281.07
354.797	282.87
355.179	295.08
355.562	305.92
355.944	289.65
356.326	291.46
356.709	299.6
357.091	294.17
357.473	307.05
357.855	296.43
358.238	310.67
358.62	311.12
359.002	304.34
359.384	322.65
359.766	297.56
360.148	298.47
360.53	305.92
360.912	299.6
361.294	290.11
361.676	295.98
362.057	284.46
362.439	318.13
362.821	296.88
363.203	281.97
363.584	274.51
363.966	267.96
364.348	278.81
364.729	294.63
365.111	288.75
365.493	284.23
365.874	292.59
366.256	283.78
366.637	282.65
367.019	273.83
367.4	251.46
367.781	282.65
368.163	262.54
368.544	277.9
368.925	275.19
369.306	274.06
369.688	289.43
370.069	286.94
370.45	261.86
370.831	258.47
371.212	258.02
371.593	263.21
371.974	271.35
372.355	265.7
372.736	274.29
373.117	262.31
373.498	260.28
373.879	270.67
374.26	278.58
374.641	275.19
375.021	261.41
375.402	288.07
375.783	258.69
376.163	272.93
376.544	290.56
376.925	284
377.305	285.36
377.686	273.61
378.066	292.59
378.447	283.78
378.827	262.54
379.208	300.27
379.588	281.52
379.968	263.44
380.349	282.2
380.729	288.3
381.109	297.11
381.489	267.51
381.87	270.67
382.25	290.56
382.63	253.04
383.01	264.8
383.39	309.77
383.77	296.43
384.15	284.46
384.53	307.51
384.91	280.39
385.29	298.24
385.67	279.94
386.049	277.68
386.429	282.42
386.809	274.51
387.189	297.56
387.568	288.3
387.948	295.53
388.328	291.01
388.707	294.63
389.087	274.74
389.466	300.73
389.846	288.52
390.225	305.02
390.605	276.32
390.984	304.12
391.363	271.12
391.743	278.13
392.122	282.42
392.501	301.63
392.881	283.78
393.26	305.25
393.639	301.63
394.018	287.39
394.397	297.79
394.776	297.79
395.155	283.78
395.534	284.23
395.913	301.86
396.292	300.27
396.671	287.62
397.05	293.27
397.429	295.53
397.808	278.58
398.186	289.88
398.565	276.55
398.944	289.2
399.323	289.43
399.701	309.54
400.08	285.13
400.458	285.13
400.837	287.62
401.215	297.11
401.594	293.04
401.972	286.49
402.351	297.34
402.729	297.56
403.107	298.47
403.486	301.4
403.864	304.12
404.242	293.72
404.62	302.08
404.999	324.68
405.377	292.37
405.755	293.5
406.133	321.29
406.511	299.37
406.889	298.69
407.267	322.87
407.645	314.96
408.023	295.08
408.401	299.6
408.779	307.51
409.156	318.81
409.534	293.95
409.912	286.26
410.29	289.43
410.667	298.47
411.045	294.17
411.422	307.05
411.8	324
412.178	300.73
412.555	321.97
412.933	324.68
413.31	288.52
413.687	282.87
414.065	293.72
414.442	301.18
414.819	299.82
415.197	315.19
415.574	293.5
415.951	296.66
416.328	295.98
416.705	298.01
417.082	296.66
417.46	312.93
417.837	302.08
418.214	299.6
418.591	302.76
418.967	305.92
419.344	321.97
419.721	291.01
420.098	285.36
420.475	300.27
420.852	300.95
421.228	305.7
421.605	305.92
421.982	311.57
422.358	314.29
422.735	309.09
423.111	316.55
423.488	312.03
423.864	307.28
424.241	302.76
424.617	308.86
424.994	315.87
425.37	308.18
425.746	327.39
426.123	317.68
426.499	307.96
426.875	322.42
427.251	302.08
427.627	307.96
428.003	316.32
428.379	321.97
428.756	303.21
429.132	307.73
429.507	307.28
429.883	314.74
430.259	317
430.635	307.73
431.011	316.77
431.387	327.17
431.763	330.33
432.138	286.49
432.514	317.45
432.89	309.99
433.265	311.35
433.641	325.81
434.016	300.95
434.392	316.77
434.767	323.32
435.143	329.88
435.518	331.01
435.894	308.18
436.269	334.17
436.644	339.82
437.02	306.15
437.395	324.91
437.77	322.42
438.145	326.49
438.52	322.42
438.895	335.3
439.271	316.09
439.646	312.48
440.021	330.33
440.395	343.89
440.77	345.47
441.145	313.61
441.52	352.93
441.895	354.51
442.27	336.66
442.645	343.44
443.019	328.3
443.394	334.4
443.769	326.94
444.143	339.6
444.518	340.5
444.892	341.4
445.267	341.86
445.641	341.4
446.016	349.54
446.39	360.16
446.764	349.99
447.139	334.62
447.513	338.92
447.887	341.18
448.262	352.02
448.636	357.67
449.01	365.58
449.384	367.39
449.758	341.63
450.132	350.22
450.506	362.87
450.88	385.02
451.254	354.74
451.628	353.83
452.002	368.52
452.376	368.3
452.75	362.65
453.123	340.27
453.497	370.56
453.871	354.74
454.244	350.22
454.618	366.26
454.992	363.78
455.365	373.27
455.739	366.04
456.112	385.7
456.486	363.55
456.859	344.57
457.232	361.97
457.606	364.23
457.979	360.84
458.352	348.41
458.725	357
459.099	362.87
459.472	376.88
459.845	359.71
460.218	345.02
460.591	354.74
460.964	343.66
461.337	344.12
461.71	348.86
462.083	378.92
462.456	361.52
462.829	354.06
463.201	353.83
463.574	339.82
463.947	351.35
464.32	371.23
464.692	359.03
465.065	346.83
465.438	347.28
465.81	364.91
466.183	349.31
466.555	352.48
466.928	360.16
467.3	342.76
467.672	352.93
468.045	338.01
468.417	332.82
468.789	372.82
469.161	346.83
469.534	346.6
469.906	344.34
470.278	346.15
470.65	344.12
471.022	352.7
471.394	365.81
471.766	369.2
472.138	346.6
472.51	354.96
472.882	369.88
473.253	337.56
473.625	357
473.997	352.48
474.369	335.98
474.74	362.19
475.112	345.02
475.484	323.78
475.855	352.48
476.227	335.3
476.598	365.13
476.97	346.15
477.341	354.06
477.713	358.58
478.084	335.75
478.455	333.72
478.827	349.54
479.198	375.3
479.569	347.73
479.94	354.96
480.311	368.07
480.682	345.25
481.053	359.03
481.424	330.33
481.795	359.48
482.166	354.96
482.537	345.92
482.908	355.41
483.279	339.6
483.65	338.47
484.021	345.02
484.391	370.33
484.762	355.87
485.133	358.8
485.503	355.41
485.874	349.09
486.244	369.65
486.615	361.52
486.985	360.16
487.356	363.55
487.726	361.52
488.097	375.07
488.467	356.54
488.837	366.71
489.207	372.82
489.578	376.2
489.948	387.5
490.318	385.47
490.688	366.71
491.058	372.36
491.428	342.99
491.798	368.97
492.168	365.58
492.538	368.3
492.908	390.67
493.278	382.53
493.648	396.32
494.017	366.94
494.387	386.37
494.757	392.02
495.126	379.82
495.496	375.75
495.866	378.24
496.235	399.48
496.605	384.34
496.974	382.53
497.344	394.51
497.713	402.42
498.082	373.27
498.452	380.5
498.821	393.61
499.19	392.48
499.559	392.25
499.928	387.73
500.298	393.15
500.667	411.23
501.036	400.84
501.405	392.48
501.774	384.11
502.143	392.48
502.512	405.58
502.88	417.79
503.249	399.26
503.618	414.62
503.987	401.97
504.356	420.95
504.724	421.63
505.093	424.57
505.462	417.11
505.83	415.3
506.199	449.42
506.567	433.83
506.936	413.72
507.304	440.38
507.672	416.66
508.041	427.05
508.409	429.08
508.777	431.57
509.145	421.63
509.514	412.81
509.882	437.9
510.25	418.69
510.618	403.1
510.986	437.22
511.354	429.31
511.722	429.76
512.09	448.29
512.458	439.71
512.826	427.73
513.193	426.15
513.561	432.25
513.929	432.02
514.297	440.16
514.664	413.94
515.032	436.77
515.4	447.84
515.767	450.1
516.135	462.53
516.502	452.36
516.869	456.88
517.237	464.11
517.604	443.77
517.972	463.21
518.339	447.16
518.706	446.71
519.073	439.48
519.44	453.94
519.808	485.35
520.175	467.5
520.542	467.73
520.909	468.41
521.276	460.95
521.643	472.93
522.009	472.02
522.376	472.25
522.743	458.01
523.11	486.48
523.477	471.8
523.843	482.64
524.21	488.52
524.577	469.08
524.943	491.23
525.31	486.48
525.676	484.9
526.043	491.23
526.409	478.35
526.776	479.25
527.142	458.91
527.508	484
527.874	489.65
528.241	495.3
528.607	486.03
528.973	487.84
529.339	494.17
529.705	501.4
530.071	493.49
530.437	507.05
530.803	496.2
531.169	513.83
531.535	494.85
531.901	487.39
532.267	491.91
532.632	494.39
532.998	479.93
533.364	488.74
533.73	501.17
534.095	484
534.461	498.01
534.826	476.09
535.192	504.56
535.557	509.53
535.923	497.11
536.288	520.83
536.653	522.19
537.019	502.53
537.384	497.33
537.749	488.52
538.114	497.78
538.479	501.85
538.845	500.95
539.21	523.32
539.575	529.65
539.94	504.11
540.305	523.55
540.67	489.42
541.034	512.7
541.399	524.22
541.764	484.45
542.129	524.68
542.494	495.07
542.858	519.03
543.223	524.9
543.587	524.45
543.952	513.6
544.316	516.54
544.681	520.16
545.045	523.77
545.41	524.68
545.774	520.83
546.138	524.9
546.503	523.32
546.867	536.65
547.231	507.27
547.595	522.64
547.959	513.38
548.324	532.13
548.688	530.1
549.052	517.9
549.416	522.19
549.779	541.4
550.143	522.19
550.507	516.77
550.871	539.82
551.235	527.16
551.599	534.62
551.962	538.23
552.326	533.04
552.689	539.36
553.053	531.23
553.417	533.26
553.78	526.26
554.143	544.79
554.507	545.47
554.87	520.61
555.234	549.08
555.597	518.12
555.96	543.88
556.323	539.59
556.686	527.61
557.05	552.7
557.413	544.56
557.776	543.21
558.139	555.64
558.502	533.26
558.865	520.38
559.228	560.83
559.59	573.71
559.953	542.53
560.316	562.64
560.679	523.55
561.041	540.27
561.404	557.44
561.767	543.21
562.129	544.56
562.492	540.95
562.854	564.67
563.217	560.15
563.579	572.81
563.941	545.24
564.304	565.35
564.666	587.95
565.028	566.48
565.39	559.48
565.753	573.71
566.115	568.29
566.477	573.04
566.839	575.52
567.201	566.03
567.563	588.63
567.925	570.78
568.287	553.6
568.648	564.45
569.01	573.94
569.372	568.29
569.734	571
570.095	579.14
570.457	561.96
570.819	572.36
571.18	571
571.542	562.41
571.903	563.54
572.265	584.56
572.626	591.34
572.987	596.99
573.349	564.45
573.71	609.42
574.071	584.33
574.432	589.31
574.794	605.58
575.155	568.52
575.516	591.79
575.877	594.5
576.238	568.29
576.599	571.91
576.96	589.31
577.32	620.27
577.681	579.59
578.042	598.12
578.403	601.96
578.763	579.82
579.124	590.21
579.485	582.08
579.845	589.98
580.206	584.33
580.566	589.76
580.927	594.73
581.287	586.37
581.648	597.89
582.008	601.51
582.368	594.73
582.728	592.24
583.089	579.36
583.449	612.58
583.809	599.02
584.169	590.44
584.529	597.89
584.889	608.52
585.249	587.95
585.609	606.93
585.969	594.96
586.329	603.09
586.688	591.79
587.048	602.19
587.408	590.21
587.768	577.78
588.127	586.59
588.487	596.09
588.846	582.3
589.206	579.59
589.565	576.2
589.925	582.98
590.284	578.23
590.643	585.92
591.003	589.76
591.362	578.69
591.721	583.88
592.08	579.14
592.44	604.45
592.799	567.61
593.158	576.43
593.517	586.59
593.876	579.36
594.235	580.95
594.593	580.49
594.952	588.4
595.311	613.03
595.67	583.43
596.029	597.67
596.387	561.28
596.746	596.99
597.104	579.14
597.463	584.79
597.822	587.72
598.18	575.3
598.538	593.15
598.897	584.79
599.255	568.97
599.613	556.54
599.972	587.27
600.33	566.26
600.688	579.82
601.046	591.11
601.404	569.65
601.762	579.36
602.12	568.52
602.478	549.31
602.836	565.8
603.194	569.42
603.552	584.11
603.91	570.55
604.268	572.81
604.625	556.77
604.983	575.75
605.341	572.13
605.698	583.66
606.056	590.89
606.413	576.88
606.771	573.71
607.128	575.3
607.485	559.02
607.843	553.38
608.2	551.34
608.557	570.1
608.914	577.33
609.272	565.13
609.629	542.3
609.986	569.87
610.343	541.4
610.7	576.2
611.057	582.08
611.414	565.35
611.771	557.44
612.127	534.39
612.484	556.54
612.841	530.78
613.198	566.48
613.554	535.75
613.911	545.69
614.267	538.01
614.624	557.22
614.98	533.94
615.337	543.88
615.693	549.08
616.05	557.22
616.406	551.12
616.762	554.05
617.118	554.73
617.475	506.37
617.831	524
618.187	533.04
618.543	543.66
618.899	526.94
619.255	545.92
619.611	533.49
619.967	532.13
620.323	525.35
620.678	509.31
621.034	530.1
621.39	522.42
621.746	533.71
622.101	511.57
622.457	530.33
622.812	514.73
623.168	516.09
623.523	517.44
623.879	524.9
624.234	520.61
624.589	516.54
624.945	520.83
625.3	532.81
625.655	528.07
626.01	515.18
626.365	526.26
626.72	501.4
627.075	509.08
627.43	510.89
627.785	502.3
628.14	499.59
628.495	512.25
628.85	519.48
629.205	499.14
629.559	509.76
629.914	505.24
630.269	493.72
630.623	515.64
630.978	493.49
631.332	516.77
631.687	524.9
632.041	502.53
632.396	488.07
632.75	489.87
633.104	483.09
633.459	505.01
633.813	510.44
634.167	485.58
634.521	479.03
634.875	495.07
635.229	485.81
635.583	481.29
635.937	464.11
636.291	477.67
636.645	492.13
636.999	473.6
637.352	484.22
637.706	494.62
638.06	486.26
638.413	472.25
638.767	448.75
639.121	460.04
639.474	473.38
639.828	472.25
640.181	458.01
640.534	470.67
640.888	468.18
641.241	468.41
641.594	467.05
641.947	482.87
642.301	462.53
642.654	449.2
643.007	486.03
643.36	475.86
643.713	450.78
644.066	441.97
644.419	453.26
644.771	447.84
645.124	433.15
645.477	450.33
645.83	441.06
646.182	442.19
646.535	428.63
646.888	444.68
647.24	434.06
647.593	430.67
647.945	438.12
648.298	423.89
648.65	431.12
649.002	434.28
649.355	456.88
649.707	440.38
650.059	421.63
650.411	417.33
650.763	436.54
651.115	419.59
651.467	420.5
651.819	434.96
652.171	440.61
652.523	433.15
652.875	431.8
653.227	427.73
653.578	404
653.93	440.61
654.282	436.99
654.633	424.79
654.985	429.76
655.337	437.67
655.688	426.37
656.039	441.74
656.391	398.13
656.742	426.82
657.094	433.38
657.445	408.75
657.796	415.3
658.147	405.58
658.498	413.27
658.849	405.13
659.2	407.16
659.551	402.42
659.902	409.65
660.253	432.02
660.604	397.67
660.955	396.09
661.306	399.26
661.656	410.55
662.007	417.33
662.358	398.58
662.708	400.38
663.059	408.75
663.409	397.9
663.76	412.81
664.11	404.68
664.461	408.52
664.811	396.54
665.161	393.83
665.511	391.12
665.862	400.16
666.212	404.9
666.562	408.29
666.912	385.7
667.262	394.51
667.612	423.44
667.962	392.25
668.312	414.17
668.662	384.57
669.011	420.5
669.361	379.37
669.711	404.45
670.06	382.53
670.41	406.94
670.76	386.37
671.109	385.7
671.459	392.48
671.808	404
672.157	364.91
672.507	379.14
672.856	375.98
673.205	373.49
673.554	372.36
673.904	382.53
674.253	382.31
674.602	386.37
674.951	354.74
675.3	391.57
675.649	376.2
675.998	373.04
676.346	381.4
676.695	392.02
677.044	391.35
677.393	393.15
677.741	403.55
678.09	365.58
678.438	387.73
678.787	384.57
679.135	380.05
679.484	366.04
679.832	373.72
680.181	389.76
680.529	394.51
680.877	382.31
681.225	353.38
681.573	349.54
681.922	375.3
682.27	373.72
682.618	373.94
682.966	371.23
683.314	367.62
683.661	368.07
684.009	359.48
684.357	369.65
684.705	365.81
685.053	380.95
685.4	349.54
685.748	377.79
686.095	371.01
686.443	370.1
686.79	374.62
687.138	358.35
687.485	353.38
687.832	364.45
688.18	365.13
688.527	350.22
688.874	364.45
689.221	352.7
689.568	352.25
689.915	375.07
690.262	359.26
690.609	359.26
690.956	372.59
691.303	357.45
691.65	345.25
691.997	364.91
692.344	352.93
692.69	345.02
693.037	361.29
693.383	349.09
693.73	349.76
694.077	344.57
694.423	349.76
694.769	361.06
695.116	364.68
695.462	343.66
695.808	347.5
696.155	342.53
696.501	364.68
696.847	340.05
697.193	364
697.539	349.99
697.885	364
698.231	364
698.577	335.53
698.923	374.17
699.269	357.9
699.614	367.84
699.96	342.08
700.306	328.3
700.651	336.66
700.997	367.17
701.342	349.99
701.688	347.96
702.033	363.55
702.379	339.37
702.724	351.35
703.069	367.62
703.415	337.11
703.76	352.02
704.105	374.4
704.45	359.03
704.795	339.6
705.14	365.81
705.485	352.02
705.83	333.49
706.175	378.69
706.52	358.58
706.865	339.14
707.209	357.22
707.554	335.75
707.899	346.38
708.243	343.44
708.588	364.45
708.932	338.47
709.277	372.82
709.621	340.73
709.966	326.94
710.31	337.34
710.654	337.11
710.998	357.45
711.342	339.6
711.687	354.74
712.031	351.8
712.375	329.2
712.719	352.93
713.063	345.02
713.407	324.68
713.75	321.07
714.094	345.47
714.438	326.49
714.782	352.7
715.125	341.4
715.469	350.22
715.812	347.73
716.156	329.2
716.499	344.12
716.843	348.86
717.186	317.9
717.53	358.13
717.873	334.17
718.216	316.77
718.559	365.81
718.902	324.91
719.246	322.19
719.589	328.3
719.932	346.15
720.275	323.1
720.617	347.96
720.96	329.43
721.303	330.1
721.646	327.62
721.989	328.97
722.331	342.08
722.674	336.66
723.016	343.66
723.359	334.85
723.701	330.33
724.044	348.18
724.386	335.53
724.729	341.18
725.071	299.6
725.413	334.17
725.755	330.56
726.097	334.85
726.439	319.71
726.782	339.82
727.124	333.95
727.465	340.27
727.807	324
728.149	340.5
728.491	332.14
728.833	331.01
729.175	323.1
729.516	333.49
729.858	327.84
730.199	352.93
730.541	321.97
730.882	338.47
731.224	347.96
731.565	330.33
731.906	331.01
732.248	352.02
732.589	327.84
732.93	350.22
733.271	326.04
733.612	351.57
733.953	319.94
734.294	328.75
734.635	324
734.976	317.45
735.317	318.58
735.658	334.17
735.999	338.47
736.339	344.12
736.68	331.46
737.021	335.3
737.361	335.75
737.702	335.3
738.042	307.96
738.383	346.83
738.723	314.06
739.063	325.58
739.404	334.17
739.744	341.18
740.084	344.57
740.424	333.72
740.764	332.82
741.104	325.58
741.444	316.32
741.784	336.21
742.124	341.63
742.464	332.82
742.804	336.88
743.143	311.57
743.483	321.97
743.823	332.36
744.162	331.23
744.502	329.43
744.841	312.93
745.181	335.08
745.52	335.53
745.86	318.81
746.199	332.59
746.538	321.29
746.877	340.27
747.216	322.19
747.556	322.65
747.895	340.27
748.234	330.56
748.573	349.31
748.911	309.77
749.25	338.69
749.589	315.64
749.928	340.95
750.267	345.02
750.605	319.71
750.944	324
751.283	341.18
751.621	327.84
751.96	332.82
752.298	316.32
752.636	298.47
752.975	333.27
753.313	322.19
753.651	312.48
753.989	331.91
754.327	334.62
754.666	341.18
755.004	343.89
755.342	324.91
755.679	324.68
756.017	333.04
756.355	334.17
756.693	335.3
757.031	321.07
757.368	349.31
757.706	344.34
758.044	321.29
758.381	335.53
758.719	338.69
759.056	329.88
759.394	332.36
759.731	317.68
760.068	326.71
760.405	332.59
760.743	330.78
761.08	326.71
761.417	326.71
761.754	338.69
762.091	321.97
762.428	339.6
762.765	333.27
763.102	335.98
763.438	327.17
763.775	339.14
764.112	314.74
764.449	318.81
764.785	335.53
765.122	323.55
765.458	326.94
765.795	341.4
766.131	329.65
766.467	319.48
766.804	309.99
767.14	338.69
767.476	321.74
767.812	330.1
768.148	315.87
768.485	343.89
768.821	325.81
769.157	325.58
769.492	331.01
769.828	328.3
770.164	324
770.5	331.69
770.836	325.13
771.171	345.25
771.507	328.07
771.842	347.73
772.178	308.18
772.513	326.49
772.849	325.81
773.184	316.77
773.519	319.26
773.855	319.71
774.19	309.77
774.525	298.24
774.86	344.79
775.195	312.48
775.53	340.05
775.865	339.37
776.2	316.09
776.535	319.26
776.87	338.69
777.205	311.57
777.539	314.74
777.874	326.04
778.209	325.81
778.543	309.54
778.878	327.62
779.212	313.61
779.547	333.49
779.881	320.61
780.215	317.9
780.55	338.01
780.884	324.91
781.218	317.9
781.552	316.55
781.886	321.07
782.22	312.93
782.554	328.07
782.888	287.62
783.222	324
783.556	307.28
783.889	306.38
784.223	331.91
784.557	340.27
784.89	322.65
785.224	330.33
785.557	314.29
785.891	306.6
786.224	324.23
786.558	330.33
786.891	320.84
787.224	337.34
787.557	319.71
787.891	344.79
788.224	343.21
788.557	340.27
788.89	334.62
789.223	334.62
789.556	320.39
789.888	313.38
790.221	338.01
790.554	326.49
790.887	310.9
791.219	331.91
791.552	320.16
791.884	328.07
792.217	310.9
792.549	328.3
792.882	334.62
793.214	341.4
793.546	323.78
793.879	330.56
794.211	335.08
794.543	342.08
794.875	317.9
795.207	330.78
795.539	334.4
795.871	321.52
796.203	314.29
796.535	324.91
796.867	314.51
797.198	300.5
797.53	324.23
797.862	313.83
798.193	322.42
798.525	309.77
798.856	329.43
799.188	324
799.519	333.72
799.85	311.35
800.182	311.57
800.513	335.08
800.844	328.97
801.175	320.39
801.506	321.74
801.837	331.01
802.168	333.95
802.499	334.17
802.83	329.43
803.161	314.06
803.491	317.9
803.822	331.23
804.153	330.56
804.483	322.42
804.814	303.44
805.145	333.72
805.475	315.19
805.805	329.88
806.136	313.83
806.466	345.92
806.796	331.69
807.126	330.33
807.457	315.19
807.787	319.94
808.117	316.77
808.447	312.48
808.777	303.44
809.107	333.72
809.436	327.17
809.766	314.29
810.096	323.32
810.426	328.52
810.755	321.74
811.085	319.48
811.414	317.45
811.744	328.97
812.073	326.04
812.403	311.8
812.732	318.58
813.061	321.52
813.39	305.02
813.719	327.17
814.049	329.43
814.378	330.1
814.707	310.44
815.036	334.85
815.365	310.44
815.693	301.4
816.022	331.91
816.351	321.52
816.68	333.27
817.008	309.99
817.337	338.47
817.665	314.96
817.994	314.74
818.322	332.36
818.651	333.72
818.979	336.21
819.307	324.68
819.636	328.75
819.964	298.24
820.292	328.07
820.62	324
820.948	309.99
821.276	314.29
821.604	327.84
821.932	336.21
822.259	322.65
822.587	307.96
822.915	301.4
823.243	332.82
823.57	317.9
823.898	337.34
824.225	327.39
824.553	332.36
824.88	321.07
825.207	316.09
825.535	331.91
825.862	329.2
826.189	320.61
826.516	310.44
826.843	311.35
827.17	316.77
827.497	307.51
827.824	312.48
828.151	322.19
828.478	320.61
828.805	321.97
829.131	328.97
829.458	322.42
829.785	310.44
830.111	308.18
830.438	307.51
830.764	316.32
831.09	326.04
831.417	313.16
831.743	322.19
832.069	318.13
832.395	335.75
832.722	334.4
833.048	320.84
833.374	306.38
833.7	321.97
834.026	311.57
834.351	314.29
834.677	331.91
835.003	326.94
835.329	324.45
835.654	326.26
835.98	327.62
836.306	307.73
836.631	330.78
836.956	296.66
837.282	312.25
837.607	312.25
837.932	300.95
838.258	332.36
838.583	318.35
838.908	317.68
839.233	304.79
839.558	315.42
839.883	331.69
840.208	326.26
840.533	331.69
840.858	332.36
841.182	336.43
841.507	340.5
841.832	340.27
842.156	303.66
842.481	326.49
842.805	324.68
843.13	327.84
843.454	312.7
843.778	312.25
844.103	318.35
844.427	322.65
844.751	328.07
845.075	328.3
845.399	301.63
845.723	311.12
846.047	333.49
846.371	318.13
846.695	305.7
847.019	317.68
847.343	316.09
847.666	309.99
847.99	319.71
848.313	315.64
848.637	307.96
848.96	323.78
849.284	321.52
849.607	336.21
849.931	333.27
850.254	322.87
850.577	314.74
850.9	308.86
851.223	321.29
851.546	326.26
851.869	329.43
852.192	333.49
852.515	333.72
852.838	302.99
853.161	336.43
853.483	332.36
853.806	339.37
854.129	312.7
854.451	351.35
854.774	313.83
855.096	325.58
855.419	308.18
855.741	316.09
856.063	299.14
856.385	317.22
856.708	340.05
857.03	298.24
857.352	314.96
857.674	322.42
857.996	313.61
858.318	316.55
858.64	319.26
858.961	312.48
859.283	342.08
859.605	327.84
859.926	321.52
860.248	314.74
860.57	316.32
860.891	308.41
861.212	323.78
861.534	328.52
861.855	307.51
862.176	308.41
862.498	323.32
862.819	351.12
863.14	321.97
863.461	302.31
863.782	344.79
864.103	323.1
864.424	336.66
864.745	319.03
865.065	321.29
865.386	310.67
865.707	315.87
866.027	310.67
866.348	321.52
866.668	332.59
866.989	331.69
867.309	334.62
867.63	313.83
867.95	317.68
868.27	336.66
868.59	319.03
868.91	303.66
869.23	311.8
869.55	309.31
869.87	317.9
870.19	319.94
870.51	312.48
870.83	302.31
871.15	315.64
871.469	327.17
871.789	330.78
872.109	303.66
872.428	311.12
872.748	299.14
873.067	325.13
873.386	301.4
873.706	318.13
874.025	307.51
874.344	309.99
874.663	307.05
874.982	317.68
875.301	327.39
875.62	322.87
875.939	307.73
876.258	325.81
876.577	331.91
876.896	316.55
877.214	315.87
877.533	312.25
877.852	312.03
878.17	312.93
878.489	326.94
878.807	308.64
879.125	320.16
879.444	326.04
879.762	308.18
880.08	312.93
880.398	332.82
880.716	325.81
881.034	336.66
881.352	315.42
881.67	312.03
881.988	322.87
882.306	322.87
882.624	323.55
882.941	304.12
883.259	318.81
883.577	300.05
883.894	324.23
884.212	318.58
884.529	317.9
884.846	322.19
885.164	305.7
885.481	325.58
885.798	308.41
886.115	297.79
886.432	333.04
886.75	296.43
887.067	322.19
887.383	302.31
887.7	335.75
888.017	304.79
888.334	324.68
888.651	345.47
888.967	324.23
889.284	312.93
889.6	325.58
889.917	331.01
890.233	299.14
890.55	319.48
890.866	307.05
891.182	290.78
891.498	313.38
891.815	321.97
892.131	310.22
892.447	303.66
892.763	324.68
893.079	325.13
893.395	330.56
893.71	321.52
894.026	318.58
894.342	324.45
894.657	319.48
894.973	288.98
895.289	301.63
895.604	315.19
895.92	342.53
896.235	325.81
896.55	319.03
896.865	309.54
897.181	331.46
897.496	329.2
897.811	326.71
898.126	316.55
898.441	321.97
898.756	328.52
899.071	311.35
899.386	317.9
899.7	308.18
900.015	315.87
900.33	307.51
900.644	326.71
900.959	302.08
901.273	316.09
901.588	328.75
901.902	321.97
902.216	311.57
902.531	317.45
902.845	325.58
903.159	306.6
903.473	322.42
903.787	323.1
904.101	310.67
904.415	306.6
904.729	325.36
905.042	317.22
905.356	328.07
905.67	330.78
905.984	320.16
906.297	299.6
906.611	324
906.924	299.14
907.237	334.4
907.551	337.11
907.864	309.77
908.177	306.83
908.491	328.75
908.804	311.35
909.117	337.11
909.43	316.32
909.743	321.74
910.056	296.43
910.368	314.06
910.681	313.83
910.994	323.55
911.307	333.49
911.619	302.76
911.932	314.29
912.244	326.04
912.557	304.57
912.869	322.87
913.181	315.42
913.494	319.94
913.806	342.76
914.118	299.6
914.43	298.69
914.742	321.97
915.054	288.3
915.366	336.88
915.678	317.9
915.99	318.58
916.302	314.29
916.613	311.35
916.925	320.84
917.236	306.38
917.548	302.53
917.859	309.09
918.171	314.06
918.482	300.27
918.794	329.2
919.105	312.48
919.416	331.23
919.727	319.03
920.038	316.55
920.349	330.78
920.66	312.7
920.971	301.4
921.282	317.22
921.593	327.62
921.903	328.52
922.214	311.57
922.525	306.83
922.835	315.42
923.146	307.73
923.456	311.57
923.767	317.22
924.077	312.48
924.387	316.09
924.697	317.68
925.008	309.09
925.318	307.73
925.628	315.19
925.938	332.82
926.248	305.25
926.558	313.38
926.867	325.81
927.177	309.99
927.487	308.64
927.796	319.26
928.106	329.43
928.416	315.87
928.725	303.21
929.034	326.49
929.344	314.06
929.653	315.87
929.962	332.36
930.271	329.65
930.581	302.31
930.89	313.38
931.199	312.25
931.508	314.06
931.817	321.97
932.125	328.3
932.434	321.52
932.743	318.35
933.051	322.87
933.36	323.55
933.669	326.49
933.977	316.09
934.286	307.96
934.594	300.27
934.902	306.83
935.21	312.7
935.519	331.91
935.827	298.92
936.135	335.3
936.443	314.96
936.751	326.26
937.059	301.63
937.367	326.26
937.674	332.14
937.982	307.51
938.29	298.24
938.597	309.09
938.905	305.25
939.213	299.82
939.52	301.86
939.827	305.92
940.135	304.34
940.442	305.02
940.749	314.06
941.056	318.35
941.363	315.87
941.67	303.89
941.977	316.55
942.284	332.59
942.591	310.67
942.898	298.69
943.205	314.74
943.511	307.51
943.818	300.27
944.125	293.72
944.431	305.92
944.738	316.32
945.044	302.31
945.35	319.94
945.657	316.77
945.963	345.02
946.269	317.22
946.575	320.61
946.881	326.71
947.187	316.32
947.493	326.26
947.799	309.54
948.105	322.19
948.41	321.07
948.716	330.33
949.022	324.91
949.327	321.29
949.633	311.12
949.938	304.79
950.244	312.25
950.549	313.38
950.854	312.03
951.16	317
951.465	317.9
951.77	321.74
952.075	305.47
952.38	309.09
952.685	301.18
952.99	312.7
953.294	302.53
953.599	324.68
953.904	326.71
954.209	305.25
954.513	333.04
954.818	303.66
955.122	316.55
955.426	316.77
955.731	316.77
956.035	318.35
956.339	316.09
956.643	314.29
956.948	313.16
957.252	324
957.556	300.5
957.86	322.87
958.163	309.54
958.467	298.92
958.771	304.79
959.075	330.56
959.378	304.79
959.682	321.29
959.985	287.62
960.289	303.66
960.592	319.48
960.896	314.06
961.199	322.87
961.502	314.96
961.805	300.05
962.108	302.31
962.411	304.12
962.714	310.9
963.017	307.05
963.32	319.26
963.623	307.05
963.926	315.64
964.228	317
964.531	301.63
964.833	331.23
965.136	294.85
965.438	310.44
965.741	322.42
966.043	295.53
966.345	313.83
966.648	296.43
966.95	282.2
967.252	303.21
967.554	326.04
967.856	321.07
968.158	319.03
968.46	320.39
968.761	307.51
969.063	305.47
969.365	291.91
969.666	315.64
969.968	322.42
970.269	329.65
970.571	323.55
970.872	304.57
971.174	310.9
971.475	323.78
971.776	304.57
972.077	325.13
972.378	310.67
972.679	337.34
972.98	322.87
973.281	299.82
973.582	316.09
973.883	296.66
974.183	321.52
974.484	317.68
974.785	302.76
975.085	313.38
975.386	309.54
975.686	315.87
975.986	309.09
976.287	312.25
976.587	310.22
976.887	325.58
977.187	318.35
977.487	317
977.787	330.1
978.087	297.11
978.387	323.55
978.687	319.26
978.987	315.87
979.286	321.52
979.586	274.74
979.885	340.27
980.185	293.27
980.484	305.47
980.784	311.8
981.083	335.08
981.382	312.03
981.682	299.14
981.981	320.39
982.28	319.03
982.579	326.04
982.878	320.84
983.177	333.72
983.475	317.45
983.774	305.7
984.073	309.54
984.372	324.91
984.67	324.45
984.969	307.96
985.267	313.16
985.566	310.67
985.864	302.53
986.162	304.79
986.461	317.68
986.759	289.88
987.057	321.74
987.355	313.61
987.653	346.38
987.951	324.68
988.249	316.32
988.547	326.49
988.844	305.25
989.142	326.94
989.44	320.84
989.737	307.96
990.035	321.29
990.332	312.93
990.63	311.12
990.927	301.63
991.224	299.37
991.521	302.99
991.819	308.18
992.116	308.41
992.413	315.42
992.71	293.95
993.006	326.94
993.303	313.61
993.6	317
993.897	323.55
994.193	301.4
994.49	317
994.787	303.66
995.083	301.4
995.379	310.44
995.676	296.21
995.972	331.46
996.268	310.44
996.565	308.41
996.861	317.9
997.157	323.1
997.453	310.22
997.749	327.62
998.044	315.42
998.34	317.9
998.636	298.69
998.932	300.73
999.227	306.15
999.523	307.73
999.818	324.45
1000.114	304.12
1000.409	310.22
1000.704	304.57
1001	291.46
1001.295	315.87
1001.59	314.96
1001.885	310.22
1002.18	316.09
1002.475	312.93
1002.77	293.27
1003.065	322.19
1003.359	302.76
1003.654	320.39
1003.949	332.59
1004.243	311.57
1004.538	319.03
1004.832	310.44
1005.127	312.7
1005.421	316.09
1005.715	317.22
1006.009	310.9
1006.304	298.47
1006.598	331.01
1006.892	299.37
1007.186	327.17
1007.48	305.47
1007.773	308.41
1008.067	330.78
1008.361	316.55
1008.655	293.5
1008.948	312.03
1009.242	313.83
1009.535	302.08
1009.829	315.19
1010.122	294.17
1010.415	313.16
1010.708	318.81
1011.001	320.39
1011.295	299.6
1011.588	314.29
1011.881	325.13
1012.173	318.13
1012.466	316.77
1012.759	295.98
1013.052	307.96
1013.344	326.04
1013.637	309.77
1013.93	307.05
1014.222	299.14
1014.514	308.18
1014.807	320.61
1015.099	337.11
1015.391	329.2
1015.683	308.64
1015.976	303.66
1016.268	319.94
1016.56	316.09
1016.851	299.82
1017.143	310.9
1017.435	306.83
1017.727	304.57
1018.018	311.35
1018.31	331.91
1018.602	320.84
1018.893	306.15
1019.185	314.29
1019.476	291.24
1019.767	326.49
1020.058	337.79
1020.35	326.26
1020.641	314.74
1020.932	311.57
1021.223	310.9
1021.514	287.39
1021.804	314.29
1022.095	331.46
1022.386	302.31
1022.677	316.09
1022.967	304.79
1023.258	330.56
1023.548	316.77
1023.839	331.01
1024.129	307.51
1024.419	315.87
1024.709	316.09
1025	337.56
1025.29	305.7
1025.58	327.62
1025.87	294.85
1026.16	309.54
1026.449	335.3
1026.739	288.98
1027.029	306.38
1027.319	291.01
1027.608	320.39
1027.898	303.44
1028.187	308.64
1028.477	325.58
1028.766	301.86
1029.055	295.98
1029.344	300.95
1029.634	335.08
1029.923	307.96
1030.212	300.5
1030.501	311.8
1030.79	312.25
1031.078	317.68
1031.367	307.96
1031.656	309.31
1031.945	306.6
1032.233	307.96
1032.522	297.11
1032.81	319.03
1033.099	300.05
1033.387	329.43
1033.675	302.31
1033.963	317.9
1034.251	323.32
1034.54	321.29
1034.828	314.29
1035.116	325.58
1035.403	305.47
1035.691	307.96
1035.979	311.57
1036.267	302.53
1036.554	304.12
1036.842	325.13
1037.129	317.45
1037.417	304.57
1037.704	314.29
1037.992	302.99
1038.279	313.38
1038.566	296.88
1038.853	296.88
1039.14	296.88
