Data from No_light_on_white_reflection_standard_FLMS001491_011.txt Node
Date: Tue Feb 07 10:32:54 GMT 2017
User: dcchb
Spectrometer: FLMS00149
Trigger mode: 0
Integration Time (sec): 2.000000E-2
Scans to average: 10
Electric dark correction enabled: true
Nonlinearity correction enabled: false
Boxcar width: 0
XAxis mode: Wavelengths
Number of Pixels in Spectrum: 2048
>>>>>Begin Spectral Data<<<<<
341.393	-14.76
341.776	-14.76
342.16	-14.76
342.543	-63.12
342.927	-56.79
343.31	-60.18
343.693	-66.74
344.077	-61.09
344.46	-69.45
344.843	-63.12
345.226	-33.74
345.61	-43.46
345.993	-23.8
346.376	1.74
346.759	9.65
347.142	28.86
347.525	42.64
347.908	53.26
348.291	71.57
348.674	119.02
349.057	94.84
349.44	123.32
349.823	131.9
350.206	155.41
350.588	155.63
350.971	181.62
351.354	178.91
351.737	209.87
352.119	215.97
352.502	245.57
352.884	251
353.267	237.21
353.65	264.1
354.032	262.75
354.414	268.85
354.797	264.56
355.179	296.19
355.562	295.74
355.944	302.07
356.326	292.13
356.709	308.85
357.091	303.65
357.473	279.7
357.855	308.4
358.238	311.11
358.62	309.98
359.002	316.98
359.384	301.84
359.766	308.62
360.148	299.58
360.53	323.99
360.912	293.03
361.294	285.57
361.676	288.74
362.057	303.65
362.439	299.58
362.821	293.71
363.203	280.6
363.584	284.22
363.966	293.48
364.348	290.54
364.729	284.67
365.111	294.16
365.493	282.18
365.874	277.66
366.256	291.9
366.637	293.93
367.019	282.86
367.4	281.96
367.781	269.98
368.163	275.18
368.544	267.72
368.925	278.79
369.306	279.02
369.688	257.55
370.069	264.78
370.45	258.68
370.831	254.39
371.212	286.93
371.593	291
371.974	275.63
372.355	257.78
372.736	286.02
373.117	254.84
373.498	259.58
373.879	269.98
374.26	267.72
374.641	256.19
375.021	277.44
375.402	279.47
375.783	277.89
376.163	276.53
376.544	272.46
376.925	279.47
377.305	269.07
377.686	279.92
378.066	275.4
378.447	281.05
378.827	290.54
379.208	287.38
379.588	281.5
379.968	287.61
380.349	270.2
380.729	284.89
381.109	262.52
381.489	282.41
381.87	288.28
382.25	280.83
382.63	272.24
383.01	287.15
383.39	268.62
383.77	295.51
384.15	286.48
384.53	281.96
384.91	297.1
385.29	277.21
385.67	283.54
386.049	280.37
386.429	284.67
386.809	284.44
387.189	286.25
387.568	291.22
387.948	274.72
388.328	278.57
388.707	285.57
389.087	302.52
389.466	280.37
389.846	300.03
390.225	300.71
390.605	272.24
390.984	298.45
391.363	279.02
391.743	283.31
392.122	297.55
392.501	294.38
392.881	287.15
393.26	288.06
393.639	283.54
394.018	286.7
394.397	325.34
394.776	306.59
395.155	305.46
395.534	295.06
395.913	313.37
396.292	282.63
396.671	300.03
397.05	294.84
397.429	288.06
397.808	299.58
398.186	286.48
398.565	290.09
398.944	302.29
399.323	293.03
399.701	309.53
400.08	288.06
400.458	270.2
400.837	293.71
401.215	321.5
401.594	295.97
401.972	296.87
402.351	300.49
402.729	314.27
403.107	299.13
403.486	295.74
403.864	294.61
404.242	284.22
404.62	282.63
404.999	295.06
405.377	284.67
405.755	309.98
406.133	280.6
406.511	298
406.889	304.78
407.267	317.21
407.645	312.92
408.023	309.07
408.401	306.14
408.779	308.4
409.156	318.11
409.534	311.79
409.912	317.66
410.29	297.32
410.667	318.79
411.045	291.67
411.422	304.1
411.8	295.74
412.178	302.07
412.555	300.94
412.933	308.17
413.31	310.43
413.687	298.68
414.065	335.06
414.442	326.25
414.819	307.49
415.197	297.55
415.574	313.14
415.951	316.31
416.328	297.55
416.705	302.52
417.082	288.74
417.46	290.54
417.837	296.64
418.214	308.85
418.591	308.17
418.967	302.52
419.344	303.42
419.721	291.9
420.098	302.29
420.475	320.82
420.852	316.31
421.228	304.78
421.605	302.97
421.982	303.65
422.358	314.72
422.735	296.42
423.111	293.03
423.488	307.72
423.864	306.81
424.241	303.42
424.617	309.53
424.994	318.79
425.37	316.31
425.746	321.5
426.123	305.46
426.499	309.75
426.875	304.55
427.251	314.05
427.627	292.8
428.003	298.23
428.379	294.38
428.756	307.94
429.132	295.06
429.507	345.01
429.883	342.75
430.259	309.07
430.635	314.95
431.011	323.31
431.387	300.71
431.763	321.95
432.138	306.36
432.514	328.51
432.89	306.36
433.265	337.32
433.641	333.71
434.016	333.25
434.392	339.13
434.767	300.26
435.143	316.08
435.518	336.64
435.894	305.68
436.269	313.59
436.644	325.57
437.02	312.46
437.395	333.03
437.77	328.51
438.145	337.1
438.52	340.71
438.895	325.12
439.271	323.99
439.646	337.32
440.021	318.34
440.395	331.9
440.77	335.97
441.145	337.32
441.52	342.29
441.895	344.55
442.27	322.41
442.645	338
443.019	342.97
443.394	330.77
443.769	361.28
444.143	356.53
444.518	359.02
444.892	344.1
445.267	341.62
445.641	353.37
446.016	351.78
446.39	367.6
446.764	363.76
447.139	358.56
447.513	377.77
447.887	349.07
448.262	353.82
448.636	363.54
449.01	372.35
449.384	361.95
449.758	333.93
450.132	356.53
450.506	379.58
450.88	368.06
451.254	382.52
451.628	354.04
452.002	385.23
452.376	357.89
452.75	361.73
453.123	371.9
453.497	358.79
453.871	353.59
454.244	390.43
454.618	357.21
454.992	383.65
455.365	358.34
455.739	363.08
456.112	362.18
456.486	369.86
456.859	379.81
457.232	341.39
457.606	348.39
457.979	347.26
458.352	367.83
458.725	373.7
459.099	373.03
459.472	336.87
459.845	351.78
460.218	358.79
460.591	354.95
460.964	360.15
461.337	346.36
461.71	361.95
462.083	366.02
462.456	356.08
462.829	381.61
463.201	360.37
463.574	340.71
463.947	363.31
464.32	366.7
464.692	350.88
465.065	345.68
465.438	350.2
465.81	372.12
466.183	357.43
466.555	347.26
466.928	365.57
467.3	344.78
467.672	330.54
468.045	322.86
468.417	359.92
468.789	348.85
469.161	338.68
469.534	364.89
469.906	365.8
470.278	341.16
470.65	341.39
471.022	367.15
471.394	365.8
471.766	349.3
472.138	338.68
472.51	360.15
472.882	348.17
473.253	363.76
473.625	344.55
473.997	369.19
474.369	366.47
474.74	356.3
475.112	353.14
475.484	333.03
475.855	352.91
476.227	343.2
476.598	355.4
476.97	346.36
477.341	350.2
477.713	351.11
478.084	352.24
478.455	340.49
478.827	352.91
479.198	359.69
479.569	365.8
479.94	351.33
480.311	361.05
480.682	346.81
481.053	343.2
481.424	352.24
481.795	361.73
482.166	343.2
482.537	347.04
482.908	367.38
483.279	367.15
483.65	377.32
484.021	347.72
484.391	351.56
484.762	370.77
485.133	373.93
485.503	354.04
485.874	381.16
486.244	347.49
486.615	363.54
486.985	367.83
487.356	355.4
487.726	375.06
488.097	356.76
488.467	358.79
488.837	354.72
489.207	372.35
489.578	361.73
489.948	365.57
490.318	371.9
490.688	373.93
491.058	363.08
491.428	368.73
491.798	383.2
492.168	367.15
492.538	362.63
492.908	376.19
493.278	388.62
493.648	380.71
494.017	401.73
494.387	363.54
494.757	366.02
495.126	361.73
495.496	361.73
495.866	377.09
496.235	404.66
496.605	373.48
496.974	373.25
497.344	394.72
497.713	381.16
498.082	391.33
498.452	396.76
498.821	381.39
499.19	393.82
499.559	390.88
499.928	378
500.298	382.74
500.667	380.71
501.036	398.34
501.405	396.53
501.774	405.79
502.143	382.97
502.512	405.57
502.88	398.34
503.249	398.34
503.618	417.09
503.987	419.13
504.356	403.99
504.724	398.11
505.093	405.12
505.462	404.44
505.83	415.74
506.199	405.34
506.567	398.79
506.936	406.92
507.304	424.55
507.672	422.97
508.041	417.77
508.409	417.77
508.777	426.81
509.145	420.71
509.514	413.25
509.882	428.62
510.25	421.61
510.618	412.57
510.986	420.94
511.354	450.09
511.722	455.28
512.09	416.64
512.458	426.81
512.826	427.04
513.193	454.61
513.561	436.53
513.929	433.82
514.297	449.86
514.664	440.37
515.032	444.89
515.4	464.78
515.767	450.76
516.135	456.41
516.502	464.55
516.869	439.01
517.237	434.49
517.604	441.95
517.972	453.25
518.339	450.99
518.706	458.9
519.073	466.36
519.44	481.72
519.808	469.3
520.175	470.65
520.542	445.79
520.909	455.74
521.276	469.52
521.643	460.26
522.009	465.45
522.376	495.51
522.743	479.24
523.11	461.16
523.477	458.67
523.843	459.58
524.21	458.45
524.577	460.71
524.943	470.43
525.31	476.08
525.676	463.19
526.043	487.83
526.409	481.95
526.776	468.39
527.142	475.4
527.508	486.24
527.874	479.92
528.241	496.41
528.607	467.49
528.973	483.98
529.339	481.05
529.705	509.75
530.071	473.36
530.437	492.8
530.803	492.57
531.169	507.71
531.535	490.54
531.901	493.25
532.267	495.28
532.632	500.03
532.998	494.83
533.364	493.02
533.73	498.22
534.095	506.36
534.461	494.38
534.826	498.22
535.192	490.09
535.557	503.64
535.923	486.02
536.288	499.13
536.653	497.77
537.019	502.52
537.384	496.64
537.749	506.36
538.114	492.8
538.479	514.27
538.845	489.41
539.21	507.94
539.575	511.55
539.94	493.7
540.305	513.14
540.67	497.09
541.034	499.13
541.399	495.74
541.764	514.27
542.129	507.26
542.494	523.31
542.858	510.65
543.223	516.07
543.587	528.05
543.952	522.85
544.316	515.62
544.681	526.92
545.045	540.71
545.41	501.39
545.774	512.91
546.138	501.39
546.503	505.23
546.867	538.9
547.231	534.38
547.595	521.05
547.959	523.08
548.324	503.64
548.688	507.03
549.052	540.03
549.416	525.34
549.779	519.24
550.143	518.79
550.507	502.06
550.871	525.57
551.235	532.57
551.599	507.26
551.962	540.03
552.326	525.11
552.689	554.72
553.053	544.77
553.417	534.38
553.78	564.89
554.143	539.12
554.507	523.08
554.87	547.49
555.234	524.66
555.597	522.85
555.96	530.08
556.323	557.2
556.686	535.51
557.05	545.68
557.413	545
557.776	541.84
558.139	538.67
558.502	543.87
558.865	553.14
559.228	540.25
559.59	552.46
559.953	544.55
560.316	541.16
560.679	554.04
561.041	547.03
561.404	540.71
561.767	568.28
562.129	540.71
562.492	551.33
562.854	543.87
563.217	553.59
563.579	557.88
563.941	567.82
564.304	560.37
564.666	553.14
565.028	553.81
565.39	565.79
565.753	568.05
566.115	550.65
566.477	554.72
566.839	564.43
567.201	585.45
567.563	572.12
567.925	565.79
568.287	584.32
568.648	565.56
569.01	571.44
569.372	566.24
569.734	580.48
570.095	562.63
570.457	566.92
570.819	606.02
571.18	554.27
571.542	580.48
571.903	573.47
572.265	565.34
572.626	580.93
572.987	585.22
573.349	569.86
573.71	565.79
574.071	577.54
574.432	604.43
574.794	578.9
575.155	575.73
575.516	582.29
575.877	592
576.238	581.83
576.599	588.16
576.96	574.15
577.32	585.68
577.681	576.64
578.042	593.59
578.403	583.19
578.763	585.9
579.124	594.49
579.485	565.34
579.845	576.64
580.206	593.59
580.566	576.64
580.927	567.6
581.287	585.22
581.648	585.9
582.008	574.38
582.368	577.77
582.728	584.77
583.089	564.89
583.449	572.12
583.809	602.85
584.169	576.41
584.529	582.96
584.889	588.61
585.249	584.09
585.609	594.94
585.969	573.02
586.329	596.75
586.688	582.29
587.048	596.98
587.408	572.8
587.768	579.12
588.127	575.73
588.487	559.01
588.846	609.18
589.206	590.87
589.565	571.89
589.925	577.09
590.284	557.43
590.643	580.48
591.003	592.46
591.362	575.51
591.721	580.25
592.08	579.12
592.44	571.67
592.799	561.04
593.158	596.98
593.517	586.81
593.876	572.8
594.235	584.32
594.593	577.99
594.952	562.63
595.311	538.22
595.67	582.96
596.029	543.64
596.387	549.29
596.746	573.7
597.104	579.58
597.463	588.16
597.822	580.71
598.18	576.64
598.538	562.63
598.897	554.04
599.255	577.09
599.613	590.42
599.972	554.72
600.33	572.34
600.688	574.6
601.046	552.91
601.404	561.04
601.762	555.4
602.12	571.21
602.478	586.81
602.836	581.83
603.194	567.15
603.552	567.15
603.91	587.03
604.268	574.6
604.625	586.81
604.983	581.83
605.341	560.37
605.698	566.02
606.056	571.44
606.413	569.63
606.771	549.97
607.128	562.63
607.485	542.06
607.843	561.04
608.2	556.07
608.557	551.33
608.914	566.69
609.272	558.11
609.629	561.95
609.986	540.71
610.343	558.56
610.7	539.35
611.057	522.4
611.414	546.13
611.771	546.13
612.127	550.65
612.484	554.72
612.841	534.83
613.198	520.82
613.554	532.8
613.911	533.25
614.267	547.94
614.624	521.72
614.98	548.39
615.337	533.7
615.693	533.47
616.05	517.2
616.406	547.94
616.762	550.2
617.118	537.54
617.475	533.93
617.831	564.21
618.187	528.73
618.543	519.24
618.899	533.47
619.255	523.08
619.611	512.46
619.967	514.49
620.323	531.89
620.678	508.84
621.034	521.95
621.39	533.93
621.746	528.05
622.101	521.05
622.457	513.59
622.812	517.66
623.168	499.58
623.523	520.14
623.879	520.59
624.234	521.72
624.589	512.91
624.945	492.57
625.3	504.32
625.655	508.84
626.01	531.67
626.365	520.82
626.72	510.65
627.075	511.33
627.43	495.74
627.785	488.05
628.14	508.62
628.495	509.75
628.85	490.99
629.205	505.9
629.559	510.42
629.914	511.1
630.269	525.11
630.623	494.38
630.978	488.28
631.332	516.3
631.687	499.58
632.041	509.75
632.396	493.02
632.75	483.53
633.104	500.48
633.459	464.1
633.813	482.85
634.167	479.69
634.521	466.81
634.875	489.41
635.229	477.43
635.583	478.56
635.937	488.96
636.291	475.4
636.645	470.65
636.999	469.97
637.352	482.4
637.706	472.91
638.06	463.42
638.413	470.2
638.767	467.94
639.121	472.91
639.474	467.94
639.828	458.45
640.181	458.45
640.534	470.2
640.888	453.48
641.241	459.58
641.594	461.61
641.947	448.28
642.301	455.06
642.654	476.53
643.007	466.81
643.36	447.38
643.713	466.81
644.066	427.26
644.419	440.37
644.771	441.95
645.124	429.52
645.477	437.88
645.83	431.33
646.182	415.29
646.535	430.2
646.888	444.21
647.24	439.24
647.593	453.25
647.945	426.58
648.298	438.79
648.65	442.4
649.002	427.26
649.355	430.65
649.707	425.45
650.059	436.08
650.411	428.84
650.763	442.86
651.115	415.74
651.467	443.53
651.819	441.27
652.171	464.78
652.523	431.56
652.875	429.3
653.227	443.53
653.578	436.3
653.93	417.32
654.282	431.56
654.633	425.91
654.985	428.84
655.337	414.38
655.688	442.4
656.039	427.49
656.391	426.13
656.742	430.88
657.094	397.66
657.445	409.64
657.796	414.61
658.147	416.19
658.498	429.52
658.849	418.9
659.2	420.48
659.551	423.2
659.902	430.88
660.253	422.29
660.604	427.26
660.955	399.92
661.306	410.54
661.656	410.09
662.007	417.77
662.358	398.56
662.708	421.84
663.059	395.4
663.409	427.26
663.76	412.12
664.11	407.15
664.461	393.82
664.811	391.78
665.161	403.76
665.511	402.18
665.862	387.72
666.212	399.01
666.562	396.98
666.912	394.72
667.262	400.82
667.612	404.66
667.962	376.42
668.312	389.98
668.662	391.11
669.011	411.67
669.361	395.85
669.711	377.09
670.06	387.04
670.41	401.27
670.76	375.74
671.109	385.68
671.459	382.52
671.808	384.55
672.157	387.72
672.507	388.62
672.856	387.49
673.205	377.09
673.554	385.46
673.904	385.68
674.253	395.63
674.602	392.01
674.951	351.56
675.3	381.39
675.649	385.23
675.998	373.7
676.346	384.55
676.695	366.02
677.044	370.54
677.393	379.58
677.741	369.41
678.09	380.03
678.438	372.35
678.787	397.21
679.135	368.96
679.484	362.63
679.832	387.04
680.181	373.48
680.529	374.83
680.877	359.02
681.225	366.93
681.573	364.21
681.922	370.99
682.27	369.41
682.618	344.55
682.966	364.89
683.314	370.99
683.661	364.67
684.009	353.37
684.357	350.43
684.705	360.6
685.053	375.51
685.4	373.03
685.748	364.21
686.095	359.69
686.443	363.08
686.79	349.07
687.138	368.06
687.485	376.19
687.832	351.11
688.18	361.5
688.527	371.45
688.874	370.32
689.221	366.25
689.568	362.63
689.915	378.45
690.262	359.92
690.609	362.18
690.956	350.88
691.303	351.78
691.65	364.89
691.997	368.06
692.344	344.33
692.69	339.36
693.037	363.31
693.383	352.46
693.73	371.9
694.077	354.27
694.423	355.4
694.769	357.21
695.116	361.95
695.462	363.99
695.808	361.73
696.155	363.99
696.501	346.36
696.847	359.47
697.193	340.94
697.539	341.16
697.885	357.43
698.231	346.13
698.577	357.43
698.923	365.57
699.269	372.8
699.614	352.91
699.96	358.11
700.306	353.14
700.651	363.54
700.997	341.16
701.342	356.08
701.688	357.43
702.033	337.77
702.379	340.49
702.724	353.82
703.069	345.23
703.415	342.07
703.76	344.55
704.105	372.8
704.45	375.96
704.795	350.65
705.14	340.03
705.485	355.4
705.83	344.55
706.175	347.49
706.52	352.46
706.865	365.12
707.209	340.71
707.554	340.49
707.899	339.58
708.243	322.41
708.588	350.43
708.932	354.04
709.277	341.39
709.621	353.59
709.966	354.95
710.31	349.3
710.654	319.24
710.998	341.39
711.342	353.14
711.687	352.46
712.031	347.49
712.375	332.8
712.719	331.45
713.063	330.09
713.407	355.85
713.75	358.56
714.094	354.04
714.438	345.01
714.782	346.13
715.125	327.83
715.469	347.26
715.812	345.91
716.156	335.74
716.499	349.75
716.843	335.74
717.186	336.19
717.53	351.56
717.873	337.77
718.216	335.29
718.559	330.32
718.902	323.76
719.246	320.6
719.589	337.32
719.932	333.48
720.275	362.63
720.617	349.07
720.96	332.58
721.303	316.76
721.646	342.97
721.989	347.49
722.331	353.59
722.674	339.81
723.016	366.02
723.359	336.87
723.701	334.61
724.044	308.85
724.386	356.3
724.729	342.97
725.071	322.18
725.413	348.62
725.755	345.23
726.097	347.94
726.439	354.72
726.782	318.34
727.124	330.09
727.465	319.24
727.807	329.41
728.149	338
728.491	328.51
728.833	351.78
729.175	320.6
729.516	312.69
729.858	332.8
730.199	344.78
730.541	328.06
730.882	340.26
731.224	339.58
731.565	351.33
731.906	346.59
732.248	325.12
732.589	320.15
732.93	316.76
733.271	355.17
733.612	333.93
733.953	336.87
734.294	338.23
734.635	340.94
734.976	325.12
735.317	341.39
735.658	323.31
735.999	320.15
736.339	344.55
736.68	342.75
737.021	342.97
737.361	336.64
737.702	340.03
738.042	344.33
738.383	328.73
738.723	332.8
739.063	340.94
739.404	335.29
739.744	341.16
740.084	330.32
740.424	326.25
740.764	345.01
741.104	332.8
741.444	319.69
741.784	335.06
742.124	343.2
742.464	328.51
742.804	336.64
743.143	316.76
743.483	299.58
743.823	323.08
744.162	328.51
744.502	329.64
744.841	323.76
745.181	346.59
745.52	336.64
745.86	349.52
746.199	342.07
746.538	336.87
746.877	327.38
747.216	352.24
747.556	349.07
747.895	329.41
748.234	338.23
748.573	315.18
748.911	346.81
749.25	341.62
749.589	325.34
749.928	339.58
750.267	342.29
750.605	321.5
750.944	327.15
751.283	327.15
751.621	342.07
751.96	344.1
752.298	346.36
752.636	343.42
752.975	333.71
753.313	332.58
753.651	331.67
753.989	352.24
754.327	345.68
754.666	344.1
755.004	337.55
755.342	328.73
755.679	322.63
756.017	324.89
756.355	341.39
756.693	324.67
757.031	315.63
757.368	323.99
757.706	335.06
758.044	310.2
758.381	329.64
758.719	316.53
759.056	330.09
759.394	338.68
759.731	326.93
760.068	333.93
760.405	316.76
760.743	344.1
761.08	335.74
761.417	306.81
761.754	333.48
762.091	328.73
762.428	325.12
762.765	345.46
763.102	317.44
763.438	320.37
763.775	323.99
764.112	327.38
764.449	330.54
764.785	315.63
765.122	338
765.458	349.75
765.795	323.31
766.131	326.25
766.467	326.7
766.804	322.63
767.14	337.55
767.476	316.08
767.812	324.67
768.148	329.41
768.485	331.22
768.821	333.93
769.157	313.82
769.492	343.65
769.828	335.06
770.164	333.71
770.5	343.88
770.836	315.18
771.171	330.99
771.507	312.69
771.842	325.12
772.178	337.77
772.513	333.71
772.849	321.05
773.184	334.84
773.519	325.34
773.855	332.58
774.19	349.98
774.525	344.78
774.86	336.87
775.195	342.75
775.53	333.48
775.865	332.35
776.2	332.8
776.535	341.84
776.87	306.14
777.205	337.32
777.539	328.51
777.874	310.66
778.209	328.51
778.543	364.21
778.878	317.66
779.212	323.99
779.547	318.57
779.881	334.16
780.215	323.54
780.55	330.09
780.884	325.12
781.218	338.68
781.552	316.98
781.886	342.52
782.22	341.84
782.554	338.45
782.888	329.41
783.222	328.51
783.556	327.15
783.889	326.02
784.223	330.77
784.557	323.54
784.89	323.31
785.224	329.41
785.557	308.4
785.891	307.27
786.224	330.99
786.558	328.96
786.891	315.85
787.224	330.54
787.557	307.27
787.891	320.6
788.224	337.1
788.557	321.5
788.89	329.86
789.223	331.9
789.556	329.41
789.888	316.53
790.221	318.11
790.554	307.94
790.887	323.99
791.219	352.24
791.552	318.57
791.884	319.02
792.217	311.33
792.549	324.44
792.882	331.45
793.214	324.67
793.546	330.99
793.879	319.24
794.211	339.36
794.543	322.18
794.875	309.53
795.207	322.86
795.539	314.27
795.871	322.41
796.203	325.12
796.535	315.63
796.867	332.35
797.198	324.21
797.53	336.42
797.862	329.64
798.193	326.93
798.525	338.68
798.856	320.15
799.188	336.64
799.519	319.69
799.85	348.85
800.182	312.92
800.513	317.44
800.844	323.76
801.175	338.9
801.506	299.36
801.837	323.31
802.168	314.72
802.499	339.58
802.83	319.69
803.161	327.38
803.491	320.37
803.822	316.31
804.153	307.72
804.483	347.94
804.814	314.05
805.145	318.11
805.475	313.59
805.805	325.8
806.136	325.34
806.466	314.72
806.796	346.59
807.126	321.05
807.457	316.08
807.787	331.22
808.117	321.95
808.447	328.73
808.777	336.19
809.107	330.32
809.436	330.09
809.766	331.67
810.096	338.45
810.426	333.48
810.755	320.6
811.085	336.42
811.414	334.16
811.744	343.42
812.073	339.81
812.403	331.67
812.732	328.06
813.061	330.32
813.39	330.32
813.719	309.3
814.049	326.25
814.378	335.97
814.707	339.36
815.036	321.73
815.365	329.86
815.693	312.69
816.022	330.77
816.351	310.2
816.68	345.68
817.008	338
817.337	309.07
817.665	325.12
817.994	319.24
818.322	330.09
818.651	307.04
818.979	312.46
819.307	328.73
819.636	321.5
819.964	316.31
820.292	325.34
820.62	317.66
820.948	315.18
821.276	336.64
821.604	326.93
821.932	326.47
822.259	319.47
822.587	338.23
822.915	337.1
823.243	341.62
823.57	332.8
823.898	328.51
824.225	321.28
824.553	292.13
824.88	343.65
825.207	322.86
825.535	319.24
825.862	332.12
826.189	341.16
826.516	318.11
826.843	306.81
827.17	315.18
827.497	324.21
827.824	316.08
828.151	311.11
828.478	343.42
828.805	314.27
829.131	328.06
829.458	324.44
829.785	329.41
830.111	314.72
830.438	329.41
830.764	329.86
831.09	322.18
831.417	309.53
831.743	318.57
832.069	321.05
832.395	319.24
832.722	326.7
833.048	324.67
833.374	308.85
833.7	315.18
834.026	318.57
834.351	322.41
834.677	316.53
835.003	299.81
835.329	343.88
835.654	310.2
835.98	319.92
836.306	325.57
836.631	314.95
836.956	326.47
837.282	324.67
837.607	346.13
837.932	325.34
838.258	324.67
838.583	310.88
838.908	317.21
839.233	319.69
839.558	310.66
839.883	331.22
840.208	333.48
840.533	322.63
840.858	320.6
841.182	309.75
841.507	335.29
841.832	325.8
842.156	344.1
842.481	343.2
842.805	323.99
843.13	326.93
843.454	325.12
843.778	319.69
844.103	334.61
844.427	328.06
844.751	331.67
845.075	328.28
845.399	311.79
845.723	322.63
846.047	328.51
846.371	310.88
846.695	315.63
847.019	324.44
847.343	339.13
847.666	334.16
847.99	306.59
848.313	307.04
848.637	325.34
848.96	309.75
849.284	315.85
849.607	329.64
849.931	314.5
850.254	314.95
850.577	312.69
850.9	328.73
851.223	327.15
851.546	319.24
851.869	307.04
852.192	333.48
852.515	289.19
852.838	313.59
853.161	308.4
853.483	309.98
853.806	321.95
854.129	316.76
854.451	342.75
854.774	340.71
855.096	305.23
855.419	330.77
855.741	333.71
856.063	320.37
856.385	324.21
856.708	324.21
857.03	303.88
857.352	316.76
857.674	324.21
857.996	308.4
858.318	329.86
858.64	319.24
858.961	326.7
859.283	328.51
859.605	323.76
859.926	312.92
860.248	313.82
860.57	314.05
860.891	321.05
861.212	305.68
861.534	321.95
861.855	329.19
862.176	325.12
862.498	320.15
862.819	331.9
863.14	329.19
863.461	320.6
863.782	313.59
864.103	326.93
864.424	323.76
864.745	319.47
865.065	311.33
865.386	333.48
865.707	319.47
866.027	312.46
866.348	338
866.668	333.93
866.989	341.39
867.309	335.97
867.63	312.46
867.95	334.84
868.27	316.76
868.59	334.61
868.91	297.32
869.23	311.79
869.55	300.94
869.87	330.32
870.19	335.74
870.51	339.81
870.83	326.02
871.15	310.43
871.469	331.67
871.789	322.18
872.109	333.71
872.428	333.71
872.748	318.11
873.067	341.39
873.386	319.47
873.706	306.81
874.025	327.6
874.344	307.94
874.663	309.75
874.982	310.2
875.301	303.42
875.62	312.69
875.939	314.5
876.258	294.61
876.577	318.79
876.896	308.17
877.214	330.77
877.533	311.33
877.852	325.57
878.17	327.6
878.489	321.28
878.807	321.5
879.125	338.23
879.444	314.72
879.762	329.86
880.08	316.76
880.398	316.08
880.716	319.47
881.034	337.77
881.352	317.44
881.67	339.13
881.988	313.82
882.306	300.03
882.624	323.31
882.941	307.04
883.259	335.51
883.577	312.01
883.894	323.99
884.212	320.82
884.529	304.78
884.846	318.79
885.164	323.08
885.481	338.9
885.798	333.93
886.115	330.54
886.432	325.12
886.75	314.72
887.067	317.44
887.383	325.34
887.7	315.4
888.017	337.77
888.334	328.06
888.651	313.82
888.967	315.85
889.284	322.41
889.6	327.6
889.917	333.48
890.233	322.41
890.55	340.26
890.866	343.2
891.182	332.8
891.498	299.13
891.815	324.21
892.131	314.05
892.447	326.93
892.763	317.44
893.079	325.12
893.395	318.79
893.71	310.2
894.026	314.95
894.342	333.71
894.657	319.69
894.973	299.58
895.289	321.73
895.604	306.59
895.92	308.85
896.235	322.41
896.55	326.02
896.865	331.67
897.181	328.06
897.496	294.61
897.811	312.46
898.126	306.36
898.441	314.95
898.756	323.08
899.071	318.34
899.386	326.93
899.7	305.46
900.015	305.23
900.33	320.82
900.644	309.53
900.959	329.19
901.273	321.28
901.588	314.5
901.902	314.5
902.216	325.12
902.531	314.95
902.845	310.66
903.159	303.42
903.473	339.81
903.787	315.18
904.101	324.67
904.415	303.42
904.729	315.18
905.042	323.99
905.356	302.29
905.67	319.69
905.984	328.28
906.297	352.69
906.611	338.9
906.924	312.69
907.237	321.5
907.551	320.82
907.864	326.7
908.177	317.66
908.491	334.84
908.804	305.23
909.117	304.33
909.43	328.06
909.743	306.59
910.056	333.03
910.368	315.85
910.681	328.06
910.994	320.82
911.307	322.86
911.619	314.5
911.932	324.67
912.244	311.56
912.557	321.73
912.869	338.68
913.181	321.05
913.494	321.05
913.806	326.47
914.118	294.61
914.43	325.8
914.742	324.44
915.054	290.77
915.366	313.59
915.678	310.66
915.99	318.34
916.302	331.22
916.613	291
916.925	337.32
917.236	326.7
917.548	317.89
917.859	321.73
918.171	302.97
918.482	310.88
918.794	320.6
919.105	308.17
919.416	314.5
919.727	311.79
920.038	314.95
920.349	315.18
920.66	318.11
920.971	320.15
921.282	334.16
921.593	312.46
921.903	306.14
922.214	329.86
922.525	324.67
922.835	313.59
923.146	323.08
923.456	301.62
923.767	323.99
924.077	323.99
924.387	315.18
924.697	314.72
925.008	301.62
925.318	307.94
925.628	334.61
925.938	302.97
926.248	311.33
926.558	302.07
926.867	312.24
927.177	319.24
927.487	322.63
927.796	310.2
928.106	335.74
928.416	328.73
928.725	308.62
929.034	333.71
929.344	339.36
929.653	328.73
929.962	317.66
930.271	309.98
930.581	337.55
930.89	334.84
931.199	322.18
931.508	315.63
931.817	317.44
932.125	308.62
932.434	314.95
932.743	314.05
933.051	321.5
933.36	323.54
933.669	332.8
933.977	316.53
934.286	322.41
934.594	324.67
934.902	307.04
935.21	317.89
935.519	340.03
935.827	315.18
936.135	315.63
936.443	325.57
936.751	322.86
937.059	300.94
937.367	330.54
937.674	320.82
937.982	313.59
938.29	314.72
938.597	322.86
938.905	321.73
939.213	329.64
939.52	323.31
939.827	309.3
940.135	333.93
940.442	332.35
940.749	314.5
941.056	319.69
941.363	305.91
941.67	330.77
941.977	313.14
942.284	312.69
942.591	322.63
942.898	324.89
943.205	311.33
943.511	326.25
943.818	315.63
944.125	331.22
944.431	331.9
944.738	309.07
945.044	323.99
945.35	317.44
945.657	310.43
945.963	313.14
946.269	312.24
946.575	332.8
946.881	316.53
947.187	314.05
947.493	302.97
947.799	310.2
948.105	326.02
948.41	320.82
948.716	332.35
949.022	315.4
949.327	300.49
949.633	316.31
949.938	301.39
950.244	321.73
950.549	313.37
950.854	334.84
951.16	312.46
951.465	315.18
951.77	312.24
952.075	325.34
952.38	311.33
952.685	310.88
952.99	319.69
953.294	326.02
953.599	309.75
953.904	306.36
954.209	315.85
954.513	319.47
954.818	338.68
955.122	295.74
955.426	294.61
955.731	311.56
956.035	326.25
956.339	312.46
956.643	317.66
956.948	308.62
957.252	322.41
957.556	311.79
957.86	306.14
958.163	319.02
958.467	327.6
958.771	317.44
959.075	335.97
959.378	312.69
959.682	320.6
959.985	321.95
960.289	329.19
960.592	324.67
960.896	306.14
961.199	310.2
961.502	312.01
961.805	331.9
962.108	308.17
962.411	329.41
962.714	323.76
963.017	320.15
963.32	323.31
963.623	309.98
963.926	321.28
964.228	309.07
964.531	324.21
964.833	318.79
965.136	318.11
965.438	317.21
965.741	298
966.043	312.69
966.345	322.63
966.648	322.63
966.95	305.23
967.252	310.88
967.554	306.36
967.856	326.7
968.158	328.51
968.46	323.99
968.761	319.24
969.063	322.41
969.365	305.46
969.666	317.44
969.968	300.71
970.269	347.26
970.571	296.64
970.872	328.73
971.174	292.58
971.475	295.74
971.776	319.47
972.077	304.78
972.378	319.47
972.679	313.14
972.98	311.33
973.281	337.77
973.582	307.49
973.883	313.59
974.183	311.33
974.484	312.92
974.785	297.32
975.085	309.53
975.386	293.48
975.686	314.72
975.986	309.53
976.287	329.86
976.587	326.7
976.887	314.27
977.187	315.4
977.487	331.67
977.787	334.84
978.087	297.77
978.387	312.92
978.687	305.91
978.987	332.35
979.286	312.69
979.586	319.69
979.885	325.57
980.185	330.99
980.484	302.75
980.784	310.2
981.083	311.79
981.382	311.33
981.682	312.24
981.981	318.11
982.28	313.37
982.579	311.33
982.878	316.98
983.177	319.24
983.475	331.9
983.774	328.96
984.073	317.66
984.372	321.5
984.67	331.67
984.969	333.71
985.267	315.85
985.566	309.3
985.864	313.82
986.162	329.19
986.461	336.19
986.759	337.32
987.057	312.92
987.355	326.25
987.653	318.34
987.951	345.68
988.249	315.18
988.547	332.58
988.844	311.11
989.142	307.72
989.44	335.51
989.737	314.95
990.035	339.13
990.332	317.89
990.63	325.12
990.927	308.62
991.224	321.73
991.521	318.34
991.819	312.92
992.116	316.53
992.413	307.27
992.71	326.93
993.006	298.45
993.303	323.08
993.6	320.37
993.897	308.62
994.193	307.72
994.49	307.04
994.787	307.49
995.083	324.21
995.379	300.71
995.676	332.8
995.972	301.16
996.268	330.54
996.565	321.05
996.861	316.31
997.157	315.18
997.453	298
997.749	303.42
998.044	309.53
998.34	316.53
998.636	316.08
998.932	300.71
999.227	339.36
999.523	333.48
999.818	304.55
1000.114	304.33
1000.409	307.04
1000.704	315.4
1001	304.78
1001.295	326.02
1001.59	335.06
1001.885	330.77
1002.18	323.08
1002.475	310.43
1002.77	305.46
1003.065	310.88
1003.359	310.2
1003.654	317.66
1003.949	317.21
1004.243	321.05
1004.538	304.33
1004.832	318.11
1005.127	332.58
1005.421	322.86
1005.715	324.21
1006.009	319.24
1006.304	307.49
1006.598	318.34
1006.892	297.55
1007.186	318.57
1007.48	335.29
1007.773	310.88
1008.067	330.99
1008.361	312.01
1008.655	332.35
1008.948	332.8
1009.242	317.66
1009.535	320.82
1009.829	302.07
1010.122	321.73
1010.415	307.72
1010.708	322.63
1011.001	313.37
1011.295	342.52
1011.588	327.38
1011.881	328.06
1012.173	308.4
1012.466	307.94
1012.759	330.77
1013.052	314.95
1013.344	347.04
1013.637	322.86
1013.93	309.75
1014.222	287.15
1014.514	304.78
1014.807	318.34
1015.099	303.42
1015.391	301.84
1015.683	327.38
1015.976	321.95
1016.268	323.99
1016.56	305.46
1016.851	305.91
1017.143	322.86
1017.435	309.3
1017.727	322.63
1018.018	333.25
1018.31	308.85
1018.602	313.82
1018.893	309.53
1019.185	317.21
1019.476	313.82
1019.767	335.97
1020.058	334.16
1020.35	323.31
1020.641	299.36
1020.932	331.67
1021.223	310.88
1021.514	311.33
1021.804	316.08
1022.095	309.07
1022.386	316.76
1022.677	311.79
1022.967	307.49
1023.258	304.33
1023.548	311.11
1023.839	323.31
1024.129	313.14
1024.419	326.25
1024.709	314.5
1025	310.2
1025.29	300.26
1025.58	321.5
1025.87	331.22
1026.16	292.13
1026.449	298.45
1026.739	319.02
1027.029	327.15
1027.319	322.86
1027.608	312.01
1027.898	315.63
1028.187	311.11
1028.477	323.08
1028.766	317.66
1029.055	304.78
1029.344	324.21
1029.634	306.14
1029.923	320.15
1030.212	314.5
1030.501	334.16
1030.79	308.4
1031.078	311.56
1031.367	315.18
1031.656	305.23
1031.945	297.55
1032.233	337.77
1032.522	309.07
1032.81	324.44
1033.099	329.86
1033.387	326.93
1033.675	327.15
1033.963	307.94
1034.251	307.04
1034.54	341.62
1034.828	305.68
1035.116	309.3
1035.403	304.55
1035.691	306.14
1035.979	306.59
1036.267	309.07
1036.554	300.26
1036.842	321.28
1037.129	314.05
1037.417	316.53
1037.704	314.05
1037.992	333.03
1038.279	318.11
1038.566	295.51
1038.853	295.51
1039.14	295.51
