Data from No_light_on_white_reflection_standard_FLMS001491_037.txt Node
Date: Tue Feb 07 10:32:59 GMT 2017
User: dcchb
Spectrometer: FLMS00149
Trigger mode: 0
Integration Time (sec): 2.000000E-2
Scans to average: 10
Electric dark correction enabled: true
Nonlinearity correction enabled: false
Boxcar width: 0
XAxis mode: Wavelengths
Number of Pixels in Spectrum: 2048
>>>>>Begin Spectral Data<<<<<
341.393	-17.53
341.776	-17.53
342.16	-17.53
342.543	-55.72
342.927	-73.57
343.31	-59.33
343.693	-82.38
344.077	-65.66
344.46	-71.09
344.843	-72.89
345.226	-43.97
345.61	-22.95
345.993	-11.2
346.376	5.3
346.759	18.18
347.142	29.93
347.525	43.26
347.908	60.89
348.291	77.61
348.674	97.5
349.057	96.82
349.44	139.53
349.823	133.43
350.206	136.14
350.588	163.71
350.971	176.14
351.354	206.87
351.737	212.07
352.119	221.56
352.502	217.27
352.884	255.01
353.267	257.72
353.65	257.72
354.032	270.15
354.414	274.22
354.797	269.92
355.179	273.09
355.562	292.07
355.944	295.23
356.326	294.55
356.709	299.98
357.091	321.9
357.473	320.77
357.855	310.15
358.238	308.11
358.62	319.19
359.002	319.41
359.384	301.79
359.766	290.49
360.148	308.34
360.53	316.25
360.912	300.2
361.294	293.88
361.676	284.84
362.057	314.44
362.439	293.2
362.821	287.32
363.203	274.89
363.584	280.54
363.966	289.58
364.348	286.19
364.729	297.27
365.111	297.27
365.493	287.1
365.874	279.87
366.256	264.27
366.637	276.93
367.019	274.22
367.4	275.57
367.781	261.79
368.163	260.66
368.544	278.28
368.925	267.21
369.306	310.37
369.688	269.02
370.069	290.49
370.45	268.79
370.831	280.54
371.212	268.79
371.593	277.83
371.974	268.11
372.355	265.4
372.736	258.62
373.117	293.88
373.498	288
373.879	276.25
374.26	273.31
374.641	278.96
375.021	265.63
375.402	292.29
375.783	273.99
376.163	277.38
376.544	269.02
376.925	285.29
377.305	288.45
377.686	289.36
378.066	288.23
378.447	276.93
378.827	295.23
379.208	296.36
379.588	284.84
379.968	299.75
380.349	272.86
380.729	278.28
381.109	267.89
381.489	277.61
381.87	273.99
382.25	284.84
382.63	295.01
383.01	273.54
383.39	278.74
383.77	295.68
384.15	270.83
384.53	299.75
384.91	297.72
385.29	306.08
385.67	297.72
386.049	287.1
386.429	292.75
386.809	295.01
387.189	271.73
387.568	274.89
387.948	303.59
388.328	295.23
388.707	298.85
389.087	296.81
389.466	287.32
389.846	290.49
390.225	293.2
390.605	309.47
390.984	285.52
391.363	265.85
391.743	292.29
392.122	280.09
392.501	287.55
392.881	311.73
393.26	283.71
393.639	300.2
394.018	291.84
394.397	303.59
394.776	276.48
395.155	306.08
395.534	297.04
395.913	266.53
396.292	308.34
396.671	289.36
397.05	315.12
397.429	292.07
397.808	286.42
398.186	273.31
398.565	301.56
398.944	292.97
399.323	300.2
399.701	293.2
400.08	288.9
400.458	297.94
400.837	301.11
401.215	300.2
401.594	290.26
401.972	297.04
402.351	304.27
402.729	288.9
403.107	296.81
403.486	305.4
403.864	285.06
404.242	302.92
404.62	296.59
404.999	283.03
405.377	300.88
405.755	304.27
406.133	283.71
406.511	295.01
406.889	286.65
407.267	310.37
407.645	290.94
408.023	279.64
408.401	315.12
408.779	292.97
409.156	309.47
409.534	298.4
409.912	300.66
410.29	316.93
410.667	301.56
411.045	281.67
411.422	287.77
411.8	310.37
412.178	316.25
412.555	309.92
412.933	322.12
413.31	292.75
413.687	313.08
414.065	297.94
414.442	296.36
414.819	312.86
415.197	316.93
415.574	296.59
415.951	299.75
416.328	303.14
416.705	303.59
417.082	303.59
417.46	293.88
417.837	321.9
418.214	311.96
418.591	329.81
418.967	308.79
419.344	306.98
419.721	296.81
420.098	292.29
420.475	317.6
420.852	306.08
421.228	283.48
421.605	308.34
421.982	303.37
422.358	325.74
422.735	302.46
423.111	289.13
423.488	300.2
423.864	295.46
424.241	310.6
424.617	328
424.994	302.24
425.37	326.64
425.746	303.14
426.123	321.67
426.499	315.8
426.875	296.81
427.251	305.63
427.627	318.73
428.003	307.89
428.379	321.22
428.756	324.84
429.132	302.69
429.507	325.29
429.883	315.34
430.259	318.28
430.635	290.03
431.011	302.01
431.387	297.27
431.763	324.84
432.138	322.12
432.514	327.55
432.89	321.67
433.265	304.27
433.641	336.59
434.016	317.38
434.392	333.65
434.767	320.99
435.143	325.06
435.518	333.42
435.894	323.03
436.269	331.62
436.644	329.36
437.02	322.12
437.395	327.1
437.77	307.44
438.145	326.42
438.52	320.77
438.895	337.72
439.271	320.32
439.646	329.36
440.021	328.68
440.395	346.08
440.77	338.62
441.145	323.25
441.52	339.75
441.895	336.81
442.27	338.4
442.645	349.02
443.019	366.42
443.394	342.69
443.769	347.89
444.143	356.02
444.518	348.79
444.892	346.3
445.267	344.5
445.641	361.22
446.016	364.61
446.39	361.9
446.764	345.4
447.139	354.89
447.513	340.2
447.887	349.92
448.262	363.03
448.636	345.4
449.01	360.99
449.384	370.71
449.758	357.6
450.132	363.48
450.506	355.12
450.88	377.72
451.254	342.91
451.628	365.96
452.002	371.84
452.376	384.27
452.75	389.02
453.123	382.69
453.497	365.96
453.871	374.1
454.244	384.5
454.618	362.8
454.992	368.45
455.365	376.81
455.739	364.38
456.112	365.29
456.486	365.74
456.859	358.73
457.232	369.58
457.606	366.19
457.979	385.17
458.352	365.96
458.725	337.49
459.099	379.52
459.472	351.95
459.845	357.15
460.218	349.92
460.591	347.89
460.964	370.26
461.337	343.14
461.71	365.06
462.083	353.54
462.456	363.03
462.829	357.6
463.201	360.54
463.574	344.95
463.947	356.93
464.32	347.21
464.692	365.06
465.065	357.83
465.438	360.99
465.81	337.27
466.183	358.28
466.555	364.38
466.928	333.88
467.3	348.34
467.672	349.02
468.045	346.98
468.417	351.05
468.789	345.4
469.161	334.1
469.534	331.39
469.906	344.95
470.278	354.89
470.65	368.45
471.022	364.16
471.394	359.64
471.766	372.07
472.138	355.12
472.51	362.8
472.882	370.94
473.253	336.81
473.625	370.94
473.997	362.8
474.369	340.43
474.74	364.16
475.112	363.25
475.484	378.39
475.855	347.66
476.227	344.95
476.598	331.84
476.97	346.76
477.341	369.13
477.713	351.95
478.084	356.7
478.455	342.69
478.827	337.27
479.198	357.38
479.569	341.11
479.94	363.03
480.311	355.34
480.682	353.99
481.053	346.98
481.424	364.61
481.795	372.52
482.166	366.64
482.537	358.51
482.908	348.11
483.279	341.78
483.65	367.09
484.021	346.08
484.391	367.77
484.762	363.48
485.133	353.99
485.503	330.26
485.874	365.06
486.244	366.19
486.615	364.16
486.985	362.8
487.356	348.79
487.726	375.46
488.097	382.91
488.467	381.33
488.837	364.16
489.207	365.51
489.578	397.6
489.948	364.38
490.318	376.36
490.688	376.36
491.058	386.53
491.428	387.89
491.798	378.85
492.168	375.46
492.538	389.92
492.908	379.75
493.278	369.58
493.648	387.43
494.017	394.89
494.387	390.6
494.757	383.82
495.126	402.8
495.496	377.72
495.866	391.95
496.235	385.85
496.605	400.09
496.974	406.87
497.344	384.5
497.713	401.9
498.082	380.88
498.452	400.09
498.821	405.51
499.19	373.87
499.559	376.81
499.928	393.99
500.298	407.09
500.667	384.04
501.036	388.34
501.405	414.55
501.774	414.33
502.143	412.07
502.512	427.43
502.88	434.44
503.249	396.7
503.618	406.19
503.987	413.65
504.356	405.74
504.724	418.39
505.093	432.18
505.462	409.58
505.83	405.96
506.199	427.88
506.567	416.13
506.936	431.73
507.304	412.52
507.672	393.99
508.041	425.62
508.409	427.43
508.777	422.23
509.145	436.47
509.514	428.34
509.882	415.46
510.25	431.5
510.618	422.46
510.986	437.38
511.354	443.03
511.722	422.23
512.09	434.89
512.458	440.77
512.826	424.49
513.193	445.74
513.561	455.45
513.929	429.24
514.297	462.23
514.664	429.24
515.032	438.51
515.4	443.48
515.767	442.12
516.135	462.23
516.502	461.56
516.869	465.4
517.237	468.34
517.604	462.01
517.972	455.68
518.339	437.6
518.706	439.86
519.073	442.8
519.44	434.66
519.808	446.41
520.175	469.92
520.542	446.19
520.909	488.22
521.276	464.72
521.643	469.92
522.009	445.51
522.376	474.89
522.743	467.43
523.11	464.04
523.477	455.45
523.843	477.6
524.21	445.96
524.577	488.67
524.943	470.37
525.31	473.53
525.676	474.21
526.043	464.49
526.409	477.83
526.776	499.07
527.142	497.94
527.508	480.31
527.874	483.02
528.241	486.41
528.607	482.57
528.973	484.83
529.339	489.8
529.705	493.87
530.071	498.39
530.437	502.91
530.803	504.72
531.169	499.52
531.535	498.16
531.901	508.33
532.267	496.36
532.632	500.2
532.998	488.67
533.364	492.74
533.73	497.26
534.095	491.39
534.461	497.03
534.826	504.04
535.192	488.67
535.557	517.37
535.923	484.83
536.288	479.86
536.653	483.7
537.019	492.29
537.384	502.91
537.749	513.53
538.114	495.45
538.479	505.4
538.845	506.75
539.21	502.91
539.575	517.37
539.94	506.3
540.305	505.4
540.67	505.17
541.034	513.31
541.399	523.47
541.764	499.75
542.129	504.49
542.494	518.73
542.858	494.1
543.223	513.98
543.587	503.59
543.952	505.62
544.316	501.55
544.681	512.85
545.045	506.53
545.41	515.34
545.774	519.86
546.138	518.96
546.503	524.15
546.867	509.92
547.231	514.66
547.595	520.09
547.959	532.06
548.324	515.57
548.688	510.82
549.052	525.06
549.416	514.44
549.779	518.5
550.143	510.14
550.507	497.94
550.871	523.25
551.235	523.93
551.599	512.4
551.962	512.85
552.326	530.03
552.689	531.38
553.053	530.25
553.417	507.88
553.78	552.17
554.143	534.55
554.507	537.71
554.87	539.75
555.234	536.36
555.597	536.58
555.96	527.99
556.323	541.1
556.686	535.9
557.05	545.85
557.413	518.73
557.776	532.97
558.139	527.09
558.502	544.04
558.865	539.52
559.228	540.88
559.59	556.92
559.953	555.56
560.316	562.12
560.679	546.98
561.041	552.63
561.404	562.8
561.767	530.71
562.129	512.85
562.492	551.5
562.854	566.19
563.217	551.04
563.579	547.2
563.941	551.95
564.304	562.57
564.666	545.85
565.028	550.37
565.39	555.34
565.753	560.31
566.115	565.28
566.477	565.96
566.839	565.73
567.201	554.89
567.563	558.95
567.925	546.75
568.287	562.34
568.648	566.41
569.01	577.03
569.372	555.79
569.734	576.35
570.095	582.68
570.457	587.65
570.819	574.32
571.18	558.05
571.542	569.8
571.903	584.72
572.265	565.28
572.626	567.32
572.987	584.26
573.349	565.96
573.71	577.26
574.071	575.9
574.432	587.43
574.794	560.54
575.155	575.45
575.516	572.06
575.877	579.97
576.238	556.24
576.599	582
576.96	586.75
577.32	601.89
577.681	574.55
578.042	586.07
578.403	586.98
578.763	583.36
579.124	578.84
579.485	606.86
579.845	582.23
580.206	575
580.566	577.48
580.927	549.69
581.287	591.95
581.648	571.84
582.008	596.47
582.368	590.59
582.728	570.93
583.089	590.37
583.449	581.78
583.809	581.78
584.169	586.07
584.529	571.84
584.889	592.63
585.249	579.07
585.609	586.52
585.969	587.43
586.329	560.54
586.688	587.43
587.048	574.1
587.408	560.99
587.768	592.85
588.127	594.21
588.487	579.52
588.846	582.23
589.206	558.5
589.565	581.1
589.925	571.61
590.284	576.81
590.643	583.13
591.003	552.63
591.362	585.62
591.721	562.34
592.08	569.35
592.44	574.55
592.799	566.86
593.158	563.47
593.517	585.17
593.876	554.89
594.235	575.45
594.593	556.02
594.952	559.41
595.311	582.23
595.67	563.25
596.029	570.71
596.387	566.86
596.746	575.68
597.104	593.08
597.463	564.83
597.822	585.17
598.18	566.19
598.538	573.42
598.897	561.44
599.255	567.99
599.613	563.25
599.972	575.45
600.33	578.39
600.688	579.97
601.046	562.34
601.404	550.82
601.762	565.73
602.12	542.23
602.478	551.72
602.836	560.08
603.194	567.77
603.552	578.16
603.91	567.32
604.268	545.17
604.625	570.71
604.983	563.93
605.341	563.93
605.698	544.27
606.056	554.89
606.413	556.92
606.771	578.39
607.128	549.69
607.485	554.89
607.843	548.33
608.2	561.89
608.557	550.59
608.914	554.21
609.272	543.36
609.629	570.25
609.986	563.93
610.343	552.85
610.7	555.79
611.057	553.08
611.414	537.26
611.771	554.66
612.127	525.73
612.484	552.63
612.841	552.63
613.198	541.33
613.554	553.08
613.911	539.29
614.267	530.48
614.624	529.58
614.98	530.93
615.337	554.43
615.693	552.17
616.05	547.43
616.406	533.19
616.762	535.68
617.118	535.68
617.475	527.32
617.831	519.18
618.187	540.65
618.543	536.58
618.899	540.2
619.255	540.88
619.611	519.18
619.967	543.59
620.323	509.92
620.678	525.96
621.034	511.05
621.39	522.57
621.746	530.93
622.101	499.07
622.457	525.28
622.812	532.29
623.168	509.92
623.523	504.94
623.879	547.2
624.234	500.42
624.589	506.53
624.945	527.99
625.3	509.46
625.655	504.72
626.01	510.82
626.365	516.47
626.72	505.17
627.075	509.69
627.43	510.59
627.785	513.76
628.14	494.78
628.495	492.74
628.85	472.4
629.205	495
629.559	502.68
629.914	516.02
630.269	509.01
630.623	497.71
630.978	495.91
631.332	489.58
631.687	487.77
632.041	479.63
632.396	473.53
632.75	495.23
633.104	486.41
633.459	502.23
633.813	494.55
634.167	477.6
634.521	479.18
634.875	491.61
635.229	504.49
635.583	466.08
635.937	473.31
636.291	459.07
636.645	464.04
636.999	477.6
637.352	473.31
637.706	473.98
638.06	477.83
638.413	472.85
638.767	483.02
639.121	455.68
639.474	469.24
639.828	498.62
640.181	473.98
640.534	457.26
640.888	498.16
641.241	462.23
641.594	467.21
641.947	460.43
642.301	442.57
642.654	452.74
643.007	447.77
643.36	441.67
643.713	459.52
644.066	448.22
644.419	453.19
644.771	459.07
645.124	443.7
645.477	430.82
645.83	430.6
646.182	429.47
646.535	448.9
646.888	449.35
647.24	442.57
647.593	431.95
647.945	442.35
648.298	458.17
648.65	444.83
649.002	419.52
649.355	439.86
649.707	418.39
650.059	414.33
650.411	428.11
650.763	443.48
651.115	431.27
651.467	392.4
651.819	412.29
652.171	456.36
652.523	430.37
652.875	416.36
653.227	417.04
653.578	438.96
653.93	417.49
654.282	405.96
654.633	415.68
654.985	424.95
655.337	422.01
655.688	407.55
656.039	410.26
656.391	438.28
656.742	419.75
657.094	399.41
657.445	423.36
657.796	418.39
658.147	420.43
658.498	424.72
658.849	420.2
659.2	403.7
659.551	431.27
659.902	423.82
660.253	419.07
660.604	394.21
660.955	409.13
661.306	393.76
661.656	414.78
662.007	402.12
662.358	423.82
662.708	423.82
663.059	409.35
663.409	397.38
663.76	404.38
664.11	405.06
664.461	419.52
664.811	410.48
665.161	385.63
665.511	386.98
665.862	398.96
666.212	386.98
666.562	414.55
666.912	389.69
667.262	395.34
667.612	400.99
667.962	390.6
668.312	412.74
668.662	406.19
669.011	418.17
669.361	376.36
669.711	384.5
670.06	399.86
670.41	382.46
670.76	404.16
671.109	401.22
671.459	373.42
671.808	375.46
672.157	366.19
672.507	379.98
672.856	396.92
673.205	387.43
673.554	371.84
673.904	389.24
674.253	387.43
674.602	385.4
674.951	369.13
675.3	359.86
675.649	367.55
675.998	382.69
676.346	370.48
676.695	391.95
677.044	376.36
677.393	383.37
677.741	385.4
678.09	392.18
678.438	367.77
678.787	381.56
679.135	366.19
679.484	387.66
679.832	380.88
680.181	398.05
680.529	374.1
680.877	388.79
681.225	370.26
681.573	394.66
681.922	379.3
682.27	378.39
682.618	355.12
682.966	372.97
683.314	371.39
683.661	391.95
684.009	383.59
684.357	378.39
684.705	367.55
685.053	377.72
685.4	397.6
685.748	373.42
686.095	381.78
686.443	365.06
686.79	365.06
687.138	382.01
687.485	357.83
687.832	337.94
688.18	346.76
688.527	357.83
688.874	372.74
689.221	368.68
689.568	382.46
689.915	353.99
690.262	354.21
690.609	363.93
690.956	362.35
691.303	353.76
691.65	363.25
691.997	360.09
692.344	348.56
692.69	355.34
693.037	375.46
693.383	359.41
693.73	357.6
694.077	355.8
694.423	362.35
694.769	348.34
695.116	355.8
695.462	378.39
695.808	361.22
696.155	372.07
696.501	343.14
696.847	347.43
697.193	362.35
697.539	351.5
697.885	361.22
698.231	347.66
698.577	337.04
698.923	329.58
699.269	361.9
699.614	377.04
699.96	364.16
700.306	335.23
700.651	350.82
700.997	356.7
701.342	361.22
701.688	360.09
702.033	351.05
702.379	357.38
702.724	371.61
703.069	351.95
703.415	344.27
703.76	336.36
704.105	344.04
704.45	341.56
704.795	360.54
705.14	347.43
705.485	318.51
705.83	328.45
706.175	350.37
706.52	333.2
706.865	346.08
707.209	336.14
707.554	351.5
707.899	351.28
708.243	333.2
708.588	353.31
708.932	345.63
709.277	352.86
709.621	372.74
709.966	351.5
710.31	339.75
710.654	366.19
710.998	337.72
711.342	355.34
711.687	343.82
712.031	334.1
712.375	354.21
712.719	348.79
713.063	346.76
713.407	349.02
713.75	340.2
714.094	335.23
714.438	338.62
714.782	356.93
715.125	344.72
715.469	337.04
715.812	317.6
716.156	338.17
716.499	348.79
716.843	332.07
717.186	339.07
717.53	360.32
717.873	338.62
718.216	337.04
718.559	326.19
718.902	358.28
719.246	327.55
719.589	341.33
719.932	348.79
720.275	331.39
720.617	338.17
720.96	336.59
721.303	337.27
721.646	356.02
721.989	324.61
722.331	339.98
722.674	352.63
723.016	331.62
723.359	321.45
723.701	344.27
724.044	329.58
724.386	341.78
724.729	340.88
725.071	334.33
725.413	342.91
725.755	330.71
726.097	333.88
726.439	351.95
726.782	333.65
727.124	334.78
727.465	318.28
727.807	340.65
728.149	344.04
728.491	342.24
728.833	311.96
729.175	326.64
729.516	340.65
729.858	324.61
730.199	357.83
730.541	315.34
730.882	326.42
731.224	349.24
731.565	343.82
731.906	313.76
732.248	322.58
732.589	345.63
732.93	342.46
733.271	335.23
733.612	319.64
733.953	344.04
734.294	346.53
734.635	337.27
734.976	338.4
735.317	311.73
735.658	320.77
735.999	332.75
736.339	330.26
736.68	320.77
737.021	334.33
737.361	327.32
737.702	336.36
738.042	352.18
738.383	332.75
738.723	321.9
739.063	329.58
739.404	326.42
739.744	339.98
740.084	326.87
740.424	341.56
740.764	337.27
741.104	333.88
741.444	332.52
741.784	344.95
742.124	348.11
742.464	340.65
742.804	313.76
743.143	331.62
743.483	331.16
743.823	316.02
744.162	328.68
744.502	307.21
744.841	338.4
745.181	350.15
745.52	321.67
745.86	316.47
746.199	329.13
746.538	332.75
746.877	316.93
747.216	328.68
747.556	335.01
747.895	324.84
748.234	344.5
748.573	316.25
748.911	348.56
749.25	315.12
749.589	331.62
749.928	360.32
750.267	317.38
750.605	338.4
750.944	339.52
751.283	339.98
751.621	324.84
751.96	334.1
752.298	344.72
752.636	314.89
752.975	324.61
753.313	332.07
753.651	343.82
753.989	326.19
754.327	315.12
754.666	335.91
755.004	331.84
755.342	313.99
755.679	335.01
756.017	341.11
756.355	313.54
756.693	329.13
757.031	310.6
757.368	327.77
757.706	350.37
758.044	335.46
758.381	353.99
758.719	308.79
759.056	330.49
759.394	346.76
759.731	324.38
760.068	330.49
760.405	314.21
760.743	321.45
761.08	326.42
761.417	299.98
761.754	328
762.091	321.22
762.428	326.19
762.765	346.98
763.102	324.61
763.438	308.57
763.775	306.98
764.112	320.09
764.449	325.74
764.785	331.16
765.122	343.14
765.458	306.08
765.795	328.23
766.131	338.62
766.467	319.64
766.804	339.98
767.14	327.1
767.476	334.1
767.812	343.14
768.148	328.9
768.485	325.97
768.821	325.74
769.157	333.88
769.492	328.9
769.828	310.15
770.164	335.46
770.5	325.74
770.836	342.24
771.171	329.81
771.507	330.49
771.842	329.13
772.178	331.62
772.513	339.07
772.849	348.79
773.184	337.04
773.519	330.03
773.855	341.33
774.19	317.38
774.525	307.21
774.86	316.02
775.195	325.06
775.53	327.77
775.865	329.58
776.2	332.97
776.535	320.54
776.87	357.38
777.205	313.08
777.539	342.01
777.874	317.38
778.209	338.62
778.543	326.19
778.878	334.33
779.212	327.32
779.547	334.55
779.881	342.24
780.215	339.75
780.55	347.21
780.884	311.05
781.218	319.86
781.552	333.88
781.886	326.19
782.22	341.78
782.554	320.99
782.888	321.67
783.222	324.16
783.556	318.06
783.889	332.75
784.223	314.89
784.557	334.55
784.89	329.36
785.224	315.8
785.557	299.07
785.891	328.23
786.224	318.51
786.558	310.6
786.891	333.88
787.224	329.36
787.557	315.34
787.891	344.95
788.224	331.39
788.557	332.75
788.89	342.91
789.223	340.2
789.556	328.9
789.888	335.23
790.221	333.65
790.554	338.17
790.887	330.26
791.219	317.15
791.552	330.71
791.884	339.75
792.217	329.81
792.549	312.41
792.882	312.18
793.214	337.49
793.546	342.69
793.879	323.03
794.211	323.93
794.543	327.77
794.875	319.86
795.207	338.4
795.539	318.96
795.871	326.64
796.203	328
796.535	338.4
796.867	313.08
797.198	326.87
797.53	331.16
797.862	343.37
798.193	323.71
798.525	308.11
798.856	337.04
799.188	334.55
799.519	311.5
799.85	336.14
800.182	316.02
800.513	332.75
800.844	330.49
801.175	328.23
801.506	326.42
801.837	325.06
802.168	330.03
802.499	322.8
802.83	331.16
803.161	328.68
803.491	334.55
803.822	340.43
804.153	335.01
804.483	351.05
804.814	327.77
805.145	330.94
805.475	334.55
805.805	309.24
806.136	324.61
806.466	303.37
806.796	318.51
807.126	324.61
807.457	296.59
807.787	311.05
808.117	333.42
808.447	321.9
808.777	325.51
809.107	317.38
809.436	325.51
809.766	326.42
810.096	330.26
810.426	326.42
810.755	306.98
811.085	314.89
811.414	314.21
811.744	320.32
812.073	315.12
812.403	320.54
812.732	316.25
813.061	308.79
813.39	316.02
813.719	343.14
814.049	319.41
814.378	319.19
814.707	327.77
815.036	335.68
815.365	323.48
815.693	324.61
816.022	297.94
816.351	319.41
816.68	313.76
817.008	310.15
817.337	323.03
817.665	325.51
817.994	316.47
818.322	331.84
818.651	320.99
818.979	326.19
819.307	329.36
819.636	329.13
819.964	321.9
820.292	324.16
820.62	324.61
820.948	326.19
821.276	332.97
821.604	311.05
821.932	311.5
822.259	336.36
822.587	320.77
822.915	326.42
823.243	323.48
823.57	328.68
823.898	305.63
824.225	314.21
824.553	326.42
824.88	352.18
825.207	312.86
825.535	324.84
825.862	348.11
826.189	318.96
826.516	323.93
826.843	322.35
827.17	329.36
827.497	320.32
827.824	318.28
828.151	325.74
828.478	318.06
828.805	325.51
829.131	336.59
829.458	314.44
829.785	323.03
830.111	330.49
830.438	304.05
830.764	343.82
831.09	327.32
831.417	332.07
831.743	338.62
832.069	316.93
832.395	307.44
832.722	319.41
833.048	309.7
833.374	334.33
833.7	319.64
834.026	332.75
834.351	318.28
834.677	321.9
835.003	331.39
835.329	316.93
835.654	327.32
835.98	292.97
836.306	321.45
836.631	324.16
836.956	319.86
837.282	326.64
837.607	337.27
837.932	324.61
838.258	320.99
838.583	325.97
838.908	315.34
839.233	316.47
839.558	328.9
839.883	331.62
840.208	313.76
840.533	332.97
840.858	339.3
841.182	325.06
841.507	308.57
841.832	321.45
842.156	300.66
842.481	338.17
842.805	326.42
843.13	316.47
843.454	301.56
843.778	305.18
844.103	331.16
844.427	329.36
844.751	316.93
845.075	342.01
845.399	335.23
845.723	307.89
846.047	314.89
846.371	339.98
846.695	321.67
847.019	339.52
847.343	317.38
847.666	331.84
847.99	335.46
848.313	317.38
848.637	328.23
848.96	330.26
849.284	316.02
849.607	330.71
849.931	331.84
850.254	331.39
850.577	311.5
850.9	333.65
851.223	313.99
851.546	315.34
851.869	317.83
852.192	293.42
852.515	315.12
852.838	345.85
853.161	335.46
853.483	309.92
853.806	319.41
854.129	317.15
854.451	316.02
854.774	318.51
855.096	312.41
855.419	318.73
855.741	311.5
856.063	317.6
856.385	313.31
856.708	328
857.03	342.91
857.352	325.97
857.674	326.19
857.996	317.83
858.318	310.37
858.64	320.32
858.961	328.68
859.283	320.77
859.605	326.64
859.926	313.31
860.248	306.98
860.57	312.63
860.891	313.99
861.212	326.64
861.534	317.6
861.855	314.21
862.176	327.55
862.498	328.68
862.819	332.07
863.14	308.11
863.461	313.31
863.782	319.41
864.103	324.61
864.424	318.28
864.745	313.31
865.065	314.89
865.386	334.33
865.707	319.19
866.027	331.39
866.348	326.42
866.668	301.56
866.989	312.41
867.309	317.6
867.63	315.57
867.95	305.85
868.27	327.55
868.59	327.32
868.91	324.84
869.23	311.05
869.55	317.6
869.87	309.92
870.19	323.71
870.51	314.21
870.83	305.18
871.15	311.73
871.469	323.25
871.789	324.84
872.109	318.51
872.428	321.67
872.748	316.02
873.067	323.48
873.386	325.29
873.706	319.19
874.025	332.75
874.344	315.8
874.663	287.55
874.982	313.99
875.301	318.28
875.62	299.3
875.939	345.4
876.258	335.23
876.577	313.08
876.896	330.49
877.214	314.21
877.533	325.74
877.852	323.48
878.17	309.47
878.489	317.83
878.807	326.64
879.125	318.73
879.444	304.5
879.762	316.7
880.08	307.89
880.398	312.41
880.716	311.5
881.034	302.24
881.352	327.32
881.67	313.31
881.988	312.63
882.306	307.66
882.624	315.12
882.941	319.41
883.259	350.6
883.577	328.45
883.894	334.55
884.212	308.57
884.529	307.89
884.846	305.85
885.164	308.57
885.481	321.67
885.798	309.24
886.115	324.84
886.432	302.69
886.75	316.93
887.067	327.77
887.383	307.21
887.7	345.63
888.017	298.17
888.334	324.61
888.651	331.84
888.967	323.25
889.284	340.2
889.6	324.16
889.917	324.16
890.233	320.99
890.55	315.34
890.866	305.4
891.182	306.98
891.498	331.62
891.815	321.22
892.131	339.52
892.447	328
892.763	309.47
893.079	319.19
893.395	304.72
893.71	316.47
894.026	329.81
894.342	323.71
894.657	326.19
894.973	316.7
895.289	320.77
895.604	301.33
895.92	312.18
896.235	310.83
896.55	335.01
896.865	317.38
897.181	330.26
897.496	324.84
897.811	315.8
898.126	309.7
898.441	306.08
898.756	323.25
899.071	314.67
899.386	315.57
899.7	323.71
900.015	317.83
900.33	320.77
900.644	338.4
900.959	302.24
901.273	308.79
901.588	331.16
901.902	317.83
902.216	315.8
902.531	308.79
902.845	311.5
903.159	339.98
903.473	311.73
903.787	315.34
904.101	304.27
904.415	326.64
904.729	323.48
905.042	340.2
905.356	329.36
905.67	326.64
905.984	323.71
906.297	316.93
906.611	303.82
906.924	307.89
907.237	303.59
907.551	299.98
907.864	310.83
908.177	341.56
908.491	321.9
908.804	317.6
909.117	327.55
909.43	327.55
909.743	332.75
910.056	310.37
910.368	306.31
910.681	304.5
910.994	322.35
911.307	312.41
911.619	298.4
911.932	311.73
912.244	326.87
912.557	305.63
912.869	314.89
913.181	313.08
913.494	305.85
913.806	327.77
914.118	329.36
914.43	322.58
914.742	300.88
915.054	320.54
915.366	312.18
915.678	324.16
915.99	302.92
916.302	329.81
916.613	338.4
916.925	307.89
917.236	317.83
917.548	303.59
917.859	302.69
918.171	302.69
918.482	328.45
918.794	318.96
919.105	304.27
919.416	304.72
919.727	292.07
920.038	300.88
920.349	300.88
920.66	309.47
920.971	298.4
921.282	316.47
921.593	328
921.903	309.02
922.214	308.79
922.525	330.71
922.835	306.08
923.146	308.34
923.456	323.93
923.767	316.47
924.077	308.57
924.387	334.55
924.697	327.1
925.008	316.7
925.318	306.98
925.628	330.03
925.938	341.11
926.248	316.25
926.558	304.05
926.867	307.66
927.177	318.51
927.487	310.37
927.796	320.77
928.106	314.44
928.416	297.94
928.725	322.12
929.034	308.34
929.344	315.57
929.653	301.33
929.962	329.13
930.271	300.2
930.581	301.56
930.89	295.91
931.199	330.71
931.508	313.08
931.817	307.44
932.125	311.96
932.434	308.57
932.743	335.46
933.051	317.15
933.36	314.89
933.669	324.61
933.977	309.24
934.286	310.6
934.594	320.09
934.902	299.75
935.21	346.08
935.519	320.99
935.827	314.89
936.135	304.72
936.443	325.06
936.751	331.84
937.059	315.12
937.367	338.85
937.674	318.06
937.982	317.15
938.29	325.29
938.597	322.58
938.905	311.28
939.213	302.01
939.52	314.21
939.827	322.12
940.135	314.67
940.442	316.02
940.749	311.73
941.056	314.89
941.363	311.5
941.67	330.03
941.977	339.3
942.284	331.84
942.591	336.14
942.898	327.1
943.205	315.57
943.511	309.92
943.818	297.04
944.125	318.51
944.431	322.12
944.738	288.23
945.044	328.68
945.35	298.85
945.657	333.2
945.963	312.18
946.269	299.53
946.575	330.94
946.881	323.71
947.187	316.93
947.493	306.98
947.799	309.92
948.105	324.16
948.41	314.44
948.716	311.05
949.022	326.42
949.327	323.48
949.633	307.89
949.938	306.53
950.244	316.02
950.549	300.43
950.854	295.46
951.16	330.49
951.465	313.99
951.77	305.85
952.075	321.67
952.38	318.06
952.685	332.52
952.99	310.83
953.294	317.38
953.599	323.48
953.904	327.1
954.209	330.49
954.513	295.01
954.818	319.19
955.122	313.54
955.426	333.88
955.731	327.32
956.035	317.38
956.339	311.05
956.643	301.11
956.948	290.94
957.252	332.07
957.556	316.25
957.86	306.08
958.163	305.63
958.467	312.86
958.771	302.69
959.075	320.09
959.378	330.94
959.682	323.25
959.985	304.95
960.289	314.21
960.592	306.53
960.896	315.57
961.199	323.71
961.502	308.11
961.805	310.37
962.108	294.78
962.411	310.15
962.714	325.74
963.017	313.54
963.32	322.8
963.623	329.36
963.926	306.76
964.228	319.86
964.531	305.4
964.833	331.62
965.136	316.7
965.438	323.03
965.741	321.45
966.043	317.38
966.345	294.55
966.648	321.67
966.95	306.08
967.252	320.99
967.554	316.25
967.856	326.87
968.158	299.98
968.46	340.65
968.761	317.83
969.063	321.22
969.365	325.06
969.666	326.19
969.968	339.98
970.269	308.34
970.571	320.54
970.872	329.36
971.174	320.54
971.475	335.46
971.776	322.8
972.077	345.85
972.378	311.73
972.679	321.67
972.98	313.76
973.281	340.65
973.582	331.84
973.883	322.58
974.183	328.68
974.484	305.63
974.785	305.85
975.085	308.34
975.386	323.25
975.686	299.75
975.986	305.4
976.287	319.86
976.587	285.52
976.887	311.96
977.187	329.81
977.487	313.08
977.787	300.2
978.087	299.75
978.387	303.14
978.687	307.89
978.987	319.41
979.286	327.55
979.586	302.92
979.885	318.28
980.185	329.36
980.484	290.94
980.784	317.15
981.083	301.11
981.382	315.57
981.682	326.87
981.981	302.92
982.28	314.44
982.579	320.32
982.878	323.48
983.177	314.44
983.475	310.83
983.774	321.9
984.073	324.16
984.372	337.27
984.67	329.36
984.969	327.77
985.267	294.78
985.566	319.86
985.864	314.21
986.162	310.6
986.461	309.92
986.759	296.14
987.057	321.67
987.355	299.53
987.653	311.73
987.951	309.92
988.249	335.68
988.547	327.77
988.844	314.44
989.142	321.67
989.44	322.12
989.737	338.17
990.035	328.68
990.332	299.53
990.63	309.92
990.927	320.77
991.224	320.32
991.521	310.15
991.819	296.59
992.116	306.98
992.413	302.92
992.71	333.2
993.006	316.93
993.303	302.92
993.6	309.47
993.897	290.71
994.193	326.64
994.49	316.93
994.787	310.15
995.083	313.08
995.379	293.88
995.676	321.45
995.972	329.81
996.268	326.19
996.565	325.29
996.861	317.38
997.157	307.21
997.453	291.39
997.749	291.62
998.044	310.37
998.34	326.19
998.636	338.85
998.932	322.35
999.227	296.59
999.523	307.44
999.818	322.8
1000.114	307.66
1000.409	318.28
1000.704	299.98
1001	310.37
1001.295	318.28
1001.59	311.05
1001.885	310.15
1002.18	326.87
1002.475	313.76
1002.77	321.22
1003.065	317.15
1003.359	317.15
1003.654	337.72
1003.949	313.31
1004.243	329.13
1004.538	317.38
1004.832	308.34
1005.127	305.85
1005.421	302.69
1005.715	321.67
1006.009	304.95
1006.304	333.65
1006.598	325.29
1006.892	314.21
1007.186	309.02
1007.48	321.45
1007.773	299.75
1008.067	304.5
1008.361	317.15
1008.655	332.75
1008.948	323.71
1009.242	306.76
1009.535	309.47
1009.829	310.37
1010.122	315.8
1010.415	308.11
1010.708	314.89
1011.001	320.54
1011.295	306.53
1011.588	308.57
1011.881	314.44
1012.173	322.12
1012.466	310.15
1012.759	308.11
1013.052	302.92
1013.344	312.63
1013.637	321.22
1013.93	337.94
1014.222	322.8
1014.514	308.79
1014.807	299.98
1015.099	308.79
1015.391	300.88
1015.683	323.71
1015.976	310.37
1016.268	330.71
1016.56	320.09
1016.851	308.79
1017.143	314.21
1017.435	311.28
1017.727	321.22
1018.018	297.94
1018.31	332.97
1018.602	328
1018.893	327.1
1019.185	307.44
1019.476	307.66
1019.767	309.92
1020.058	324.16
1020.35	310.37
1020.641	312.63
1020.932	310.83
1021.223	308.34
1021.514	316.02
1021.804	312.63
1022.095	314.44
1022.386	315.8
1022.677	314.21
1022.967	323.25
1023.258	328.9
1023.548	329.36
1023.839	313.99
1024.129	300.43
1024.419	315.12
1024.709	325.06
1025	311.96
1025.29	328
1025.58	310.37
1025.87	305.18
1026.16	310.15
1026.449	300.66
1026.739	317.38
1027.029	316.93
1027.319	337.04
1027.608	306.31
1027.898	321.22
1028.187	322.8
1028.477	300.88
1028.766	301.79
1029.055	295.46
1029.344	312.18
1029.634	325.51
1029.923	304.5
1030.212	317.6
1030.501	319.64
1030.79	323.93
1031.078	302.69
1031.367	317.6
1031.656	327.1
1031.945	309.92
1032.233	324.16
1032.522	308.57
1032.81	321.67
1033.099	307.89
1033.387	311.96
1033.675	305.85
1033.963	303.59
1034.251	318.51
1034.54	313.99
1034.828	320.99
1035.116	299.3
1035.403	301.33
1035.691	306.08
1035.979	329.36
1036.267	294.33
1036.554	295.23
1036.842	311.5
1037.129	332.29
1037.417	294.78
1037.704	304.5
1037.992	301.56
1038.279	301.56
1038.566	320.77
1038.853	320.77
1039.14	320.77
