Data from No_light_on_white_reflection_standard_FLMS001491_065.txt Node
Date: Tue Feb 07 10:33:05 GMT 2017
User: dcchb
Spectrometer: FLMS00149
Trigger mode: 0
Integration Time (sec): 2.000000E-2
Scans to average: 10
Electric dark correction enabled: true
Nonlinearity correction enabled: false
Boxcar width: 0
XAxis mode: Wavelengths
Number of Pixels in Spectrum: 2048
>>>>>Begin Spectral Data<<<<<
341.393	8.91
341.776	8.91
342.16	8.91
342.543	-64.76
342.927	-62.05
343.31	-77.64
343.693	-52.33
344.077	-88.71
344.46	-52.33
344.843	-57.07
345.226	-43.29
345.61	-13.91
345.993	-39.9
346.376	-3.06
346.759	5.97
347.142	25.41
347.525	66.31
347.908	58.85
348.291	62.02
348.674	103.6
349.057	106.08
349.44	130.72
349.823	145.86
350.206	154.9
350.588	175.46
350.971	196.48
351.354	201.45
351.737	211.84
352.119	231.96
352.502	235.8
352.884	254.33
353.267	245.52
353.65	276.7
354.032	259.3
354.414	263.82
354.797	304.95
355.179	261.11
355.562	291.62
355.944	303.82
356.326	290.49
356.709	279.64
357.091	316.02
357.473	303.37
357.855	313.54
358.238	301.11
358.62	318.96
359.002	297.27
359.384	299.53
359.766	313.99
360.148	316.93
360.53	284.39
360.912	304.95
361.294	287.77
361.676	293.2
362.057	275.35
362.439	302.24
362.821	304.27
363.203	297.49
363.584	287.77
363.966	292.52
364.348	278.51
364.729	285.52
365.111	298.85
365.493	272.41
365.874	302.92
366.256	274.67
366.637	273.76
367.019	274.44
367.4	303.14
367.781	284.84
368.163	279.19
368.544	293.42
368.925	274.89
369.306	290.49
369.688	276.7
370.069	264.95
370.45	264.05
370.831	271.96
371.212	284.84
371.593	284.16
371.974	285.52
372.355	287.32
372.736	281.9
373.117	288.68
373.498	255.23
373.879	287.1
374.26	261.33
374.641	255.46
375.021	267.44
375.402	284.16
375.783	272.86
376.163	257.27
376.544	268.57
376.925	270.37
377.305	282.8
377.686	275.57
378.066	275.12
378.447	285.06
378.827	288.9
379.208	273.09
379.588	288.23
379.968	277.61
380.349	293.2
380.729	279.87
381.109	288.68
381.489	267.89
381.87	271.96
382.25	297.49
382.63	271.28
383.01	291.62
383.39	291.16
383.77	291.16
384.15	287.55
384.53	279.87
384.91	308.34
385.29	282.58
385.67	290.71
386.049	297.04
386.429	309.7
386.809	308.57
387.189	283.48
387.568	273.54
387.948	314.44
388.328	296.36
388.707	287.55
389.087	291.62
389.466	292.97
389.846	289.13
390.225	300.66
390.605	277.15
390.984	302.46
391.363	316.02
391.743	282.8
392.122	287.77
392.501	305.85
392.881	328
393.26	294.1
393.639	281.9
394.018	320.77
394.397	288.68
394.776	301.33
395.155	285.29
395.534	294.1
395.913	290.49
396.292	304.05
396.671	316.93
397.05	288.23
397.429	301.56
397.808	302.46
398.186	289.81
398.565	294.55
398.944	301.33
399.323	290.26
399.701	282.8
400.08	308.34
400.458	285.74
400.837	297.94
401.215	293.65
401.594	299.53
401.972	298.17
402.351	297.72
402.729	290.94
403.107	312.18
403.486	280.77
403.864	297.27
404.242	307.21
404.62	292.97
404.999	300.66
405.377	303.59
405.755	297.04
406.133	314.89
406.511	322.8
406.889	308.79
407.267	272.18
407.645	290.03
408.023	271.96
408.401	292.52
408.779	313.08
409.156	298.85
409.534	306.98
409.912	312.41
410.29	305.18
410.667	295.46
411.045	291.39
411.422	300.43
411.8	296.59
412.178	313.08
412.555	286.42
412.933	305.4
413.31	283.03
413.687	305.85
414.065	320.77
414.442	310.6
414.819	316.47
415.197	303.59
415.574	313.76
415.951	316.93
416.328	306.53
416.705	300.43
417.082	304.05
417.46	321.9
417.837	296.36
418.214	316.02
418.591	297.27
418.967	321.9
419.344	317.38
419.721	316.47
420.098	319.19
420.475	318.51
420.852	312.63
421.228	301.11
421.605	292.52
421.982	297.72
422.358	314.44
422.735	309.92
423.111	305.63
423.488	316.7
423.864	315.34
424.241	323.03
424.617	301.56
424.994	303.37
425.37	313.76
425.746	292.75
426.123	305.4
426.499	302.92
426.875	327.32
427.251	328.23
427.627	296.81
428.003	299.75
428.379	313.99
428.756	329.58
429.132	321.9
429.507	321.67
429.883	309.24
430.259	312.63
430.635	314.67
431.011	308.34
431.387	318.28
431.763	299.53
432.138	320.32
432.514	320.09
432.89	313.31
433.265	329.13
433.641	302.46
434.016	307.89
434.392	321.45
434.767	319.41
435.143	323.25
435.518	310.15
435.894	315.57
436.269	327.1
436.644	329.58
437.02	344.95
437.395	324.38
437.77	324.84
438.145	319.86
438.52	315.57
438.895	322.35
439.271	324.38
439.646	326.87
440.021	338.62
440.395	329.13
440.77	337.04
441.145	332.29
441.52	329.13
441.895	318.96
442.27	325.29
442.645	353.76
443.019	328.23
443.394	349.69
443.769	332.97
444.143	353.08
444.518	330.03
444.892	347.89
445.267	346.98
445.641	360.09
446.016	365.29
446.39	357.15
446.764	359.41
447.139	349.47
447.513	356.02
447.887	366.87
448.262	348.79
448.636	373.87
449.01	352.18
449.384	373.65
449.758	377.26
450.132	358.28
450.506	385.17
450.88	380.2
451.254	361.22
451.628	388.56
452.002	362.35
452.376	378.17
452.75	365.74
453.123	370.03
453.497	374.78
453.871	369.35
454.244	351.73
454.618	366.19
454.992	371.61
455.365	356.02
455.739	354.44
456.112	365.29
456.486	356.7
456.859	394.66
457.232	381.56
457.606	358.28
457.979	373.87
458.352	339.52
458.725	365.29
459.099	361.67
459.472	357.6
459.845	347.21
460.218	359.86
460.591	369.35
460.964	342.24
461.337	360.99
461.71	357.15
462.083	346.98
462.456	377.94
462.829	373.65
463.201	360.99
463.574	341.33
463.947	356.02
464.32	350.15
464.692	362.12
465.065	358.28
465.438	355.12
465.81	358.51
466.183	341.56
466.555	355.57
466.928	344.5
467.3	364.16
467.672	372.74
468.045	364.16
468.417	360.99
468.789	366.87
469.161	354.21
469.534	349.47
469.906	370.48
470.278	368.45
470.65	357.15
471.022	371.16
471.394	362.8
471.766	358.28
472.138	356.47
472.51	322.58
472.882	366.42
473.253	357.38
473.625	346.08
473.997	365.96
474.369	355.57
474.74	368.22
475.112	357.38
475.484	354.67
475.855	347.89
476.227	327.77
476.598	330.71
476.97	348.34
477.341	361.45
477.713	348.56
478.084	351.05
478.455	371.61
478.827	356.93
479.198	355.8
479.569	358.96
479.94	373.87
480.311	351.28
480.682	368.68
481.053	348.79
481.424	367.77
481.795	356.02
482.166	360.99
482.537	357.83
482.908	336.59
483.279	358.28
483.65	354.67
484.021	366.42
484.391	356.7
484.762	368.22
485.133	341.11
485.503	353.54
485.874	365.29
486.244	369.13
486.615	377.49
486.985	353.08
487.356	380.2
487.726	381.78
488.097	380.2
488.467	368.68
488.837	360.77
489.207	385.17
489.578	366.19
489.948	376.36
490.318	380.43
490.688	382.24
491.058	351.05
491.428	361.45
491.798	367.77
492.168	389.92
492.538	378.39
492.908	390.82
493.278	369.13
493.648	385.85
494.017	364.38
494.387	356.02
494.757	386.3
495.126	392.63
495.496	383.82
495.866	395.12
496.235	389.92
496.605	397.38
496.974	381.56
497.344	385.4
497.713	395.12
498.082	411.39
498.452	363.48
498.821	391.95
499.19	403.93
499.559	390.82
499.928	409.81
500.298	409.35
500.667	413.2
501.036	397.15
501.405	381.78
501.774	410.48
502.143	417.72
502.512	423.36
502.88	408
503.249	420.88
503.618	377.04
503.987	434.44
504.356	399.86
504.724	408.45
505.093	400.31
505.462	411.61
505.83	439.18
506.199	408.45
506.567	408.22
506.936	424.27
507.304	431.27
507.672	404.61
508.041	427.21
508.409	426.08
508.777	435.34
509.145	423.36
509.514	448.22
509.882	443.7
510.25	441.67
510.618	431.05
510.986	430.82
511.354	417.49
511.722	431.27
512.09	439.86
512.458	444.83
512.826	439.41
513.193	459.75
513.561	457.26
513.929	456.81
514.297	439.18
514.664	427.66
515.032	434.21
515.4	439.41
515.767	446.87
516.135	458.39
516.502	464.72
516.869	466.75
517.237	470.14
517.604	472.18
517.972	462.46
518.339	474.21
518.706	436.92
519.073	453.42
519.44	470.59
519.808	440.31
520.175	476.24
520.542	453.42
520.909	460.88
521.276	479.41
521.643	463.36
522.009	480.09
522.376	482.35
522.743	476.92
523.11	464.04
523.477	476.92
523.843	484.15
524.21	474.66
524.577	504.72
524.943	474.44
525.31	464.49
525.676	484.61
526.043	470.14
526.409	482.57
526.776	504.72
527.142	498.84
527.508	482.57
527.874	494.1
528.241	501.78
528.607	485.28
528.973	477.37
529.339	504.27
529.705	484.83
530.071	502.23
530.437	482.8
530.803	483.93
531.169	490.48
531.535	502.91
531.901	496.13
532.267	491.84
532.632	502.23
532.998	501.78
533.364	504.94
533.73	493.19
534.095	494.55
534.461	518.73
534.826	516.7
535.192	508.11
535.557	505.17
535.923	491.39
536.288	518.05
536.653	492.97
537.019	513.31
537.384	499.97
537.749	516.02
538.114	505.62
538.479	511.72
538.845	490.26
539.21	507.88
539.575	495.45
539.94	509.69
540.305	489.35
540.67	516.7
541.034	511.72
541.399	513.31
541.764	516.02
542.129	522.8
542.494	519.41
542.858	515.11
543.223	530.93
543.587	537.26
543.952	522.35
544.316	516.02
544.681	541.33
545.045	526.64
545.41	514.21
545.774	522.8
546.138	537.26
546.503	512.4
546.867	541.33
547.231	520.54
547.595	523.25
547.959	526.41
548.324	501.1
548.688	532.74
549.052	528.9
549.416	525.51
549.779	531.61
550.143	535.68
550.507	523.47
550.871	533.64
551.235	520.54
551.599	540.2
551.962	511.95
552.326	541.78
552.689	537.71
553.053	512.18
553.417	536.81
553.78	545.85
554.143	531.61
554.507	537.71
554.87	543.14
555.234	544.04
555.597	544.04
555.96	548.56
556.323	539.07
556.686	558.5
557.05	544.27
557.413	559.41
557.776	549.24
558.139	549.46
558.502	548.33
558.865	537.03
559.228	573.19
559.59	553.98
559.953	540.88
560.316	538.16
560.679	542.91
561.041	550.59
561.404	543.14
561.767	547.2
562.129	545.85
562.492	551.27
562.854	570.71
563.217	548.33
563.579	555.34
563.941	551.27
564.304	557.6
564.666	567.99
565.028	549.69
565.39	577.94
565.753	566.41
566.115	575.9
566.477	568.67
566.839	555.79
567.201	577.26
567.563	588.11
567.925	580.42
568.287	581.78
568.648	563.7
569.01	562.8
569.372	567.99
569.734	564.15
570.095	582.68
570.457	596.02
570.819	576.58
571.18	577.71
571.542	581.1
571.903	586.52
572.265	580.87
572.626	582
572.987	585.85
573.349	560.76
573.71	555.56
574.071	589.24
574.432	575.9
574.794	559.63
575.155	594.21
575.516	594.21
575.877	567.77
576.238	581.55
576.599	605.51
576.96	586.52
577.32	567.32
577.681	584.72
578.042	575.22
578.403	596.47
578.763	584.04
579.124	592.85
579.485	593.76
579.845	565.73
580.206	587.43
580.566	604.15
580.927	585.85
581.287	579.52
581.648	582.68
582.008	607.99
582.368	591.27
582.728	581.55
583.089	626.75
583.449	590.37
583.809	598.28
584.169	591.5
584.529	572.06
584.889	605.73
585.249	607.99
585.609	586.52
585.969	595.11
586.329	609.35
586.688	595.79
587.048	616.35
587.408	601.44
587.768	581.33
588.127	589.24
588.487	563.02
588.846	584.94
589.206	581.33
589.565	596.24
589.925	604.6
590.284	571.16
590.643	592.17
591.003	611.61
591.362	576.58
591.721	585.17
592.08	592.85
592.44	585.39
592.799	592.17
593.158	586.3
593.517	580.2
593.876	582.23
594.235	572.06
594.593	570.93
594.952	574.32
595.311	605.73
595.67	589.69
596.029	577.48
596.387	564.83
596.746	569.8
597.104	578.61
597.463	570.03
597.822	581.33
598.18	570.93
598.538	582
598.897	572.74
599.255	593.3
599.613	575
599.972	597.15
600.33	578.16
600.688	597.6
601.046	573.19
601.404	562.8
601.762	602.79
602.12	575.45
602.478	561.44
602.836	553.3
603.194	566.41
603.552	565.06
603.91	579.74
604.268	566.41
604.625	563.02
604.983	563.7
605.341	549.24
605.698	556.92
606.056	557.6
606.413	565.96
606.771	556.69
607.128	573.19
607.485	564.6
607.843	564.38
608.2	563.25
608.557	563.02
608.914	561.67
609.272	569.8
609.629	561.44
609.986	568.9
610.343	551.72
610.7	560.54
611.057	543.14
611.414	546.3
611.771	556.02
612.127	564.38
612.484	552.4
612.841	548.79
613.198	548.11
613.554	536.13
613.911	544.72
614.267	543.14
614.624	558.28
614.98	543.81
615.337	556.69
615.693	543.59
616.05	516.92
616.406	530.71
616.762	520.54
617.118	523.02
617.475	534.32
617.831	529.12
618.187	538.16
618.543	537.71
618.899	535
619.255	543.59
619.611	527.77
619.967	530.48
620.323	517.15
620.678	540.42
621.034	508.79
621.39	549.46
621.746	528.22
622.101	530.03
622.457	520.54
622.812	536.81
623.168	520.99
623.523	513.53
623.879	528.9
624.234	526.19
624.589	515.11
624.945	527.09
625.3	530.48
625.655	516.47
626.01	528.9
626.365	511.27
626.72	535.9
627.075	513.31
627.43	513.31
627.785	531.38
628.14	503.59
628.495	516.92
628.85	492.06
629.205	501.33
629.559	497.94
629.914	505.17
630.269	487.09
630.623	512.4
630.978	503.36
631.332	490.03
631.687	496.36
632.041	477.83
632.396	494.55
632.75	486.64
633.104	504.49
633.459	488.45
633.813	497.03
634.167	478.28
634.521	483.48
634.875	494.1
635.229	490.03
635.583	482.57
635.937	488.67
636.291	501.1
636.645	460.88
636.999	503.81
637.352	481.67
637.706	492.97
638.06	488.67
638.413	475.34
638.767	455
639.121	460.65
639.474	491.84
639.828	466.98
640.181	480.31
640.534	487.77
640.888	476.24
641.241	480.99
641.594	467.21
641.947	455
642.301	450.93
642.654	458.84
643.007	460.88
643.36	458.62
643.713	460.88
644.066	462.01
644.419	440.09
644.771	470.59
645.124	441.9
645.477	452.29
645.83	464.72
646.182	455.91
646.535	449.13
646.888	443.7
647.24	442.57
647.593	439.86
647.945	436.25
648.298	438.73
648.65	433.99
649.002	467.88
649.355	448.9
649.707	436.92
650.059	434.89
650.411	440.31
650.763	423.36
651.115	443.25
651.467	432.18
651.819	414.55
652.171	461.78
652.523	459.75
652.875	434.89
653.227	434.66
653.578	419.3
653.93	420.2
654.282	432.4
654.633	439.41
654.985	412.74
655.337	399.18
655.688	424.95
656.039	425.85
656.391	416.59
656.742	429.69
657.094	420.43
657.445	425.4
657.796	423.82
658.147	414.33
658.498	408
658.849	437.6
659.2	414.33
659.551	409.58
659.902	435.57
660.253	405.74
660.604	394.44
660.955	411.16
661.306	403.7
661.656	410.94
662.007	421.56
662.358	417.72
662.708	406.87
663.059	400.54
663.409	415.68
663.76	385.85
664.11	422.23
664.461	415
664.811	396.7
665.161	403.7
665.511	396.7
665.862	396.02
666.212	392.86
666.562	405.96
666.912	389.92
667.262	386.53
667.612	396.92
667.962	402.57
668.312	403.7
668.662	385.85
669.011	412.29
669.361	381.11
669.711	370.94
670.06	407.55
670.41	400.31
670.76	388.79
671.109	390.6
671.459	383.37
671.808	397.15
672.157	392.86
672.507	404.38
672.856	358.73
673.205	370.71
673.554	379.3
673.904	367.32
674.253	383.82
674.602	375.68
674.951	385.4
675.3	369.13
675.649	367.32
675.998	365.96
676.346	371.61
676.695	393.76
677.044	375
677.393	387.66
677.741	372.07
678.09	375.68
678.438	387.89
678.787	367.09
679.135	394.21
679.484	381.11
679.832	379.52
680.181	367.55
680.529	380.88
680.877	372.29
681.225	360.32
681.573	382.69
681.922	376.81
682.27	397.15
682.618	367.77
682.966	368
683.314	375.68
683.661	380.43
684.009	353.99
684.357	362.12
684.705	375
685.053	366.19
685.4	379.52
685.748	367.09
686.095	395.12
686.443	365.51
686.79	360.09
687.138	374.1
687.485	364.84
687.832	350.15
688.18	363.03
688.527	375
688.874	360.54
689.221	359.64
689.568	347.43
689.915	362.12
690.262	365.51
690.609	362.58
690.956	353.99
691.303	351.05
691.65	366.42
691.997	368.22
692.344	362.35
692.69	378.17
693.037	363.93
693.383	355.8
693.73	367.77
694.077	343.82
694.423	355.34
694.769	367.09
695.116	367.55
695.462	346.53
695.808	365.29
696.155	363.93
696.501	375.91
696.847	370.71
697.193	382.69
697.539	349.92
697.885	358.28
698.231	363.93
698.577	357.38
698.923	342.91
699.269	339.07
699.614	350.82
699.96	360.09
700.306	355.57
700.651	356.7
700.997	359.41
701.342	370.03
701.688	351.28
702.033	346.08
702.379	360.32
702.724	351.28
703.069	346.76
703.415	348.79
703.76	349.24
704.105	338.4
704.45	355.57
704.795	361.22
705.14	342.69
705.485	366.19
705.83	349.92
706.175	361.67
706.52	344.27
706.865	324.38
707.209	349.47
707.554	342.01
707.899	363.48
708.243	344.27
708.588	348.11
708.932	350.6
709.277	340.65
709.621	355.34
709.966	354.44
710.31	340.65
710.654	328.23
710.998	321.45
711.342	352.18
711.687	339.07
712.031	348.34
712.375	365.74
712.719	353.99
713.063	369.35
713.407	362.8
713.75	335.23
714.094	331.84
714.438	354.44
714.782	340.65
715.125	338.4
715.469	344.04
715.812	355.34
716.156	320.99
716.499	348.11
716.843	338.85
717.186	363.25
717.53	354.44
717.873	343.37
718.216	333.42
718.559	332.07
718.902	325.51
719.246	342.01
719.589	341.78
719.932	336.59
720.275	334.78
720.617	339.52
720.96	344.95
721.303	351.73
721.646	344.27
721.989	358.06
722.331	331.16
722.674	338.17
723.016	333.88
723.359	356.7
723.701	345.4
724.044	335.68
724.386	332.29
724.729	350.37
725.071	341.56
725.413	349.69
725.755	336.59
726.097	326.87
726.439	337.72
726.782	348.34
727.124	333.2
727.465	342.69
727.807	329.36
728.149	332.97
728.491	349.47
728.833	340.43
729.175	335.91
729.516	343.37
729.858	324.16
730.199	347.21
730.541	337.72
730.882	327.77
731.224	331.16
731.565	334.78
731.906	321.22
732.248	327.55
732.589	350.6
732.93	332.75
733.271	330.94
733.612	325.06
733.953	341.78
734.294	321.22
734.635	304.5
734.976	339.3
735.317	351.5
735.658	339.52
735.999	352.86
736.339	356.25
736.68	330.94
737.021	330.03
737.361	343.37
737.702	349.69
738.042	342.24
738.383	327.1
738.723	333.65
739.063	322.35
739.404	351.73
739.744	349.24
740.084	330.26
740.424	343.59
740.764	349.92
741.104	330.03
741.444	337.49
741.784	315.57
742.124	349.47
742.464	329.58
742.804	328.45
743.143	357.15
743.483	338.85
743.823	333.2
744.162	325.74
744.502	312.41
744.841	331.84
745.181	343.59
745.52	334.33
745.86	334.78
746.199	325.06
746.538	347.43
746.877	334.55
747.216	321.45
747.556	339.52
747.895	318.51
748.234	341.78
748.573	333.2
748.911	339.52
749.25	308.57
749.589	321.67
749.928	334.1
750.267	333.2
750.605	334.33
750.944	338.17
751.283	349.92
751.621	341.33
751.96	325.97
752.298	344.72
752.636	347.66
752.975	353.54
753.313	320.54
753.651	317.6
753.989	340.65
754.327	343.59
754.666	337.04
755.004	329.13
755.342	338.17
755.679	328.9
756.017	318.06
756.355	346.76
756.693	345.85
757.031	315.57
757.368	338.4
757.706	322.35
758.044	339.75
758.381	341.11
758.719	350.6
759.056	330.94
759.394	331.16
759.731	334.55
760.068	323.03
760.405	328
760.743	327.32
761.08	317.38
761.417	337.72
761.754	316.7
762.091	329.36
762.428	349.47
762.765	332.52
763.102	313.54
763.438	326.42
763.775	332.07
764.112	347.66
764.449	321.9
764.785	323.71
765.122	334.78
765.458	328.23
765.795	322.58
766.131	334.55
766.467	336.81
766.804	317.6
767.14	349.47
767.476	336.36
767.812	344.72
768.148	354.67
768.485	344.95
768.821	342.24
769.157	331.39
769.492	329.13
769.828	321.22
770.164	334.78
770.5	327.55
770.836	339.75
771.171	335.68
771.507	322.8
771.842	329.36
772.178	333.65
772.513	344.95
772.849	332.97
773.184	334.1
773.519	337.72
773.855	348.34
774.19	327.1
774.525	349.24
774.86	334.78
775.195	324.38
775.53	342.24
775.865	337.49
776.2	327.77
776.535	343.59
776.87	333.42
777.205	343.59
777.539	338.17
777.874	342.24
778.209	332.07
778.543	324.84
778.878	341.78
779.212	327.55
779.547	330.49
779.881	346.53
780.215	323.93
780.55	339.3
780.884	314.89
781.218	312.63
781.552	333.65
781.886	345.4
782.22	323.93
782.554	321.22
782.888	325.51
783.222	321.67
783.556	325.51
783.889	332.97
784.223	307.66
784.557	337.04
784.89	336.14
785.224	338.17
785.557	320.54
785.891	356.25
786.224	326.64
786.558	319.41
786.891	339.52
787.224	334.55
787.557	334.78
787.891	324.16
788.224	325.74
788.557	315.34
788.89	330.94
789.223	335.01
789.556	319.41
789.888	334.55
790.221	340.2
790.554	317.15
790.887	320.09
791.219	327.77
791.552	333.88
791.884	327.32
792.217	339.75
792.549	314.21
792.882	295.68
793.214	325.06
793.546	323.25
793.879	326.42
794.211	317.15
794.543	325.97
794.875	328
795.207	316.25
795.539	332.29
795.871	306.76
796.203	342.01
796.535	319.19
796.867	342.46
797.198	332.52
797.53	312.86
797.862	321.22
798.193	321.22
798.525	316.47
798.856	325.74
799.188	323.93
799.519	338.17
799.85	345.85
800.182	328
800.513	327.77
800.844	349.69
801.175	293.2
801.506	312.86
801.837	345.63
802.168	325.06
802.499	321.67
802.83	337.94
803.161	319.86
803.491	318.96
803.822	345.17
804.153	325.74
804.483	348.79
804.814	330.26
805.145	339.75
805.475	323.03
805.805	327.55
806.136	328.45
806.466	321.67
806.796	304.05
807.126	334.1
807.457	321.22
807.787	319.86
808.117	327.77
808.447	343.82
808.777	318.06
809.107	332.07
809.436	320.54
809.766	311.96
810.096	316.25
810.426	327.77
810.755	307.21
811.085	307.21
811.414	320.77
811.744	338.85
812.073	327.1
812.403	323.48
812.732	318.96
813.061	328.9
813.39	318.51
813.719	324.38
814.049	313.54
814.378	330.49
814.707	319.86
815.036	343.82
815.365	335.23
815.693	322.58
816.022	317.6
816.351	332.75
816.68	313.31
817.008	326.87
817.337	316.25
817.665	321.22
817.994	332.75
818.322	325.74
818.651	327.32
818.979	322.58
819.307	323.48
819.636	339.3
819.964	338.4
820.292	331.62
820.62	299.53
820.948	330.71
821.276	323.48
821.604	333.2
821.932	315.8
822.259	328
822.587	335.01
822.915	326.64
823.243	321.22
823.57	321.9
823.898	344.5
824.225	334.55
824.553	342.24
824.88	331.39
825.207	319.41
825.535	319.86
825.862	325.06
826.189	317.38
826.516	331.62
826.843	328.23
827.17	338.4
827.497	314.89
827.824	307.21
828.151	331.62
828.478	323.48
828.805	314.67
829.131	318.51
829.458	328.45
829.785	317.6
830.111	329.36
830.438	318.06
830.764	325.74
831.09	320.09
831.417	330.49
831.743	322.12
832.069	332.97
832.395	318.73
832.722	336.36
833.048	341.56
833.374	331.84
833.7	329.81
834.026	315.34
834.351	306.98
834.677	312.63
835.003	323.71
835.329	332.97
835.654	324.38
835.98	336.36
836.306	325.29
836.631	317.6
836.956	315.57
837.282	321.67
837.607	335.68
837.932	314.44
838.258	320.54
838.583	305.18
838.908	313.54
839.233	327.32
839.558	309.47
839.883	316.93
840.208	332.52
840.533	299.07
840.858	321.45
841.182	335.68
841.507	349.24
841.832	329.81
842.156	311.96
842.481	320.54
842.805	327.1
843.13	324.38
843.454	323.03
843.778	353.76
844.103	312.63
844.427	331.62
844.751	312.63
845.075	320.99
845.399	341.33
845.723	336.81
846.047	302.24
846.371	331.16
846.695	317.38
847.019	330.49
847.343	326.87
847.666	304.5
847.99	335.23
848.313	330.26
848.637	309.47
848.96	312.41
849.284	321.9
849.607	344.95
849.931	320.32
850.254	311.96
850.577	309.24
850.9	336.14
851.223	304.05
851.546	319.41
851.869	328.9
852.192	329.58
852.515	300.66
852.838	312.41
853.161	326.42
853.483	320.09
853.806	318.96
854.129	330.49
854.451	319.64
854.774	313.76
855.096	318.73
855.419	339.98
855.741	308.57
856.063	310.15
856.385	320.99
856.708	340.88
857.03	326.87
857.352	320.77
857.674	310.83
857.996	322.58
858.318	314.21
858.64	325.51
858.961	312.18
859.283	337.72
859.605	331.39
859.926	332.75
860.248	329.81
860.57	316.7
860.891	337.27
861.212	326.19
861.534	306.31
861.855	319.19
862.176	324.38
862.498	321.22
862.819	318.28
863.14	343.37
863.461	337.04
863.782	328.23
864.103	323.93
864.424	329.58
864.745	324.61
865.065	329.58
865.386	314.67
865.707	327.77
866.027	331.62
866.348	317.6
866.668	337.49
866.989	308.79
867.309	330.94
867.63	339.07
867.95	334.78
868.27	335.23
868.59	329.81
868.91	312.18
869.23	323.48
869.55	318.06
869.87	320.32
870.19	308.57
870.51	332.52
870.83	340.65
871.15	320.32
871.469	313.31
871.789	327.55
872.109	329.13
872.428	343.37
872.748	324.38
873.067	303.37
873.386	316.47
873.706	324.16
874.025	316.93
874.344	329.58
874.663	339.98
874.982	334.1
875.301	314.21
875.62	327.77
875.939	329.81
876.258	301.33
876.577	306.76
876.896	314.44
877.214	316.7
877.533	326.19
877.852	331.62
878.17	333.42
878.489	313.31
878.807	318.06
879.125	319.19
879.444	331.39
879.762	304.05
880.08	309.02
880.398	294.33
880.716	316.93
881.034	338.4
881.352	318.06
881.67	317.15
881.988	318.96
882.306	314.44
882.624	305.85
882.941	334.55
883.259	330.03
883.577	324.61
883.894	303.59
884.212	342.46
884.529	297.72
884.846	328.9
885.164	323.93
885.481	318.28
885.798	310.37
886.115	325.51
886.432	321.22
886.75	320.77
887.067	333.65
887.383	325.29
887.7	324.16
888.017	326.19
888.334	312.86
888.651	306.08
888.967	331.16
889.284	337.94
889.6	316.25
889.917	322.8
890.233	330.49
890.55	312.86
890.866	329.13
891.182	306.98
891.498	315.57
891.815	321.67
892.131	326.19
892.447	331.39
892.763	314.44
893.079	318.28
893.395	310.6
893.71	316.7
894.026	305.4
894.342	326.19
894.657	313.31
894.973	325.97
895.289	327.77
895.604	330.71
895.92	318.96
896.235	302.46
896.55	302.46
896.865	322.35
897.181	311.96
897.496	316.47
897.811	335.23
898.126	305.4
898.441	338.85
898.756	331.84
899.071	318.73
899.386	318.51
899.7	320.77
900.015	323.25
900.33	327.1
900.644	318.96
900.959	330.94
901.273	304.27
901.588	316.47
901.902	324.61
902.216	333.2
902.531	326.87
902.845	319.64
903.159	313.54
903.473	326.87
903.787	330.03
904.101	309.47
904.415	331.62
904.729	335.46
905.042	328.68
905.356	317.38
905.67	325.51
905.984	336.36
906.297	296.36
906.611	314.21
906.924	303.14
907.237	323.48
907.551	318.51
907.864	304.05
908.177	307.89
908.491	331.39
908.804	311.28
909.117	336.14
909.43	333.42
909.743	314.44
910.056	313.31
910.368	323.03
910.681	315.8
910.994	303.59
911.307	307.44
911.619	316.7
911.932	325.06
912.244	321.9
912.557	301.79
912.869	318.06
913.181	321.45
913.494	314.44
913.806	314.67
914.118	317.6
914.43	328.68
914.742	312.63
915.054	320.09
915.366	327.77
915.678	333.88
915.99	329.13
916.302	290.71
916.613	334.78
916.925	319.19
917.236	332.97
917.548	316.7
917.859	317.38
918.171	331.39
918.482	304.05
918.794	312.86
919.105	309.92
919.416	313.99
919.727	348.11
920.038	330.71
920.349	319.41
920.66	320.54
920.971	324.16
921.282	325.06
921.593	314.21
921.903	321.9
922.214	337.49
922.525	300.43
922.835	319.41
923.146	332.52
923.456	331.16
923.767	316.7
924.077	333.2
924.387	321.67
924.697	319.41
925.008	329.13
925.318	322.12
925.628	324.84
925.938	312.86
926.248	342.46
926.558	319.86
926.867	327.1
927.177	325.74
927.487	295.01
927.796	329.13
928.106	329.58
928.416	306.31
928.725	317.6
929.034	321.9
929.344	340.88
929.653	298.4
929.962	316.7
930.271	320.77
930.581	307.66
930.89	313.31
931.199	321.22
931.508	313.99
931.817	326.19
932.125	313.99
932.434	342.91
932.743	300.88
933.051	325.74
933.36	301.33
933.669	297.49
933.977	326.64
934.286	320.77
934.594	306.98
934.902	306.53
935.21	325.74
935.519	319.19
935.827	315.8
936.135	317.38
936.443	315.12
936.751	302.01
937.059	305.63
937.367	327.32
937.674	329.58
937.982	296.81
938.29	319.41
938.597	312.86
938.905	337.04
939.213	318.51
939.52	309.02
939.827	337.94
940.135	303.14
940.442	293.42
940.749	313.08
941.056	321.67
941.363	359.64
941.67	326.87
941.977	332.97
942.284	326.19
942.591	311.96
942.898	323.25
943.205	311.28
943.511	330.49
943.818	325.74
944.125	319.41
944.431	319.86
944.738	333.65
945.044	302.92
945.35	319.86
945.657	324.38
945.963	313.99
946.269	311.96
946.575	334.33
946.881	317.6
947.187	332.29
947.493	328.45
947.799	318.06
948.105	335.46
948.41	330.03
948.716	321.67
949.022	329.81
949.327	314.89
949.633	304.27
949.938	325.29
950.244	304.5
950.549	319.64
950.854	329.36
951.16	316.47
951.465	325.51
951.77	316.93
952.075	317.15
952.38	329.13
952.685	314.67
952.99	310.15
953.294	334.78
953.599	322.12
953.904	311.28
954.209	324.38
954.513	323.03
954.818	314.89
955.122	307.89
955.426	310.83
955.731	320.99
956.035	302.46
956.339	342.24
956.643	309.02
956.948	328
957.252	330.26
957.556	332.97
957.86	305.18
958.163	326.64
958.467	317.83
958.771	325.06
959.075	337.04
959.378	306.76
959.682	313.31
959.985	316.93
960.289	319.19
960.592	324.61
960.896	301.79
961.199	299.53
961.502	318.51
961.805	323.71
962.108	310.37
962.411	332.75
962.714	319.86
963.017	297.49
963.32	318.28
963.623	318.28
963.926	314.67
964.228	306.31
964.531	325.51
964.833	311.28
965.136	336.81
965.438	325.29
965.741	320.32
966.043	309.7
966.345	328.45
966.648	318.28
966.95	323.71
967.252	314.89
967.554	321.9
967.856	299.3
968.158	316.93
968.46	325.06
968.761	306.76
969.063	300.2
969.365	320.99
969.666	308.34
969.968	313.08
970.269	304.27
970.571	299.53
970.872	314.21
971.174	320.77
971.475	309.7
971.776	334.55
972.077	294.78
972.378	321.22
972.679	317.6
972.98	301.79
973.281	312.86
973.582	321.67
973.883	324.84
974.183	323.03
974.484	322.58
974.785	335.46
975.085	307.21
975.386	303.82
975.686	309.02
975.986	310.83
976.287	328.68
976.587	335.46
976.887	327.55
977.187	306.53
977.487	320.54
977.787	313.76
978.087	303.37
978.387	309.92
978.687	301.56
978.987	306.53
979.286	334.55
979.586	311.05
979.885	307.89
980.185	329.36
980.484	312.18
980.784	307.44
981.083	308.57
981.382	319.64
981.682	334.78
981.981	311.05
982.28	331.84
982.579	309.92
982.878	314.44
983.177	326.42
983.475	316.7
983.774	316.7
984.073	343.37
984.372	305.63
984.67	328
984.969	319.19
985.267	323.93
985.566	320.77
985.864	320.09
986.162	321.67
986.461	298.17
986.759	348.56
987.057	323.71
987.355	313.08
987.653	313.08
987.951	324.61
988.249	325.97
988.547	308.79
988.844	323.93
989.142	310.37
989.44	300.2
989.737	319.41
990.035	308.57
990.332	307.21
990.63	306.53
990.927	307.44
991.224	312.18
991.521	317.38
991.819	302.46
992.116	310.37
992.413	328.9
992.71	314.44
993.006	316.7
993.303	309.47
993.6	330.94
993.897	292.75
994.193	330.94
994.49	317.6
994.787	310.6
995.083	315.12
995.379	310.15
995.676	314.67
995.972	309.92
996.268	318.96
996.565	316.7
996.861	311.05
997.157	301.56
997.453	291.16
997.749	318.51
998.044	323.48
998.34	310.83
998.636	312.63
998.932	322.8
999.227	324.61
999.523	325.29
999.818	315.34
1000.114	297.94
1000.409	308.57
1000.704	331.84
1001	316.93
1001.295	310.15
1001.59	317.15
1001.885	313.31
1002.18	301.79
1002.475	314.67
1002.77	302.46
1003.065	320.09
1003.359	320.99
1003.654	292.97
1003.949	288
1004.243	323.71
1004.538	307.44
1004.832	320.54
1005.127	287.77
1005.421	317.38
1005.715	324.61
1006.009	339.3
1006.304	330.03
1006.598	322.58
1006.892	316.7
1007.186	339.52
1007.48	306.31
1007.773	343.14
1008.067	317.83
1008.361	305.85
1008.655	297.04
1008.948	303.37
1009.242	309.02
1009.535	326.87
1009.829	310.37
1010.122	304.05
1010.415	317.15
1010.708	316.25
1011.001	300.88
1011.295	300.88
1011.588	326.87
1011.881	321.22
1012.173	331.16
1012.466	320.77
1012.759	315.34
1013.052	309.7
1013.344	314.89
1013.637	308.11
1013.93	322.12
1014.222	313.31
1014.514	303.59
1014.807	297.72
1015.099	313.08
1015.391	324.38
1015.683	333.42
1015.976	323.93
1016.268	327.77
1016.56	304.95
1016.851	295.23
1017.143	317.15
1017.435	311.73
1017.727	301.33
1018.018	327.32
1018.31	309.92
1018.602	315.8
1018.893	306.98
1019.185	314.44
1019.476	318.28
1019.767	321.22
1020.058	313.99
1020.35	304.72
1020.641	302.46
1020.932	326.19
1021.223	318.06
1021.514	317.38
1021.804	319.86
1022.095	309.92
1022.386	307.66
1022.677	327.32
1022.967	320.77
1023.258	323.25
1023.548	314.21
1023.839	307.66
1024.129	288.45
1024.419	327.77
1024.709	315.8
1025	300.88
1025.29	320.32
1025.58	331.16
1025.87	302.01
1026.16	304.72
1026.449	319.86
1026.739	330.26
1027.029	312.41
1027.319	305.85
1027.608	322.8
1027.898	327.55
1028.187	316.7
1028.477	310.83
1028.766	315.12
1029.055	289.81
1029.344	316.25
1029.634	320.99
1029.923	303.59
1030.212	303.59
1030.501	333.88
1030.79	318.51
1031.078	311.73
1031.367	323.25
1031.656	314.21
1031.945	318.06
1032.233	322.8
1032.522	309.24
1032.81	321.67
1033.099	340.43
1033.387	319.41
1033.675	311.73
1033.963	309.24
1034.251	315.12
1034.54	313.54
1034.828	327.77
1035.116	314.67
1035.403	302.46
1035.691	321.22
1035.979	310.37
1036.267	318.73
1036.554	304.95
1036.842	311.05
1037.129	320.77
1037.417	322.58
1037.704	316.47
1037.992	305.63
1038.279	309.02
1038.566	356.47
1038.853	356.47
1039.14	356.47
