Data from No_light_on_white_reflection_standard_FLMS001491_004.txt Node
Date: Tue Feb 07 10:32:53 GMT 2017
User: dcchb
Spectrometer: FLMS00149
Trigger mode: 0
Integration Time (sec): 2.000000E-2
Scans to average: 10
Electric dark correction enabled: true
Nonlinearity correction enabled: false
Boxcar width: 0
XAxis mode: Wavelengths
Number of Pixels in Spectrum: 2048
>>>>>Begin Spectral Data<<<<<
341.393	-17.19
341.776	-17.19
342.16	-17.19
342.543	-62.61
342.927	-71.42
343.31	-61.93
343.693	-81.14
344.077	-63.74
344.46	-59.67
344.843	-58.54
345.226	-61.71
345.61	-37.98
345.993	10.16
346.376	0.89
346.759	3.83
347.142	20.55
347.525	37.05
347.908	68.91
348.291	84.73
348.674	89.25
349.057	109.36
349.44	127.67
349.823	133.77
350.206	166.54
350.588	165.18
350.971	178.06
351.354	183.94
351.737	192.52
352.119	228.45
352.502	230.26
352.884	246.99
353.267	259.19
353.65	249.47
354.032	261.45
354.414	277.72
354.797	298.74
355.179	288.79
355.562	321.56
355.944	280.43
356.326	282.24
356.709	291.28
357.091	292.86
357.473	304.61
357.855	294.89
358.238	296.48
358.62	300.99
359.002	307.55
359.384	286.76
359.766	316.81
360.148	314.1
360.53	319.53
360.912	293.31
361.294	287.89
361.676	306.19
362.057	305.06
362.439	305.29
362.821	300.32
363.203	290.83
363.584	294.67
363.966	295.8
364.348	281.56
364.729	287.89
365.111	261
365.493	296.93
365.874	288.79
366.256	263.26
366.637	300.32
367.019	260.54
367.4	280.88
367.781	268.91
368.163	269.13
368.544	286.53
368.925	281.11
369.306	262.35
369.688	262.35
370.069	267.1
370.45	276.36
370.831	275.23
371.212	259.64
371.593	260.32
371.974	293.76
372.355	267.32
372.736	273.43
373.117	265.52
373.498	261.9
373.879	256.02
374.26	260.09
374.641	270.49
375.021	283.37
375.402	282.01
375.783	278.62
376.163	278.4
376.544	254.22
376.925	282.01
377.305	267.78
377.686	261
378.066	286.98
378.447	291.73
378.827	280.88
379.208	288.79
379.588	283.82
379.968	273.88
380.349	279.07
380.729	254.22
381.109	281.33
381.489	282.46
381.87	274.1
382.25	272.07
382.63	297.61
383.01	278.62
383.39	287.89
383.77	292.86
384.15	275.46
384.53	286.31
384.91	290.15
385.29	284.27
385.67	281.11
386.049	300.77
386.429	275.91
386.809	266.42
387.189	298.51
387.568	293.99
387.948	295.12
388.328	285.63
388.707	277.04
389.087	268.91
389.466	270.71
389.846	283.37
390.225	284.5
390.605	305.51
390.984	284.72
391.363	300.77
391.743	283.14
392.122	303.25
392.501	304.38
392.881	283.37
393.26	282.24
393.639	307.32
394.018	266.65
394.397	303.25
394.776	280.2
395.155	288.34
395.534	310.26
395.913	281.79
396.292	284.27
396.671	279.75
397.05	300.54
397.429	300.32
397.808	297.61
398.186	291.73
398.565	274.33
398.944	292.63
399.323	281.79
399.701	294.44
400.08	287.44
400.458	278.62
400.837	303.03
401.215	289.24
401.594	316.36
401.972	294.67
402.351	292.18
402.729	298.28
403.107	303.93
403.486	292.63
403.864	283.82
404.242	287.44
404.62	289.47
404.999	309.13
405.377	295.12
405.755	290.6
406.133	295.12
406.511	294.22
406.889	291.05
407.267	286.76
407.645	302.12
408.023	291.96
408.401	314.55
408.779	299.86
409.156	287.66
409.534	307.55
409.912	296.02
410.29	305.06
410.667	277.49
411.045	299.86
411.422	300.54
411.8	298.51
412.178	317.94
412.555	278.85
412.933	294.44
413.31	305.74
413.687	305.74
414.065	282.92
414.442	280.43
414.819	298.06
415.197	296.25
415.574	290.6
415.951	300.99
416.328	301.67
416.705	311.84
417.082	276.36
417.46	285.63
417.837	300.99
418.214	308.68
418.591	284.72
418.967	316.36
419.344	305.97
419.721	314.33
420.098	311.39
420.475	289.02
420.852	300.77
421.228	287.66
421.605	306.19
421.982	300.54
422.358	316.36
422.735	300.77
423.111	318.85
423.488	288.34
423.864	304.61
424.241	295.57
424.617	327.43
424.994	339.19
425.37	325.4
425.746	300.09
426.123	296.25
426.499	321.33
426.875	293.09
427.251	301.22
427.627	311.16
428.003	311.84
428.379	313.42
428.756	313.65
429.132	305.29
429.507	300.99
429.883	276.36
430.259	296.93
430.635	317.72
431.011	309.81
431.387	319.53
431.763	326.98
432.138	319.98
432.514	300.99
432.89	320.88
433.265	313.65
433.641	310.26
434.016	320.88
434.392	328.79
434.767	317.94
435.143	338.96
435.518	323.82
435.894	316.36
436.269	322.69
436.644	319.3
437.02	331.73
437.395	324.95
437.77	320.88
438.145	321.79
438.52	327.66
438.895	336.93
439.271	318.85
439.646	311.62
440.021	322.69
440.395	327.21
440.77	322.46
441.145	329.02
441.52	336.47
441.895	337.6
442.27	339.64
442.645	328.56
443.019	347.77
443.394	343.71
443.769	338.28
444.143	343.48
444.518	359.52
444.892	332.86
445.267	348.68
445.641	356.36
446.016	357.49
446.39	335.57
446.764	332.86
447.139	343.48
447.513	357.94
447.887	360.2
448.262	352.52
448.636	353.42
449.01	369.47
449.384	357.72
449.758	364.72
450.132	379.18
450.506	363.82
450.88	352.07
451.254	353.87
451.628	369.47
452.002	352.07
452.376	368.79
452.75	363.59
453.123	367.21
453.497	369.69
453.871	369.47
454.244	372.86
454.618	349.58
454.992	373.54
455.365	365.85
455.739	359.3
456.112	378.73
456.486	369.47
456.859	346.42
457.232	353.87
457.606	359.3
457.979	370.37
458.352	356.59
458.725	355.68
459.099	357.72
459.472	366.76
459.845	341.67
460.218	358.62
460.591	362.24
460.964	340.99
461.337	360.65
461.71	358.62
462.083	369.92
462.456	362.46
462.829	349.36
463.201	341.45
463.574	335.34
463.947	354.33
464.32	345.29
464.692	342.35
465.065	349.81
465.438	350.49
465.81	345.29
466.183	347.77
466.555	354.55
466.928	344.16
467.3	331.95
467.672	354.78
468.045	336.47
468.417	323.82
468.789	358.62
469.161	357.04
469.534	372.86
469.906	357.26
470.278	348.23
470.65	355.46
471.022	343.48
471.394	331.05
471.766	336.47
472.138	352.29
472.51	365.17
472.882	365.17
473.253	350.94
473.625	345.74
473.997	345.29
474.369	339.86
474.74	365.85
475.112	348.9
475.484	353.65
475.855	335.8
476.227	345.97
476.598	342.8
476.97	354.33
477.341	332.63
477.713	325.4
478.084	369.92
478.455	338.96
478.827	334.44
479.198	340.77
479.569	355.91
479.94	328.79
480.311	354.33
480.682	335.8
481.053	351.16
481.424	365.85
481.795	345.97
482.166	356.81
482.537	360.2
482.908	352.07
483.279	352.29
483.65	357.04
484.021	359.75
484.391	347.1
484.762	358.17
485.133	344.61
485.503	349.81
485.874	357.94
486.244	376.02
486.615	339.19
486.985	342.8
487.356	354.78
487.726	367.89
488.097	362.46
488.467	369.02
488.837	379.64
489.207	353.87
489.578	373.76
489.948	359.3
490.318	365.63
490.688	368.34
491.058	360.65
491.428	359.07
491.798	362.24
492.168	373.99
492.538	365.63
492.908	401.33
493.278	366.98
493.648	377.6
494.017	375.12
494.387	367.89
494.757	369.69
495.126	386.42
495.496	376.7
495.866	382.8
496.235	385.51
496.605	386.42
496.974	371.28
497.344	386.64
497.713	395.91
498.082	409.24
498.452	386.64
498.821	388.45
499.19	376.25
499.559	389.13
499.928	416.7
500.298	401.78
500.667	397.72
501.036	376.02
501.405	400.43
501.774	391.84
502.143	388.9
502.512	402.91
502.88	403.14
503.249	405.17
503.618	383.7
503.987	398.39
504.356	400.2
504.724	404.5
505.093	402.24
505.462	399.98
505.83	403.82
506.199	410.6
506.567	407.88
506.936	407.21
507.304	407.43
507.672	413.08
508.041	427.09
508.409	412.18
508.777	398.85
509.145	424.16
509.514	435.91
509.882	393.42
510.25	416.7
510.618	426.19
510.986	438.17
511.354	427.77
511.722	443.36
512.09	424.38
512.458	457.15
512.826	435
513.193	428.9
513.561	427.55
513.929	433.87
514.297	427.55
514.664	442.91
515.032	446.53
515.4	420.99
515.767	440.65
516.135	438.17
516.502	450.14
516.869	446.98
517.237	438.39
517.604	442.91
517.972	447.21
518.339	442.46
518.706	462.35
519.073	453.08
519.44	454.21
519.808	463.02
520.175	459.63
520.542	443.14
520.909	460.09
521.276	473.87
521.643	434.78
522.009	461.89
522.376	471.16
522.743	475.23
523.11	467.09
523.477	451.95
523.843	467.54
524.21	456.02
524.577	464.15
524.943	472.06
525.31	462.8
525.676	479.75
526.043	460.09
526.409	500.54
526.776	493.76
527.142	464.83
527.508	486.07
527.874	480.43
528.241	486.75
528.607	462.8
528.973	495.34
529.339	477.26
529.705	488.56
530.071	493.76
530.437	477.04
530.803	467.32
531.169	486.3
531.535	475.91
531.901	503.7
532.267	482.69
532.632	498.73
532.998	490.14
533.364	491.5
533.73	489.46
534.095	484.94
534.461	498.05
534.826	505.06
535.192	506.19
535.557	480.65
535.923	509.35
536.288	520.2
536.653	483.14
537.019	498.73
537.384	502.8
537.749	499.18
538.114	505.28
538.479	496.24
538.845	525.85
539.21	492.63
539.575	492.18
539.94	488.11
540.305	519.07
540.67	479.97
541.034	496.47
541.399	494.44
541.764	508.45
542.129	492.18
542.494	499.41
542.858	490.37
543.223	513.64
543.587	494.89
543.952	498.96
544.316	526.75
544.681	504.83
545.045	489.92
545.41	494.89
545.774	493.08
546.138	495.79
546.503	497.6
546.867	506.41
547.231	533.98
547.595	531.27
547.959	523.81
548.324	506.19
548.688	518.62
549.052	500.76
549.416	503.02
549.779	508.67
550.143	515.23
550.507	515
550.871	528.56
551.235	526.53
551.599	533.53
551.962	519.97
552.326	519.07
552.689	509.13
553.053	510.93
553.417	517.03
553.78	526.75
554.143	549.8
554.507	535.79
554.87	532.4
555.234	503.02
555.597	531.95
555.96	525.17
556.323	540.08
556.686	533.08
557.05	522.23
557.413	536.24
557.776	516.36
558.139	518.62
558.502	516.58
558.865	523.14
559.228	528.11
559.59	543.02
559.953	519.07
560.316	527.88
560.679	536.24
561.041	541.21
561.404	542.8
561.767	543.47
562.129	564.26
562.492	531.95
562.854	555.9
563.217	547.77
563.579	536.02
563.941	559.75
564.304	556.58
564.666	548.67
565.028	564.49
565.39	538.73
565.753	546.19
566.115	575.56
566.477	556.81
566.839	533.98
567.201	557.03
567.563	558.16
567.925	550.25
568.287	579.41
568.648	552.06
569.01	584.6
569.372	567.88
569.734	551.61
570.095	575.11
570.457	569.69
570.819	573.08
571.18	579.86
571.542	568.78
571.903	551.38
572.265	553.19
572.626	563.81
572.987	575.79
573.349	566.3
573.71	565.85
574.071	582.57
574.432	585.06
574.794	599.07
575.155	580.08
575.516	590.48
575.877	572.4
576.238	578.5
576.599	567.65
576.96	587.77
577.32	565.85
577.681	601.78
578.042	566.52
578.403	556.13
578.763	581.67
579.124	572.63
579.485	580.54
579.845	559.29
580.206	590.03
580.566	573.76
580.927	576.92
581.287	562.91
581.648	560.88
582.008	574.66
582.368	585.28
582.728	573.53
583.089	620.53
583.449	572.4
583.809	582.8
584.169	588.44
584.529	557.26
584.889	593.19
585.249	564.72
585.609	564.49
585.969	568.78
586.329	569.91
586.688	588.44
587.048	567.65
587.408	582.8
587.768	582.12
588.127	570.37
588.487	552.51
588.846	588.22
589.206	573.76
589.565	572.17
589.925	556.58
590.284	552.29
590.643	564.72
591.003	559.52
591.362	571.72
591.721	572.63
592.08	580.99
592.44	567.2
592.799	558.84
593.158	548.22
593.517	566.52
593.876	574.21
594.235	559.52
594.593	565.62
594.952	570.37
595.311	559.97
595.67	569.24
596.029	570.14
596.387	565.17
596.746	559.52
597.104	563.59
597.463	561.78
597.822	558.39
598.18	561.78
598.538	552.29
598.897	549.58
599.255	555.23
599.613	568.11
599.972	555.45
600.33	558.84
600.688	564.94
601.046	573.08
601.404	559.97
601.762	552.97
602.12	560.65
602.478	533.98
602.836	563.13
603.194	566.98
603.552	551.61
603.91	542.8
604.268	559.97
604.625	560.42
604.983	573.98
605.341	526.98
605.698	569.91
606.056	572.4
606.413	556.58
606.771	559.97
607.128	550.03
607.485	539.86
607.843	544.83
608.2	551.61
608.557	549.8
608.914	541.21
609.272	557.26
609.629	523.36
609.986	526.98
610.343	531.95
610.7	538.73
611.057	537.15
611.414	529.46
611.771	549.8
612.127	549.58
612.484	547.32
612.841	561.1
613.198	543.47
613.554	553.87
613.911	529.69
614.267	533.76
614.624	541.67
614.98	498.96
615.337	543.02
615.693	522.01
616.05	546.41
616.406	527.2
616.762	540.76
617.118	520.65
617.475	509.35
617.831	528.33
618.187	518.62
618.543	528.11
618.899	506.64
619.255	512.97
619.611	516.13
619.967	505.74
620.323	518.39
620.678	524.94
621.034	501.22
621.39	508
621.746	521.1
622.101	517.49
622.457	533.53
622.812	489.69
623.168	514.77
623.523	512.06
623.879	499.18
624.234	503.25
624.589	501.67
624.945	497.83
625.3	495.79
625.655	513.87
626.01	507.54
626.365	498.05
626.72	476.58
627.075	494.44
627.43	498.05
627.785	484.27
628.14	515
628.495	494.44
628.85	487.88
629.205	503.25
629.559	485.4
629.914	485.62
630.269	497.6
630.623	470.48
630.978	488.33
631.332	493.53
631.687	484.72
632.041	481.33
632.396	501.44
632.75	469.35
633.104	488.11
633.459	480.65
633.813	477.26
634.167	478.39
634.521	483.14
634.875	486.07
635.229	468.9
635.583	480.65
635.937	456.92
636.291	475.23
636.645	459.41
636.999	462.12
637.352	464.83
637.706	469.35
638.06	457.37
638.413	450.82
638.767	478.84
639.121	462.57
639.474	452.86
639.828	449.24
640.181	457.37
640.534	455.34
640.888	456.25
641.241	472.52
641.594	465.96
641.947	439.3
642.301	443.82
642.654	434.32
643.007	430.93
643.36	441.56
643.713	445.62
644.066	444.49
644.419	443.14
644.771	450.14
645.124	441.78
645.477	451.27
645.83	434.78
646.182	441.78
646.535	461.67
646.888	434.78
647.24	439.75
647.593	431.61
647.945	429.81
648.298	410.37
648.65	424.38
649.002	431.16
649.355	428.9
649.707	436.13
650.059	428
650.411	444.49
650.763	422.57
651.115	430.93
651.467	439.52
651.819	417.38
652.171	446.53
652.523	434.1
652.875	439.52
653.227	419.64
653.578	426.87
653.93	438.17
654.282	418.73
654.633	430.03
654.985	426.19
655.337	407.21
655.688	406.98
656.039	407.88
656.391	429.58
656.742	405.62
657.094	422.35
657.445	415.12
657.796	406.08
658.147	403.14
658.498	398.39
658.849	403.59
659.2	388.9
659.551	417.15
659.902	401.78
660.253	403.82
660.604	416.47
660.955	409.01
661.306	393.87
661.656	382.12
662.007	399.3
662.358	397.94
662.708	411.27
663.059	405.4
663.409	386.64
663.76	401.33
664.11	388.68
664.461	390.26
664.811	397.49
665.161	373.08
665.511	409.24
665.862	406.75
666.212	398.85
666.562	397.26
666.912	380.09
667.262	388.68
667.612	401.56
667.962	384.83
668.312	402.69
668.662	411.5
669.011	375.34
669.361	383.03
669.711	393.2
670.06	384.83
670.41	385.96
670.76	394.55
671.109	402.91
671.459	383.48
671.808	380.31
672.157	386.19
672.507	376.02
672.856	385.06
673.205	387.55
673.554	405.4
673.904	360.88
674.253	377.83
674.602	391.61
674.951	354.78
675.3	384.16
675.649	346.64
675.998	383.93
676.346	378.51
676.695	381.22
677.044	381.44
677.393	385.96
677.741	381.22
678.09	390.03
678.438	368.11
678.787	374.89
679.135	372.41
679.484	354.78
679.832	363.14
680.181	353.42
680.529	352.52
680.877	359.07
681.225	381.22
681.573	380.54
681.922	373.76
682.27	355.68
682.618	360.2
682.966	376.25
683.314	360.65
683.661	347.1
684.009	348.9
684.357	374.67
684.705	384.16
685.053	366.53
685.4	368.11
685.748	364.95
686.095	350.71
686.443	366.76
686.79	359.52
687.138	368.34
687.485	345.97
687.832	342.8
688.18	374.89
688.527	372.18
688.874	364.27
689.221	359.07
689.568	371.5
689.915	358.39
690.262	367.66
690.609	356.59
690.956	346.87
691.303	366.3
691.65	377.83
691.997	369.47
692.344	354.55
692.69	353.65
693.037	374.21
693.383	343.93
693.73	359.52
694.077	359.52
694.423	354.1
694.769	341.45
695.116	367.21
695.462	362.69
695.808	354.33
696.155	361.78
696.501	346.64
696.847	345.51
697.193	336.25
697.539	350.49
697.885	357.72
698.231	352.74
698.577	352.52
698.923	361.33
699.269	362.69
699.614	353.65
699.96	341.9
700.306	341.22
700.651	367.89
700.997	338.51
701.342	353.2
701.688	343.48
702.033	348.45
702.379	349.13
702.724	353.65
703.069	342.8
703.415	350.71
703.76	350.03
704.105	325.85
704.45	348.45
704.795	344.38
705.14	348.45
705.485	349.13
705.83	350.26
706.175	364.72
706.52	340.09
706.865	347.32
707.209	345.74
707.554	353.2
707.899	355.23
708.243	342.58
708.588	353.87
708.932	338.96
709.277	337.83
709.621	333.31
709.966	339.19
710.31	338.06
710.654	344.38
710.998	339.86
711.342	350.94
711.687	320.88
712.031	347.32
712.375	326.76
712.719	326.08
713.063	322.24
713.407	364.04
713.75	322.92
714.094	353.65
714.438	343.48
714.782	326.08
715.125	317.94
715.469	351.62
715.812	360.43
716.156	330.37
716.499	352.74
716.843	336.25
717.186	345.74
717.53	352.97
717.873	329.02
718.216	326.3
718.559	337.6
718.902	350.71
719.246	317.49
719.589	344.38
719.932	325.4
720.275	326.3
720.617	325.85
720.96	320.88
721.303	331.5
721.646	338.96
721.989	342.12
722.331	333.76
722.674	328.34
723.016	330.6
723.359	353.65
723.701	337.6
724.044	341.22
724.386	331.73
724.729	323.82
725.071	323.14
725.413	330.6
725.755	343.25
726.097	348.68
726.439	321.56
726.782	323.14
727.124	348.68
727.465	320.66
727.807	319.98
728.149	332.86
728.491	322.01
728.833	343.03
729.175	322.92
729.516	328.79
729.858	323.82
730.199	346.64
730.541	335.8
730.882	340.54
731.224	346.19
731.565	331.73
731.906	347.1
732.248	332.18
732.589	317.04
732.93	338.96
733.271	329.24
733.612	318.62
733.953	331.95
734.294	335.8
734.635	337.83
734.976	341.45
735.317	333.76
735.658	340.09
735.999	326.08
736.339	333.31
736.68	339.64
737.021	347.77
737.361	331.73
737.702	338.06
738.042	332.63
738.383	349.13
738.723	329.24
739.063	329.69
739.404	348
739.744	338.73
740.084	337.15
740.424	322.01
740.764	331.73
741.104	315.46
741.444	333.99
741.784	350.26
742.124	340.77
742.464	336.47
742.804	345.29
743.143	321.56
743.483	332.41
743.823	329.24
744.162	341.45
744.502	332.86
744.841	333.54
745.181	335.34
745.52	336.7
745.86	325.85
746.199	325.85
746.538	312.75
746.877	319.07
747.216	331.95
747.556	328.11
747.895	333.99
748.234	311.39
748.573	335.57
748.911	314.55
749.25	338.28
749.589	315.68
749.928	316.36
750.267	326.53
750.605	321.79
750.944	310.26
751.283	320.88
751.621	337.38
751.96	332.41
752.298	324.05
752.636	324.5
752.975	330.82
753.313	324.27
753.651	330.15
753.989	315.68
754.327	312.07
754.666	320.43
755.004	319.3
755.342	318.85
755.679	329.02
756.017	338.06
756.355	335.57
756.693	331.73
757.031	327.89
757.368	341.9
757.706	339.64
758.044	322.69
758.381	311.84
758.719	322.69
759.056	314.1
759.394	326.53
759.731	330.6
760.068	316.81
760.405	315.46
760.743	319.07
761.08	315.46
761.417	319.98
761.754	290.83
762.091	321.79
762.428	323.37
762.765	333.31
763.102	321.56
763.438	330.37
763.775	307.55
764.112	321.56
764.449	337.15
764.785	331.5
765.122	296.02
765.458	324.05
765.795	337.6
766.131	323.59
766.467	310.71
766.804	320.43
767.14	333.99
767.476	323.37
767.812	315.46
768.148	337.15
768.485	334.21
768.821	317.04
769.157	333.99
769.492	344.61
769.828	332.18
770.164	315.23
770.5	352.07
770.836	323.14
771.171	332.41
771.507	321.11
771.842	330.15
772.178	328.79
772.513	331.28
772.849	321.56
773.184	322.24
773.519	347.77
773.855	333.99
774.19	333.31
774.525	349.13
774.86	295.35
775.195	322.46
775.53	322.46
775.865	329.24
776.2	317.27
776.535	325.63
776.87	338.73
777.205	331.73
777.539	348
777.874	330.37
778.209	329.24
778.543	318.85
778.878	310.49
779.212	324.05
779.547	329.24
779.881	308.68
780.215	320.66
780.55	328.56
780.884	325.4
781.218	339.86
781.552	317.27
781.886	325.18
782.22	334.89
782.554	325.18
782.888	332.86
783.222	319.75
783.556	333.54
783.889	312.07
784.223	341.9
784.557	337.83
784.89	320.43
785.224	323.14
785.557	342.58
785.891	328.56
786.224	308
786.558	321.33
786.891	319.3
787.224	339.19
787.557	336.7
787.891	322.69
788.224	345.97
788.557	337.15
788.89	331.05
789.223	304.61
789.556	336.02
789.888	323.59
790.221	322.92
790.554	329.02
790.887	330.37
791.219	332.41
791.552	322.92
791.884	318.17
792.217	304.16
792.549	309.58
792.882	320.43
793.214	331.5
793.546	326.3
793.879	321.56
794.211	320.43
794.543	331.5
794.875	317.94
795.207	332.63
795.539	327.89
795.871	325.63
796.203	348.45
796.535	309.58
796.867	331.28
797.198	318.17
797.53	322.69
797.862	307.77
798.193	319.75
798.525	342.8
798.856	313.65
799.188	328.34
799.519	339.41
799.85	307.32
800.182	317.94
800.513	315.91
800.844	328.34
801.175	320.43
801.506	322.69
801.837	338.51
802.168	336.02
802.499	306.19
802.83	322.01
803.161	301.22
803.491	331.95
803.822	324.95
804.153	331.28
804.483	312.52
804.814	319.75
805.145	331.05
805.475	332.18
805.805	322.24
806.136	314.78
806.466	318.4
806.796	336.7
807.126	320.66
807.457	333.31
807.787	324.72
808.117	315.01
808.447	306.87
808.777	327.43
809.107	323.59
809.436	329.47
809.766	319.07
810.096	308.68
810.426	322.92
810.755	327.89
811.085	305.97
811.414	308.68
811.744	321.56
812.073	338.51
812.403	349.81
812.732	324.95
813.061	340.32
813.39	345.97
813.719	324.05
814.049	314.78
814.378	314.78
814.707	321.11
815.036	329.92
815.365	311.84
815.693	320.43
816.022	329.24
816.351	326.53
816.68	309.81
817.008	315.91
817.337	325.18
817.665	318.62
817.994	313.65
818.322	313.88
818.651	323.14
818.979	333.31
819.307	330.15
819.636	316.14
819.964	320.43
820.292	317.49
820.62	309.13
820.948	300.77
821.276	314.55
821.604	323.37
821.932	310.94
822.259	314.1
822.587	314.1
822.915	311.39
823.243	322.24
823.57	319.53
823.898	319.07
824.225	305.06
824.553	330.15
824.88	309.13
825.207	340.99
825.535	322.46
825.862	321.11
826.189	300.09
826.516	314.33
826.843	330.37
827.17	314.55
827.497	322.46
827.824	327.66
828.151	323.59
828.478	331.28
828.805	305.06
829.131	316.36
829.458	326.98
829.785	319.53
830.111	303.93
830.438	319.3
830.764	328.79
831.09	336.02
831.417	322.92
831.743	327.21
832.069	333.76
832.395	307.32
832.722	319.3
833.048	323.59
833.374	321.33
833.7	327.43
834.026	306.42
834.351	318.4
834.677	318.4
835.003	303.48
835.329	343.71
835.654	314.55
835.98	305.74
836.306	315.68
836.631	324.05
836.956	303.48
837.282	329.02
837.607	336.02
837.932	300.09
838.258	326.98
838.583	330.6
838.908	329.47
839.233	335.57
839.558	328.11
839.883	306.42
840.208	300.09
840.533	319.75
840.858	327.43
841.182	305.74
841.507	320.43
841.832	346.42
842.156	325.4
842.481	330.6
842.805	315.01
843.13	331.95
843.454	328.34
843.778	317.49
844.103	315.23
844.427	323.59
844.751	307.77
845.075	320.43
845.399	319.07
845.723	325.18
846.047	315.68
846.371	317.94
846.695	308.23
847.019	323.82
847.343	312.75
847.666	316.36
847.99	312.75
848.313	307.32
848.637	316.81
848.96	319.3
849.284	313.65
849.607	306.87
849.931	342.12
850.254	316.36
850.577	318.85
850.9	324.05
851.223	320.66
851.546	301.9
851.869	308.68
852.192	306.42
852.515	335.57
852.838	322.69
853.161	312.29
853.483	319.98
853.806	310.03
854.129	303.48
854.451	312.29
854.774	311.16
855.096	321.33
855.419	308.9
855.741	330.15
856.063	308.23
856.385	317.94
856.708	320.2
857.03	304.16
857.352	326.98
857.674	335.34
857.996	333.76
858.318	324.05
858.64	314.1
858.961	300.77
859.283	341.22
859.605	299.64
859.926	307.55
860.248	318.4
860.57	308.23
860.891	314.33
861.212	318.62
861.534	313.42
861.855	290.15
862.176	319.07
862.498	320.88
862.819	304.84
863.14	313.42
863.461	298.96
863.782	306.64
864.103	319.75
864.424	318.85
864.745	320.43
865.065	323.59
865.386	325.85
865.707	342.35
866.027	331.95
866.348	329.24
866.668	323.37
866.989	321.56
867.309	301.9
867.63	317.49
867.95	329.24
868.27	328.56
868.59	320.43
868.91	324.95
869.23	313.42
869.55	313.2
869.87	335.8
870.19	326.3
870.51	327.21
870.83	305.29
871.15	321.56
871.469	318.85
871.789	305.06
872.109	335.34
872.428	329.92
872.748	314.1
873.067	320.43
873.386	310.03
873.706	311.62
874.025	328.34
874.344	318.62
874.663	321.56
874.982	323.82
875.301	327.43
875.62	333.08
875.939	304.16
876.258	310.49
876.577	323.37
876.896	322.46
877.214	311.84
877.533	307.55
877.852	296.93
878.17	338.96
878.489	329.92
878.807	316.81
879.125	326.3
879.444	317.72
879.762	308.45
880.08	299.86
880.398	317.04
880.716	319.07
881.034	319.07
881.352	323.37
881.67	324.72
881.988	319.3
882.306	334.44
882.624	306.42
882.941	306.42
883.259	318.62
883.577	317.72
883.894	309.13
884.212	308
884.529	313.42
884.846	319.53
885.164	306.19
885.481	311.84
885.798	322.46
886.115	316.59
886.432	326.08
886.75	296.93
887.067	319.53
887.383	311.39
887.7	334.44
888.017	302.35
888.334	312.97
888.651	325.4
888.967	338.06
889.284	309.58
889.6	338.51
889.917	329.02
890.233	296.7
890.55	332.41
890.866	327.43
891.182	291.96
891.498	328.56
891.815	304.84
892.131	308.45
892.447	340.32
892.763	342.58
893.079	337.38
893.395	322.69
893.71	313.65
894.026	306.42
894.342	316.81
894.657	318.4
894.973	319.3
895.289	315.01
895.604	330.15
895.92	326.98
896.235	329.02
896.55	313.42
896.865	312.52
897.181	320.43
897.496	326.3
897.811	331.28
898.126	316.36
898.441	318.62
898.756	306.19
899.071	310.94
899.386	322.46
899.7	334.44
900.015	292.18
900.33	304.84
900.644	318.4
900.959	319.98
901.273	335.12
901.588	311.39
901.902	302.35
902.216	316.59
902.531	327.43
902.845	319.3
903.159	313.88
903.473	332.41
903.787	318.4
904.101	323.37
904.415	331.28
904.729	338.06
905.042	346.42
905.356	330.15
905.67	328.11
905.984	329.69
906.297	318.62
906.611	311.39
906.924	315.91
907.237	340.09
907.551	312.75
907.864	302.35
908.177	308.45
908.491	321.79
908.804	309.36
909.117	308.9
909.43	300.99
909.743	299.64
910.056	313.42
910.368	338.28
910.681	317.49
910.994	312.07
911.307	328.56
911.619	302.35
911.932	285.4
912.244	312.29
912.557	320.66
912.869	338.28
913.181	318.17
913.494	314.33
913.806	309.58
914.118	300.54
914.43	306.64
914.742	303.03
915.054	331.95
915.366	326.08
915.678	310.94
915.99	321.56
916.302	338.28
916.613	327.21
916.925	310.71
917.236	315.91
917.548	306.42
917.859	312.07
918.171	338.51
918.482	316.81
918.794	312.52
919.105	310.26
919.416	315.91
919.727	306.64
920.038	325.18
920.349	333.31
920.66	302.35
920.971	331.05
921.282	308.45
921.593	314.1
921.903	322.69
922.214	304.38
922.525	298.74
922.835	317.49
923.146	312.07
923.456	299.41
923.767	293.54
924.077	325.4
924.387	317.04
924.697	326.53
925.008	318.85
925.318	310.71
925.628	312.97
925.938	302.35
926.248	326.98
926.558	301.22
926.867	309.36
927.177	308.23
927.487	290.15
927.796	324.72
928.106	333.76
928.416	326.08
928.725	309.13
929.034	297.15
929.344	309.36
929.653	311.39
929.962	323.37
930.271	315.91
930.581	323.82
930.89	314.1
931.199	314.78
931.508	312.52
931.817	332.18
932.125	320.66
932.434	295.8
932.743	314.55
933.051	325.63
933.36	316.59
933.669	310.94
933.977	310.03
934.286	327.66
934.594	314.78
934.902	323.14
935.21	329.47
935.519	313.65
935.827	314.33
936.135	317.04
936.443	308.45
936.751	311.16
937.059	328.56
937.367	315.01
937.674	314.1
937.982	321.33
938.29	305.74
938.597	322.46
938.905	303.48
939.213	331.5
939.52	330.15
939.827	314.78
940.135	321.11
940.442	308.9
940.749	319.98
941.056	324.5
941.363	300.99
941.67	313.42
941.977	308
942.284	300.09
942.591	329.47
942.898	305.51
943.205	324.5
943.511	317.94
943.818	305.51
944.125	320.88
944.431	308.23
944.738	308.45
945.044	302.35
945.35	299.64
945.657	312.29
945.963	302.58
946.269	328.34
946.575	308.45
946.881	309.36
947.187	315.68
947.493	317.72
947.799	317.27
948.105	316.81
948.41	304.16
948.716	324.5
949.022	309.36
949.327	341.67
949.633	319.53
949.938	287.21
950.244	314.55
950.549	311.62
950.854	316.14
951.16	309.58
951.465	340.77
951.77	310.71
952.075	325.18
952.38	321.79
952.685	312.75
952.99	299.64
953.294	326.76
953.599	318.85
953.904	305.74
954.209	310.94
954.513	324.95
954.818	325.4
955.122	312.97
955.426	315.23
955.731	326.3
956.035	304.38
956.339	309.36
956.643	298.51
956.948	322.92
957.252	298.28
957.556	328.34
957.86	307.1
958.163	302.8
958.467	311.16
958.771	308.23
959.075	295.8
959.378	322.24
959.682	318.17
959.985	318.85
960.289	310.94
960.592	315.91
960.896	296.7
961.199	327.21
961.502	311.39
961.805	332.18
962.108	305.97
962.411	312.97
962.714	301.22
963.017	311.62
963.32	329.02
963.623	289.47
963.926	299.19
964.228	325.63
964.531	301.22
964.833	308
965.136	315.68
965.438	304.16
965.741	307.32
966.043	303.71
966.345	307.55
966.648	325.63
966.95	314.33
967.252	323.82
967.554	331.95
967.856	318.85
968.158	336.93
968.46	318.17
968.761	320.66
969.063	312.29
969.365	313.2
969.666	312.75
969.968	305.06
970.269	302.58
970.571	304.16
970.872	313.2
971.174	336.02
971.475	316.36
971.776	293.09
972.077	290.6
972.378	325.85
972.679	323.59
972.98	292.41
973.281	320.43
973.582	317.27
973.883	308.9
974.183	306.19
974.484	297.15
974.785	304.38
975.085	316.81
975.386	305.74
975.686	300.99
975.986	330.15
976.287	309.13
976.587	322.01
976.887	327.21
977.187	308
977.487	320.66
977.787	322.46
978.087	300.32
978.387	296.48
978.687	325.85
978.987	300.32
979.286	320.43
979.586	317.04
979.885	301.67
980.185	286.76
980.484	332.18
980.784	324.95
981.083	318.17
981.382	307.55
981.682	320.88
981.981	305.29
982.28	314.1
982.579	329.47
982.878	288.34
983.177	317.27
983.475	315.01
983.774	296.02
984.073	325.18
984.372	282.92
984.67	314.33
984.969	294.22
985.267	308.68
985.566	327.89
985.864	313.42
986.162	303.71
986.461	327.43
986.759	307.32
987.057	314.55
987.355	317.27
987.653	309.13
987.951	309.58
988.249	307.1
988.547	334.89
988.844	323.14
989.142	341.9
989.44	321.33
989.737	332.41
990.035	313.88
990.332	318.85
990.63	330.82
990.927	318.85
991.224	329.47
991.521	332.63
991.819	306.64
992.116	308
992.413	308.68
992.71	322.46
993.006	317.94
993.303	324.95
993.6	320.2
993.897	310.03
994.193	314.33
994.49	317.94
994.787	291.05
995.083	316.14
995.379	326.53
995.676	314.78
995.972	332.86
996.268	310.49
996.565	317.04
996.861	324.05
997.157	324.95
997.453	314.78
997.749	297.83
998.044	320.66
998.34	312.52
998.636	307.77
998.932	293.54
999.227	310.71
999.523	300.77
999.818	327.43
1000.114	328.79
1000.409	301.45
1000.704	299.19
1001	310.26
1001.295	291.73
1001.59	308.45
1001.885	310.26
1002.18	330.82
1002.475	309.81
1002.77	294.22
1003.065	295.8
1003.359	313.65
1003.654	315.23
1003.949	329.69
1004.243	312.52
1004.538	336.7
1004.832	299.86
1005.127	318.85
1005.421	307.55
1005.715	307.1
1006.009	316.36
1006.304	310.26
1006.598	315.23
1006.892	300.09
1007.186	309.13
1007.48	295.8
1007.773	313.2
1008.067	312.75
1008.361	330.15
1008.655	303.25
1008.948	321.56
1009.242	315.91
1009.535	314.1
1009.829	305.06
1010.122	314.1
1010.415	299.86
1010.708	294.67
1011.001	308.68
1011.295	286.31
1011.588	311.16
1011.881	315.91
1012.173	289.47
1012.466	304.61
1012.759	304.38
1013.052	325.63
1013.344	310.71
1013.637	315.91
1013.93	293.99
1014.222	298.51
1014.514	310.26
1014.807	312.97
1015.099	321.56
1015.391	321.33
1015.683	312.75
1015.976	304.84
1016.268	315.01
1016.56	324.27
1016.851	313.65
1017.143	323.82
1017.435	312.52
1017.727	361.33
1018.018	321.33
1018.31	322.92
1018.602	318.85
1018.893	315.46
1019.185	317.72
1019.476	320.2
1019.767	309.13
1020.058	316.81
1020.35	303.48
1020.641	304.38
1020.932	313.65
1021.223	325.18
1021.514	336.93
1021.804	307.32
1022.095	303.25
1022.386	318.85
1022.677	304.38
1022.967	320.43
1023.258	312.29
1023.548	307.77
1023.839	309.36
1024.129	315.01
1024.419	312.29
1024.709	297.61
1025	291.28
1025.29	309.36
1025.58	324.95
1025.87	290.37
1026.16	305.29
1026.449	320.66
1026.739	306.19
1027.029	310.94
1027.319	296.25
1027.608	305.74
1027.898	314.33
1028.187	308
1028.477	314.55
1028.766	312.07
1029.055	316.81
1029.344	302.12
1029.634	327.66
1029.923	313.65
1030.212	298.28
1030.501	314.78
1030.79	308
1031.078	325.18
1031.367	315.01
1031.656	318.17
1031.945	332.18
1032.233	309.81
1032.522	280.88
1032.81	305.97
1033.099	292.63
1033.387	314.1
1033.675	314.33
1033.963	309.81
1034.251	317.72
1034.54	315.23
1034.828	325.85
1035.116	312.97
1035.403	330.82
1035.691	318.62
1035.979	291.05
1036.267	312.07
1036.554	312.29
1036.842	328.11
1037.129	298.74
1037.417	326.76
1037.704	324.05
1037.992	317.72
1038.279	318.17
1038.566	305.06
1038.853	305.06
1039.14	305.06
