Data from No_light_on_white_reflection_standard_FLMS001491_009.txt Node
Date: Tue Feb 07 10:32:54 GMT 2017
User: dcchb
Spectrometer: FLMS00149
Trigger mode: 0
Integration Time (sec): 2.000000E-2
Scans to average: 10
Electric dark correction enabled: true
Nonlinearity correction enabled: false
Boxcar width: 0
XAxis mode: Wavelengths
Number of Pixels in Spectrum: 2048
>>>>>Begin Spectral Data<<<<<
341.393	-4.92
341.776	-4.92
342.16	-4.92
342.543	-51.02
342.927	-82.43
343.31	-65.93
343.693	-68.87
344.077	-50.79
344.46	-59.38
344.843	-41.07
345.226	-39.04
345.61	-37.46
345.993	-33.39
346.376	11.36
346.759	13.16
347.142	12.71
347.525	49.32
347.908	61.75
348.291	71.69
348.674	83.22
349.057	92.71
349.44	136.32
349.823	146.04
350.206	151.24
350.588	173.39
350.971	166.61
351.354	199.15
351.737	207.51
352.119	223.33
352.502	229.88
352.884	232.37
353.267	220.16
353.65	255.19
354.032	251.8
354.414	272.82
354.797	266.72
355.179	278.24
355.562	290.44
355.944	288.64
356.326	282.99
356.709	311.01
357.091	293.16
357.473	305.13
357.855	296.77
358.238	297.68
358.62	286.15
359.002	297.22
359.384	301.97
359.766	305.36
360.148	297.45
360.53	314.17
360.912	298.58
361.294	304.91
361.676	315.3
362.057	304.91
362.439	306.26
362.821	300.61
363.203	301.97
363.584	273.5
363.966	304
364.348	267.62
364.729	303.78
365.111	301.07
365.493	291.35
365.874	282.76
366.256	277.56
366.637	287.28
367.019	281.86
367.4	289.99
367.781	289.77
368.163	275.3
368.544	258.58
368.925	247.06
369.306	275.98
369.688	274.4
370.069	279.82
370.45	276.89
370.831	285.92
371.212	256.32
371.593	269.43
371.974	277.56
372.355	272.14
372.736	271.01
373.117	270.11
373.498	264
373.879	282.99
374.26	279.82
374.641	276.43
375.021	251.12
375.402	295.42
375.783	275.3
376.163	287.96
376.544	304.68
376.925	310.1
377.305	273.5
377.686	279.37
378.066	287.28
378.447	286.6
378.827	259.71
379.208	273.5
379.588	293.61
379.968	283.89
380.349	276.66
380.729	286.38
381.109	290.67
381.489	278.47
381.87	284.57
382.25	284.34
382.63	289.77
383.01	280.73
383.39	298.35
383.77	296.55
384.15	280.28
384.53	301.52
384.91	290.22
385.29	285.47
385.67	286.83
386.049	296.77
386.429	300.61
386.809	285.92
387.189	279.82
387.568	284.34
387.948	288.41
388.328	302.42
388.707	303.55
389.087	304.46
389.466	303.55
389.846	289.99
390.225	302.65
390.605	295.42
390.984	290.9
391.363	273.95
391.743	282.76
392.122	312.14
392.501	313.04
392.881	297.22
393.26	301.29
393.639	291.57
394.018	302.87
394.397	289.77
394.776	324.57
395.155	314.85
395.534	287.05
395.913	281.41
396.292	294.29
396.671	275.53
397.05	299.26
397.429	305.13
397.808	292.93
398.186	252.03
398.565	293.16
398.944	307.17
399.323	284.12
399.701	277.11
400.08	306.72
400.458	288.18
400.837	296.09
401.215	282.31
401.594	287.73
401.972	326.83
402.351	302.87
402.729	277.56
403.107	297.68
403.486	313.72
403.864	305.36
404.242	300.61
404.62	311.91
404.999	298.35
405.377	285.25
405.755	295.87
406.133	290.22
406.511	295.64
406.889	294.74
407.267	310.56
407.645	297.68
408.023	308.75
408.401	305.36
408.779	289.99
409.156	285.02
409.534	306.72
409.912	291.8
410.29	315.75
410.667	280.73
411.045	306.04
411.422	289.77
411.8	313.49
412.178	298.35
412.555	313.72
412.933	292.7
413.31	299.26
413.687	311.23
414.065	302.42
414.442	304.91
414.819	299.48
415.197	292.93
415.574	293.61
415.951	310.56
416.328	298.13
416.705	316.88
417.082	295.42
417.46	301.52
417.837	305.36
418.214	293.16
418.591	302.2
418.967	286.6
419.344	297.9
419.721	315.98
420.098	304.23
420.475	305.81
420.852	287.73
421.228	299.94
421.605	304
421.982	317.34
422.358	311.46
422.735	304.23
423.111	313.95
423.488	313.04
423.864	296.32
424.241	315.53
424.617	298.81
424.994	331.35
425.37	304.23
425.746	311.01
426.123	305.13
426.499	329.77
426.875	322.31
427.251	326.83
427.627	296.55
428.003	315.08
428.379	314.85
428.756	314.17
429.132	323.66
429.507	300.16
429.883	334.28
430.259	311.91
430.635	327.28
431.011	320.95
431.387	316.43
431.763	302.42
432.138	312.36
432.514	311.01
432.89	315.98
433.265	328.64
433.641	306.26
434.016	339.71
434.392	324.34
434.767	323.66
435.143	328.41
435.518	324.79
435.894	331.8
436.269	314.85
436.644	299.26
437.02	315.3
437.395	314.4
437.77	330.9
438.145	341.29
438.52	342.42
438.895	340.61
439.271	354.4
439.646	335.64
440.021	329.31
440.395	339.71
440.77	317.56
441.145	341.97
441.52	347.39
441.895	315.53
442.27	341.74
442.645	353.04
443.019	347.62
443.394	344.23
443.769	329.31
444.143	357.34
444.518	359.14
444.892	350.78
445.267	360.27
445.641	341.06
446.016	332.93
446.39	343.1
446.764	353.72
447.139	346.71
447.513	369.09
447.887	371.35
448.262	340.61
448.636	367.05
449.01	368.18
449.384	348.3
449.758	367.28
450.132	358.47
450.506	400.95
450.88	363.44
451.254	376.32
451.628	365.24
452.002	375.19
452.376	377.45
452.75	369.54
453.123	361.63
453.497	353.95
453.871	374.96
454.244	376.09
454.618	355.53
454.992	403.89
455.365	350.78
455.739	381.97
456.112	362.31
456.486	351.23
456.859	367.05
457.232	355.08
457.606	363.21
457.979	359.37
458.352	367.5
458.725	356.66
459.099	349.43
459.472	346.71
459.845	347.84
460.218	384
460.591	378.35
460.964	355.3
461.337	344.23
461.71	344.23
462.083	348.75
462.456	360.5
462.829	347.17
463.201	366.83
463.574	374.06
463.947	347.17
464.32	366.37
464.692	346.49
465.065	370.44
465.438	365.47
465.81	356.66
466.183	362.76
466.555	367.5
466.928	372.48
467.3	346.94
467.672	350.56
468.045	348.07
468.417	352.59
468.789	360.95
469.161	347.17
469.534	357.34
469.906	376.54
470.278	343.55
470.65	349.65
471.022	345.36
471.394	366.37
471.766	352.82
472.138	353.72
472.51	338.35
472.882	371.8
473.253	348.07
473.625	355.08
473.997	355.3
474.369	363.66
474.74	357.11
475.112	332.48
475.484	364.11
475.855	355.75
476.227	365.47
476.598	335.41
476.97	336.09
477.341	346.94
477.713	361.18
478.084	363.44
478.455	379.03
478.827	372.25
479.198	353.72
479.569	343.55
479.94	365.02
480.311	338.13
480.682	368.63
481.053	350.1
481.424	359.82
481.795	363.66
482.166	348.52
482.537	353.04
482.908	353.49
483.279	356.21
483.65	360.95
484.021	361.85
484.391	358.24
484.762	357.56
485.133	367.5
485.503	339.71
485.874	365.02
486.244	362.53
486.615	370.89
486.985	359.37
487.356	353.04
487.726	373.38
488.097	375.87
488.467	372.02
488.837	358.47
489.207	377.22
489.578	375.87
489.948	380.39
490.318	353.49
490.688	363.21
491.058	365.24
491.428	383.55
491.798	382.42
492.168	383.78
492.538	380.16
492.908	370.67
493.278	348.07
493.648	371.35
494.017	374.28
494.387	403.44
494.757	384
495.126	377.45
495.496	381.29
495.866	364.34
496.235	380.61
496.605	392.14
496.974	369.99
497.344	389.42
497.713	383.78
498.082	399.59
498.452	400.5
498.821	390.78
499.19	400.95
499.559	391.46
499.928	403.21
500.298	393.49
500.667	403.21
501.036	395.3
501.405	388.07
501.774	384.68
502.143	386.71
502.512	399.59
502.88	402.98
503.249	393.04
503.618	431.46
503.987	390.1
504.356	398.01
504.724	400.72
505.093	406.83
505.462	407.73
505.83	424.9
506.199	417.67
506.567	406.37
506.936	419.03
507.304	431.01
507.672	411.12
508.041	434.4
508.409	422.19
508.777	413.38
509.145	403.66
509.514	421.97
509.882	416.99
510.25	416.99
510.618	440.27
510.986	458.8
511.354	438.24
511.722	431.23
512.09	419.93
512.458	419.71
512.826	434.62
513.193	460.84
513.561	427.16
513.929	435.3
514.297	436.43
514.664	441.85
515.032	452.25
515.4	457.9
515.767	447.05
516.135	458.58
516.502	431.23
516.869	463.55
517.237	451.34
517.604	441.63
517.972	449.99
518.339	433.94
518.706	449.31
519.073	445.24
519.44	451.8
519.808	473.94
520.175	455.86
520.542	455.86
520.909	462.42
521.276	486.37
521.643	449.31
522.009	465.13
522.376	468.52
522.743	452.47
523.11	471
523.477	446.6
523.843	476.43
524.21	482.98
524.577	463.1
524.943	490.89
525.31	462.19
525.676	500.16
526.043	494.73
526.409	479.14
526.776	488.41
527.142	468.29
527.508	489.54
527.874	448.41
528.241	492.25
528.607	475.75
528.973	498.12
529.339	475.07
529.705	493.6
530.071	492.02
530.437	480.5
530.803	486.6
531.169	492.02
531.535	491.34
531.901	484.79
532.267	491.79
532.632	506.71
532.998	482.08
533.364	504.22
533.73	483.43
534.095	486.37
534.461	488.63
534.826	467.61
535.192	480.04
535.557	529.99
535.923	497.67
536.288	504.22
536.653	501.74
537.019	495.64
537.384	503.77
537.749	481.4
538.114	499.03
538.479	494.73
538.845	536.09
539.21	501.96
539.575	520.95
539.94	510.1
540.305	512.59
540.67	502.42
541.034	499.7
541.399	523.88
541.764	492.7
542.129	518.91
542.494	535.18
542.858	511
543.223	513.26
543.587	504.9
543.952	522.98
544.316	537.44
544.681	521.17
545.045	524.34
545.41	528.63
545.774	533.6
546.138	506.26
546.503	505.13
546.867	516.43
547.231	521.62
547.595	491.12
547.959	533.38
548.324	531.12
548.688	522.3
549.052	540.38
549.416	511.91
549.779	536.99
550.143	527.5
550.507	513.72
550.871	520.72
551.235	522.98
551.599	524.11
551.962	534.73
552.326	517.11
552.689	529.99
553.053	535.86
553.417	529.31
553.78	526.14
554.143	543.09
554.507	527.73
554.87	544.45
555.234	541.29
555.597	532.25
555.96	531.57
556.323	538.12
556.686	532.25
557.05	552.36
557.413	522.53
557.776	535.64
558.139	534.28
558.502	549.42
558.865	536.31
559.228	537.67
559.59	557.56
559.953	534.05
560.316	536.77
560.679	546.71
561.041	565.01
561.404	553.49
561.767	566.37
562.129	553.94
562.492	538.35
562.854	537.44
563.217	558.46
563.579	547.61
563.941	546.48
564.304	565.69
564.666	576.09
565.028	587.84
565.39	570.44
565.753	565.92
566.115	564.79
566.477	555.07
566.839	581.28
567.201	570.89
567.563	574.28
567.925	587.84
568.287	568.4
568.648	553.49
569.01	556.43
569.372	578.8
569.734	570.89
570.095	561.4
570.457	551.45
570.819	570.21
571.18	577.44
571.542	562.3
571.903	554.39
572.265	554.84
572.626	594.17
572.987	582.19
573.349	576.76
573.71	554.62
574.071	584.22
574.432	566.6
574.794	576.99
575.155	569.99
575.516	598.01
575.877	598.91
576.238	595.3
576.599	585.13
576.96	575.41
577.32	567.05
577.681	596.2
578.042	579.7
578.403	601.17
578.763	585.35
579.124	593.94
579.485	571.11
579.845	601.85
580.206	573.83
580.566	558.69
580.927	577.22
581.287	575.86
581.648	589.42
582.008	579.48
582.368	576.76
582.728	555.07
583.089	573.6
583.449	577.67
583.809	588.06
584.169	583.77
584.529	598.46
584.889	602.75
585.249	587.16
585.609	545.58
585.969	593.49
586.329	581.28
586.688	587.39
587.048	566.37
587.408	600.27
587.768	585.35
588.127	581.28
588.487	572.7
588.846	564.11
589.206	567.73
589.565	562.08
589.925	601.4
590.284	570.66
590.643	552.58
591.003	591
591.362	575.18
591.721	577.44
592.08	575.41
592.44	562.08
592.799	594.39
593.158	561.85
593.517	578.8
593.876	567.27
594.235	565.69
594.593	567.73
594.952	568.86
595.311	556.2
595.67	560.49
596.029	565.69
596.387	562.53
596.746	565.24
597.104	599.59
597.463	581.28
597.822	579.48
598.18	559.14
598.538	596.88
598.897	592.36
599.255	575.18
599.613	576.09
599.972	566.82
600.33	554.84
600.688	540.16
601.046	562.08
601.404	553.94
601.762	562.08
602.12	553.26
602.478	545.58
602.836	574.05
603.194	549.87
603.552	574.28
603.91	566.14
604.268	575.63
604.625	583.09
604.983	586.48
605.341	559.59
605.698	577.67
606.056	564.56
606.413	539.7
606.771	541.96
607.128	560.04
607.485	555.3
607.843	556.43
608.2	565.69
608.557	540.61
608.914	552.81
609.272	536.77
609.629	543.77
609.986	542.87
610.343	562.75
610.7	530.66
611.057	575.86
611.414	556.43
611.771	522.98
612.127	555.75
612.484	546.48
612.841	535.41
613.198	541.51
613.554	555.75
613.911	557.33
614.267	527.73
614.624	549.42
614.98	538.12
615.337	542.42
615.693	563.88
616.05	540.61
616.406	523.43
616.762	532.25
617.118	541.29
617.475	533.6
617.831	529.53
618.187	521.62
618.543	520.95
618.899	532.25
619.255	512.36
619.611	539.93
619.967	541.51
620.323	542.64
620.678	517.56
621.034	524.34
621.39	512.13
621.746	527.95
622.101	519.36
622.457	525.01
622.812	512.59
623.168	509.42
623.523	516.88
623.879	504.45
624.234	503.32
624.589	491.12
624.945	498.57
625.3	520.27
625.655	502.87
626.01	505.35
626.365	495.64
626.72	512.36
627.075	516.2
627.43	508.29
627.785	510.78
628.14	494.28
628.495	496.77
628.85	501.96
629.205	505.35
629.559	507.39
629.914	487.05
630.269	495.86
630.623	498.8
630.978	502.42
631.332	494.73
631.687	489.31
632.041	472.81
632.396	485.24
632.75	484.34
633.104	504.9
633.459	498.35
633.813	488.86
634.167	480.04
634.521	482.08
634.875	501.96
635.229	484.79
635.583	474.17
635.937	467.39
636.291	495.86
636.645	473.72
636.999	461.97
637.352	472.81
637.706	452.7
638.06	461.29
638.413	482.53
638.767	449.54
639.121	470.55
639.474	494.28
639.828	440.72
640.181	481.17
640.534	457.67
640.888	457.22
641.241	457.22
641.594	465.35
641.947	441.4
642.301	469.87
642.654	455.41
643.007	467.39
643.36	445.24
643.713	438.92
644.066	447.05
644.419	442.3
644.771	462.64
645.124	448.18
645.477	442.08
645.83	444.34
646.182	453.38
646.535	434.62
646.888	457.45
647.24	443.21
647.593	438.92
647.945	440.27
648.298	438.69
648.65	436.66
649.002	422.42
649.355	431.01
649.707	419.25
650.059	432.81
650.411	438.24
650.763	409.09
651.115	441.17
651.467	434.4
651.819	436.43
652.171	438.92
652.523	413.6
652.875	455.64
653.227	426.26
653.578	427.16
653.93	431.68
654.282	429.42
654.633	427.39
654.985	420.84
655.337	404.57
655.688	413.38
656.039	413.38
656.391	410.67
656.742	417.22
657.094	412.02
657.445	398.69
657.796	437.79
658.147	404.79
658.498	417.22
658.849	390.55
659.2	430.33
659.551	400.5
659.902	400.72
660.253	412.48
660.604	419.03
660.955	398.01
661.306	404.79
661.656	411.57
662.007	400.27
662.358	416.77
662.708	393.94
663.059	407.96
663.409	412.93
663.76	399.14
664.11	395.98
664.461	422.64
664.811	405.7
665.161	405.92
665.511	395.53
665.862	407.5
666.212	393.04
666.562	400.5
666.912	411.35
667.262	383.1
667.612	401.4
667.962	399.14
668.312	399.37
668.662	405.24
669.011	399.82
669.361	395.98
669.711	386.26
670.06	400.95
670.41	396.2
670.76	399.37
671.109	391.91
671.459	379.71
671.808	404.11
672.157	372.02
672.507	404.57
672.856	384.91
673.205	379.03
673.554	383.55
673.904	388.29
674.253	394.85
674.602	399.14
674.951	395.3
675.3	377.22
675.649	384.91
675.998	388.52
676.346	392.36
676.695	392.36
677.044	373.38
677.393	372.7
677.741	378.8
678.09	370.22
678.438	369.09
678.787	386.26
679.135	406.37
679.484	373.38
679.832	363.21
680.181	375.41
680.529	388.29
680.877	380.61
681.225	388.29
681.573	393.72
681.922	363.66
682.27	366.15
682.618	373.83
682.966	369.09
683.314	366.15
683.661	368.18
684.009	363.44
684.357	375.64
684.705	382.87
685.053	371.12
685.4	379.03
685.748	379.48
686.095	380.39
686.443	369.76
686.79	357.79
687.138	354.4
687.485	366.83
687.832	353.95
688.18	357.34
688.527	372.93
688.874	336.77
689.221	359.6
689.568	366.6
689.915	362.76
690.262	382.65
690.609	379.03
690.956	361.85
691.303	367.5
691.65	352.59
691.997	369.09
692.344	379.71
692.69	378.13
693.037	374.28
693.383	360.27
693.73	364.79
694.077	360.27
694.423	362.76
694.769	356.21
695.116	368.41
695.462	347.62
695.808	363.44
696.155	327.28
696.501	355.98
696.847	327.96
697.193	357.79
697.539	350.78
697.885	371.8
698.231	349.43
698.577	369.09
698.923	356.66
699.269	372.48
699.614	353.27
699.96	346.04
700.306	341.29
700.651	358.47
700.997	361.4
701.342	371.12
701.688	351.46
702.033	353.04
702.379	341.06
702.724	358.24
703.069	371.12
703.415	356.88
703.76	356.43
704.105	358.01
704.45	367.96
704.795	343.1
705.14	352.59
705.485	337.9
705.83	363.44
706.175	345.81
706.52	340.39
706.865	345.58
707.209	336.54
707.554	348.52
707.899	338.8
708.243	348.97
708.588	346.94
708.932	356.43
709.277	342.65
709.621	350.33
709.966	339.48
710.31	356.88
710.654	352.36
710.998	333.83
711.342	342.42
711.687	322.99
712.031	346.26
712.375	346.26
712.719	358.24
713.063	339.48
713.407	345.13
713.75	343.32
714.094	362.98
714.438	330.9
714.782	344.91
715.125	348.3
715.469	336.09
715.812	353.04
716.156	342.19
716.499	336.09
716.843	346.94
717.186	334.96
717.53	327.28
717.873	337.22
718.216	311.01
718.559	328.18
718.902	355.08
719.246	336.09
719.589	340.39
719.932	345.36
720.275	332.48
720.617	344.23
720.96	353.95
721.303	349.2
721.646	313.95
721.989	335.41
722.331	346.71
722.674	344.45
723.016	354.85
723.359	329.77
723.701	339.48
724.044	337
724.386	336.77
724.729	325.7
725.071	329.54
725.413	357.11
725.755	340.61
726.097	313.04
726.439	352.14
726.782	333.61
727.124	364.57
727.465	339.48
727.807	341.52
728.149	329.99
728.491	346.94
728.833	350.56
729.175	334.28
729.516	306.72
729.858	331.8
730.199	352.14
730.541	330.67
730.882	343.55
731.224	322.99
731.565	339.48
731.906	339.93
732.248	358.47
732.589	320.95
732.93	332.48
733.271	316.66
733.612	344.91
733.953	316.21
734.294	325.92
734.635	320.73
734.976	336.09
735.317	330.44
735.658	328.64
735.999	344.91
736.339	341.97
736.68	336.77
737.021	333.83
737.361	348.52
737.702	340.39
738.042	324.34
738.383	340.16
738.723	343.55
739.063	320.95
739.404	340.61
739.744	355.75
740.084	344.23
740.424	321.4
740.764	336.32
741.104	350.56
741.444	341.06
741.784	358.01
742.124	340.39
742.464	325.7
742.804	340.61
743.143	341.29
743.483	327.73
743.823	353.49
744.162	341.97
744.502	337.67
744.841	346.71
745.181	329.31
745.52	341.06
745.86	320.95
746.199	337.9
746.538	335.41
746.877	346.94
747.216	328.41
747.556	331.8
747.895	322.31
748.234	320.73
748.573	339.26
748.911	337.22
749.25	340.16
749.589	351.69
749.928	335.64
750.267	349.88
750.605	322.08
750.944	342.65
751.283	329.09
751.621	313.27
751.96	324.34
752.298	331.12
752.636	346.04
752.975	347.62
753.313	335.19
753.651	354.17
753.989	342.19
754.327	319.14
754.666	326.6
755.004	348.3
755.342	311.01
755.679	317.11
756.017	335.87
756.355	327.51
756.693	330.22
757.031	337.22
757.368	303.33
757.706	351.23
758.044	342.19
758.381	331.35
758.719	333.83
759.056	331.8
759.394	337.22
759.731	330.9
760.068	318.24
760.405	318.24
760.743	329.77
761.08	328.86
761.417	325.25
761.754	334.96
762.091	336.09
762.428	337.22
762.765	317.11
763.102	312.14
763.438	329.99
763.775	335.41
764.112	327.51
764.449	316.66
764.785	343.55
765.122	326.38
765.458	337
765.795	329.77
766.131	332.7
766.467	325.7
766.804	327.96
767.14	333.61
767.476	322.08
767.812	337
768.148	310.56
768.485	319.6
768.821	323.66
769.157	341.29
769.492	322.08
769.828	328.64
770.164	332.25
770.5	328.41
770.836	323.89
771.171	331.35
771.507	336.09
771.842	325.92
772.178	328.86
772.513	336.77
772.849	339.26
773.184	325.02
773.519	318.92
773.855	346.94
774.19	335.64
774.525	335.19
774.86	337
775.195	348.75
775.53	315.75
775.865	308.75
776.2	346.71
776.535	309.43
776.87	318.24
777.205	310.33
777.539	349.2
777.874	325.7
778.209	313.72
778.543	344.23
778.878	314.85
779.212	327.73
779.547	332.25
779.881	311.01
780.215	348.07
780.55	333.16
780.884	338.13
781.218	316.66
781.552	344.45
781.886	329.31
782.22	342.42
782.554	337
782.888	316.66
783.222	325.92
783.556	326.38
783.889	328.41
784.223	331.12
784.557	331.35
784.89	332.48
785.224	325.02
785.557	337.22
785.891	332.03
786.224	327.05
786.558	317.56
786.891	318.24
787.224	334.96
787.557	323.44
787.891	341.06
788.224	331.12
788.557	327.28
788.89	323.89
789.223	355.75
789.556	341.97
789.888	327.73
790.221	339.71
790.554	304.23
790.887	329.09
791.219	336.09
791.552	324.12
791.884	330.67
792.217	329.77
792.549	335.87
792.882	339.26
793.214	322.99
793.546	318.69
793.879	315.98
794.211	322.76
794.543	331.8
794.875	327.51
795.207	330.44
795.539	319.14
795.871	325.92
796.203	318.47
796.535	319.6
796.867	332.25
797.198	328.18
797.53	329.54
797.862	327.28
798.193	314.85
798.525	333.83
798.856	323.89
799.188	321.4
799.519	327.05
799.85	333.83
800.182	324.34
800.513	337
800.844	337.9
801.175	342.65
801.506	342.19
801.837	344.68
802.168	333.61
802.499	349.2
802.83	325.25
803.161	311.01
803.491	335.41
803.822	320.27
804.153	347.39
804.483	328.18
804.814	332.93
805.145	330.22
805.475	315.08
805.805	339.93
806.136	324.12
806.466	309.2
806.796	321.63
807.126	341.06
807.457	311.91
807.787	322.53
808.117	329.77
808.447	336.32
808.777	321.86
809.107	313.95
809.436	323.44
809.766	329.09
810.096	336.09
810.426	327.05
810.755	324.57
811.085	335.19
811.414	334.06
811.744	323.89
812.073	321.63
812.403	332.48
812.732	317.56
813.061	325.47
813.39	335.41
813.719	324.34
814.049	324.12
814.378	324.12
814.707	324.34
815.036	340.61
815.365	334.74
815.693	315.3
816.022	330.44
816.351	324.34
816.68	325.92
817.008	336.54
817.337	333.83
817.665	326.15
817.994	310.33
818.322	343.78
818.651	328.64
818.979	315.98
819.307	331.57
819.636	325.92
819.964	335.19
820.292	332.25
820.62	319.6
820.948	316.21
821.276	310.78
821.604	324.34
821.932	322.53
822.259	332.7
822.587	340.39
822.915	327.51
823.243	329.54
823.57	329.77
823.898	326.38
824.225	348.52
824.553	312.14
824.88	302.87
825.207	332.93
825.535	313.04
825.862	317.34
826.189	324.57
826.516	316.66
826.843	322.08
827.17	314.62
827.497	324.57
827.824	337.9
828.151	317.56
828.478	315.53
828.805	311.91
829.131	329.77
829.458	324.57
829.785	314.17
830.111	324.34
830.438	321.63
830.764	332.7
831.09	344
831.417	318.01
831.743	307.62
832.069	313.04
832.395	307.85
832.722	326.15
833.048	302.2
833.374	328.64
833.7	314.4
834.026	320.5
834.351	332.93
834.677	324.57
835.003	316.21
835.329	326.83
835.654	321.18
835.98	316.88
836.306	329.31
836.631	346.94
836.956	318.92
837.282	324.79
837.607	308.75
837.932	319.37
838.258	320.5
838.583	318.01
838.908	329.09
839.233	318.69
839.558	298.35
839.883	323.44
840.208	320.27
840.533	313.95
840.858	326.6
841.182	332.25
841.507	315.53
841.832	309.65
842.156	342.19
842.481	326.83
842.805	326.83
843.13	347.17
843.454	331.35
843.778	331.12
844.103	311.91
844.427	353.27
844.751	325.92
845.075	328.86
845.399	314.17
845.723	326.83
846.047	320.05
846.371	312.59
846.695	324.12
847.019	320.05
847.343	309.65
847.666	318.69
847.99	304.46
848.313	325.47
848.637	352.59
848.96	313.27
849.284	312.14
849.607	331.57
849.931	305.36
850.254	313.49
850.577	338.8
850.9	316.43
851.223	292.25
851.546	300.16
851.869	344.91
852.192	335.87
852.515	341.29
852.838	332.03
853.161	323.21
853.483	321.4
853.806	324.34
854.129	308.07
854.451	310.56
854.774	306.26
855.096	333.16
855.419	328.41
855.741	315.3
856.063	320.5
856.385	317.34
856.708	324.12
857.03	312.82
857.352	317.11
857.674	322.99
857.996	324.12
858.318	325.7
858.64	323.21
858.961	327.51
859.283	333.61
859.605	323.44
859.926	311.01
860.248	345.58
860.57	318.01
860.891	314.4
861.212	323.66
861.534	327.51
861.855	320.73
862.176	315.53
862.498	324.57
862.819	331.57
863.14	336.54
863.461	332.7
863.782	337.22
864.103	321.63
864.424	335.41
864.745	319.14
865.065	308.52
865.386	325.7
865.707	325.02
866.027	321.86
866.348	330.44
866.668	321.86
866.989	318.24
867.309	317.34
867.63	324.79
867.95	311.46
868.27	315.98
868.59	319.82
868.91	309.43
869.23	311.23
869.55	318.69
869.87	319.82
870.19	316.43
870.51	300.39
870.83	324.12
871.15	328.41
871.469	314.85
871.789	343.78
872.109	306.26
872.428	320.5
872.748	326.6
873.067	333.16
873.386	333.61
873.706	321.63
874.025	310.78
874.344	325.25
874.663	341.74
874.982	323.89
875.301	318.92
875.62	343.78
875.939	309.2
876.258	322.76
876.577	329.09
876.896	316.21
877.214	325.47
877.533	310.56
877.852	322.76
878.17	345.36
878.489	307.62
878.807	327.73
879.125	309.43
879.444	303.33
879.762	296.32
880.08	325.92
880.398	325.7
880.716	322.53
881.034	307.39
881.352	329.99
881.67	311.01
881.988	317.56
882.306	332.93
882.624	309.65
882.941	328.64
883.259	312.36
883.577	321.86
883.894	282.99
884.212	323.44
884.529	323.44
884.846	303.33
885.164	319.37
885.481	309.65
885.798	332.03
886.115	327.73
886.432	321.4
886.75	323.21
887.067	323.66
887.383	308.75
887.7	332.93
888.017	328.86
888.334	325.92
888.651	303.78
888.967	325.92
889.284	330.44
889.6	322.08
889.917	320.95
890.233	319.6
890.55	333.83
890.866	322.53
891.182	312.36
891.498	330.9
891.815	323.44
892.131	324.34
892.447	341.29
892.763	318.69
893.079	326.38
893.395	298.13
893.71	314.62
894.026	322.99
894.342	313.49
894.657	299.71
894.973	318.69
895.289	318.01
895.604	312.82
895.92	314.62
896.235	304.91
896.55	344.91
896.865	346.94
897.181	349.65
897.496	330.22
897.811	313.27
898.126	332.93
898.441	310.56
898.756	320.27
899.071	318.69
899.386	320.73
899.7	303.78
900.015	338.13
900.33	321.4
900.644	324.34
900.959	314.17
901.273	325.7
901.588	342.42
901.902	336.32
902.216	322.53
902.531	290.9
902.845	326.6
903.159	340.16
903.473	319.82
903.787	315.08
904.101	312.14
904.415	312.82
904.729	320.5
905.042	334.28
905.356	329.99
905.67	317.34
905.984	333.61
906.297	332.7
906.611	325.02
906.924	323.89
907.237	301.07
907.551	320.05
907.864	292.25
908.177	315.08
908.491	331.12
908.804	322.53
909.117	314.4
909.43	319.82
909.743	327.28
910.056	322.08
910.368	325.25
910.681	311.01
910.994	322.99
911.307	304.68
911.619	311.69
911.932	329.77
912.244	307.62
912.557	312.59
912.869	336.32
913.181	302.65
913.494	328.41
913.806	300.61
914.118	289.99
914.43	318.92
914.742	326.6
915.054	319.82
915.366	311.46
915.678	314.85
915.99	339.93
916.302	328.86
916.613	325.47
916.925	308.52
917.236	331.12
917.548	320.27
917.859	345.58
918.171	329.54
918.482	315.53
918.794	327.05
919.105	320.95
919.416	318.01
919.727	303.78
920.038	321.18
920.349	337.45
920.66	302.2
920.971	343.78
921.282	325.25
921.593	330.9
921.903	302.65
922.214	312.36
922.525	312.14
922.835	322.31
923.146	324.12
923.456	305.59
923.767	307.85
924.077	322.99
924.387	303.33
924.697	318.47
925.008	325.02
925.318	320.5
925.628	318.01
925.938	333.83
926.248	320.05
926.558	336.77
926.867	310.1
927.177	300.84
927.487	313.27
927.796	321.18
928.106	314.4
928.416	310.1
928.725	329.77
929.034	342.65
929.344	318.24
929.653	325.02
929.962	306.26
930.271	314.17
930.581	307.17
930.89	308.3
931.199	322.99
931.508	311.91
931.817	322.31
932.125	303.1
932.434	318.47
932.743	311.46
933.051	310.33
933.36	310.56
933.669	325.02
933.977	309.2
934.286	355.53
934.594	314.17
934.902	321.63
935.21	312.14
935.519	314.4
935.827	320.5
936.135	303.1
936.443	312.36
936.751	324.12
937.059	315.3
937.367	313.72
937.674	327.28
937.982	302.87
938.29	308.3
938.597	304.91
938.905	319.37
939.213	343.55
939.52	316.21
939.827	321.63
940.135	315.53
940.442	322.99
940.749	326.83
941.056	321.4
941.363	320.73
941.67	316.88
941.977	320.27
942.284	304.23
942.591	322.31
942.898	322.99
943.205	312.82
943.511	318.01
943.818	321.63
944.125	312.14
944.431	319.37
944.738	309.65
945.044	325.25
945.35	312.82
945.657	303.78
945.963	317.11
946.269	284.57
946.575	321.18
946.881	312.59
947.187	316.66
947.493	296.09
947.799	301.29
948.105	298.58
948.41	326.6
948.716	319.14
949.022	309.65
949.327	333.38
949.633	323.44
949.938	304
950.244	312.82
950.549	320.73
950.854	334.96
951.16	313.04
951.465	334.51
951.77	316.21
952.075	335.41
952.38	305.81
952.685	300.84
952.99	316.43
953.294	307.85
953.599	316.66
953.904	302.2
954.209	318.24
954.513	327.96
954.818	305.81
955.122	304.68
955.426	317.79
955.731	301.97
956.035	316.21
956.339	321.86
956.643	318.24
956.948	325.47
957.252	318.92
957.556	308.75
957.86	320.95
958.163	325.47
958.467	321.4
958.771	340.84
959.075	311.46
959.378	322.99
959.682	316.66
959.985	319.6
960.289	309.88
960.592	283.44
960.896	326.6
961.199	320.73
961.502	308.97
961.805	312.59
962.108	319.14
962.411	318.24
962.714	344.45
963.017	324.79
963.32	298.13
963.623	316.43
963.926	339.48
964.228	316.21
964.531	316.21
964.833	323.66
965.136	308.07
965.438	316.21
965.741	314.4
966.043	278.47
966.345	314.62
966.648	316.21
966.95	320.73
967.252	305.13
967.554	318.69
967.856	318.01
968.158	315.53
968.46	318.47
968.761	303.33
969.063	312.36
969.365	302.87
969.666	314.62
969.968	308.75
970.269	328.41
970.571	299.26
970.872	330.67
971.174	327.73
971.475	326.15
971.776	311.69
972.077	321.18
972.378	316.88
972.679	311.01
972.98	319.14
973.281	325.7
973.582	320.05
973.883	311.69
974.183	306.49
974.484	313.95
974.785	332.93
975.085	311.91
975.386	328.18
975.686	332.03
975.986	326.83
976.287	322.08
976.587	318.01
976.887	317.79
977.187	312.59
977.487	333.16
977.787	325.92
978.087	303.78
978.387	321.18
978.687	306.04
978.987	297
979.286	308.75
979.586	325.47
979.885	302.87
980.185	315.75
980.484	319.6
980.784	313.72
981.083	329.09
981.382	329.77
981.682	314.85
981.981	311.46
982.28	324.79
982.579	320.27
982.878	331.8
983.177	328.41
983.475	316.66
983.774	333.38
984.073	305.13
984.372	327.51
984.67	297.45
984.969	326.83
985.267	319.82
985.566	314.4
985.864	331.35
986.162	309.43
986.461	294.51
986.759	318.24
987.057	319.37
987.355	322.53
987.653	320.5
987.951	336.77
988.249	325.47
988.547	306.72
988.844	311.23
989.142	327.05
989.44	302.2
989.737	317.56
990.035	308.52
990.332	308.3
990.63	302.87
990.927	308.97
991.224	295.19
991.521	320.73
991.819	296.77
992.116	315.08
992.413	329.31
992.71	305.81
993.006	306.26
993.303	319.37
993.6	298.58
993.897	310.78
994.193	318.92
994.49	317.79
994.787	314.62
995.083	310.56
995.379	297
995.676	333.16
995.972	327.96
996.268	309.43
996.565	331.57
996.861	318.69
997.157	321.86
997.453	319.37
997.749	302.2
998.044	340.84
998.34	315.75
998.636	322.53
998.932	334.28
999.227	325.25
999.523	314.62
999.818	305.36
1000.114	310.33
1000.409	308.52
1000.704	313.49
1001	324.57
1001.295	328.64
1001.59	306.49
1001.885	307.17
1002.18	311.69
1002.475	323.66
1002.77	315.98
1003.065	310.56
1003.359	309.65
1003.654	292.48
1003.949	292.25
1004.243	302.87
1004.538	327.96
1004.832	328.41
1005.127	328.41
1005.421	328.64
1005.715	322.99
1006.009	327.73
1006.304	299.03
1006.598	295.87
1006.892	299.71
1007.186	321.18
1007.48	313.72
1007.773	309.2
1008.067	314.17
1008.361	308.3
1008.655	331.8
1008.948	328.86
1009.242	301.07
1009.535	309.65
1009.829	323.89
1010.122	309.43
1010.415	310.56
1010.708	330.22
1011.001	308.3
1011.295	332.48
1011.588	330.44
1011.881	329.54
1012.173	330.67
1012.466	322.31
1012.759	324.57
1013.052	318.92
1013.344	321.18
1013.637	325.25
1013.93	323.21
1014.222	306.26
1014.514	327.28
1014.807	297.68
1015.099	318.92
1015.391	326.38
1015.683	298.58
1015.976	324.34
1016.268	322.53
1016.56	318.24
1016.851	299.03
1017.143	306.26
1017.435	325.02
1017.727	306.94
1018.018	306.04
1018.31	309.43
1018.602	317.56
1018.893	320.73
1019.185	308.97
1019.476	305.36
1019.767	314.17
1020.058	309.2
1020.35	319.6
1020.641	331.12
1020.932	310.1
1021.223	319.14
1021.514	331.12
1021.804	311.69
1022.095	318.92
1022.386	329.31
1022.677	326.83
1022.967	321.86
1023.258	311.69
1023.548	326.6
1023.839	313.49
1024.129	297
1024.419	326.38
1024.709	329.99
1025	318.24
1025.29	320.5
1025.58	317.11
1025.87	310.33
1026.16	318.24
1026.449	313.72
1026.739	322.31
1027.029	309.65
1027.319	322.53
1027.608	306.72
1027.898	316.66
1028.187	313.72
1028.477	315.08
1028.766	304
1029.055	340.39
1029.344	332.25
1029.634	314.85
1029.923	325.47
1030.212	324.12
1030.501	295.64
1030.79	327.28
1031.078	336.77
1031.367	322.53
1031.656	321.18
1031.945	315.98
1032.233	302.42
1032.522	313.95
1032.81	321.4
1033.099	301.07
1033.387	333.38
1033.675	324.12
1033.963	322.76
1034.251	332.25
1034.54	326.38
1034.828	331.35
1035.116	318.01
1035.403	313.49
1035.691	290.44
1035.979	314.85
1036.267	304.46
1036.554	318.92
1036.842	318.69
1037.129	310.78
1037.417	316.66
1037.704	325.92
1037.992	309.2
1038.279	305.36
1038.566	321.86
1038.853	321.86
1039.14	321.86
