Data from No_light_on_white_reflection_standard_FLMS001491_096.txt Node
Date: Tue Feb 07 10:33:11 GMT 2017
User: dcchb
Spectrometer: FLMS00149
Trigger mode: 0
Integration Time (sec): 2.000000E-2
Scans to average: 10
Electric dark correction enabled: true
Nonlinearity correction enabled: false
Boxcar width: 0
XAxis mode: Wavelengths
Number of Pixels in Spectrum: 2048
>>>>>Begin Spectral Data<<<<<
341.393	-0.23
341.776	-0.23
342.16	-0.23
342.543	-71.86
342.927	-71.86
343.31	-65.54
343.693	-75.03
344.077	-73.44
344.46	-69.6
344.843	-66.44
345.226	-32.77
345.61	-21.02
345.993	-21.47
346.376	-5.88
346.759	11.75
347.142	28.02
347.525	55.82
347.908	53.56
348.291	80.22
348.674	92.43
349.057	109.38
349.44	131.97
349.823	125.65
350.206	151.63
350.588	162.03
350.971	184.18
351.354	197.51
351.737	213.78
352.119	220.56
352.502	228.92
352.884	231.86
353.267	248.58
353.65	275.7
354.032	263.27
354.414	273.21
354.797	279.54
355.179	293.1
355.562	278.64
355.944	293.1
356.326	298.07
356.709	318.41
357.091	300.56
357.473	304.4
357.855	310.27
358.238	313.44
358.62	311.63
359.002	285.87
359.384	322.93
359.766	285.87
360.148	302.14
360.53	286.32
360.912	303.04
361.294	305.98
361.676	301.91
362.057	287.22
362.439	289.48
362.821	303.49
363.203	294
363.584	298.75
363.966	282.93
364.348	289.26
364.729	276.15
365.111	272.99
365.493	288.13
365.874	299.2
366.256	273.89
366.637	263.27
367.019	278.41
367.4	284.29
367.781	272.54
368.163	258.52
368.544	287.45
368.925	282.93
369.306	272.08
369.688	255.13
370.069	267.79
370.45	253.1
370.831	262.82
371.212	264.63
371.593	277.05
371.974	274.57
372.355	275.02
372.736	277.28
373.117	272.99
373.498	261.24
373.879	265.98
374.26	306.88
374.641	271.63
375.021	278.86
375.402	290.16
375.783	272.08
376.163	298.98
376.544	254.91
376.925	262.14
377.305	280.67
377.686	244.97
378.066	279.54
378.447	275.02
378.827	283.38
379.208	280.22
379.588	256.72
379.968	273.44
380.349	282.48
380.729	286.55
381.109	303.04
381.489	294.46
381.87	289.94
382.25	301.91
382.63	281.12
383.01	282.03
383.39	294.91
383.77	286.09
384.15	281.12
384.53	283.16
384.91	289.71
385.29	293.33
385.67	308.92
386.049	286.55
386.429	286.32
386.809	287.22
387.189	282.48
387.568	288.58
387.948	277.28
388.328	293.33
388.707	276.6
389.087	292.42
389.466	292.65
389.846	293.55
390.225	286.77
390.605	280.44
390.984	300.78
391.363	312.08
391.743	290.39
392.122	307.34
392.501	277.05
392.881	280.67
393.26	284.74
393.639	304.62
394.018	277.51
394.397	283.38
394.776	293.55
395.155	285.19
395.534	276.15
395.913	277.96
396.292	306.88
396.671	293.78
397.05	297.17
397.429	306.66
397.808	295.81
398.186	308.01
398.565	284.06
398.944	284.74
399.323	293.33
399.701	291.07
400.08	298.75
400.458	269.6
400.837	313.89
401.215	298.98
401.594	296.49
401.972	290.61
402.351	280.22
402.729	308.69
403.107	298.98
403.486	278.86
403.864	293.78
404.242	299.43
404.62	280.67
404.999	293.33
405.377	300.33
405.755	301.69
406.133	286.32
406.511	296.04
406.889	305.98
407.267	315.7
407.645	296.26
408.023	290.84
408.401	281.12
408.779	292.65
409.156	300.78
409.534	309.37
409.912	285.87
410.29	297.17
410.667	302.14
411.045	290.16
411.422	292.2
411.8	314.57
412.178	287.9
412.555	310.5
412.933	281.57
413.31	312.31
413.687	287.9
414.065	312.99
414.442	284.96
414.819	297.62
415.197	311.63
415.574	295.13
415.951	296.26
416.328	298.07
416.705	295.81
417.082	319.99
417.46	296.94
417.837	308.92
418.214	308.69
418.591	315.92
418.967	293.78
419.344	311.63
419.721	297.85
420.098	298.07
420.475	297.85
420.852	318.86
421.228	316.83
421.605	307.34
421.982	305.98
422.358	302.59
422.735	320.22
423.111	316.6
423.488	307.79
423.864	309.82
424.241	287.45
424.617	297.39
424.994	313.44
425.37	313.89
425.746	291.29
426.123	309.6
426.499	324.51
426.875	304.17
427.251	294
427.627	303.04
428.003	303.72
428.379	312.08
428.756	317.96
429.132	300.78
429.507	306.21
429.883	296.04
430.259	316.15
430.635	312.08
431.011	305.75
431.387	312.99
431.763	332.42
432.138	307.79
432.514	315.25
432.89	308.69
433.265	312.76
433.641	322.93
434.016	298.52
434.392	322.03
434.767	325.19
435.143	309.37
435.518	294.91
435.894	318.41
436.269	322.7
436.644	323.61
437.02	308.24
437.395	319.31
437.77	325.42
438.145	322.93
438.52	329.48
438.895	341.23
439.271	322.03
439.646	324.96
440.021	327.22
440.395	341.91
440.77	322.25
441.145	340.1
441.52	325.87
441.895	334.45
442.27	329.71
442.645	322.03
443.019	367.9
443.394	331.29
443.769	322.25
444.143	348.92
444.518	350.95
444.892	332.87
445.267	347.34
445.641	339.65
446.016	323.16
446.39	352.76
446.764	365.41
447.139	351.63
447.513	357.96
447.887	359.31
448.262	379.2
448.636	357.05
449.01	371.97
449.384	356.83
449.758	367.67
450.132	368.35
450.506	364.28
450.88	391.18
451.254	370.16
451.628	361.8
452.002	354.57
452.376	357.5
452.75	366.32
453.123	364.51
453.497	361.8
453.871	376.94
454.244	354.11
454.618	369.26
454.992	378.3
455.365	381.01
455.739	355.47
456.112	355.92
456.486	382.81
456.859	358.41
457.232	357.5
457.606	362.25
457.979	366.32
458.352	359.76
458.725	366.77
459.099	362.48
459.472	342.14
459.845	355.92
460.218	357.96
460.591	369.26
460.964	361.12
461.337	371.06
461.71	353.21
462.083	339.65
462.456	352.99
462.829	358.63
463.201	363.38
463.574	342.36
463.947	336.94
464.32	343.72
464.692	351.63
465.065	360.44
465.438	350.5
465.81	349.6
466.183	364.06
466.555	342.14
466.928	342.59
467.3	345.98
467.672	369.71
468.045	362.02
468.417	345.75
468.789	358.86
469.161	339.2
469.534	375.58
469.906	366.32
470.278	347.79
470.65	317.73
471.022	358.86
471.394	350.95
471.766	351.86
472.138	341.23
472.51	349.6
472.882	335.58
473.253	344.4
473.625	336.26
473.997	355.92
474.369	348.47
474.74	358.18
475.112	352.76
475.484	369.26
475.855	357.5
476.227	361.57
476.598	353.21
476.97	339.88
477.341	361.35
477.713	327.68
478.084	334.68
478.455	371.97
478.827	374.68
479.198	364.06
479.569	339.88
479.94	352.76
480.311	341.69
480.682	350.73
481.053	345.3
481.424	362.02
481.795	346.43
482.166	329.93
482.537	350.73
482.908	366.32
483.279	346.66
483.65	342.14
484.021	366.77
484.391	362.25
484.762	367.22
485.133	360.67
485.503	355.47
485.874	352.31
486.244	351.4
486.615	368.58
486.985	378.3
487.356	382.36
487.726	378.3
488.097	381.68
488.467	380.78
488.837	378.3
489.207	363.61
489.578	363.83
489.948	375.36
490.318	357.05
490.688	369.26
491.058	376.94
491.428	360.22
491.798	397.28
492.168	385.98
492.538	376.26
492.908	394.34
493.278	366.32
493.648	382.36
494.017	374.68
494.387	392.53
494.757	397.73
495.126	389.82
495.496	391.18
495.866	389.82
496.235	400.22
496.605	381.68
496.974	389.59
497.344	364.28
497.713	381.23
498.082	385.75
498.452	395.7
498.821	385.98
499.19	377.17
499.559	399.54
499.928	379.2
500.298	377.84
500.667	377.17
501.036	391.18
501.405	399.31
501.774	398.41
502.143	396.6
502.512	409.03
502.88	379.65
503.249	411.51
503.618	416.71
503.987	397.5
504.356	412.19
504.724	414.45
505.093	417.39
505.462	425.98
505.83	410.38
506.199	421.91
506.567	424.62
506.936	423.27
507.304	416.26
507.672	401.57
508.041	428.01
508.409	423.72
508.777	430.05
509.145	445.86
509.514	428.69
509.882	430.72
510.25	434.34
510.618	434.11
510.986	425.07
511.354	415.36
511.722	435.69
512.09	434.11
512.458	434.11
512.826	443.38
513.193	433.89
513.561	439.99
513.929	426.2
514.297	446.09
514.664	459.65
515.032	449.93
515.4	461.23
515.767	456.03
516.135	453.1
516.502	462.59
516.869	468.24
517.237	468.46
517.604	458.74
517.972	439.54
518.339	463.94
518.706	453.32
519.073	458.97
519.44	465.07
519.808	463.94
520.175	471.85
520.542	462.13
520.909	472.76
521.276	473.43
521.643	457.39
522.009	453.32
522.376	475.02
522.743	448.58
523.11	478.86
523.477	464.39
523.843	470.5
524.21	461.91
524.577	486.31
524.943	467.33
525.31	469.14
525.676	467.11
526.043	480.67
526.409	492.64
526.776	478.63
527.142	502.13
527.508	506.43
527.874	503.26
528.241	491.06
528.607	488.8
528.973	500.55
529.339	479.31
529.705	492.87
530.071	504.39
530.437	472.53
530.803	501
531.169	493.77
531.535	523.15
531.901	519.53
532.267	484.28
532.632	499.2
532.998	513.43
533.364	494
533.73	489.25
534.095	497.84
534.461	508.91
534.826	504.17
535.192	504.62
535.557	506.43
535.923	498.74
536.288	508.24
536.653	507.11
537.019	510.27
537.384	479.08
537.749	511.17
538.114	510.95
538.479	512.98
538.845	529.25
539.21	514.56
539.575	499.87
539.94	503.94
540.305	503.49
540.67	508.01
541.034	518.63
541.399	513.21
541.764	518.86
542.129	508.24
542.494	497.16
542.858	517.95
543.223	518.86
543.587	531.29
543.952	523.38
544.316	516.6
544.681	512.75
545.045	522.25
545.41	529.48
545.774	536.94
546.138	522.25
546.503	531.51
546.867	525.18
547.231	516.14
547.595	530.61
547.959	507.11
548.324	536.71
548.688	545.07
549.052	529.93
549.416	516.37
549.779	541
550.143	525.64
550.507	547.1
550.871	538.29
551.235	534.9
551.599	526.31
551.962	526.99
552.326	531.51
552.689	524.73
553.053	536.26
553.417	522.7
553.78	533.09
554.143	531.96
554.507	532.19
554.87	541
555.234	555.24
555.597	543.71
555.96	546.43
556.323	519.08
556.686	532.42
557.05	545.75
557.413	530.61
557.776	548.23
558.139	561.57
558.502	520.66
558.865	564.05
559.228	552.53
559.59	554.56
559.953	541.45
560.316	548.46
560.679	550.72
561.041	565.63
561.404	577.39
561.767	557.05
562.129	557.95
562.492	558.18
562.854	534.45
563.217	553.43
563.579	541.68
563.941	550.95
564.304	567.67
564.666	550.04
565.028	556.14
565.39	557.05
565.753	575.8
566.115	560.44
566.477	573.54
566.839	565.41
567.201	570.38
567.563	560.44
567.925	574.9
568.287	580.78
568.648	565.18
569.01	566.54
569.372	560.44
569.734	563.6
570.095	587.56
570.457	567.89
570.819	598.85
571.18	578.06
571.542	571.96
571.903	559.76
572.265	565.63
572.626	581.45
572.987	586.43
573.349	585.52
573.71	588.01
574.071	569.7
574.432	582.36
574.794	585.3
575.155	582.58
575.516	593.88
575.877	594.79
576.238	563.6
576.599	586.88
576.96	582.36
577.32	556.37
577.681	577.84
578.042	594.11
578.403	599.98
578.763	588.91
579.124	598.85
579.485	569.02
579.845	583.71
580.206	577.84
580.566	596.59
580.927	575.35
581.287	583.04
581.648	592.75
582.008	604.28
582.368	588.46
582.728	584.84
583.089	593.66
583.449	580.55
583.809	588.91
584.169	599.31
584.529	599.98
584.889	605.86
585.249	594.33
585.609	575.35
585.969	598.4
586.329	589.14
586.688	585.97
587.048	571.96
587.408	562.47
587.768	608.57
588.127	581.45
588.487	609.25
588.846	594.56
589.206	583.26
589.565	575.58
589.925	582.13
590.284	606.54
590.643	591.85
591.003	607.22
591.362	590.94
591.721	579.42
592.08	605.41
592.44	583.04
592.799	569.25
593.158	588.91
593.517	583.26
593.876	570.15
594.235	585.52
594.593	566.54
594.952	582.81
595.311	561.34
595.67	569.48
596.029	581.68
596.387	582.36
596.746	581.68
597.104	588.01
597.463	576.48
597.822	566.09
598.18	579.65
598.538	572.19
598.897	570.61
599.255	566.09
599.613	583.71
599.972	576.71
600.33	574.22
600.688	574.67
601.046	576.93
601.404	585.97
601.762	560.44
602.12	569.25
602.478	569.93
602.836	597.05
603.194	577.39
603.552	583.26
603.91	558.4
604.268	541.68
604.625	575.8
604.983	586.2
605.341	582.58
605.698	548.01
606.056	553.43
606.413	566.54
606.771	559.53
607.128	552.75
607.485	576.03
607.843	568.35
608.2	574.9
608.557	548.69
608.914	548.46
609.272	559.99
609.629	560.21
609.986	544.17
610.343	545.75
610.7	540.55
611.057	556.37
611.414	562.02
611.771	545.75
612.127	558.63
612.484	550.72
612.841	555.24
613.198	551.62
613.554	543.49
613.911	548.46
614.267	535.81
614.624	540.78
614.98	546.65
615.337	542.81
615.693	563.38
616.05	538.29
616.406	544.39
616.762	533.32
617.118	533.77
617.475	518.18
617.831	550.27
618.187	551.62
618.543	522.7
618.899	538.29
619.255	524.73
619.611	525.41
619.967	531.51
620.323	518.86
620.678	533.32
621.034	526.77
621.39	531.51
621.746	533.77
622.101	515.69
622.457	534.68
622.812	528.35
623.168	507.78
623.523	521.57
623.879	515.47
624.234	526.31
624.589	514.11
624.945	531.51
625.3	530.61
625.655	511.4
626.01	504.62
626.365	520.66
626.72	527.67
627.075	502.36
627.43	516.6
627.785	499.42
628.14	478.63
628.495	506.88
628.85	524.05
629.205	527.9
629.559	507.56
629.914	494.22
630.269	494.45
630.623	496.71
630.978	491.96
631.332	503.04
631.687	495.58
632.041	487.22
632.396	475.69
632.75	507.78
633.104	486.54
633.459	472.76
633.813	481.12
634.167	487.67
634.521	467.33
634.875	473.66
635.229	479.54
635.583	490.61
635.937	489.7
636.291	486.54
636.645	483.38
636.999	470.04
637.352	465.75
637.706	453.77
638.06	476.37
638.413	475.92
638.767	470.04
639.121	480.89
639.474	480.21
639.828	476.6
640.181	471.17
640.534	477.28
640.888	473.89
641.241	465.3
641.594	444.73
641.947	459.42
642.301	469.59
642.654	432.31
643.007	475.02
643.36	457.16
643.713	454.45
644.066	455.81
644.419	437.95
644.771	452.64
645.124	459.2
645.477	452.64
645.83	431.18
646.182	427.33
646.535	436.6
646.888	434.79
647.24	439.99
647.593	426.88
647.945	445.86
648.298	428.24
648.65	441.57
649.002	454.68
649.355	447.45
649.707	422.59
650.059	449.48
650.411	430.5
650.763	440.44
651.115	422.36
651.467	446.09
651.819	426.43
652.171	467.56
652.523	448.35
652.875	431.85
653.227	437.73
653.578	416.03
653.93	419.65
654.282	403.83
654.633	431.63
654.985	434.79
655.337	435.02
655.688	420.55
656.039	425.3
656.391	421.91
656.742	421.01
657.094	422.81
657.445	421.23
657.796	421.91
658.147	413.77
658.498	420.1
658.849	412.19
659.2	401.57
659.551	432.53
659.902	400.44
660.253	419.42
660.604	409.03
660.955	403.61
661.306	410.16
661.656	411.74
662.007	419.42
662.358	410.61
662.708	399.76
663.059	398.18
663.409	413.32
663.76	382.36
664.11	405.41
664.461	404.06
664.811	406.54
665.161	410.16
665.511	378.75
665.862	393.21
666.212	391.18
666.562	397.5
666.912	390.5
667.262	411.51
667.612	397.73
667.962	388.01
668.312	399.54
668.662	375.13
669.011	391.18
669.361	398.18
669.711	402.7
670.06	368.8
670.41	379.43
670.76	387.79
671.109	381.01
671.459	386.66
671.808	381.01
672.157	390.72
672.507	384.4
672.856	376.71
673.205	387.79
673.554	388.01
673.904	372.87
674.253	365.87
674.602	389.14
674.951	390.95
675.3	398.41
675.649	387.11
675.998	383.04
676.346	397.73
676.695	378.3
677.044	384.62
677.393	385.53
677.741	396.6
678.09	364.51
678.438	383.72
678.787	376.04
679.135	371.52
679.484	390.05
679.832	383.04
680.181	371.06
680.529	372.65
680.877	377.17
681.225	374.23
681.573	392.53
681.922	374.91
682.27	392.53
682.618	374.23
682.966	363.38
683.314	376.26
683.661	369.03
684.009	374.45
684.357	357.73
684.705	379.88
685.053	381.01
685.4	379.43
685.748	373.55
686.095	364.28
686.443	373.1
686.79	356.83
687.138	348.92
687.485	360.89
687.832	364.74
688.18	360.44
688.527	356.6
688.874	367
689.221	390.05
689.568	368.8
689.915	359.99
690.262	353.21
690.609	359.99
690.956	362.02
691.303	376.26
691.65	366.32
691.997	360.22
692.344	369.26
692.69	354.11
693.037	362.48
693.383	362.93
693.73	371.06
694.077	364.28
694.423	367.45
694.769	366.54
695.116	361.12
695.462	350.05
695.808	352.76
696.155	358.18
696.501	357.05
696.847	354.11
697.193	335.81
697.539	356.37
697.885	349.6
698.231	343.27
698.577	358.63
698.923	360.67
699.269	360.22
699.614	360.67
699.96	356.37
700.306	347.11
700.651	365.19
700.997	333.55
701.342	346.43
701.688	338.97
702.033	366.54
702.379	367
702.724	352.99
703.069	361.8
703.415	369.48
703.76	349.14
704.105	341.46
704.45	350.73
704.795	364.96
705.14	353.21
705.485	375.58
705.83	341.46
706.175	350.27
706.52	346.88
706.865	336.04
707.209	341.01
707.554	341.91
707.899	345.3
708.243	378.3
708.588	359.09
708.932	349.14
709.277	330.39
709.621	338.07
709.966	322.03
710.31	360.22
710.654	322.93
710.998	344.62
711.342	325.19
711.687	348.01
712.031	373.55
712.375	343.04
712.719	333.1
713.063	322.7
713.407	334.45
713.75	338.3
714.094	362.25
714.438	324.96
714.782	326.09
715.125	356.15
715.469	332.87
715.812	352.76
716.156	339.88
716.499	367.22
716.843	319.54
717.186	336.49
717.53	352.08
717.873	326.32
718.216	331.97
718.559	324.96
718.902	318.86
719.246	333.32
719.589	329.03
719.932	332.42
720.275	334
720.617	354.57
720.96	345.75
721.303	319.77
721.646	323.83
721.989	334.45
722.331	335.81
722.674	334.68
723.016	352.31
723.359	346.66
723.701	327.68
724.044	345.3
724.386	325.19
724.729	351.4
725.071	352.31
725.413	341.69
725.755	343.95
726.097	332.65
726.439	341.46
726.782	348.92
727.124	329.93
727.465	348.01
727.807	321.12
728.149	330.61
728.491	347.34
728.833	333.32
729.175	345.75
729.516	322.25
729.858	322.03
730.199	334
730.541	341.46
730.882	348.47
731.224	332.87
731.565	324.74
731.906	327.9
732.248	333.32
732.589	324.29
732.93	348.69
733.271	321.12
733.612	328.8
733.953	341.46
734.294	332.65
734.635	332.65
734.976	341.91
735.317	345.53
735.658	313.44
735.999	326.55
736.339	328.13
736.68	326.09
737.021	364.51
737.361	324.96
737.702	333.1
738.042	337.39
738.383	329.26
738.723	339.2
739.063	331.74
739.404	312.08
739.744	320.44
740.084	345.75
740.424	348.01
740.764	331.29
741.104	346.21
741.444	321.8
741.784	337.39
742.124	318.86
742.464	331.29
742.804	338.75
743.143	333.32
743.483	328.13
743.823	327.9
744.162	337.17
744.502	322.25
744.841	352.99
745.181	339.65
745.52	337.62
745.86	346.88
746.199	317.96
746.538	328.8
746.877	343.49
747.216	323.83
747.556	334.45
747.895	343.27
748.234	330.84
748.573	329.48
748.911	329.48
749.25	324.29
749.589	340.1
749.928	335.81
750.267	318.18
750.605	335.36
750.944	323.61
751.283	323.16
751.621	306.21
751.96	331.29
752.298	334.68
752.636	311.63
752.975	331.74
753.313	340.56
753.651	321.35
753.989	331.52
754.327	340.56
754.666	343.49
755.004	348.24
755.342	318.41
755.679	318.41
756.017	313.66
756.355	336.49
756.693	308.92
757.031	322.03
757.368	312.31
757.706	329.71
758.044	335.58
758.381	329.93
758.719	325.42
759.056	331.97
759.394	335.81
759.731	323.83
760.068	352.08
760.405	335.36
760.743	316.38
761.08	312.99
761.417	325.64
761.754	324.06
762.091	333.55
762.428	335.81
762.765	326.77
763.102	316.6
763.438	321.12
763.775	302.36
764.112	328.58
764.449	321.12
764.785	339.2
765.122	329.48
765.458	325.42
765.795	328.58
766.131	333.78
766.467	326.32
766.804	335.36
767.14	309.37
767.476	314.79
767.812	308.69
768.148	317.51
768.485	325.64
768.821	340.1
769.157	307.34
769.492	334.23
769.828	337.84
770.164	314.12
770.5	326.09
770.836	327.9
771.171	317.28
771.507	310.73
771.842	305.98
772.178	339.2
772.513	329.48
772.849	326.09
773.184	324.74
773.519	322.03
773.855	319.09
774.19	329.03
774.525	341.23
774.86	326.09
775.195	339.88
775.53	318.64
775.865	326.77
776.2	354.11
776.535	320.67
776.87	329.93
777.205	315.47
777.539	336.26
777.874	297.85
778.209	338.52
778.543	341.69
778.878	345.3
779.212	323.38
779.547	337.39
779.881	326.55
780.215	323.83
780.55	334.45
780.884	302.59
781.218	340.1
781.552	341.91
781.886	311.63
782.22	322.48
782.554	336.71
782.888	314.57
783.222	303.49
783.556	331.52
783.889	322.48
784.223	304.62
784.557	304.4
784.89	318.86
785.224	328.58
785.557	315.47
785.891	349.37
786.224	311.86
786.558	330.61
786.891	324.29
787.224	331.97
787.557	322.25
787.891	316.15
788.224	311.86
788.557	319.09
788.89	334.23
789.223	301.91
789.556	330.84
789.888	328.8
790.221	333.78
790.554	319.99
790.887	328.8
791.219	327.9
791.552	325.64
791.884	326.77
792.217	311.86
792.549	336.71
792.882	336.49
793.214	327
793.546	339.43
793.879	326.55
794.211	313.44
794.543	325.64
794.875	320.67
795.207	317.73
795.539	331.52
795.871	305.53
796.203	304.17
796.535	347.56
796.867	330.39
797.198	332.65
797.53	317.51
797.862	332.19
798.193	327.22
798.525	324.51
798.856	318.86
799.188	325.64
799.519	331.97
799.85	317.96
800.182	338.3
800.513	337.39
800.844	313.66
801.175	329.03
801.506	308.24
801.837	310.27
802.168	307.79
802.499	323.83
802.83	321.8
803.161	291.74
803.491	313.21
803.822	313.44
804.153	306.88
804.483	352.99
804.814	312.53
805.145	323.61
805.475	325.87
805.805	326.55
806.136	313.89
806.466	311.18
806.796	317.96
807.126	326.32
807.457	306.88
807.787	339.88
808.117	325.64
808.447	329.26
808.777	313.44
809.107	316.6
809.436	316.83
809.766	327
810.096	312.08
810.426	335.13
810.755	319.31
811.085	318.86
811.414	316.6
811.744	343.04
812.073	327.22
812.403	317.73
812.732	341.69
813.061	332.65
813.39	323.38
813.719	324.29
814.049	322.25
814.378	321.57
814.707	325.19
815.036	323.83
815.365	339.2
815.693	322.48
816.022	306.21
816.351	321.35
816.68	328.8
817.008	318.18
817.337	309.6
817.665	319.31
817.994	297.39
818.322	321.8
818.651	321.8
818.979	316.15
819.307	318.41
819.636	331.06
819.964	316.38
820.292	306.88
820.62	330.61
820.948	319.31
821.276	326.32
821.604	316.38
821.932	345.75
822.259	344.62
822.587	316.38
822.915	320.44
823.243	323.61
823.57	315.25
823.898	324.51
824.225	320.22
824.553	326.77
824.88	315.02
825.207	326.77
825.535	316.83
825.862	321.57
826.189	322.48
826.516	317.96
826.843	306.21
827.17	331.97
827.497	339.2
827.824	308.24
828.151	316.15
828.478	316.83
828.805	327.45
829.131	318.41
829.458	317.05
829.785	312.31
830.111	332.19
830.438	321.57
830.764	321.12
831.09	315.92
831.417	319.31
831.743	303.49
832.069	310.5
832.395	328.8
832.722	317.28
833.048	306.21
833.374	328.35
833.7	320.67
834.026	314.57
834.351	310.5
834.677	321.35
835.003	325.19
835.329	324.96
835.654	321.12
835.98	317.96
836.306	319.54
836.631	352.31
836.956	310.27
837.282	310.73
837.607	307.34
837.932	312.53
838.258	323.61
838.583	322.25
838.908	301.01
839.233	312.31
839.558	319.54
839.883	317.96
840.208	303.04
840.533	323.16
840.858	311.18
841.182	314.79
841.507	315.25
841.832	333.32
842.156	310.27
842.481	318.18
842.805	317.05
843.13	305.08
843.454	329.93
843.778	341.69
844.103	332.19
844.427	317.05
844.751	308.92
845.075	318.64
845.399	326.55
845.723	303.27
846.047	308.92
846.371	310.5
846.695	322.7
847.019	312.08
847.343	336.04
847.666	320.9
847.99	327.22
848.313	333.1
848.637	312.53
848.96	324.06
849.284	327.68
849.607	308.92
849.931	324.96
850.254	294
850.577	314.12
850.9	326.55
851.223	319.09
851.546	307.56
851.869	323.83
852.192	306.88
852.515	320.9
852.838	330.61
853.161	324.74
853.483	336.04
853.806	329.03
854.129	306.43
854.451	308.47
854.774	288.35
855.096	319.77
855.419	321.12
855.741	314.79
856.063	317.28
856.385	318.18
856.708	328.13
857.03	319.54
857.352	316.6
857.674	317.05
857.996	302.59
858.318	310.27
858.64	297.62
858.961	329.48
859.283	329.93
859.605	311.63
859.926	321.35
860.248	304.85
860.57	306.66
860.891	298.07
861.212	307.11
861.534	330.84
861.855	328.13
862.176	314.34
862.498	309.14
862.819	333.78
863.14	316.6
863.461	323.38
863.782	329.71
864.103	315.92
864.424	312.08
864.745	334.23
865.065	325.64
865.386	303.72
865.707	322.7
866.027	333.32
866.348	312.08
866.668	318.64
866.989	319.09
867.309	319.31
867.63	321.35
867.95	318.86
868.27	327.22
868.59	314.79
868.91	323.38
869.23	304.62
869.55	300.11
869.87	330.61
870.19	302.82
870.51	316.6
870.83	337.62
871.15	311.63
871.469	326.32
871.789	300.11
872.109	312.53
872.428	310.73
872.748	311.18
873.067	311.4
873.386	331.52
873.706	336.26
874.025	324.29
874.344	327.22
874.663	325.87
874.982	331.97
875.301	309.37
875.62	310.73
875.939	332.19
876.258	319.99
876.577	303.49
876.896	314.12
877.214	311.86
877.533	323.83
877.852	316.15
878.17	301.69
878.489	314.79
878.807	333.1
879.125	315.92
879.444	325.19
879.762	314.79
880.08	349.14
880.398	325.42
880.716	317.51
881.034	316.6
881.352	314.79
881.67	339.88
881.988	307.34
882.306	317.96
882.624	339.2
882.941	297.17
883.259	329.26
883.577	324.06
883.894	307.79
884.212	322.7
884.529	309.14
884.846	308.92
885.164	308.47
885.481	309.6
885.798	314.34
886.115	312.53
886.432	313.66
886.75	298.52
887.067	311.63
887.383	320.67
887.7	333.1
888.017	321.8
888.334	319.77
888.651	327.9
888.967	310.73
889.284	320.9
889.6	325.64
889.917	303.04
890.233	329.48
890.55	294
890.866	317.96
891.182	303.95
891.498	326.77
891.815	308.47
892.131	316.6
892.447	343.49
892.763	332.19
893.079	312.31
893.395	331.29
893.71	310.95
894.026	329.93
894.342	318.41
894.657	321.12
894.973	317.96
895.289	310.5
895.604	317.96
895.92	327
896.235	315.25
896.55	316.83
896.865	293.78
897.181	298.3
897.496	312.76
897.811	311.86
898.126	300.33
898.441	307.56
898.756	295.59
899.071	318.18
899.386	305.98
899.7	310.73
900.015	315.25
900.33	307.34
900.644	318.64
900.959	330.39
901.273	309.82
901.588	321.12
901.902	318.41
902.216	317.51
902.531	308.69
902.845	315.02
903.159	329.71
903.473	314.34
903.787	310.27
904.101	304.85
904.415	312.31
904.729	307.79
905.042	299.88
905.356	311.63
905.67	315.47
905.984	315.7
906.297	329.26
906.611	333.32
906.924	284.51
907.237	313.21
907.551	323.83
907.864	302.59
908.177	319.77
908.491	341.01
908.804	330.16
909.117	328.13
909.43	312.99
909.743	327.9
910.056	329.93
910.368	314.79
910.681	313.89
910.994	296.04
911.307	316.15
911.619	334.68
911.932	301.91
912.244	317.05
912.557	313.66
912.869	308.24
913.181	315.02
913.494	333.78
913.806	319.09
914.118	325.19
914.43	338.52
914.742	315.02
915.054	304.4
915.366	327.22
915.678	313.66
915.99	308.01
916.302	319.99
916.613	341.23
916.925	317.28
917.236	310.95
917.548	310.95
917.859	316.83
918.171	318.18
918.482	307.79
918.794	323.61
919.105	323.16
919.416	314.79
919.727	304.17
920.038	302.59
920.349	322.48
920.66	312.31
920.971	320.67
921.282	327
921.593	299.2
921.903	316.83
922.214	322.7
922.525	320.9
922.835	324.96
923.146	313.21
923.456	330.84
923.767	313.44
924.077	301.46
924.387	318.64
924.697	332.65
925.008	315.02
925.318	341.23
925.628	318.64
925.938	328.58
926.248	303.49
926.558	321.8
926.867	318.86
927.177	315.02
927.487	308.69
927.796	321.35
928.106	312.76
928.416	325.42
928.725	308.92
929.034	306.66
929.344	335.81
929.653	314.12
929.962	324.51
930.271	328.58
930.581	308.01
930.89	306.88
931.199	324.96
931.508	327
931.817	325.42
932.125	315.02
932.434	320.44
932.743	322.25
933.051	305.3
933.36	318.18
933.669	324.74
933.977	331.97
934.286	307.34
934.594	322.03
934.902	312.76
935.21	319.99
935.519	328.8
935.827	307.56
936.135	323.61
936.443	311.63
936.751	315.25
937.059	319.99
937.367	324.29
937.674	324.96
937.982	316.38
938.29	319.09
938.597	330.84
938.905	324.51
939.213	303.95
939.52	331.29
939.827	322.48
940.135	308.24
940.442	309.82
940.749	314.12
941.056	311.86
941.363	319.99
941.67	322.03
941.977	323.61
942.284	335.36
942.591	302.59
942.898	322.7
943.205	329.03
943.511	304.17
943.818	326.77
944.125	322.25
944.431	325.64
944.738	313.66
945.044	315.25
945.35	329.93
945.657	307.34
945.963	295.81
946.269	305.08
946.575	310.27
946.881	313.44
947.187	311.63
947.493	320.67
947.799	317.28
948.105	309.82
948.41	318.86
948.716	346.21
949.022	294.68
949.327	332.19
949.633	335.36
949.938	315.92
950.244	327.9
950.549	327.22
950.854	315.47
951.16	326.09
951.465	319.99
951.77	321.12
952.075	316.6
952.38	327.68
952.685	329.48
952.99	306.88
953.294	312.08
953.599	338.97
953.904	318.86
954.209	322.7
954.513	327
954.818	298.75
955.122	319.99
955.426	318.64
955.731	324.74
956.035	338.75
956.339	312.76
956.643	324.51
956.948	312.08
957.252	319.99
957.556	319.99
957.86	323.16
958.163	311.86
958.467	301.24
958.771	298.75
959.075	318.64
959.378	309.37
959.682	314.34
959.985	300.33
960.289	322.7
960.592	323.83
960.896	314.79
961.199	306.66
961.502	303.95
961.805	308.24
962.108	305.3
962.411	310.73
962.714	302.59
963.017	310.5
963.32	315.25
963.623	310.05
963.926	310.95
964.228	331.29
964.531	312.99
964.833	305.08
965.136	312.99
965.438	307.79
965.741	315.02
966.043	319.54
966.345	308.01
966.648	322.93
966.95	296.26
967.252	311.86
967.554	315.02
967.856	310.73
968.158	301.01
968.46	314.34
968.761	305.98
969.063	327.22
969.365	298.98
969.666	318.86
969.968	300.56
970.269	312.99
970.571	310.95
970.872	309.82
971.174	291.74
971.475	299.65
971.776	307.56
972.077	337.84
972.378	312.31
972.679	308.92
972.98	325.64
973.281	322.93
973.582	323.38
973.883	339.65
974.183	300.78
974.484	298.3
974.785	323.61
975.085	327
975.386	324.74
975.686	342.59
975.986	320.9
976.287	312.53
976.587	314.57
976.887	304.62
977.187	317.51
977.487	323.38
977.787	296.49
978.087	291.52
978.387	326.77
978.687	314.57
978.987	300.56
979.286	302.36
979.586	332.65
979.885	330.16
980.185	317.28
980.484	331.74
980.784	307.79
981.083	312.99
981.382	310.73
981.682	312.31
981.981	305.75
982.28	323.16
982.579	315.25
982.878	313.66
983.177	318.18
983.475	309.14
983.774	297.39
984.073	303.04
984.372	301.91
984.67	317.51
984.969	313.44
985.267	319.09
985.566	307.79
985.864	305.53
986.162	322.25
986.461	328.8
986.759	297.85
987.057	301.91
987.355	302.14
987.653	289.48
987.951	314.34
988.249	333.1
988.547	330.39
988.844	311.18
989.142	284.06
989.44	312.53
989.737	329.48
990.035	318.86
990.332	325.42
990.63	312.53
990.927	327.68
991.224	318.41
991.521	295.13
991.819	315.92
992.116	317.05
992.413	289.94
992.71	314.57
993.006	306.21
993.303	319.54
993.6	314.12
993.897	300.56
994.193	310.27
994.49	323.38
994.787	316.15
995.083	316.15
995.379	307.34
995.676	312.53
995.972	300.78
996.268	335.13
996.565	316.38
996.861	310.73
997.157	315.25
997.453	327.45
997.749	300.33
998.044	323.38
998.34	318.18
998.636	330.84
998.932	324.29
999.227	318.64
999.523	319.54
999.818	323.38
1000.114	289.71
1000.409	312.08
1000.704	322.03
1001	318.86
1001.295	333.32
1001.59	324.06
1001.885	300.33
1002.18	322.25
1002.475	327.68
1002.77	312.53
1003.065	303.49
1003.359	332.65
1003.654	310.5
1003.949	317.05
1004.243	299.65
1004.538	316.38
1004.832	296.72
1005.127	321.12
1005.421	330.84
1005.715	304.62
1006.009	315.92
1006.304	309.14
1006.598	292.87
1006.892	327.45
1007.186	310.05
1007.48	330.16
1007.773	295.59
1008.067	286.32
1008.361	298.3
1008.655	333.32
1008.948	315.47
1009.242	305.53
1009.535	323.38
1009.829	308.69
1010.122	309.82
1010.415	310.05
1010.708	292.87
1011.001	330.39
1011.295	320.44
1011.588	305.75
1011.881	319.99
1012.173	307.56
1012.466	336.94
1012.759	309.14
1013.052	308.69
1013.344	310.73
1013.637	298.75
1013.93	317.05
1014.222	312.08
1014.514	301.24
1014.807	314.79
1015.099	318.86
1015.391	336.04
1015.683	305.08
1015.976	305.08
1016.268	309.14
1016.56	319.31
1016.851	318.86
1017.143	312.31
1017.435	327.9
1017.727	317.73
1018.018	315.7
1018.31	313.66
1018.602	317.96
1018.893	300.56
1019.185	314.12
1019.476	305.75
1019.767	313.66
1020.058	301.01
1020.35	329.26
1020.641	304.17
1020.932	322.03
1021.223	312.31
1021.514	313.21
1021.804	326.32
1022.095	304.85
1022.386	303.95
1022.677	303.95
1022.967	308.92
1023.258	336.94
1023.548	317.28
1023.839	307.79
1024.129	312.53
1024.419	297.17
1024.709	321.12
1025	322.03
1025.29	301.24
1025.58	299.65
1025.87	304.62
1026.16	308.69
1026.449	293.78
1026.739	316.83
1027.029	302.36
1027.319	304.4
1027.608	308.47
1027.898	304.17
1028.187	305.75
1028.477	309.82
1028.766	320.67
1029.055	312.08
1029.344	317.28
1029.634	337.17
1029.923	295.81
1030.212	330.61
1030.501	321.35
1030.79	299.43
1031.078	307.56
1031.367	310.95
1031.656	314.12
1031.945	311.18
1032.233	319.77
1032.522	328.35
1032.81	312.76
1033.099	301.91
1033.387	300.11
1033.675	313.89
1033.963	307.11
1034.251	320.44
1034.54	293.78
1034.828	307.79
1035.116	321.57
1035.403	306.43
1035.691	313.89
1035.979	317.96
1036.267	302.36
1036.554	294.46
1036.842	307.79
1037.129	298.75
1037.417	310.5
1037.704	324.51
1037.992	325.64
1038.279	287.9
1038.566	325.64
1038.853	325.64
1039.14	325.64
