Data from No_light_on_white_reflection_standard_FLMS001491_067.txt Node
Date: Tue Feb 07 10:33:05 GMT 2017
User: dcchb
Spectrometer: FLMS00149
Trigger mode: 0
Integration Time (sec): 2.000000E-2
Scans to average: 10
Electric dark correction enabled: true
Nonlinearity correction enabled: false
Boxcar width: 0
XAxis mode: Wavelengths
Number of Pixels in Spectrum: 2048
>>>>>Begin Spectral Data<<<<<
341.393	-15.61
341.776	-15.61
342.16	-15.61
342.543	-72.1
342.927	-56.51
343.31	-80.24
343.693	-74.14
344.077	-65.55
344.46	-47.7
344.843	-56.06
345.226	-33.23
345.61	-45.66
345.993	-17.87
346.376	-3.63
346.759	15.8
347.142	21
347.525	34.56
347.908	54.9
348.291	88.35
348.674	85.18
349.057	124.28
349.44	126.54
349.823	136.03
350.206	135.8
350.588	169.47
350.971	174.22
351.354	190.49
351.737	228
352.119	225.52
352.502	228.91
352.884	255.57
353.267	257.83
353.65	256.25
354.032	272.52
354.414	267.1
354.797	290.15
355.179	272.3
355.562	309.81
355.944	292.41
356.326	304.61
356.709	292.63
357.091	304.38
357.473	331.73
357.855	321.33
358.238	313.2
358.62	325.85
359.002	311.16
359.384	287.89
359.766	292.18
360.148	316.36
360.53	310.49
360.912	300.77
361.294	320.2
361.676	294.22
362.057	295.12
362.439	305.06
362.821	305.97
363.203	297.15
363.584	289.24
363.966	294.67
364.348	294.89
364.729	301.9
365.111	270.94
365.493	292.86
365.874	291.28
366.256	287.44
366.637	281.11
367.019	281.33
367.4	266.19
367.781	263.26
368.163	273.88
368.544	277.94
368.925	287.21
369.306	276.81
369.688	253.09
370.069	299.86
370.45	257.15
370.831	264.39
371.212	263.26
371.593	274.78
371.974	263.71
372.355	257.38
372.736	250.15
373.117	269.58
373.498	283.37
373.879	258.51
374.26	273.43
374.641	259.41
375.021	272.3
375.402	267.78
375.783	285.85
376.163	285.18
376.544	272.52
376.925	274.1
377.305	276.36
377.686	283.82
378.066	275.01
378.447	285.85
378.827	269.81
379.208	270.49
379.588	282.24
379.968	288.11
380.349	272.52
380.729	280.88
381.109	263.93
381.489	280.43
381.87	274.78
382.25	286.53
382.63	300.54
383.01	291.28
383.39	289.7
383.77	268.91
384.15	278.4
384.53	292.41
384.91	281.56
385.29	277.27
385.67	283.37
386.049	287.21
386.429	296.25
386.809	283.14
387.189	303.93
387.568	289.92
387.948	281.33
388.328	297.83
388.707	267.55
389.087	302.12
389.466	284.27
389.846	302.35
390.225	287.89
390.605	269.58
390.984	293.76
391.363	282.92
391.743	275.46
392.122	277.72
392.501	283.82
392.881	299.86
393.26	291.28
393.639	288.79
394.018	274.55
394.397	279.75
394.776	304.38
395.155	295.57
395.534	293.54
395.913	296.25
396.292	300.77
396.671	288.34
397.05	292.86
397.429	294.44
397.808	272.3
398.186	291.73
398.565	285.18
398.944	278.85
399.323	264.16
399.701	300.77
400.08	297.61
400.458	297.38
400.837	275.01
401.215	304.84
401.594	297.15
401.972	294.44
402.351	300.32
402.729	286.98
403.107	295.12
403.486	271.17
403.864	307.77
404.242	314.33
404.62	300.54
404.999	285.18
405.377	290.15
405.755	303.03
406.133	314.1
406.511	315.91
406.889	305.97
407.267	310.94
407.645	284.5
408.023	307.77
408.401	299.19
408.779	298.28
409.156	281.33
409.534	308.9
409.912	288.79
410.29	311.62
410.667	308.45
411.045	304.16
411.422	295.12
411.8	296.93
412.178	275.91
412.555	316.81
412.933	307.1
413.31	311.62
413.687	314.1
414.065	301.45
414.442	300.77
414.819	302.58
415.197	311.84
415.574	318.4
415.951	292.86
416.328	305.74
416.705	307.55
417.082	310.94
417.46	330.82
417.837	315.46
418.214	307.55
418.591	298.96
418.967	312.97
419.344	284.05
419.721	324.5
420.098	299.19
420.475	323.59
420.852	289.92
421.228	307.77
421.605	288.11
421.982	307.55
422.358	308.23
422.735	288.11
423.111	315.91
423.488	314.33
423.864	319.3
424.241	278.85
424.617	326.3
424.994	321.56
425.37	313.88
425.746	312.75
426.123	303.71
426.499	324.95
426.875	322.24
427.251	323.14
427.627	306.64
428.003	303.71
428.379	306.87
428.756	327.66
429.132	301.45
429.507	321.56
429.883	322.24
430.259	315.23
430.635	291.73
431.011	309.81
431.387	308.68
431.763	322.69
432.138	305.29
432.514	327.43
432.89	311.39
433.265	308.45
433.641	334.89
434.016	320.2
434.392	317.72
434.767	310.03
435.143	328.34
435.518	323.37
435.894	299.19
436.269	308.9
436.644	319.3
437.02	321.33
437.395	350.94
437.77	315.01
438.145	331.5
438.52	308.68
438.895	350.49
439.271	342.58
439.646	338.96
440.021	318.62
440.395	323.37
440.77	345.29
441.145	352.29
441.52	342.8
441.895	348.9
442.27	326.76
442.645	320.43
443.019	326.98
443.394	336.02
443.769	350.71
444.143	337.38
444.518	353.2
444.892	363.14
445.267	362.24
445.641	352.29
446.016	336.25
446.39	337.15
446.764	357.94
447.139	369.69
447.513	366.08
447.887	363.14
448.262	368.34
448.636	354.78
449.01	366.76
449.384	349.81
449.758	359.98
450.132	368.11
450.506	364.72
450.88	364.27
451.254	363.37
451.628	361.11
452.002	359.98
452.376	361.33
452.75	364.95
453.123	389.58
453.497	377.6
453.871	373.08
454.244	385.51
454.618	360.65
454.992	352.07
455.365	365.85
455.739	373.08
456.112	354.33
456.486	384.38
456.859	371.73
457.232	359.07
457.606	371.28
457.979	381.44
458.352	345.97
458.725	358.62
459.099	356.59
459.472	372.41
459.845	361.33
460.218	371.05
460.591	360.2
460.964	341.67
461.337	369.69
461.71	369.02
462.083	369.47
462.456	362.24
462.829	372.86
463.201	357.94
463.574	351.16
463.947	349.36
464.32	364.5
464.692	357.26
465.065	340.54
465.438	352.52
465.81	364.04
466.183	358.39
466.555	367.66
466.928	349.58
467.3	363.59
467.672	366.98
468.045	345.97
468.417	340.54
468.789	355
469.161	345.29
469.534	359.07
469.906	355.23
470.278	337.6
470.65	365.63
471.022	357.49
471.394	343.03
471.766	366.08
472.138	368.11
472.51	345.74
472.882	324.5
473.253	335.34
473.625	363.82
473.997	317.94
474.369	344.84
474.74	340.77
475.112	369.47
475.484	353.42
475.855	354.78
476.227	347.32
476.598	359.52
476.97	355.23
477.341	354.33
477.713	348.68
478.084	342.58
478.455	357.26
478.827	354.33
479.198	358.62
479.569	338.28
479.94	345.97
480.311	344.84
480.682	363.59
481.053	352.74
481.424	371.5
481.795	365.4
482.166	375.12
482.537	348.68
482.908	353.2
483.279	361.33
483.65	350.03
484.021	373.08
484.391	388
484.762	349.81
485.133	359.52
485.503	361.56
485.874	362.69
486.244	378.51
486.615	385.51
486.985	375.12
487.356	370.6
487.726	373.99
488.097	365.17
488.467	352.97
488.837	370.37
489.207	383.48
489.578	378.96
489.948	372.18
490.318	368.34
490.688	363.82
491.058	383.93
491.428	387.32
491.798	397.94
492.168	366.76
492.538	363.59
492.908	357.49
493.278	384.83
493.648	398.17
494.017	372.41
494.387	374.44
494.757	359.07
495.126	378.73
495.496	408.56
495.866	411.27
496.235	385.74
496.605	383.93
496.974	379.86
497.344	405.85
497.713	380.09
498.082	394.33
498.452	390.03
498.821	398.17
499.19	391.16
499.559	383.48
499.928	410.82
500.298	391.61
500.667	419.41
501.036	404.04
501.405	398.39
501.774	394.55
502.143	399.3
502.512	380.77
502.88	418.05
503.249	408.34
503.618	404.5
503.987	428
504.356	406.75
504.724	401.78
505.093	405.85
505.462	421.22
505.83	403.59
506.199	418.73
506.567	403.37
506.936	434.1
507.304	411.05
507.672	417.15
508.041	430.03
508.409	446.75
508.777	424.38
509.145	415.57
509.514	425.96
509.882	431.39
510.25	425.74
510.618	438.17
510.986	433.19
511.354	414.21
511.722	427.09
512.09	460.76
512.458	449.24
512.826	450.82
513.193	437.71
513.561	450.82
513.929	426.87
514.297	437.94
514.664	435.68
515.032	438.84
515.4	438.17
515.767	446.08
516.135	448.11
516.502	435
516.869	441.78
517.237	445.85
517.604	463.93
517.972	444.72
518.339	460.54
518.706	476.13
519.073	447.21
519.44	456.02
519.808	453.76
520.175	464.83
520.542	482.69
520.909	437.49
521.276	457.6
521.643	449.69
522.009	455.79
522.376	453.76
522.743	460.54
523.11	460.09
523.477	481.33
523.843	478.39
524.21	488.56
524.577	479.75
524.943	479.07
525.31	446.3
525.676	470.26
526.043	464.15
526.409	463.25
526.776	480.65
527.142	459.18
527.508	468.9
527.874	503.93
528.241	486.53
528.607	484.27
528.973	500.54
529.339	463.48
529.705	480.65
530.071	506.19
530.437	509.35
530.803	492.85
531.169	481.33
531.535	478.39
531.901	487.2
532.267	497.37
532.632	482.69
532.998	502.57
533.364	513.87
533.73	496.92
534.095	517.26
534.461	498.05
534.826	502.35
535.192	507.32
535.557	484.49
535.923	517.03
536.288	494.44
536.653	509.58
537.019	519.29
537.384	498.73
537.749	509.13
538.114	498.05
538.479	487.66
538.845	500.99
539.21	510.93
539.575	514.32
539.94	534.21
540.305	513.87
540.67	503.02
541.034	487.88
541.399	498.5
541.764	524.72
542.129	508
542.494	523.14
542.858	505.96
543.223	518.16
543.587	539.41
543.952	512.97
544.316	512.06
544.681	528.33
545.045	510.93
545.41	503.02
545.774	532.63
546.138	518.16
546.503	516.58
546.867	566.52
547.231	531.5
547.595	527.2
547.959	520.2
548.324	522.91
548.688	520.42
549.052	534.21
549.416	520.42
549.779	531.27
550.143	525.17
550.507	536.47
550.871	522.91
551.235	524.27
551.599	540.31
551.962	529.24
552.326	537.37
552.689	537.37
553.053	529.24
553.417	519.52
553.78	549.12
554.143	535.79
554.507	538.05
554.87	534.44
555.234	531.5
555.597	540.99
555.96	545.51
556.323	529.46
556.686	537.15
557.05	560.2
557.413	550.48
557.776	523.59
558.139	524.04
558.502	524.27
558.865	557.26
559.228	553.42
559.59	540.99
559.953	525.85
560.316	549.35
560.679	555.45
561.041	541.21
561.404	520.65
561.767	537.15
562.129	556.36
562.492	592.74
562.854	547.77
563.217	567.65
563.579	554.1
563.941	581.67
564.304	556.81
564.666	558.62
565.028	547.32
565.39	579.86
565.753	557.49
566.115	553.87
566.477	565.62
566.839	555.9
567.201	582.8
567.563	536.24
567.925	557.26
568.287	565.62
568.648	578.73
569.01	592.74
569.372	572.63
569.734	597.03
570.095	576.24
570.457	567.65
570.819	570.37
571.18	569.24
571.542	577.6
571.903	572.85
572.265	554.32
572.626	580.08
572.987	586.41
573.349	583.25
573.71	555.9
574.071	585.28
574.432	596.13
574.794	598.39
575.155	584.6
575.516	588.67
575.877	588.22
576.238	575.56
576.599	627.99
576.96	588.9
577.32	588.44
577.681	566.3
578.042	589.8
578.403	577.82
578.763	578.73
579.124	577.15
579.485	595.9
579.845	597.48
580.206	583.7
580.566	595.68
580.927	574.66
581.287	584.6
581.648	571.72
582.008	594.32
582.368	603.81
582.728	591.83
583.089	583.47
583.449	593.42
583.809	592.51
584.169	580.54
584.529	575.56
584.889	570.37
585.249	587.09
585.609	580.31
585.969	599.07
586.329	592.06
586.688	576.69
587.048	594.09
587.408	593.19
587.768	597.94
588.127	604.26
588.487	586.64
588.846	608.33
589.206	590.48
589.565	577.82
589.925	566.75
590.284	561.33
590.643	581.21
591.003	590.93
591.362	576.47
591.721	568.11
592.08	593.42
592.44	578.05
592.799	590.48
593.158	601.55
593.517	584.38
593.876	591.16
594.235	574.21
594.593	560.65
594.952	572.85
595.311	589.35
595.67	588.67
596.029	581.67
596.387	590.25
596.746	580.99
597.104	594.77
597.463	583.02
597.822	592.29
598.18	574.89
598.538	582.12
598.897	591.16
599.255	583.93
599.613	576.92
599.972	571.27
600.33	583.02
600.688	592.96
601.046	590.93
601.404	569.24
601.762	566.3
602.12	599.29
602.478	589.35
602.836	580.31
603.194	561.33
603.552	556.13
603.91	565.85
604.268	547.99
604.625	542.57
604.983	562.46
605.341	566.52
605.698	580.54
606.056	569.24
606.413	562
606.771	557.71
607.128	559.29
607.485	573.98
607.843	578.73
608.2	566.07
608.557	564.04
608.914	571.72
609.272	574.89
609.629	573.76
609.986	554.55
610.343	569.46
610.7	556.58
611.057	560.2
611.414	533.31
611.771	566.98
612.127	560.88
612.484	561.55
612.841	552.74
613.198	549.35
613.554	558.39
613.911	555.68
614.267	547.09
614.624	540.08
614.98	541.21
615.337	561.78
615.693	542.8
616.05	557.94
616.406	536.24
616.762	539.18
617.118	561.33
617.475	533.76
617.831	551.61
618.187	543.93
618.543	556.13
618.899	541.44
619.255	523.14
619.611	519.97
619.967	538.28
620.323	532.4
620.678	543.25
621.034	530.14
621.39	532.18
621.746	531.95
622.101	517.26
622.457	505.28
622.812	528.11
623.168	511.61
623.523	515.45
623.879	532.63
624.234	538.28
624.589	521.33
624.945	521.1
625.3	500.31
625.655	519.75
626.01	517.94
626.365	518.84
626.72	507.09
627.075	523.59
627.43	493.31
627.785	509.58
628.14	503.93
628.495	492.18
628.85	521.33
629.205	502.57
629.559	474.78
629.914	510.71
630.269	503.48
630.623	513.42
630.978	503.02
631.332	495.79
631.687	502.8
632.041	494.21
632.396	498.73
632.75	505.74
633.104	494.66
633.459	488.56
633.813	497.37
634.167	463.48
634.521	488.79
634.875	486.3
635.229	493.53
635.583	485.85
635.937	480.43
636.291	488.56
636.645	484.27
636.999	481.1
637.352	475.45
637.706	489.92
638.06	493.76
638.413	485.4
638.767	484.72
639.121	480.2
639.474	464.61
639.828	465.96
640.181	476.81
640.534	464.61
640.888	477.94
641.241	446.53
641.594	479.52
641.947	488.79
642.301	471.39
642.654	460.09
643.007	493.98
643.36	439.3
643.713	455.79
644.066	460.76
644.419	447.88
644.771	464.61
645.124	449.47
645.477	438.84
645.83	449.92
646.182	453.53
646.535	424.83
646.888	439.52
647.24	439.52
647.593	437.94
647.945	423.93
648.298	447.66
648.65	449.69
649.002	443.14
649.355	435.91
649.707	454.44
650.059	450.37
650.411	426.87
650.763	412.18
651.115	429.13
651.467	424.83
651.819	435.68
652.171	430.03
652.523	442.01
652.875	436.81
653.227	421.44
653.578	442.91
653.93	427.77
654.282	439.97
654.633	425.51
654.985	407.88
655.337	420.54
655.688	427.55
656.039	412.4
656.391	420.09
656.742	413.53
657.094	432.29
657.445	405.85
657.796	429.13
658.147	404.27
658.498	413.08
658.849	398.39
659.2	414.44
659.551	406.98
659.902	411.5
660.253	426.42
660.604	419.86
660.955	402.91
661.306	411.95
661.656	418.73
662.007	397.49
662.358	403.59
662.708	411.95
663.059	396.13
663.409	408.56
663.76	410.14
664.11	401.56
664.461	402.91
664.811	385.74
665.161	410.82
665.511	394.55
665.862	429.13
666.212	402.91
666.562	399.3
666.912	411.27
667.262	393.2
667.612	383.93
667.962	375.57
668.312	409.01
668.662	391.16
669.011	388.9
669.361	383.25
669.711	395.68
670.06	396.81
670.41	378.06
670.76	388.9
671.109	393.87
671.459	390.26
671.808	389.35
672.157	394.55
672.507	378.96
672.856	379.64
673.205	406.3
673.554	380.31
673.904	388.68
674.253	413.08
674.602	391.39
674.951	386.87
675.3	376.7
675.649	388.45
675.998	369.02
676.346	383.03
676.695	383.7
677.044	369.92
677.393	380.77
677.741	376.02
678.09	384.16
678.438	379.41
678.787	390.94
679.135	388.9
679.484	400.2
679.832	380.54
680.181	378.51
680.529	384.16
680.877	388.9
681.225	375.8
681.573	367.21
681.922	383.03
682.27	387.32
682.618	384.83
682.966	353.87
683.314	377.83
683.661	355.23
684.009	380.77
684.357	377.38
684.705	371.73
685.053	358.62
685.4	372.18
685.748	377.83
686.095	377.6
686.443	364.95
686.79	362.01
687.138	371.28
687.485	358.62
687.832	364.95
688.18	363.37
688.527	366.08
688.874	353.65
689.221	356.59
689.568	348.23
689.915	372.41
690.262	351.84
690.609	367.43
690.956	347.77
691.303	355.68
691.65	376.93
691.997	361.78
692.344	366.08
692.69	361.33
693.037	368.34
693.383	377.38
693.73	365.4
694.077	368.56
694.423	339.19
694.769	343.71
695.116	373.54
695.462	355.68
695.808	357.49
696.155	342.58
696.501	346.42
696.847	368.11
697.193	369.69
697.539	366.53
697.885	374.21
698.231	356.13
698.577	360.65
698.923	350.71
699.269	345.51
699.614	367.66
699.96	342.8
700.306	338.96
700.651	368.79
700.997	344.61
701.342	350.03
701.688	359.3
702.033	328.56
702.379	341.9
702.724	352.74
703.069	352.97
703.415	334.44
703.76	346.19
704.105	352.07
704.45	351.62
704.795	329.24
705.14	352.52
705.485	359.75
705.83	360.43
706.175	352.29
706.52	340.54
706.865	350.71
707.209	347.55
707.554	343.48
707.899	356.59
708.243	344.38
708.588	341.9
708.932	360.2
709.277	346.87
709.621	341.67
709.966	361.78
710.31	346.64
710.654	352.74
710.998	349.81
711.342	370.6
711.687	375.8
712.031	334.21
712.375	354.33
712.719	345.97
713.063	338.28
713.407	355
713.75	352.07
714.094	329.02
714.438	338.96
714.782	325.4
715.125	331.28
715.469	373.99
715.812	337.83
716.156	338.96
716.499	342.35
716.843	346.19
717.186	344.84
717.53	338.06
717.873	333.54
718.216	329.02
718.559	344.84
718.902	328.79
719.246	331.95
719.589	348
719.932	340.09
720.275	341.45
720.617	347.77
720.96	343.48
721.303	338.06
721.646	346.64
721.989	354.78
722.331	345.97
722.674	334.21
723.016	320.43
723.359	332.18
723.701	344.61
724.044	336.93
724.386	329.02
724.729	356.36
725.071	336.25
725.413	332.86
725.755	355.46
726.097	323.82
726.439	319.98
726.782	357.04
727.124	349.58
727.465	355
727.807	342.35
728.149	341.22
728.491	330.37
728.833	325.85
729.175	341.67
729.516	326.98
729.858	345.74
730.199	333.99
730.541	324.72
730.882	334.89
731.224	349.13
731.565	333.54
731.906	347.77
732.248	336.93
732.589	339.86
732.93	343.93
733.271	345.97
733.612	319.53
733.953	341.22
734.294	345.29
734.635	345.51
734.976	333.08
735.317	322.69
735.658	333.54
735.999	337.6
736.339	337.6
736.68	343.71
737.021	327.21
737.361	335.57
737.702	318.4
738.042	336.02
738.383	330.6
738.723	325.85
739.063	328.11
739.404	337.6
739.744	319.3
740.084	317.04
740.424	366.98
740.764	344.61
741.104	336.02
741.444	319.3
741.784	363.82
742.124	349.36
742.464	331.5
742.804	340.09
743.143	319.07
743.483	341.45
743.823	348.68
744.162	335.8
744.502	351.39
744.841	324.05
745.181	325.63
745.52	353.42
745.86	347.32
746.199	338.06
746.538	334.89
746.877	329.92
747.216	353.42
747.556	326.3
747.895	336.02
748.234	330.15
748.573	323.37
748.911	325.4
749.25	329.02
749.589	340.77
749.928	325.63
750.267	313.65
750.605	340.99
750.944	336.93
751.283	326.53
751.621	334.21
751.96	343.71
752.298	325.4
752.636	337.15
752.975	331.73
753.313	325.85
753.651	349.81
753.989	340.09
754.327	350.71
754.666	345.51
755.004	323.82
755.342	332.18
755.679	335.8
756.017	337.15
756.355	335.8
756.693	347.55
757.031	330.82
757.368	338.96
757.706	328.79
758.044	328.11
758.381	331.95
758.719	331.73
759.056	344.61
759.394	337.38
759.731	339.41
760.068	319.53
760.405	348
760.743	330.6
761.08	334.67
761.417	325.85
761.754	331.05
762.091	327.21
762.428	314.33
762.765	321.56
763.102	340.32
763.438	329.02
763.775	328.79
764.112	323.37
764.449	335.12
764.785	330.6
765.122	345.74
765.458	322.01
765.795	324.05
766.131	347.1
766.467	329.02
766.804	327.89
767.14	329.24
767.476	316.81
767.812	337.15
768.148	339.86
768.485	315.46
768.821	346.87
769.157	334.67
769.492	329.47
769.828	323.14
770.164	339.64
770.5	343.25
770.836	323.59
771.171	338.28
771.507	338.06
771.842	342.58
772.178	322.92
772.513	325.4
772.849	333.31
773.184	307.77
773.519	331.5
773.855	323.59
774.19	355.23
774.525	333.54
774.86	323.37
775.195	338.06
775.53	328.11
775.865	334.67
776.2	346.19
776.535	339.86
776.87	319.3
777.205	342.58
777.539	318.4
777.874	349.81
778.209	325.18
778.543	332.41
778.878	325.85
779.212	320.2
779.547	331.05
779.881	326.98
780.215	320.88
780.55	323.59
780.884	330.37
781.218	334.89
781.552	332.86
781.886	322.69
782.22	333.08
782.554	351.84
782.888	326.08
783.222	334.67
783.556	336.02
783.889	337.38
784.223	346.42
784.557	317.04
784.89	315.46
785.224	332.18
785.557	325.4
785.891	319.75
786.224	310.26
786.558	317.49
786.891	325.63
787.224	318.17
787.557	320.43
787.891	327.66
788.224	325.4
788.557	340.09
788.89	345.74
789.223	320.66
789.556	332.41
789.888	335.57
790.221	320.88
790.554	316.81
790.887	324.72
791.219	309.81
791.552	345.06
791.884	336.02
792.217	332.18
792.549	347.55
792.882	333.54
793.214	344.84
793.546	332.18
793.879	306.42
794.211	330.6
794.543	327.66
794.875	336.25
795.207	332.63
795.539	328.79
795.871	333.08
796.203	308
796.535	330.37
796.867	344.61
797.198	325.4
797.53	329.47
797.862	348
798.193	349.13
798.525	325.4
798.856	345.29
799.188	311.16
799.519	327.66
799.85	338.51
800.182	324.05
800.513	315.23
800.844	320.2
801.175	321.11
801.506	357.94
801.837	321.56
802.168	338.28
802.499	328.11
802.83	313.65
803.161	348.68
803.491	327.66
803.822	326.76
804.153	329.02
804.483	327.66
804.814	317.94
805.145	330.82
805.475	334.44
805.805	331.5
806.136	320.2
806.466	319.75
806.796	327.89
807.126	336.93
807.457	321.33
807.787	330.37
808.117	337.15
808.447	331.28
808.777	320.88
809.107	329.69
809.436	313.42
809.766	336.93
810.096	329.92
810.426	320.2
810.755	340.99
811.085	313.88
811.414	356.59
811.744	321.56
812.073	348.45
812.403	338.73
812.732	326.53
813.061	323.37
813.39	324.05
813.719	303.71
814.049	350.49
814.378	332.86
814.707	325.4
815.036	300.99
815.365	330.82
815.693	336.93
816.022	342.8
816.351	334.44
816.68	310.03
817.008	317.72
817.337	338.96
817.665	324.27
817.994	339.64
818.322	331.28
818.651	326.76
818.979	326.98
819.307	310.03
819.636	329.92
819.964	323.82
820.292	322.24
820.62	330.37
820.948	336.25
821.276	288.11
821.604	318.17
821.932	316.14
822.259	317.72
822.587	346.19
822.915	338.06
823.243	322.69
823.57	350.94
823.898	337.6
824.225	332.18
824.553	311.62
824.88	327.66
825.207	306.42
825.535	333.31
825.862	317.27
826.189	324.27
826.516	332.86
826.843	328.79
827.17	318.85
827.497	312.52
827.824	320.2
828.151	331.73
828.478	331.28
828.805	308.9
829.131	315.46
829.458	315.46
829.785	322.46
830.111	341.67
830.438	336.93
830.764	310.49
831.09	313.88
831.417	312.97
831.743	322.46
832.069	330.15
832.395	330.15
832.722	322.92
833.048	307.1
833.374	320.43
833.7	322.01
834.026	311.84
834.351	334.67
834.677	320.66
835.003	344.16
835.329	316.36
835.654	338.06
835.98	314.78
836.306	338.73
836.631	329.69
836.956	320.66
837.282	330.15
837.607	302.8
837.932	319.98
838.258	340.77
838.583	323.37
838.908	318.62
839.233	333.76
839.558	331.05
839.883	322.01
840.208	317.94
840.533	304.61
840.858	316.14
841.182	345.29
841.507	324.05
841.832	310.26
842.156	302.8
842.481	326.3
842.805	328.11
843.13	324.27
843.454	348
843.778	325.85
844.103	317.49
844.427	340.99
844.751	333.08
845.075	320.43
845.399	326.3
845.723	326.76
846.047	332.86
846.371	318.17
846.695	346.87
847.019	346.19
847.343	327.89
847.666	321.79
847.99	316.59
848.313	320.88
848.637	324.27
848.96	308.45
849.284	340.09
849.607	325.18
849.931	323.59
850.254	315.46
850.577	329.69
850.9	340.54
851.223	329.24
851.546	327.21
851.869	315.68
852.192	325.4
852.515	334.89
852.838	340.54
853.161	305.51
853.483	304.38
853.806	317.27
854.129	335.8
854.451	311.84
854.774	303.25
855.096	332.18
855.419	319.07
855.741	323.59
856.063	318.85
856.385	314.55
856.708	305.74
857.03	328.11
857.352	326.3
857.674	329.69
857.996	325.85
858.318	312.29
858.64	293.31
858.961	339.19
859.283	308.23
859.605	307.1
859.926	322.01
860.248	321.56
860.57	315.01
860.891	325.85
861.212	335.57
861.534	331.28
861.855	314.33
862.176	324.72
862.498	339.64
862.819	302.12
863.14	315.01
863.461	322.92
863.782	315.01
864.103	297.83
864.424	328.79
864.745	322.92
865.065	338.28
865.386	319.75
865.707	331.73
866.027	323.59
866.348	332.86
866.668	331.28
866.989	327.43
867.309	320.88
867.63	320.88
867.95	325.4
868.27	338.28
868.59	326.08
868.91	321.33
869.23	338.73
869.55	319.98
869.87	331.95
870.19	338.06
870.51	318.85
870.83	308.68
871.15	317.04
871.469	333.31
871.789	327.21
872.109	308.68
872.428	312.97
872.748	324.95
873.067	319.07
873.386	337.38
873.706	316.14
874.025	320.88
874.344	335.8
874.663	315.68
874.982	324.95
875.301	311.84
875.62	317.72
875.939	306.64
876.258	326.08
876.577	327.21
876.896	319.53
877.214	336.7
877.533	324.95
877.852	310.94
878.17	300.54
878.489	334.67
878.807	324.72
879.125	325.4
879.444	335.57
879.762	315.23
880.08	310.71
880.398	326.08
880.716	332.18
881.034	331.5
881.352	313.2
881.67	331.95
881.988	327.43
882.306	322.46
882.624	328.11
882.941	325.85
883.259	315.91
883.577	331.5
883.894	306.87
884.212	317.72
884.529	329.69
884.846	328.34
885.164	306.64
885.481	318.17
885.798	315.91
886.115	324.27
886.432	339.19
886.75	327.43
887.067	318.17
887.383	334.21
887.7	314.1
888.017	304.38
888.334	344.84
888.651	333.54
888.967	342.35
889.284	321.33
889.6	315.91
889.917	331.73
890.233	315.91
890.55	331.73
890.866	302.12
891.182	303.93
891.498	328.34
891.815	332.63
892.131	331.73
892.447	309.13
892.763	300.99
893.079	317.94
893.395	315.01
893.71	301.9
894.026	325.85
894.342	325.63
894.657	306.42
894.973	314.1
895.289	322.24
895.604	324.72
895.92	314.33
896.235	294.44
896.55	318.4
896.865	316.36
897.181	320.2
897.496	325.18
897.811	324.05
898.126	330.37
898.441	315.01
898.756	322.24
899.071	339.86
899.386	333.08
899.7	324.72
900.015	317.72
900.33	317.49
900.644	314.33
900.959	318.62
901.273	308.68
901.588	316.14
901.902	336.47
902.216	333.54
902.531	320.43
902.845	323.59
903.159	316.81
903.473	314.33
903.787	321.79
904.101	323.37
904.415	317.94
904.729	338.28
905.042	302.8
905.356	306.87
905.67	310.26
905.984	311.62
906.297	299.86
906.611	309.58
906.924	310.71
907.237	329.92
907.551	313.42
907.864	317.94
908.177	301.9
908.491	338.73
908.804	315.46
909.117	326.53
909.43	305.06
909.743	320.88
910.056	323.37
910.368	323.14
910.681	305.29
910.994	319.07
911.307	312.52
911.619	324.05
911.932	332.18
912.244	319.98
912.557	303.03
912.869	316.36
913.181	315.01
913.494	313.2
913.806	309.36
914.118	325.4
914.43	303.71
914.742	292.63
915.054	317.94
915.366	336.93
915.678	318.62
915.99	308.68
916.302	325.4
916.613	333.76
916.925	330.6
917.236	321.11
917.548	318.17
917.859	331.28
918.171	315.46
918.482	310.94
918.794	301.67
919.105	324.95
919.416	299.19
919.727	305.29
920.038	313.88
920.349	325.85
920.66	308.68
920.971	323.82
921.282	319.75
921.593	315.68
921.903	300.99
922.214	309.58
922.525	333.99
922.835	308.23
923.146	311.39
923.456	322.24
923.767	316.81
924.077	313.65
924.387	312.75
924.697	316.36
925.008	322.24
925.318	311.62
925.628	313.2
925.938	331.95
926.248	311.16
926.558	316.59
926.867	324.05
927.177	331.05
927.487	313.2
927.796	312.52
928.106	319.98
928.416	321.79
928.725	325.4
929.034	311.84
929.344	330.82
929.653	341.45
929.962	298.96
930.271	313.42
930.581	328.79
930.89	352.29
931.199	343.25
931.508	303.03
931.817	325.63
932.125	310.94
932.434	324.27
932.743	308.68
933.051	315.23
933.36	311.84
933.669	315.01
933.977	324.72
934.286	330.82
934.594	345.29
934.902	321.79
935.21	305.29
935.519	335.34
935.827	318.4
936.135	315.23
936.443	315.91
936.751	323.59
937.059	319.53
937.367	310.71
937.674	313.88
937.982	326.08
938.29	312.97
938.597	324.27
938.905	324.95
939.213	322.92
939.52	318.17
939.827	308.23
940.135	313.2
940.442	335.12
940.749	305.74
941.056	320.66
941.363	303.93
941.67	298.74
941.977	288.79
942.284	312.52
942.591	310.03
942.898	318.85
943.205	305.74
943.511	307.77
943.818	303.71
944.125	325.85
944.431	313.65
944.738	300.54
945.044	308
945.35	324.27
945.657	325.85
945.963	340.09
946.269	334.89
946.575	311.62
946.881	308.68
947.187	307.32
947.493	302.35
947.799	330.37
948.105	325.18
948.41	321.33
948.716	296.93
949.022	311.62
949.327	317.49
949.633	327.66
949.938	311.16
950.244	300.32
950.549	325.4
950.854	323.59
951.16	326.08
951.465	329.69
951.77	310.03
952.075	315.46
952.38	317.94
952.685	321.11
952.99	316.81
953.294	312.75
953.599	331.28
953.904	307.55
954.209	324.95
954.513	319.75
954.818	322.69
955.122	318.4
955.426	332.86
955.731	332.41
956.035	321.33
956.339	298.51
956.643	322.46
956.948	330.6
957.252	327.89
957.556	322.24
957.86	332.86
958.163	305.97
958.467	331.95
958.771	310.49
959.075	316.14
959.378	313.65
959.682	317.04
959.985	319.07
960.289	334.89
960.592	287.89
960.896	324.27
961.199	312.75
961.502	294.22
961.805	317.27
962.108	328.79
962.411	306.42
962.714	329.02
963.017	314.78
963.32	316.14
963.623	327.21
963.926	312.97
964.228	316.36
964.531	328.79
964.833	346.19
965.136	308.23
965.438	315.01
965.741	305.97
966.043	326.76
966.345	317.72
966.648	316.81
966.95	338.28
967.252	317.27
967.554	319.07
967.856	322.92
968.158	297.15
968.46	320.43
968.761	318.62
969.063	341.45
969.365	306.64
969.666	318.85
969.968	325.85
970.269	313.42
970.571	322.01
970.872	325.85
971.174	325.85
971.475	335.8
971.776	330.6
972.077	332.63
972.378	317.94
972.679	325.63
972.98	321.11
973.281	321.56
973.582	330.37
973.883	306.64
974.183	312.97
974.484	321.11
974.785	327.66
975.085	311.16
975.386	304.61
975.686	311.62
975.986	326.76
976.287	326.76
976.587	315.46
976.887	319.75
977.187	322.92
977.487	313.88
977.787	315.46
978.087	323.59
978.387	321.79
978.687	323.37
978.987	336.7
979.286	321.56
979.586	313.65
979.885	312.52
980.185	299.64
980.484	311.62
980.784	308
981.083	305.51
981.382	298.74
981.682	297.61
981.981	305.51
982.28	319.07
982.579	316.36
982.878	313.42
983.177	313.2
983.475	315.01
983.774	325.85
984.073	317.27
984.372	321.33
984.67	288.79
984.969	328.56
985.267	309.13
985.566	319.3
985.864	324.05
986.162	324.95
986.461	330.82
986.759	325.85
987.057	314.1
987.355	309.81
987.653	327.43
987.951	310.03
988.249	310.71
988.547	334.21
988.844	308.9
989.142	311.84
989.44	316.81
989.737	332.86
990.035	321.56
990.332	327.66
990.63	331.95
990.927	320.2
991.224	331.5
991.521	332.41
991.819	317.49
992.116	300.09
992.413	330.15
992.71	332.86
993.006	301.9
993.303	295.35
993.6	314.33
993.897	313.65
994.193	307.77
994.49	308
994.787	316.14
995.083	313.88
995.379	325.85
995.676	289.7
995.972	303.71
996.268	299.86
996.565	325.4
996.861	331.05
997.157	322.92
997.453	320.2
997.749	324.95
998.044	332.41
998.34	301.22
998.636	309.58
998.932	323.82
999.227	309.81
999.523	323.82
999.818	304.84
1000.114	335.57
1000.409	314.78
1000.704	334.89
1001	320.66
1001.295	325.4
1001.59	320.43
1001.885	323.14
1002.18	296.48
1002.475	313.65
1002.77	318.17
1003.065	312.07
1003.359	316.81
1003.654	312.97
1003.949	308.68
1004.243	318.17
1004.538	325.63
1004.832	321.11
1005.127	307.1
1005.421	310.71
1005.715	317.94
1006.009	332.63
1006.304	316.59
1006.598	321.11
1006.892	311.16
1007.186	317.72
1007.48	305.74
1007.773	308.68
1008.067	322.46
1008.361	314.1
1008.655	321.11
1008.948	308.9
1009.242	310.26
1009.535	310.49
1009.829	304.84
1010.122	327.21
1010.415	316.81
1010.708	327.43
1011.001	315.23
1011.295	319.07
1011.588	330.37
1011.881	331.95
1012.173	327.89
1012.466	316.81
1012.759	302.58
1013.052	312.52
1013.344	310.03
1013.637	310.49
1013.93	304.38
1014.222	324.5
1014.514	298.74
1014.807	305.06
1015.099	312.75
1015.391	315.68
1015.683	311.39
1015.976	314.1
1016.268	318.4
1016.56	324.95
1016.851	304.38
1017.143	349.13
1017.435	319.07
1017.727	307.1
1018.018	310.03
1018.31	311.62
1018.602	299.64
1018.893	307.1
1019.185	299.41
1019.476	312.52
1019.767	298.51
1020.058	310.49
1020.35	307.1
1020.641	312.07
1020.932	312.52
1021.223	305.51
1021.514	316.59
1021.804	315.46
1022.095	318.4
1022.386	303.93
1022.677	305.74
1022.967	321.11
1023.258	333.54
1023.548	322.01
1023.839	307.1
1024.129	311.16
1024.419	320.88
1024.709	342.58
1025	327.21
1025.29	318.17
1025.58	323.37
1025.87	305.97
1026.16	298.51
1026.449	329.92
1026.739	337.83
1027.029	306.19
1027.319	321.79
1027.608	305.97
1027.898	322.01
1028.187	306.87
1028.477	304.61
1028.766	326.08
1029.055	317.27
1029.344	294.44
1029.634	297.38
1029.923	306.19
1030.212	308
1030.501	313.65
1030.79	296.93
1031.078	315.91
1031.367	328.56
1031.656	339.19
1031.945	338.96
1032.233	316.59
1032.522	322.69
1032.81	297.83
1033.099	315.91
1033.387	326.08
1033.675	326.98
1033.963	318.62
1034.251	320.66
1034.54	307.1
1034.828	315.68
1035.116	311.62
1035.403	307.1
1035.691	309.58
1035.979	310.03
1036.267	322.24
1036.554	320.66
1036.842	319.75
1037.129	319.07
1037.417	310.94
1037.704	333.31
1037.992	305.51
1038.279	310.71
1038.566	334.89
1038.853	334.89
1039.14	334.89
