Data from No_light_on_white_reflection_standard_FLMS001491_043.txt Node
Date: Tue Feb 07 10:33:00 GMT 2017
User: dcchb
Spectrometer: FLMS00149
Trigger mode: 0
Integration Time (sec): 2.000000E-2
Scans to average: 10
Electric dark correction enabled: true
Nonlinearity correction enabled: false
Boxcar width: 0
XAxis mode: Wavelengths
Number of Pixels in Spectrum: 2048
>>>>>Begin Spectral Data<<<<<
341.393	-6.41
341.776	-6.41
342.16	-6.41
342.543	-59.74
342.927	-62.46
343.31	-80.76
343.693	-62.23
344.077	-68.11
344.46	-73.08
344.843	-39.86
345.226	-33.3
345.61	-47.99
345.993	-38.05
346.376	-2.34
346.759	11.21
347.142	18.22
347.525	45.79
347.908	85.34
348.291	80.37
348.674	97.99
349.057	106.81
349.44	114.04
349.823	145.22
350.206	159.23
350.588	176.18
350.971	187.25
351.354	212.57
351.737	236.07
352.119	201.94
352.502	245.78
352.884	223.86
353.267	252.11
353.65	269.51
354.032	265.22
354.414	290.3
354.797	270.19
355.179	291.21
355.562	303.18
355.944	310.87
356.326	312.45
356.709	308.61
357.091	282.85
357.473	304.99
357.855	316.74
358.238	310.42
358.62	297.99
359.002	299.57
359.384	297.99
359.766	313.35
360.148	310.42
360.53	313.58
360.912	312.22
361.294	308.83
361.676	308.83
362.057	297.76
362.439	291.88
362.821	288.27
363.203	297.31
363.584	278.33
363.966	299.12
364.348	302.51
364.729	307.48
365.111	294.37
365.493	286.24
365.874	288.27
366.256	289.85
366.637	295.73
367.019	301.38
367.4	277.65
367.781	274.26
368.163	278.1
368.544	274.03
368.925	286.01
369.306	279.23
369.688	283.3
370.069	278.78
370.45	281.26
370.831	273.35
371.212	290.53
371.593	274.48
371.974	255.5
372.355	269.06
372.736	271.09
373.117	264.77
373.498	290.98
373.879	294.37
374.26	272.9
374.641	278.1
375.021	272.68
375.402	274.94
375.783	295.73
376.163	275.16
376.544	276.52
376.925	265.9
377.305	273.58
377.686	291.88
378.066	279.68
378.447	265.44
378.827	271.55
379.208	283.07
379.588	294.82
379.968	297.99
380.349	283.3
380.729	270.64
381.109	290.53
381.489	256.18
381.87	294.14
382.25	288.27
382.63	295.27
383.01	281.49
383.39	292.11
383.77	310.87
384.15	264.54
384.53	284.2
384.91	291.43
385.29	288.04
385.67	284.65
386.049	273.13
386.429	276.97
386.809	311.55
387.189	315.16
387.568	294.14
387.948	304.77
388.328	287.37
388.707	302.73
389.087	300.92
389.466	309.96
389.846	279
390.225	265.9
390.605	289.4
390.984	278.78
391.363	298.89
391.743	301.83
392.122	280.13
392.501	307.25
392.881	289.63
393.26	290.76
393.639	278.55
394.018	301.6
394.397	281.04
394.776	286.91
395.155	302.73
395.534	279
395.913	279.91
396.292	303.41
396.671	297.76
397.05	296.18
397.429	311.32
397.808	298.89
398.186	300.92
398.565	295.95
398.944	295.5
399.323	298.66
399.701	297.99
400.08	304.54
400.458	306.12
400.837	312.68
401.215	302.05
401.594	309.96
401.972	286.01
402.351	288.27
402.729	304.54
403.107	303.64
403.486	314.48
403.864	296.4
404.242	302.73
404.62	298.21
404.999	294.14
405.377	310.19
405.755	290.08
406.133	289.17
406.511	306.35
406.889	284.88
407.267	302.73
407.645	302.51
408.023	307.7
408.401	277.65
408.779	295.95
409.156	287.82
409.534	291.43
409.912	297.31
410.29	281.26
410.667	290.53
411.045	308.38
411.422	310.19
411.8	292.56
412.178	309.29
412.555	296.18
412.933	308.83
413.31	295.27
413.687	304.09
414.065	306.57
414.442	305.22
414.819	315.39
415.197	308.61
415.574	309.29
415.951	295.5
416.328	313.58
416.705	305.9
417.082	301.83
417.46	302.96
417.837	323.52
418.214	296.18
418.591	298.66
418.967	308.38
419.344	292.34
419.721	296.18
420.098	298.21
420.475	299.79
420.852	312.45
421.228	323.3
421.605	326.46
421.982	305.9
422.358	296.18
422.735	324.2
423.111	301.15
423.488	324.43
423.864	308.83
424.241	295.73
424.617	307.03
424.994	305.9
425.37	314.26
425.746	314.48
426.123	309.74
426.499	306.35
426.875	309.06
427.251	328.95
427.627	321.26
428.003	318.55
428.379	306.35
428.756	326.23
429.132	319.23
429.507	314.94
429.883	319.23
430.259	306.35
430.635	310.64
431.011	312.45
431.387	308.61
431.763	328.04
432.138	303.86
432.514	315.16
432.89	305.9
433.265	314.48
433.641	298.89
434.016	319
434.392	311.77
434.767	312.68
435.143	306.57
435.518	327.59
435.894	314.26
436.269	312.9
436.644	317.42
437.02	329.17
437.395	335.73
437.77	323.75
438.145	334.82
438.52	325.78
438.895	331.21
439.271	317.87
439.646	328.72
440.021	331.66
440.395	305.22
440.77	349.74
441.145	322.39
441.52	345.22
441.895	324.65
442.27	340.02
442.645	350.87
443.019	336.18
443.394	331.21
443.769	347.7
444.143	328.95
444.518	342.28
444.892	342.05
445.267	359
445.641	349.74
446.016	361.71
446.39	352
446.764	369.85
447.139	363.3
447.513	350.64
447.887	364.2
448.262	354.03
448.636	369.85
449.01	347.02
449.384	353.8
449.758	380.02
450.132	352.9
450.506	388.38
450.88	370.08
451.254	381.37
451.628	370.98
452.002	381.15
452.376	382.05
452.75	365.1
453.123	368.27
453.497	359.68
453.871	367.82
454.244	374.14
454.618	361.04
454.992	357.87
455.365	363.75
455.739	367.59
456.112	368.72
456.486	376.85
456.859	378.21
457.232	370.75
457.606	366.46
457.979	355.16
458.352	367.59
458.725	356.06
459.099	369.4
459.472	350.87
459.845	345.22
460.218	361.94
460.591	371.43
460.964	353.13
461.337	360.13
461.71	364.65
462.083	366.69
462.456	349.06
462.829	371.2
463.201	358.1
463.574	352.22
463.947	359.23
464.32	335.5
464.692	364.88
465.065	359.23
465.438	354.26
465.81	356.29
466.183	358.1
466.555	358.55
466.928	350.87
467.3	334.82
467.672	363.52
468.045	371.66
468.417	358.78
468.789	362.84
469.161	349.74
469.534	354.93
469.906	339.57
470.278	366.69
470.65	356.97
471.022	333.47
471.394	355.84
471.766	356.29
472.138	347.48
472.51	362.62
472.882	380.24
473.253	355.84
473.625	366.46
473.997	350.87
474.369	333.47
474.74	339.34
475.112	365.33
475.484	342.05
475.855	344.09
476.227	342.28
476.598	349.96
476.97	345.22
477.341	355.61
477.713	367.82
478.084	350.19
478.455	347.48
478.827	352
479.198	366.46
479.569	347.25
479.94	353.35
480.311	366.23
480.682	368.49
481.053	359.45
481.424	374.14
481.795	369.17
482.166	354.48
482.537	352
482.908	359.91
483.279	362.62
483.65	363.52
484.021	338.44
484.391	368.49
484.762	369.62
485.133	343.41
485.503	359.68
485.874	342.96
486.244	354.48
486.615	356.29
486.985	359
487.356	349.06
487.726	369.17
488.097	370.75
488.467	367.36
488.837	372.56
489.207	375.05
489.578	375.5
489.948	363.75
490.318	372.56
490.688	373.46
491.058	381.83
491.428	354.03
491.798	394.48
492.168	375.05
492.538	387.48
492.908	370.98
493.278	393.8
493.648	394.03
494.017	387.02
494.387	367.82
494.757	380.92
495.126	370.53
495.496	374.82
495.866	403.52
496.235	354.48
496.605	363.75
496.974	402.62
497.344	376.85
497.713	370.3
498.082	373.24
498.452	378.21
498.821	396.74
499.19	388.83
499.559	368.95
499.928	392.67
500.298	397.42
500.667	383.41
501.036	406.46
501.405	393.58
501.774	380.92
502.143	416.18
502.512	396.74
502.88	408.72
503.249	406.23
503.618	404.42
503.987	413.24
504.356	406.68
504.724	400.36
505.093	393.8
505.462	413.92
505.83	434.71
506.199	408.27
506.567	435.84
506.936	426.57
507.304	416.18
507.672	428.38
508.041	440.36
508.409	430.41
508.777	426.34
509.145	424.76
509.514	413.46
509.882	430.64
510.25	430.19
510.618	433.58
510.986	423.41
511.354	414.59
511.722	421.37
512.09	428.15
512.458	440.81
512.826	428.15
513.193	454.37
513.561	437.64
513.929	452.56
514.297	439.9
514.664	441.49
515.032	423.18
515.4	450.52
515.767	437.87
516.135	457.3
516.502	437.42
516.869	447.36
517.237	466.34
517.604	450.98
517.972	453.69
518.339	466.12
518.706	457.76
519.073	457.98
519.44	468.15
519.808	441.71
520.175	452.78
520.542	459.34
520.909	462.95
521.276	458.89
521.643	458.89
522.009	468.83
522.376	467.93
522.743	455.5
523.11	450.75
523.477	464.08
523.843	475.16
524.21	479.45
524.577	463.86
524.943	477.87
525.31	490.07
525.676	476.96
526.043	475.16
526.409	472.22
526.776	464.31
527.142	488.04
527.508	478.55
527.874	471.32
528.241	502.05
528.607	494.82
528.973	498.66
529.339	497.08
529.705	473.8
530.071	488.26
530.437	489.17
530.803	476.29
531.169	473.8
531.535	488.49
531.901	496.63
532.267	496.63
532.632	488.49
532.998	480.13
533.364	510.64
533.73	495.95
534.095	495.5
534.461	505.66
534.826	498.21
535.192	502.05
535.557	490.07
535.923	521.48
536.288	491.88
536.653	510.86
537.019	493.91
537.384	503.18
537.749	495.72
538.114	484.65
538.479	505.66
538.845	509.28
539.21	491.88
539.575	479.9
539.94	503.63
540.305	501.6
540.67	520.35
541.034	508.38
541.399	481.94
541.764	517.87
542.129	521.26
542.494	507.25
542.858	500.02
543.223	498.89
543.587	515.61
543.952	501.15
544.316	533.23
544.681	511.77
545.045	507.25
545.41	519
545.774	522.39
546.138	498.43
546.503	519.22
546.867	511.77
547.231	541.14
547.595	522.61
547.959	535.49
548.324	521.94
548.688	513.35
549.052	543.18
549.416	518.32
549.779	548.15
550.143	537.75
550.507	523.07
550.871	528.71
551.235	537.3
551.599	539.11
551.962	518.32
552.326	533.46
552.689	521.94
553.053	539.56
553.417	546.34
553.78	541.82
554.143	547.25
554.507	540.01
554.87	522.84
555.234	533.69
555.597	546.79
555.96	557.64
556.323	541.82
556.686	546.34
557.05	542.5
557.413	536.62
557.776	546.12
558.139	523.97
558.502	516.06
558.865	538.88
559.228	550.18
559.59	565.32
559.953	551.99
560.316	545.44
560.679	543.86
561.041	535.27
561.404	545.89
561.767	542.95
562.129	562.84
562.492	572.33
562.854	547.02
563.217	554.25
563.579	561.93
563.941	568.71
564.304	559.22
564.666	580.92
565.028	566.68
565.39	557.64
565.753	547.7
566.115	565.1
566.477	574.36
566.839	562.39
567.201	569.17
567.563	577.75
567.925	547.47
568.287	567.58
568.648	582.05
569.01	565.55
569.372	582.27
569.734	559.22
570.095	580.46
570.457	535.95
570.819	566
571.18	562.84
571.542	563.29
571.903	568.71
572.265	561.93
572.626	583.63
572.987	561.26
573.349	578.43
573.71	572.1
574.071	577.08
574.432	563.29
574.794	607.81
575.155	572.33
575.516	563.06
575.877	581.37
576.238	554.93
576.599	592.89
576.96	599.9
577.32	560.8
577.681	571.65
578.042	566.91
578.403	577.53
578.763	564.65
579.124	573.23
579.485	594.25
579.845	589.05
580.206	572.33
580.566	590.86
580.927	596.96
581.287	582.05
581.648	573.01
582.008	579.56
582.368	577.98
582.728	586.79
583.089	587.02
583.449	584.31
583.809	592.89
584.169	590.63
584.529	581.37
584.889	590.41
585.249	567.81
585.609	584.98
585.969	571.43
586.329	581.37
586.688	578.43
587.048	598.54
587.408	586.79
587.768	578.21
588.127	583.63
588.487	587.47
588.846	576.17
589.206	564.42
589.565	555.38
589.925	573.46
590.284	590.86
590.643	565.78
591.003	572.1
591.362	570.97
591.721	593.8
592.08	582.72
592.44	567.13
592.799	594.7
593.158	579.34
593.517	559.67
593.876	576.4
594.235	575.04
594.593	561.26
594.952	585.89
595.311	553.8
595.67	562.16
596.029	562.39
596.387	587.92
596.746	575.72
597.104	584.76
597.463	553.8
597.822	556.96
598.18	546.79
598.538	559.22
598.897	570.97
599.255	549.73
599.613	560.13
599.972	580.24
600.33	563.97
600.688	575.49
601.046	574.82
601.404	563.06
601.762	571.2
602.12	556.28
602.478	563.06
602.836	565.55
603.194	543.4
603.552	565.55
603.91	546.57
604.268	561.26
604.625	576.85
604.983	543.18
605.341	570.3
605.698	567.13
606.056	552.44
606.413	576.85
606.771	548.83
607.128	567.58
607.485	541.6
607.843	557.64
608.2	550.41
608.557	560.58
608.914	532.56
609.272	542.05
609.629	547.7
609.986	567.81
610.343	555.61
610.7	543.63
611.057	536.4
611.414	554.48
611.771	564.19
612.127	536.85
612.484	539.34
612.841	543.18
613.198	541.6
613.554	515.16
613.911	553.12
614.267	545.89
614.624	535.49
614.98	539.56
615.337	540.24
615.693	548.6
616.05	535.27
616.406	535.27
616.762	559.9
617.118	512.9
617.475	538.21
617.831	533.46
618.187	531.65
618.543	551.99
618.899	557.19
619.255	542.73
619.611	556.74
619.967	528.04
620.323	537.75
620.678	526
621.034	533.69
621.39	535.95
621.746	519
622.101	516.96
622.457	522.16
622.812	523.52
623.168	511.54
623.523	499.56
623.879	530.07
624.234	520.35
624.589	496.4
624.945	504.76
625.3	498.89
625.655	500.69
626.01	493.46
626.365	484.42
626.72	510.64
627.075	532.78
627.43	503.4
627.785	513.8
628.14	509.51
628.495	500.02
628.85	496.17
629.205	525.78
629.559	501.6
629.914	498.21
630.269	488.94
630.623	514.93
630.978	514.03
631.332	502.73
631.687	484.87
632.041	481.71
632.396	485.1
632.75	504.99
633.104	493.46
633.459	473.58
633.813	475.16
634.167	468.83
634.521	507.7
634.875	490.98
635.229	501.82
635.583	470.64
635.937	477.19
636.291	467.7
636.645	473.8
636.999	462.95
637.352	481.26
637.706	479.45
638.06	469.96
638.413	455.5
638.767	481.03
639.121	482.16
639.474	454.59
639.828	473.12
640.181	479.22
640.534	473.12
640.888	454.37
641.241	452.33
641.594	468.38
641.947	470.41
642.301	450.07
642.654	453.46
643.007	451.2
643.36	465.67
643.713	420.7
644.066	453.24
644.419	450.75
644.771	444.65
645.124	457.08
645.477	445.1
645.83	439.23
646.182	447.14
646.535	460.92
646.888	430.86
647.24	432.67
647.593	443.75
647.945	447.81
648.298	439.45
648.65	428.83
649.002	431.09
649.355	439.68
649.707	443.29
650.059	433.12
650.411	427.25
650.763	416.63
651.115	425.67
651.467	421.6
651.819	435.16
652.171	442.16
652.523	404.65
652.875	417.98
653.227	443.75
653.578	423.63
653.93	419.57
654.282	436.74
654.633	421.6
654.985	425.44
655.337	430.86
655.688	411.2
656.039	440.81
656.391	402.39
656.742	415.05
657.094	412.56
657.445	423.63
657.796	455.5
658.147	427.02
658.498	393.8
658.849	405.78
659.2	422.95
659.551	412.33
659.902	388.61
660.253	408.94
660.604	420.92
660.955	420.24
661.306	398.77
661.656	412.11
662.007	424.31
662.358	399
662.708	394.71
663.059	408.72
663.409	407.36
663.76	398.32
664.11	412.33
664.461	408.94
664.811	401.26
665.161	392.45
665.511	393.13
665.862	397.42
666.212	396.06
666.562	384.31
666.912	396.06
667.262	399.68
667.612	399.68
667.962	384.76
668.312	392
668.662	388.83
669.011	386.8
669.361	419.34
669.711	388.38
670.06	397.19
670.41	387.7
670.76	400.81
671.109	391.77
671.459	379.34
671.808	392.45
672.157	378.21
672.507	394.93
672.856	374.82
673.205	379.79
673.554	389.51
673.904	394.71
674.253	394.48
674.602	392
674.951	382.96
675.3	381.6
675.649	384.31
675.998	395.61
676.346	378.89
676.695	375.05
677.044	384.54
677.393	397.87
677.741	388.83
678.09	358.1
678.438	364.2
678.787	361.71
679.135	376.85
679.484	384.54
679.832	377.53
680.181	384.54
680.529	382.05
680.877	370.08
681.225	365.78
681.573	380.24
681.922	383.63
682.27	373.24
682.618	374.82
682.966	363.3
683.314	363.52
683.661	387.48
684.009	375.27
684.357	394.48
684.705	384.09
685.053	374.37
685.4	381.83
685.748	361.94
686.095	365.1
686.443	368.49
686.79	358.32
687.138	355.84
687.485	346.35
687.832	367.59
688.18	363.3
688.527	362.84
688.874	345.22
689.221	359.45
689.568	357.19
689.915	351.09
690.262	347.7
690.609	349.06
690.956	359.68
691.303	370.3
691.65	361.94
691.997	369.62
692.344	352
692.69	360.81
693.037	368.04
693.383	360.36
693.73	365.1
694.077	376.4
694.423	366.23
694.769	355.16
695.116	351.32
695.462	377.76
695.808	343.86
696.155	344.76
696.501	359.23
696.847	366.91
697.193	361.04
697.539	356.74
697.885	344.99
698.231	372.11
698.577	356.74
698.923	358.1
699.269	356.97
699.614	368.49
699.96	352
700.306	358.78
700.651	348.83
700.997	346.12
701.342	351.54
701.688	339.79
702.033	363.97
702.379	349.96
702.724	359.68
703.069	341.6
703.415	354.93
703.76	344.76
704.105	342.28
704.45	351.77
704.795	356.29
705.14	344.31
705.485	340.25
705.83	353.35
706.175	353.58
706.52	361.71
706.865	373.24
707.209	357.65
707.554	356.06
707.899	354.48
708.243	350.19
708.588	346.35
708.932	359.91
709.277	341.83
709.621	354.26
709.966	344.76
710.31	358.1
710.654	340.7
710.998	347.25
711.342	338.21
711.687	353.35
712.031	340.47
712.375	348.38
712.719	334.82
713.063	355.16
713.407	344.31
713.75	359.68
714.094	369.17
714.438	349.06
714.782	341.38
715.125	331.21
715.469	340.25
715.812	354.26
716.156	361.49
716.499	343.18
716.843	334.37
717.186	332.11
717.53	321.71
717.873	332.79
718.216	332.34
718.559	327.14
718.902	323.75
719.246	342.28
719.589	323.3
719.932	330.75
720.275	342.73
720.617	321.26
720.96	348.15
721.303	331.88
721.646	334.14
721.989	333.01
722.331	339.79
722.674	349.51
723.016	328.49
723.359	318.55
723.701	349.06
724.044	353.35
724.386	337.31
724.729	341.38
725.071	342.51
725.413	355.16
725.755	332.11
726.097	342.28
726.439	334.14
726.782	308.38
727.124	332.56
727.465	329.4
727.807	337.31
728.149	315.84
728.491	344.31
728.833	336.4
729.175	323.52
729.516	333.01
729.858	330.3
730.199	339.57
730.541	347.25
730.882	330.53
731.224	340.92
731.565	343.18
731.906	334.82
732.248	340.47
732.589	325.1
732.93	324.43
733.271	317.2
733.612	327.59
733.953	348.83
734.294	364.2
734.635	314.48
734.976	333.01
735.317	345.89
735.658	344.99
735.999	335.95
736.339	359.45
736.68	336.86
737.021	349.51
737.361	325.33
737.702	334.82
738.042	329.85
738.383	343.41
738.723	336.4
739.063	333.69
739.404	333.47
739.744	351.32
740.084	349.96
740.424	346.8
740.764	318.1
741.104	336.63
741.444	330.53
741.784	343.64
742.124	346.35
742.464	343.18
742.804	346.57
743.143	345.22
743.483	340.7
743.823	316.07
744.162	352.22
744.502	338.66
744.841	343.86
745.181	330.3
745.52	340.7
745.86	332.79
746.199	349.74
746.538	336.18
746.877	326.01
747.216	332.34
747.556	335.5
747.895	343.86
748.234	342.51
748.573	329.85
748.911	332.34
749.25	336.18
749.589	350.19
749.928	324.2
750.267	328.49
750.605	355.16
750.944	325.33
751.283	337.53
751.621	326.23
751.96	336.18
752.298	344.31
752.636	342.51
752.975	350.64
753.313	332.11
753.651	326.91
753.989	312.45
754.327	340.47
754.666	339.79
755.004	334.37
755.342	341.15
755.679	331.66
756.017	322.62
756.355	332.56
756.693	321.94
757.031	330.53
757.368	326.01
757.706	319.68
758.044	332.34
758.381	326.23
758.719	343.18
759.056	326.01
759.394	340.47
759.731	340.47
760.068	329.17
760.405	313.81
760.743	321.04
761.08	319
761.417	342.51
761.754	346.12
762.091	346.12
762.428	328.04
762.765	333.92
763.102	314.71
763.438	318.78
763.775	339.12
764.112	322.62
764.449	318.1
764.785	333.47
765.122	334.14
765.458	330.53
765.795	319
766.131	312
766.467	317.87
766.804	322.62
767.14	340.47
767.476	335.95
767.812	329.62
768.148	334.14
768.485	323.97
768.821	334.82
769.157	322.62
769.492	340.02
769.828	344.54
770.164	328.72
770.5	334.82
770.836	337.08
771.171	305.9
771.507	314.94
771.842	326.23
772.178	330.3
772.513	333.47
772.849	351.54
773.184	347.25
773.519	333.24
773.855	335.95
774.19	318.78
774.525	323.75
774.86	320.13
775.195	322.62
775.53	320.58
775.865	332.56
776.2	314.94
776.535	335.73
776.87	311.32
777.205	315.39
777.539	340.25
777.874	336.18
778.209	322.17
778.543	337.99
778.878	333.24
779.212	321.94
779.547	326.91
779.881	334.14
780.215	321.49
780.55	321.26
780.884	328.95
781.218	335.73
781.552	326.46
781.886	316.52
782.22	319.23
782.554	328.04
782.888	325.56
783.222	321.26
783.556	316.52
783.889	319.91
784.223	344.09
784.557	321.04
784.89	324.65
785.224	324.65
785.557	323.75
785.891	331.88
786.224	323.97
786.558	307.7
786.891	312.68
787.224	329.17
787.557	317.87
787.891	332.56
788.224	323.07
788.557	332.11
788.89	342.51
789.223	319
789.556	310.42
789.888	329.4
790.221	318.78
790.554	334.37
790.887	327.59
791.219	325.78
791.552	333.01
791.884	343.18
792.217	351.09
792.549	317.87
792.882	333.24
793.214	316.07
793.546	333.47
793.879	329.85
794.211	340.25
794.543	342.05
794.875	331.66
795.207	335.05
795.539	335.73
795.871	328.04
796.203	316.97
796.535	309.29
796.867	335.95
797.198	348.61
797.53	337.99
797.862	326.46
798.193	332.34
798.525	333.01
798.856	316.52
799.188	309.96
799.519	322.84
799.85	314.03
800.182	330.08
800.513	322.17
800.844	330.3
801.175	335.27
801.506	324.88
801.837	321.94
802.168	311.55
802.499	330.3
802.83	306.57
803.161	352.67
803.491	326.91
803.822	337.99
804.153	317.65
804.483	329.62
804.814	312.68
805.145	313.81
805.475	327.36
805.805	322.84
806.136	331.43
806.466	333.47
806.796	315.84
807.126	324.43
807.457	306.35
807.787	335.73
808.117	330.08
808.447	327.14
808.777	336.86
809.107	340.25
809.436	313.13
809.766	347.7
810.096	324.2
810.426	321.49
810.755	309.51
811.085	309.06
811.414	325.33
811.744	327.36
812.073	320.13
812.403	323.52
812.732	331.43
813.061	337.08
813.39	320.58
813.719	303.18
814.049	335.73
814.378	314.03
814.707	315.16
815.036	319.23
815.365	319.91
815.693	327.82
816.022	333.01
816.351	310.87
816.68	317.42
817.008	329.62
817.337	339.79
817.665	343.86
817.994	344.31
818.322	329.4
818.651	322.17
818.979	329.85
819.307	318.55
819.636	323.75
819.964	334.14
820.292	324.43
820.62	337.53
820.948	325.33
821.276	304.31
821.604	325.78
821.932	322.17
822.259	321.71
822.587	317.87
822.915	314.26
823.243	316.29
823.57	329.62
823.898	318.78
824.225	324.43
824.553	310.19
824.88	336.18
825.207	319
825.535	314.26
825.862	294.37
826.189	337.31
826.516	316.07
826.843	317.2
827.17	318.1
827.497	326.46
827.824	324.88
828.151	302.73
828.478	320.36
828.805	317.42
829.131	337.76
829.458	335.73
829.785	314.48
830.111	299.12
830.438	307.48
830.764	308.38
831.09	310.19
831.417	330.53
831.743	328.72
832.069	331.66
832.395	337.31
832.722	315.61
833.048	325.33
833.374	333.47
833.7	331.43
834.026	308.61
834.351	345.22
834.677	314.71
835.003	326.46
835.329	319.23
835.654	317.65
835.98	322.62
836.306	321.26
836.631	319.68
836.956	313.13
837.282	343.41
837.607	331.21
837.932	325.33
838.258	326.23
838.583	325.1
838.908	306.12
839.233	336.18
839.558	321.04
839.883	323.75
840.208	321.49
840.533	325.78
840.858	331.43
841.182	325.56
841.507	311.09
841.832	326.91
842.156	298.66
842.481	324.43
842.805	334.37
843.13	332.56
843.454	309.06
843.778	342.51
844.103	328.27
844.427	338.21
844.751	325.78
845.075	333.69
845.399	325.56
845.723	321.71
846.047	334.82
846.371	307.93
846.695	293.47
847.019	328.27
847.343	335.73
847.666	329.4
847.99	324.2
848.313	322.39
848.637	338.89
848.96	331.88
849.284	310.42
849.607	323.07
849.931	327.14
850.254	312.45
850.577	320.58
850.9	331.43
851.223	339.34
851.546	329.4
851.869	317.87
852.192	313.81
852.515	323.75
852.838	330.53
853.161	318.55
853.483	316.07
853.806	339.79
854.129	334.82
854.451	326.23
854.774	327.14
855.096	340.92
855.419	318.1
855.741	320.58
856.063	329.17
856.385	311.32
856.708	326.91
857.03	328.95
857.352	328.95
857.674	320.81
857.996	301.38
858.318	309.06
858.64	312.22
858.961	343.64
859.283	332.56
859.605	305.44
859.926	320.58
860.248	343.41
860.57	332.34
860.891	303.18
861.212	309.29
861.534	314.48
861.855	328.27
862.176	322.62
862.498	319.68
862.819	314.94
863.14	322.84
863.461	318.32
863.782	316.97
864.103	334.82
864.424	326.91
864.745	313.13
865.065	325.56
865.386	315.16
865.707	318.32
866.027	328.49
866.348	326.91
866.668	309.74
866.989	330.08
867.309	310.19
867.63	287.37
867.95	321.26
868.27	315.39
868.59	321.26
868.91	333.01
869.23	322.62
869.55	352.45
869.87	324.88
870.19	314.48
870.51	335.95
870.83	324.43
871.15	318.55
871.469	310.64
871.789	339.79
872.109	311.32
872.428	326.91
872.748	316.29
873.067	325.33
873.386	328.72
873.706	321.49
874.025	311.77
874.344	327.36
874.663	334.37
874.982	337.53
875.301	311.77
875.62	316.52
875.939	305.67
876.258	341.83
876.577	314.26
876.896	331.43
877.214	338.21
877.533	312.68
877.852	310.19
878.17	327.82
878.489	329.62
878.807	328.27
879.125	337.31
879.444	324.2
879.762	334.6
880.08	309.29
880.398	323.75
880.716	308.16
881.034	331.88
881.352	326.01
881.67	312.68
881.988	335.5
882.306	311.32
882.624	321.26
882.941	307.7
883.259	319.91
883.577	331.43
883.894	310.64
884.212	302.05
884.529	295.95
884.846	313.35
885.164	316.97
885.481	329.4
885.798	330.53
886.115	322.84
886.432	332.34
886.75	307.93
887.067	352.22
887.383	333.24
887.7	318.55
888.017	331.88
888.334	296.18
888.651	321.94
888.967	340.02
889.284	337.53
889.6	344.54
889.917	326.23
890.233	316.97
890.55	321.26
890.866	316.29
891.182	323.52
891.498	312.68
891.815	324.65
892.131	316.97
892.447	322.39
892.763	310.64
893.079	329.17
893.395	328.95
893.71	331.88
894.026	347.7
894.342	315.16
894.657	304.09
894.973	325.56
895.289	308.38
895.604	315.39
895.92	315.61
896.235	315.84
896.55	329.17
896.865	331.21
897.181	318.55
897.496	310.87
897.811	333.24
898.126	319
898.441	337.76
898.756	301.83
899.071	323.52
899.386	318.1
899.7	328.72
900.015	321.94
900.33	317.2
900.644	317.42
900.959	320.58
901.273	321.26
901.588	327.14
901.902	305.67
902.216	313.35
902.531	331.88
902.845	312
903.159	323.07
903.473	324.43
903.787	315.39
904.101	336.86
904.415	313.13
904.729	304.54
905.042	319.68
905.356	310.87
905.67	325.78
905.984	332.34
906.297	333.92
906.611	310.42
906.924	331.66
907.237	294.82
907.551	334.6
907.864	309.74
908.177	293.92
908.491	334.82
908.804	318.32
909.117	331.21
909.43	314.48
909.743	313.81
910.056	326.23
910.368	323.97
910.681	310.42
910.994	314.94
911.307	316.97
911.619	331.43
911.932	340.92
912.244	337.76
912.557	302.05
912.869	347.7
913.181	327.82
913.494	343.18
913.806	323.97
914.118	340.25
914.43	333.47
914.742	314.03
915.054	334.6
915.366	335.27
915.678	294.37
915.99	333.92
916.302	325.56
916.613	315.16
916.925	316.97
917.236	310.64
917.548	319
917.859	316.07
918.171	330.3
918.482	312.68
918.794	323.97
919.105	314.26
919.416	321.04
919.727	331.88
920.038	314.26
920.349	334.14
920.66	323.52
920.971	318.1
921.282	326.69
921.593	311.09
921.903	304.09
922.214	306.12
922.525	329.4
922.835	312.22
923.146	309.96
923.456	310.64
923.767	305.44
924.077	327.36
924.387	338.44
924.697	283.98
925.008	311.77
925.318	302.96
925.628	297.31
925.938	309.96
926.248	297.31
926.558	328.95
926.867	326.91
927.177	319.68
927.487	311.32
927.796	333.92
928.106	320.81
928.416	320.81
928.725	328.27
929.034	341.6
929.344	317.65
929.653	310.19
929.962	315.39
930.271	319.45
930.581	311.55
930.89	304.54
931.199	313.13
931.508	315.84
931.817	317.65
932.125	306.35
932.434	336.18
932.743	329.17
933.051	315.84
933.36	332.79
933.669	321.71
933.977	306.35
934.286	339.12
934.594	314.03
934.902	318.1
935.21	336.4
935.519	316.74
935.827	297.99
936.135	310.64
936.443	325.1
936.751	307.93
937.059	310.64
937.367	330.98
937.674	305.22
937.982	326.46
938.29	325.78
938.597	314.26
938.905	324.2
939.213	319.23
939.52	320.36
939.827	331.43
940.135	304.09
940.442	307.7
940.749	320.58
941.056	337.76
941.363	298.44
941.67	314.26
941.977	316.07
942.284	332.34
942.591	305.44
942.898	313.81
943.205	337.08
943.511	312
943.818	288.5
944.125	299.34
944.431	317.42
944.738	308.38
945.044	319.91
945.35	318.78
945.657	310.19
945.963	319
946.269	322.62
946.575	318.78
946.881	302.28
947.187	310.64
947.493	300.25
947.799	324.43
948.105	320.36
948.41	305.22
948.716	322.39
949.022	321.94
949.327	316.74
949.633	321.94
949.938	321.71
950.244	304.09
950.549	319.68
950.854	347.93
951.16	284.43
951.465	309.74
951.77	328.04
952.075	318.78
952.38	312
952.685	316.07
952.99	313.58
953.294	321.49
953.599	332.79
953.904	326.69
954.209	311.55
954.513	305.22
954.818	332.56
955.122	330.53
955.426	317.65
955.731	331.66
956.035	330.3
956.339	321.49
956.643	305.44
956.948	328.72
957.252	307.93
957.556	312
957.86	317.2
958.163	316.97
958.467	312
958.771	321.49
959.075	324.65
959.378	316.29
959.682	305.9
959.985	316.07
960.289	291.21
960.592	324.65
960.896	317.87
961.199	311.55
961.502	330.98
961.805	284.88
962.108	323.07
962.411	295.73
962.714	319
963.017	328.95
963.32	313.35
963.623	324.43
963.926	329.62
964.228	316.29
964.531	295.5
964.833	298.89
965.136	318.32
965.438	315.84
965.741	327.36
966.043	312.68
966.345	304.99
966.648	340.47
966.95	325.78
967.252	317.65
967.554	308.83
967.856	321.94
968.158	294.82
968.46	317.42
968.761	320.81
969.063	340.02
969.365	303.18
969.666	317.87
969.968	310.19
970.269	321.49
970.571	321.26
970.872	327.14
971.174	331.43
971.475	311.55
971.776	320.36
972.077	321.49
972.378	319.23
972.679	313.13
972.98	319.68
973.281	310.19
973.582	310.19
973.883	306.57
974.183	329.17
974.484	321.71
974.785	311.32
975.085	303.41
975.386	304.99
975.686	316.52
975.986	304.99
976.287	334.37
976.587	315.16
976.887	326.69
977.187	322.17
977.487	324.43
977.787	313.81
978.087	323.52
978.387	305.22
978.687	319.23
978.987	304.31
979.286	316.97
979.586	331.43
979.885	304.77
980.185	309.96
980.484	320.58
980.784	303.86
981.083	301.83
981.382	308.16
981.682	315.16
981.981	307.03
982.28	325.33
982.579	299.12
982.878	326.91
983.177	312.45
983.475	318.78
983.774	304.31
984.073	317.2
984.372	341.15
984.67	321.49
984.969	329.4
985.267	313.81
985.566	316.29
985.864	335.5
986.162	321.94
986.461	295.73
986.759	304.54
987.057	321.04
987.355	300.25
987.653	316.07
987.951	314.48
988.249	308.38
988.547	294.14
988.844	301.6
989.142	319.91
989.44	335.05
989.737	305.44
990.035	313.58
990.332	308.83
990.63	294.6
990.927	329.4
991.224	324.2
991.521	324.2
991.819	329.85
992.116	315.39
992.413	322.17
992.71	300.25
993.006	309.96
993.303	303.64
993.6	309.74
993.897	325.1
994.193	307.25
994.49	320.36
994.787	307.48
995.083	307.7
995.379	323.97
995.676	301.83
995.972	295.5
996.268	305.9
996.565	324.2
996.861	307.48
997.157	303.86
997.453	322.84
997.749	318.32
998.044	334.37
998.34	311.55
998.636	316.74
998.932	314.94
999.227	315.39
999.523	326.46
999.818	307.93
1000.114	308.83
1000.409	303.64
1000.704	309.29
1001	298.21
1001.295	305.22
1001.59	317.42
1001.885	326.46
1002.18	313.13
1002.475	306.12
1002.77	340.02
1003.065	292.34
1003.359	313.13
1003.654	316.74
1003.949	328.72
1004.243	314.26
1004.538	326.23
1004.832	335.95
1005.127	304.99
1005.421	307.48
1005.715	316.74
1006.009	328.49
1006.304	310.42
1006.598	298.21
1006.892	325.78
1007.186	314.71
1007.48	291.88
1007.773	307.25
1008.067	326.46
1008.361	321.26
1008.655	304.99
1008.948	319.23
1009.242	321.94
1009.535	312.45
1009.829	299.12
1010.122	321.26
1010.415	313.58
1010.708	314.03
1011.001	335.5
1011.295	321.04
1011.588	312.22
1011.881	316.74
1012.173	299.57
1012.466	318.78
1012.759	322.17
1013.052	320.13
1013.344	312.9
1013.637	314.03
1013.93	318.32
1014.222	327.82
1014.514	320.13
1014.807	313.35
1015.099	310.19
1015.391	303.86
1015.683	323.52
1015.976	314.94
1016.268	309.06
1016.56	295.5
1016.851	314.94
1017.143	309.74
1017.435	321.71
1017.727	314.03
1018.018	313.35
1018.31	324.43
1018.602	328.49
1018.893	333.92
1019.185	315.16
1019.476	328.95
1019.767	322.84
1020.058	301.15
1020.35	306.12
1020.641	306.57
1020.932	325.78
1021.223	302.51
1021.514	329.62
1021.804	307.48
1022.095	320.36
1022.386	332.11
1022.677	309.06
1022.967	309.74
1023.258	328.27
1023.548	310.87
1023.839	297.99
1024.129	327.82
1024.419	304.31
1024.709	330.08
1025	313.81
1025.29	324.43
1025.58	310.42
1025.87	315.61
1026.16	319.91
1026.449	309.74
1026.739	314.94
1027.029	303.41
1027.319	322.17
1027.608	327.82
1027.898	327.36
1028.187	314.94
1028.477	303.64
1028.766	328.04
1029.055	323.07
1029.344	286.91
1029.634	361.04
1029.923	302.51
1030.212	312.9
1030.501	313.35
1030.79	323.97
1031.078	322.39
1031.367	333.69
1031.656	315.84
1031.945	324.88
1032.233	318.32
1032.522	322.84
1032.81	324.88
1033.099	317.65
1033.387	333.01
1033.675	322.17
1033.963	307.7
1034.251	306.12
1034.54	312
1034.828	303.64
1035.116	331.21
1035.403	322.39
1035.691	319.23
1035.979	337.31
1036.267	317.2
1036.554	310.87
1036.842	303.18
1037.129	333.01
1037.417	310.64
1037.704	323.75
1037.992	297.53
1038.279	324.43
1038.566	318.78
1038.853	318.78
1039.14	318.78
