Data from No_light_on_white_reflection_standard_FLMS001491_090.txt Node
Date: Tue Feb 07 10:33:10 GMT 2017
User: dcchb
Spectrometer: FLMS00149
Trigger mode: 0
Integration Time (sec): 2.000000E-2
Scans to average: 10
Electric dark correction enabled: true
Nonlinearity correction enabled: false
Boxcar width: 0
XAxis mode: Wavelengths
Number of Pixels in Spectrum: 2048
>>>>>Begin Spectral Data<<<<<
341.393	-25.3
341.776	-25.3
342.16	-25.3
342.543	-60.78
342.927	-63.49
343.31	-71.4
343.693	-73.43
344.077	-34.79
344.46	-61.45
344.843	-63.49
345.226	-43.6
345.61	-39.53
345.993	-18.52
346.376	5.44
346.759	27.58
347.142	30.07
347.525	36.17
347.908	68.49
348.291	70.07
348.674	78.66
349.057	89.73
349.44	145.55
349.823	155.04
350.206	168.37
350.588	140.35
350.971	184.64
351.354	205.88
351.737	228.03
352.119	221.48
352.502	235.26
352.884	240.46
353.267	263.96
353.65	258.31
354.032	274.58
354.414	278.2
354.797	306.22
355.179	268.71
355.562	323.85
355.944	292.44
356.326	312.55
356.709	308.93
357.091	312.77
357.473	303.73
357.855	309.16
358.238	311.42
358.62	306.45
359.002	309.84
359.384	312.55
359.766	325.43
360.148	319.55
360.53	305.32
360.912	324.07
361.294	310.29
361.676	304.64
362.057	284.3
362.439	287.69
362.821	302.61
363.203	291.53
363.584	307.8
363.966	296.05
364.348	277.75
364.729	287.46
365.111	302.83
365.493	289.72
365.874	320.68
366.256	306.67
366.637	279.78
367.019	268.93
367.4	284.98
367.781	272.78
368.163	284.3
368.544	288.14
368.925	282.94
369.306	292.89
369.688	263.28
370.069	270.97
370.45	280.68
370.831	277.52
371.212	282.27
371.593	258.54
371.974	267.8
372.355	286.79
372.736	288.14
373.117	290.63
373.498	278.88
373.879	271.42
374.26	278.65
374.641	282.72
375.021	273.91
375.402	290.85
375.783	296.05
376.163	282.27
376.544	280.68
376.925	260.8
377.305	283.62
377.686	296.05
378.066	294.24
378.447	285.43
378.827	280.68
379.208	272.78
379.588	287.92
379.968	282.04
380.349	259.22
380.729	308.25
381.109	283.62
381.489	308.93
381.87	293.11
382.25	306.9
382.63	294.92
383.01	282.27
383.39	280.91
383.77	288.82
384.15	276.39
384.53	304.41
384.91	294.47
385.29	289.72
385.67	297.41
386.049	283.4
386.429	298.31
386.809	304.64
387.189	293.34
387.568	280.46
387.948	313.45
388.328	296.05
388.707	290.18
389.087	280.23
389.466	311.19
389.846	282.04
390.225	294.47
390.605	298.09
390.984	318.65
391.363	298.31
391.743	282.27
392.122	302.15
392.501	304.64
392.881	297.41
393.26	295.37
393.639	281.81
394.018	307.12
394.397	288.59
394.776	293.34
395.155	294.24
395.534	290.18
395.913	280.01
396.292	296.73
396.671	284.75
397.05	297.63
397.429	279.55
397.808	305.32
398.186	287.92
398.565	305.32
398.944	296.5
399.323	290.63
399.701	293.57
400.08	298.31
400.458	306.67
400.837	311.87
401.215	297.18
401.594	303.73
401.972	284.07
402.351	298.54
402.729	303.73
403.107	302.61
403.486	297.18
403.864	316.62
404.242	297.18
404.62	299.89
404.999	305.09
405.377	304.19
405.755	315.49
406.133	310.74
406.511	286.33
406.889	289.72
407.267	288.14
407.645	290.18
408.023	293.34
408.401	303.73
408.779	301.7
409.156	320.68
409.534	317.97
409.912	299.44
410.29	295.37
410.667	309.16
411.045	312.77
411.422	301.93
411.8	302.38
412.178	289.5
412.555	287.92
412.933	305.99
413.31	300.8
413.687	298.54
414.065	320.23
414.442	293.57
414.819	321.14
415.197	318.65
415.574	308.71
415.951	294.92
416.328	302.83
416.705	298.54
417.082	318.88
417.46	305.32
417.837	304.41
418.214	338.99
418.591	312.32
418.967	309.84
419.344	301.25
419.721	319.78
420.098	307.35
420.475	298.09
420.852	307.35
421.228	315.03
421.605	333.56
421.982	308.03
422.358	307.12
422.735	305.54
423.111	311.42
423.488	298.54
423.864	319.33
424.241	325.88
424.617	324.98
424.994	294.02
425.37	310.06
425.746	315.26
426.123	311.87
426.499	325.2
426.875	297.63
427.251	320.46
427.627	308.93
428.003	319.78
428.379	308.03
428.756	308.71
429.132	323.85
429.507	325.43
429.883	317.97
430.259	333.34
430.635	318.42
431.011	317.29
431.387	314.36
431.763	326.33
432.138	305.77
432.514	329.95
432.89	319.78
433.265	337.63
433.641	326.79
434.016	321.14
434.392	321.14
434.767	331.98
435.143	320.91
435.518	313.23
435.894	323.17
436.269	315.03
436.644	318.88
437.02	332.89
437.395	332.66
437.77	315.26
438.145	328.82
438.52	311.87
438.895	336.05
439.271	335.15
439.646	343.06
440.021	336.5
440.395	350.97
440.77	333.34
441.145	332.89
441.52	358.2
441.895	344.41
442.27	337.63
442.645	326.11
443.019	335.15
443.394	330.17
443.769	352.77
444.143	326.11
444.518	350.74
444.892	368.59
445.267	344.64
445.641	361.59
446.016	369.72
446.39	357.97
446.764	366.11
447.139	366.56
447.513	371.53
447.887	357.97
448.262	333.56
448.636	354.81
449.01	366.78
449.384	375.15
449.758	371.98
450.132	364.52
450.506	366.33
450.88	361.59
451.254	371.76
451.628	365.43
452.002	373.79
452.376	357.97
452.75	358.65
453.123	368.37
453.497	394.58
453.871	373.79
454.244	394.81
454.618	375.37
454.992	371.08
455.365	377.86
455.739	376.05
456.112	355.71
456.486	367.91
456.859	364.3
457.232	353.68
457.606	381.92
457.979	371.53
458.352	382.83
458.725	380.34
459.099	369.27
459.472	359.78
459.845	378.31
460.218	368.82
460.591	362.26
460.964	352.55
461.337	362.94
461.71	342.15
462.083	369.04
462.456	347.8
462.829	360.91
463.201	353.9
463.574	358.65
463.947	356.84
464.32	344.41
464.692	380.12
465.065	390.06
465.438	360
465.81	370.63
466.183	376.5
466.555	357.74
466.928	378.08
467.3	383.73
467.672	367.01
468.045	366.78
468.417	369.72
468.789	350.06
469.161	381.92
469.534	360.68
469.906	365.43
470.278	375.82
470.65	356.84
471.022	333.34
471.394	355.49
471.766	354.36
472.138	354.81
472.51	343.96
472.882	335.6
473.253	355.03
473.625	347.8
473.997	366.56
474.369	341.7
474.74	355.26
475.112	363.17
475.484	380.12
475.855	341.93
476.227	359.33
476.598	345.32
476.97	376.73
477.341	359.55
477.713	365.2
478.084	354.81
478.455	363.62
478.827	364.52
479.198	354.36
479.569	363.39
479.94	359.1
480.311	354.13
480.682	376.28
481.053	369.04
481.424	352.32
481.795	374.02
482.166	364.98
482.537	371.3
482.908	345.54
483.279	341.93
483.65	372.89
484.021	365.43
484.391	375.82
484.762	377.86
485.133	351.19
485.503	363.62
485.874	364.75
486.244	356.39
486.615	367.01
486.985	354.58
487.356	365.2
487.726	387.57
488.097	361.13
488.467	371.3
488.837	373.56
489.207	380.57
489.578	381.47
489.948	381.02
490.318	364.75
490.688	350.29
491.058	365.2
491.428	378.31
491.798	397.07
492.168	386.9
492.538	373.79
492.908	383.28
493.278	370.4
493.648	382.38
494.017	401.81
494.387	393.9
494.757	401.59
495.126	393
495.496	377.18
495.866	390.29
496.235	396.16
496.605	385.31
496.974	396.84
497.344	398.2
497.713	397.07
498.082	373.11
498.452	400
498.821	409.49
499.19	414.01
499.559	407.69
499.928	387.57
500.298	409.04
500.667	395.94
501.036	403.85
501.405	408.82
501.774	414.47
502.143	406.78
502.512	418.53
502.88	429.16
503.249	395.71
503.618	402.72
503.987	418.53
504.356	413.11
504.724	419.89
505.093	420.57
505.462	411.53
505.83	426.67
506.199	426.9
506.567	422.15
506.936	426.9
507.304	428.7
507.672	418.99
508.041	448.14
508.409	410.4
508.777	448.82
509.145	434.8
509.514	429.16
509.882	439.78
510.25	460.34
510.618	436.39
510.986	443.62
511.354	460.79
511.722	457.86
512.09	432.77
512.458	450.85
512.826	453.34
513.193	438.19
513.561	449.95
513.929	451.98
514.297	456.95
514.664	456.27
515.032	446.78
515.4	444.75
515.767	468.25
516.135	443.39
516.502	446.33
516.869	461.02
517.237	458.53
517.604	478.87
517.972	436.16
518.339	444.97
518.706	470.96
519.073	470.28
519.44	456.95
519.808	458.08
520.175	464.18
520.542	456.95
520.909	475.93
521.276	466.89
521.643	470.96
522.009	466.44
522.376	478.87
522.743	458.31
523.11	452.66
523.477	465.99
523.843	493.79
524.21	495.59
524.577	460.79
524.943	482.26
525.31	507.8
525.676	499.89
526.043	490.85
526.409	488.14
526.776	495.59
527.142	487.01
527.508	480.68
527.874	499.21
528.241	482.94
528.607	481.36
528.973	491.53
529.339	480
529.705	507.57
530.071	487.68
530.437	490.62
530.803	483.17
531.169	497.4
531.535	501.02
531.901	484.3
532.267	491.75
532.632	513.67
532.998	480.68
533.364	488.14
533.73	511.41
534.095	518.42
534.461	505.09
534.826	522.71
535.192	520.9
535.557	509.15
535.923	521.13
536.288	506.22
536.653	502.37
537.019	533.33
537.384	513.67
537.749	511.64
538.114	487.46
538.479	524.07
538.845	511.19
539.21	525.88
539.575	517.06
539.94	511.41
540.305	516.38
540.67	508.48
541.034	508.02
541.399	531.07
541.764	536.5
542.129	528.14
542.494	523.16
542.858	527.01
543.223	515.03
543.587	521.13
543.952	527.68
544.316	513.22
544.681	524.29
545.045	516.61
545.41	526.78
545.774	537.63
546.138	506.89
546.503	514.35
546.867	514.35
547.231	546.89
547.595	545.76
547.959	524.07
548.324	532.88
548.688	530.17
549.052	541.24
549.416	535.37
549.779	534.69
550.143	567.91
550.507	529.04
550.871	517.06
551.235	526.1
551.599	515.93
551.962	539.89
552.326	539.66
552.689	548.25
553.053	555.71
553.417	531.07
553.78	553.9
554.143	536.72
554.507	531.3
554.87	566.1
555.234	575.14
555.597	534.46
555.96	549.38
556.323	543.28
556.686	543.05
557.05	555.93
557.413	568.81
557.776	547.34
558.139	557.74
558.502	532.43
558.865	551.86
559.228	542.15
559.59	556.38
559.953	579.21
560.316	561.36
560.679	543.95
561.041	545.08
561.404	531.53
561.767	547.12
562.129	552.77
562.492	551.19
562.854	563.62
563.217	554.12
563.579	567.23
563.941	559.55
564.304	550.73
564.666	561.81
565.028	567.91
565.39	571.07
565.753	584.18
566.115	568.13
566.477	573.33
566.839	551.41
567.201	570.62
567.563	598.42
567.925	565.65
568.287	568.81
568.648	568.36
569.01	584.18
569.372	576.72
569.734	579.43
570.095	582.6
570.457	585.99
570.819	595.03
571.18	573.56
571.542	596.38
571.903	580.79
572.265	577.85
572.626	601.13
572.987	612.65
573.349	571.3
573.71	591.86
574.071	594.12
574.432	581.24
574.794	601.81
575.155	596.38
575.516	595.03
575.877	604.52
576.238	615.14
576.599	606.33
576.96	598.42
577.32	570.62
577.681	599.09
578.042	580.11
578.403	570.62
578.763	571.98
579.124	582.6
579.485	623.73
579.845	598.64
580.206	585.54
580.566	598.64
580.927	578.3
581.287	613.11
581.648	595.03
582.008	618.3
582.368	602.03
582.728	608.81
583.089	620.56
583.449	598.64
583.809	590.28
584.169	582.82
584.529	591.64
584.889	596.83
585.249	593.22
585.609	609.26
585.969	603.16
586.329	598.87
586.688	595.7
587.048	632.54
587.408	617.17
587.768	595.7
588.127	586.44
588.487	588.25
588.846	595.25
589.206	580.79
589.565	611.98
589.925	581.92
590.284	568.36
590.643	599.09
591.003	596.16
591.362	604.52
591.721	590.28
592.08	576.5
592.44	593.22
592.799	597.74
593.158	589.38
593.517	591.64
593.876	586.67
594.235	581.02
594.593	595.25
594.952	600.68
595.311	605.87
595.67	602.94
596.029	597.51
596.387	574.01
596.746	606.1
597.104	564.29
597.463	570.62
597.822	582.82
598.18	575.14
598.538	559.32
598.897	551.19
599.255	569.94
599.613	593.22
599.972	602.26
600.33	592.09
600.688	595.03
601.046	571.98
601.404	600.45
601.762	569.26
602.12	550.73
602.478	561.36
602.836	578.53
603.194	564.07
603.552	569.04
603.91	584.86
604.268	571.98
604.625	582.6
604.983	561.13
605.341	573.78
605.698	560.23
606.056	571.3
606.413	566.78
606.771	559.1
607.128	578.76
607.485	572.65
607.843	561.36
608.2	571.75
608.557	554.12
608.914	576.27
609.272	548.47
609.629	570.39
609.986	569.04
610.343	560.23
610.7	569.72
611.057	564.29
611.414	560
611.771	564.52
612.127	567.46
612.484	564.97
612.841	560.68
613.198	547.34
613.554	571.07
613.911	551.19
614.267	568.36
614.624	551.64
614.98	554.35
615.337	576.72
615.693	544.18
616.05	553.9
616.406	538.76
616.762	542.37
617.118	564.29
617.475	560
617.831	540.11
618.187	522.03
618.543	537.63
618.899	555.25
619.255	527.23
619.611	533.11
619.967	537.85
620.323	546.89
620.678	525.88
621.034	534.92
621.39	534.92
621.746	545.99
622.101	541.24
622.457	522.94
622.812	522.03
623.168	518.19
623.523	538.53
623.879	506.22
624.234	515.71
624.589	487.68
624.945	526.55
625.3	517.51
625.655	509.83
626.01	482.94
626.365	520
626.72	487.91
627.075	531.3
627.43	519.77
627.785	510.06
628.14	520.45
628.495	497.63
628.85	545.31
629.205	525.88
629.559	496.05
629.914	503.96
630.269	496.5
630.623	505.76
630.978	528.36
631.332	524.97
631.687	502.6
632.041	501.47
632.396	507.8
632.75	505.31
633.104	504.86
633.459	480.45
633.813	495.59
634.167	477.06
634.521	484.75
634.875	499.44
635.229	486.1
635.583	466.89
635.937	485.88
636.291	467.35
636.645	474.58
636.999	468.25
637.352	498.31
637.706	479.78
638.06	494.01
638.413	491.53
638.767	491.3
639.121	471.87
639.474	474.13
639.828	455.82
640.181	489.94
640.534	471.87
640.888	465.31
641.241	483.84
641.594	461.24
641.947	439.55
642.301	453.11
642.654	452.21
643.007	472.32
643.36	460.34
643.713	441.58
644.066	447.69
644.419	480
644.771	457.4
645.124	442.26
645.477	455.82
645.83	449.27
646.182	445.2
646.535	450.4
646.888	443.39
647.24	425.99
647.593	450.4
647.945	444.3
648.298	441.58
648.65	447.46
649.002	442.71
649.355	436.39
649.707	433
650.059	436.61
650.411	435.71
650.763	443.17
651.115	439.32
651.467	427.35
651.819	436.84
652.171	433.22
652.523	423.96
652.875	433.9
653.227	445.43
653.578	427.57
653.93	432.32
654.282	445.65
654.633	442.04
654.985	436.39
655.337	408.14
655.688	423.51
656.039	416.5
656.391	416.95
656.742	411.53
657.094	432.77
657.445	420.34
657.796	407.46
658.147	413.34
658.498	407.91
658.849	414.01
659.2	437.29
659.551	438.87
659.902	412.88
660.253	414.69
660.604	420.12
660.955	428.93
661.306	402.72
661.656	403.39
662.007	411.08
662.358	414.92
662.708	419.44
663.059	395.48
663.409	412.66
663.76	392.77
664.11	416.05
664.461	372.21
664.811	419.89
665.161	432.77
665.511	395.03
665.862	410.4
666.212	394.35
666.562	404.3
666.912	408.14
667.262	414.24
667.612	381.7
667.962	404.98
668.312	396.16
668.662	416.5
669.011	397.97
669.361	393.68
669.711	389.83
670.06	393.68
670.41	390.74
670.76	395.26
671.109	389.16
671.459	391.42
671.808	393.45
672.157	392.55
672.507	374.69
672.856	382.38
673.205	407.01
673.554	384.64
673.904	388.25
674.253	396.16
674.602	396.84
674.951	388.25
675.3	395.94
675.649	400.46
675.998	396.84
676.346	388.25
676.695	380.8
677.044	395.26
677.393	395.48
677.741	396.61
678.09	359.55
678.438	376.95
678.787	391.42
679.135	389.38
679.484	376.05
679.832	377.18
680.181	393.68
680.529	377.63
680.877	381.47
681.225	377.86
681.573	399.1
681.922	360.23
682.27	369.27
682.618	384.18
682.966	369.95
683.314	371.98
683.661	380.12
684.009	389.61
684.357	367.69
684.705	380.34
685.053	390.51
685.4	378.76
685.748	389.16
686.095	383.73
686.443	384.86
686.79	371.08
687.138	377.41
687.485	355.94
687.832	363.17
688.18	375.82
688.527	355.03
688.874	362.04
689.221	365.43
689.568	378.76
689.915	362.49
690.262	367.91
690.609	381.25
690.956	337.18
691.303	358.42
691.65	355.94
691.997	352.77
692.344	368.14
692.69	371.53
693.037	380.8
693.383	366.33
693.73	362.94
694.077	358.65
694.423	343.51
694.769	360.23
695.116	360.23
695.462	358.65
695.808	370.85
696.155	353.45
696.501	357.74
696.847	367.01
697.193	342.38
697.539	361.13
697.885	372.21
698.231	359.1
698.577	358.87
698.923	353.9
699.269	347.12
699.614	347.35
699.96	360.91
700.306	376.73
700.651	360.23
700.997	356.16
701.342	367.91
701.688	354.36
702.033	354.13
702.379	360.68
702.724	370.85
703.069	349.61
703.415	362.72
703.76	366.56
704.105	346.22
704.45	346.9
704.795	344.19
705.14	369.5
705.485	354.13
705.83	350.74
706.175	359.78
706.52	340.12
706.865	363.17
707.209	363.17
707.554	357.29
707.899	340.12
708.243	350.97
708.588	345.54
708.932	371.76
709.277	344.86
709.621	349.16
709.966	354.81
710.31	345.99
710.654	341.7
710.998	350.06
711.342	361.36
711.687	345.09
712.031	329.95
712.375	338.31
712.719	322.49
713.063	339.44
713.407	342.83
713.75	331.53
714.094	343.96
714.438	357.29
714.782	355.49
715.125	320.46
715.469	362.94
715.812	361.59
716.156	323.62
716.499	373.34
716.843	346.45
717.186	342.15
717.53	346.9
717.873	342.83
718.216	321.59
718.559	348.25
718.902	339.44
719.246	318.42
719.589	350.51
719.932	340.8
720.275	336.73
720.617	337.18
720.96	333.56
721.303	345.77
721.646	325.88
721.989	338.99
722.331	352.1
722.674	338.54
723.016	345.09
723.359	337.86
723.701	328.59
724.044	337.18
724.386	341.93
724.729	352.1
725.071	328.82
725.413	342.15
725.755	327.46
726.097	357.97
726.439	352.32
726.782	343.51
727.124	355.71
727.465	348.03
727.807	339.21
728.149	363.17
728.491	348.03
728.833	334.47
729.175	321.81
729.516	334.92
729.858	338.08
730.199	348.48
730.541	334.24
730.882	333.34
731.224	351.64
731.565	333.79
731.906	356.16
732.248	329.05
732.589	348.25
732.93	347.35
733.271	315.71
733.612	343.73
733.953	319.78
734.294	343.73
734.635	350.74
734.976	340.12
735.317	343.28
735.658	322.49
735.999	331.76
736.339	331.08
736.68	325.2
737.021	349.84
737.361	346.67
737.702	335.82
738.042	345.54
738.383	329.27
738.723	337.18
739.063	318.65
739.404	346.45
739.744	350.29
740.084	353
740.424	312.1
740.764	352.77
741.104	354.81
741.444	332.21
741.784	336.73
742.124	325.66
742.464	340.34
742.804	355.26
743.143	304.86
743.483	327.01
743.823	337.63
744.162	328.14
744.502	325.43
744.841	342.83
745.181	333.34
745.52	350.06
745.86	329.27
746.199	347.58
746.538	340.12
746.877	342.6
747.216	329.5
747.556	342.6
747.895	341.7
748.234	338.76
748.573	315.49
748.911	319.33
749.25	322.49
749.589	328.37
749.928	353.9
750.267	328.14
750.605	328.59
750.944	331.98
751.283	344.41
751.621	321.14
751.96	347.8
752.298	336.95
752.636	312.55
752.975	335.6
753.313	321.36
753.651	344.64
753.989	341.25
754.327	339.21
754.666	323.17
755.004	346.9
755.342	351.19
755.679	350.51
756.017	319.1
756.355	345.99
756.693	348.03
757.031	324.75
757.368	333.34
757.706	345.54
758.044	330.63
758.381	326.11
758.719	343.06
759.056	335.15
759.394	320.46
759.731	320.68
760.068	325.88
760.405	325.43
760.743	336.05
761.08	339.44
761.417	319.78
761.754	316.16
762.091	314.81
762.428	314.36
762.765	318.42
763.102	330.63
763.438	331.08
763.775	313.45
764.112	346.45
764.449	330.17
764.785	321.81
765.122	343.73
765.458	340.8
765.795	326.79
766.131	326.56
766.467	330.4
766.804	331.08
767.14	327.46
767.476	329.27
767.812	343.96
768.148	337.18
768.485	311.42
768.821	317.52
769.157	353.9
769.492	347.35
769.828	326.33
770.164	352.55
770.5	332.66
770.836	311.87
771.171	348.48
771.507	337.63
771.842	332.66
772.178	318.42
772.513	345.32
772.849	331.98
773.184	331.3
773.519	335.82
773.855	350.29
774.19	350.97
774.525	348.48
774.86	317.52
775.195	325.2
775.53	330.17
775.865	331.98
776.2	329.72
776.535	345.32
776.87	329.27
777.205	337.86
777.539	324.98
777.874	340.57
778.209	325.88
778.543	338.54
778.878	309.61
779.212	354.81
779.547	339.21
779.881	327.24
780.215	322.94
780.55	352.77
780.884	336.28
781.218	312.55
781.552	334.69
781.886	324.07
782.22	335.15
782.554	327.24
782.888	323.85
783.222	342.6
783.556	329.05
783.889	317.97
784.223	324.07
784.557	320.01
784.89	348.03
785.224	319.1
785.557	340.57
785.891	322.72
786.224	344.19
786.558	351.64
786.891	338.31
787.224	334.02
787.557	337.86
787.891	333.56
788.224	332.21
788.557	321.81
788.89	334.47
789.223	339.89
789.556	346.22
789.888	329.72
790.221	337.41
790.554	318.88
790.887	329.5
791.219	319.1
791.552	354.81
791.884	332.21
792.217	333.79
792.549	357.97
792.882	342.38
793.214	318.65
793.546	330.17
793.879	328.37
794.211	341.02
794.543	349.61
794.875	321.59
795.207	319.33
795.539	329.5
795.871	358.65
796.203	318.2
796.535	321.81
796.867	338.08
797.198	324.3
797.53	328.37
797.862	333.34
798.193	338.76
798.525	322.94
798.856	330.63
799.188	315.94
799.519	336.95
799.85	329.95
800.182	325.2
800.513	327.46
800.844	335.15
801.175	318.2
801.506	317.52
801.837	343.51
802.168	348.03
802.499	330.4
802.83	327.46
803.161	342.6
803.491	352.77
803.822	320.01
804.153	328.82
804.483	315.71
804.814	325.66
805.145	317.52
805.475	327.24
805.805	339.44
806.136	334.92
806.466	345.09
806.796	310.97
807.126	334.24
807.457	311.19
807.787	315.49
808.117	329.72
808.447	338.31
808.777	340.8
809.107	318.88
809.436	312.77
809.766	316.62
810.096	327.46
810.426	304.64
810.755	307.12
811.085	329.27
811.414	336.95
811.744	331.3
812.073	344.64
812.403	325.43
812.732	324.75
813.061	325.2
813.39	335.6
813.719	312.55
814.049	330.4
814.378	327.92
814.707	315.49
815.036	335.82
815.365	313.23
815.693	323.17
816.022	342.6
816.351	328.59
816.68	321.14
817.008	331.98
817.337	328.59
817.665	310.51
817.994	320.46
818.322	320.46
818.651	316.62
818.979	327.46
819.307	324.98
819.636	309.38
819.964	332.43
820.292	337.18
820.62	323.4
820.948	332.21
821.276	317.97
821.604	330.85
821.932	327.92
822.259	329.95
822.587	323.85
822.915	349.38
823.243	324.53
823.57	329.95
823.898	314.81
824.225	322.04
824.553	336.73
824.88	322.04
825.207	339.21
825.535	338.99
825.862	301.25
826.189	314.36
826.516	343.06
826.843	337.18
827.17	312.32
827.497	320.46
827.824	322.27
828.151	331.53
828.478	311.64
828.805	322.94
829.131	324.75
829.458	326.56
829.785	349.61
830.111	319.33
830.438	322.72
830.764	329.72
831.09	334.69
831.417	307.58
831.743	332.21
832.069	321.81
832.395	345.32
832.722	325.43
833.048	294.7
833.374	313.68
833.7	305.09
834.026	318.42
834.351	329.72
834.677	344.86
835.003	322.72
835.329	332.43
835.654	329.72
835.98	339.21
836.306	333.56
836.631	344.41
836.956	320.46
837.282	329.05
837.607	319.78
837.932	307.8
838.258	324.98
838.583	310.29
838.908	312.55
839.233	335.6
839.558	317.97
839.883	336.73
840.208	344.86
840.533	332.21
840.858	345.32
841.182	316.16
841.507	326.56
841.832	322.27
842.156	341.93
842.481	326.33
842.805	323.4
843.13	327.46
843.454	333.79
843.778	335.6
844.103	325.2
844.427	324.07
844.751	337.86
845.075	345.77
845.399	328.59
845.723	329.5
846.047	326.11
846.371	339.67
846.695	309.16
847.019	336.95
847.343	341.02
847.666	327.46
847.99	313.23
848.313	310.29
848.637	322.94
848.96	325.88
849.284	305.99
849.607	314.81
849.931	317.97
850.254	335.82
850.577	326.56
850.9	329.5
851.223	320.91
851.546	322.94
851.869	310.06
852.192	337.86
852.515	343.51
852.838	338.76
853.161	330.63
853.483	322.49
853.806	332.66
854.129	329.95
854.451	322.27
854.774	330.63
855.096	329.72
855.419	336.28
855.741	331.76
856.063	338.08
856.385	320.23
856.708	326.33
857.03	352.32
857.352	330.4
857.674	324.53
857.996	336.5
858.318	329.95
858.64	324.07
858.961	340.8
859.283	326.56
859.605	305.77
859.926	315.26
860.248	303.28
860.57	314.81
860.891	336.95
861.212	313.45
861.534	326.11
861.855	318.42
862.176	325.66
862.498	322.27
862.819	319.78
863.14	339.21
863.461	319.78
863.782	324.98
864.103	316.16
864.424	319.78
864.745	311.87
865.065	329.05
865.386	310.97
865.707	319.55
866.027	315.71
866.348	323.85
866.668	322.94
866.989	314.36
867.309	327.92
867.63	323.17
867.95	317.75
868.27	335.15
868.59	320.01
868.91	352.1
869.23	324.53
869.55	329.27
869.87	325.88
870.19	316.39
870.51	332.89
870.83	336.5
871.15	315.49
871.469	318.2
871.789	323.17
872.109	310.29
872.428	310.29
872.748	333.56
873.067	343.28
873.386	317.52
873.706	324.3
874.025	326.79
874.344	315.94
874.663	314.36
874.982	329.27
875.301	350.29
875.62	321.36
875.939	310.51
876.258	304.41
876.577	320.68
876.896	330.4
877.214	331.3
877.533	332.66
877.852	325.66
878.17	313.23
878.489	313.9
878.807	315.26
879.125	328.37
879.444	327.46
879.762	315.49
880.08	308.71
880.398	317.29
880.716	317.07
881.034	322.49
881.352	325.66
881.67	315.49
881.988	333.79
882.306	341.7
882.624	306.22
882.941	317.97
883.259	318.88
883.577	336.5
883.894	315.03
884.212	332.43
884.529	308.93
884.846	336.95
885.164	314.13
885.481	345.99
885.798	336.73
886.115	331.98
886.432	306.45
886.75	319.78
887.067	323.4
887.383	328.37
887.7	327.46
888.017	301.7
888.334	322.04
888.651	333.34
888.967	310.06
889.284	322.49
889.6	315.71
889.917	322.27
890.233	320.68
890.55	334.92
890.866	315.71
891.182	322.72
891.498	318.65
891.815	335.6
892.131	332.43
892.447	328.59
892.763	308.48
893.079	344.64
893.395	322.94
893.71	325.66
894.026	316.84
894.342	314.81
894.657	312.77
894.973	310.06
895.289	335.82
895.604	325.88
895.92	330.63
896.235	315.49
896.55	314.13
896.865	305.09
897.181	324.07
897.496	326.11
897.811	319.33
898.126	322.04
898.441	313.68
898.756	320.46
899.071	316.62
899.386	325.88
899.7	319.1
900.015	329.95
900.33	326.11
900.644	339.44
900.959	333.79
901.273	334.02
901.588	336.5
901.902	317.75
902.216	312.55
902.531	323.17
902.845	327.92
903.159	316.39
903.473	328.14
903.787	340.57
904.101	336.73
904.415	330.17
904.729	321.59
905.042	342.38
905.356	334.24
905.67	339.21
905.984	334.47
906.297	332.21
906.611	333.11
906.924	323.85
907.237	333.79
907.551	345.32
907.864	315.26
908.177	304.41
908.491	335.15
908.804	312.55
909.117	321.14
909.43	322.94
909.743	329.72
910.056	314.36
910.368	302.38
910.681	322.27
910.994	327.24
911.307	325.66
911.619	343.96
911.932	304.41
912.244	333.56
912.557	310.06
912.869	327.46
913.181	301.7
913.494	316.62
913.806	319.33
914.118	324.75
914.43	302.83
914.742	333.56
915.054	342.6
915.366	301.25
915.678	316.84
915.99	326.79
916.302	328.59
916.613	324.53
916.925	335.82
917.236	326.56
917.548	330.63
917.859	315.26
918.171	312.1
918.482	334.02
918.794	327.01
919.105	301.25
919.416	319.55
919.727	315.03
920.038	330.63
920.349	321.59
920.66	323.17
920.971	320.91
921.282	304.41
921.593	315.26
921.903	330.63
922.214	324.3
922.525	312.32
922.835	329.05
923.146	319.78
923.456	351.64
923.767	333.56
924.077	334.69
924.387	330.63
924.697	332.89
925.008	314.58
925.318	298.54
925.628	312.77
925.938	305.09
926.248	311.42
926.558	323.85
926.867	300.12
927.177	301.7
927.487	325.43
927.796	342.38
928.106	324.53
928.416	322.94
928.725	328.82
929.034	301.48
929.344	311.19
929.653	334.69
929.962	317.75
930.271	337.18
930.581	302.38
930.89	299.22
931.199	317.52
931.508	342.38
931.817	328.37
932.125	324.07
932.434	338.76
932.743	330.85
933.051	335.15
933.36	347.8
933.669	304.19
933.977	314.36
934.286	319.33
934.594	342.38
934.902	310.29
935.21	343.73
935.519	336.28
935.827	309.16
936.135	309.16
936.443	342.6
936.751	315.94
937.059	330.63
937.367	345.54
937.674	319.1
937.982	322.04
938.29	325.2
938.597	317.97
938.905	308.03
939.213	310.06
939.52	335.6
939.827	313
940.135	326.79
940.442	313.23
940.749	312.77
941.056	327.69
941.363	314.36
941.67	317.29
941.977	348.48
942.284	330.63
942.591	325.66
942.898	329.27
943.205	320.46
943.511	327.24
943.818	318.88
944.125	329.27
944.431	331.3
944.738	310.51
945.044	326.79
945.35	314.81
945.657	310.51
945.963	337.41
946.269	326.33
946.575	332.21
946.881	315.03
947.187	302.61
947.493	310.29
947.799	317.75
948.105	339.21
948.41	328.14
948.716	333.56
949.022	319.55
949.327	325.2
949.633	308.48
949.938	294.02
950.244	319.78
950.549	318.2
950.854	311.64
951.16	318.2
951.465	338.31
951.77	322.04
952.075	326.56
952.38	299.67
952.685	313.9
952.99	335.15
953.294	324.53
953.599	315.71
953.904	329.27
954.209	312.55
954.513	319.55
954.818	309.16
955.122	294.47
955.426	322.72
955.731	313.45
956.035	327.92
956.339	315.71
956.643	317.07
956.948	336.28
957.252	313.45
957.556	332.21
957.86	336.05
958.163	332.89
958.467	323.17
958.771	317.52
959.075	322.49
959.378	314.58
959.682	298.31
959.985	313.23
960.289	312.77
960.592	315.94
960.896	322.04
961.199	300.8
961.502	311.19
961.805	330.4
962.108	297.41
962.411	314.81
962.714	312.77
963.017	317.07
963.32	317.29
963.623	305.77
963.926	338.54
964.228	308.03
964.531	310.74
964.833	313.23
965.136	330.4
965.438	340.34
965.741	323.62
966.043	315.94
966.345	333.79
966.648	288.59
966.95	321.81
967.252	314.58
967.554	320.68
967.856	335.15
968.158	318.88
968.46	321.59
968.761	319.33
969.063	324.53
969.365	315.03
969.666	307.58
969.968	326.11
970.269	304.41
970.571	327.92
970.872	322.49
971.174	314.13
971.475	334.02
971.776	322.04
972.077	302.61
972.378	329.05
972.679	320.01
972.98	326.11
973.281	321.14
973.582	329.05
973.883	329.72
974.183	337.18
974.484	333.79
974.785	322.94
975.085	325.88
975.386	324.53
975.686	301.25
975.986	315.71
976.287	316.84
976.587	330.63
976.887	319.78
977.187	309.61
977.487	315.49
977.787	324.3
978.087	317.52
978.387	327.24
978.687	317.07
978.987	324.07
979.286	340.12
979.586	340.34
979.885	324.3
980.185	323.17
980.484	309.16
980.784	322.94
981.083	320.23
981.382	319.1
981.682	306.45
981.981	315.71
982.28	336.73
982.579	327.01
982.878	309.16
983.177	310.51
983.475	333.11
983.774	305.54
984.073	304.86
984.372	318.2
984.67	329.27
984.969	324.53
985.267	322.72
985.566	302.61
985.864	336.05
986.162	318.88
986.461	329.72
986.759	312.55
987.057	327.24
987.355	329.5
987.653	314.36
987.951	321.81
988.249	341.47
988.547	322.27
988.844	316.39
989.142	340.12
989.44	329.27
989.737	316.84
990.035	312.55
990.332	329.5
990.63	299.89
990.927	310.97
991.224	323.4
991.521	327.92
991.819	322.72
992.116	336.28
992.413	305.77
992.71	296.73
993.006	314.58
993.303	310.06
993.6	327.01
993.897	318.88
994.193	328.59
994.49	326.33
994.787	326.56
995.083	333.79
995.379	311.87
995.676	316.39
995.972	332.43
996.268	304.64
996.565	324.53
996.861	295.83
997.157	334.24
997.453	313.9
997.749	326.56
998.044	319.55
998.34	303.73
998.636	327.01
998.932	316.39
999.227	310.29
999.523	317.75
999.818	323.85
1000.114	329.05
1000.409	304.41
1000.704	318.65
1001	305.77
1001.295	304.19
1001.59	329.27
1001.885	316.84
1002.18	322.49
1002.475	325.88
1002.77	310.97
1003.065	318.2
1003.359	314.13
1003.654	318.88
1003.949	302.15
1004.243	326.79
1004.538	326.56
1004.832	327.92
1005.127	322.72
1005.421	298.31
1005.715	322.04
1006.009	307.58
1006.304	322.49
1006.598	318.42
1006.892	320.68
1007.186	312.55
1007.48	331.08
1007.773	306.67
1008.067	327.92
1008.361	313.45
1008.655	325.2
1008.948	315.71
1009.242	309.16
1009.535	311.19
1009.829	326.79
1010.122	305.77
1010.415	317.07
1010.708	311.87
1011.001	334.92
1011.295	296.5
1011.588	290.18
1011.881	319.33
1012.173	316.39
1012.466	304.86
1012.759	318.42
1013.052	329.05
1013.344	315.94
1013.637	323.62
1013.93	336.73
1014.222	324.07
1014.514	294.7
1014.807	313.68
1015.099	325.43
1015.391	322.27
1015.683	331.53
1015.976	303.28
1016.268	312.1
1016.56	312.55
1016.851	323.62
1017.143	315.94
1017.435	304.86
1017.727	327.46
1018.018	317.29
1018.31	324.3
1018.602	316.84
1018.893	312.1
1019.185	332.21
1019.476	323.62
1019.767	322.49
1020.058	300.35
1020.35	310.97
1020.641	329.95
1020.932	318.2
1021.223	302.83
1021.514	282.49
1021.804	315.94
1022.095	343.73
1022.386	314.58
1022.677	324.75
1022.967	317.29
1023.258	314.58
1023.548	313.45
1023.839	329.95
1024.129	323.4
1024.419	324.07
1024.709	310.97
1025	320.23
1025.29	317.52
1025.58	318.42
1025.87	324.53
1026.16	327.24
1026.449	315.71
1026.739	310.06
1027.029	330.17
1027.319	303.06
1027.608	315.49
1027.898	301.93
1028.187	305.09
1028.477	303.51
1028.766	338.08
1029.055	347.8
1029.344	308.93
1029.634	333.11
1029.923	315.94
1030.212	291.53
1030.501	321.59
1030.79	311.19
1031.078	328.59
1031.367	307.35
1031.656	317.52
1031.945	304.41
1032.233	300.35
1032.522	305.77
1032.81	309.61
1033.099	295.15
1033.387	317.52
1033.675	325.88
1033.963	322.72
1034.251	321.14
1034.54	322.04
1034.828	330.17
1035.116	323.17
1035.403	317.52
1035.691	323.17
1035.979	323.62
1036.267	317.07
1036.554	308.48
1036.842	319.33
1037.129	295.83
1037.417	315.94
1037.704	316.16
1037.992	319.1
1038.279	293.11
1038.566	323.4
1038.853	323.4
1039.14	323.4
