Data from orange_diffuse_book_FLMS001491_00046.txt Node
Date: Wed Feb 08 15:29:37 GMT 2017
User: dcchb
Spectrometer: FLMS00149
Trigger mode: 0
Integration Time (sec): 2.000000E-2
Scans to average: 10
Electric dark correction enabled: true
Nonlinearity correction enabled: false
Boxcar width: 0
XAxis mode: Wavelengths
Number of Pixels in Spectrum: 2048
>>>>>Begin Spectral Data<<<<<
341.393	-19.82
341.776	-19.82
342.16	-19.82
342.543	-49.19
342.927	-56.43
343.31	-74.5
343.693	-79.93
344.077	-60.94
344.46	-64.33
344.843	-64.33
345.226	-34.05
345.61	-56.2
345.993	0.3
346.376	5.04
346.759	26.51
347.142	23.57
347.525	32.16
347.908	52.27
348.291	68.09
348.674	104.25
349.057	122.1
349.44	128.43
349.823	148.09
350.206	163.91
350.588	208.43
350.971	231.7
351.354	255.66
351.737	264.92
352.119	286.84
352.502	271.93
352.884	300.63
353.267	311.47
353.65	313.73
354.032	339.72
354.414	317.58
354.797	327.29
355.179	317.58
355.562	321.42
355.944	352.83
356.326	343.79
356.709	345.37
357.091	344.02
357.473	367.07
357.855	362.55
358.238	348.31
358.62	361.19
359.002	330.68
359.384	379.04
359.766	363.22
360.148	354.19
360.53	366.84
360.912	336.56
361.294	351.93
361.676	362.09
362.057	342.21
362.439	353.51
362.821	342.21
363.203	346.5
363.584	357.35
363.966	342.66
364.348	349.44
364.729	338.37
365.111	329.33
365.493	344.02
365.874	341.76
366.256	338.37
366.637	342.66
367.019	306.28
367.4	333.62
367.781	319.84
368.163	319.16
368.544	329.78
368.925	323
369.306	334.3
369.688	333.85
370.069	329.1
370.45	348.08
370.831	326.39
371.212	328.88
371.593	330.91
371.974	351.25
372.355	339.72
372.736	339.04
373.117	326.16
373.498	322.77
373.879	343.34
374.26	335.43
374.641	334.3
375.021	327.07
375.402	335.88
375.783	334.98
376.163	354.41
376.544	345.82
376.925	360.29
377.305	335.2
377.686	342.66
378.066	336.11
378.447	340.85
378.827	345.37
379.208	349.44
379.588	325.94
379.968	373.17
380.349	352.83
380.729	346.95
381.109	347.41
381.489	379.72
381.87	368.42
382.25	375.2
382.63	375.65
383.01	351.25
383.39	360.51
383.77	351.02
384.15	355.32
384.53	361.64
384.91	380.85
385.29	371.36
385.67	362.09
386.049	377.24
386.429	372.94
386.809	360.29
387.189	368.2
387.568	374.75
387.948	376.78
388.328	362.09
388.707	377.46
389.087	374.75
389.466	399.38
389.846	378.37
390.225	371.59
390.605	385.15
390.984	385.82
391.363	390.34
391.743	393.28
392.122	377.46
392.501	392.15
392.881	381.08
393.26	384.92
393.639	390.12
394.018	386.28
394.397	384.02
394.776	399.16
395.155	405.26
395.534	419.27
395.913	411.13
396.292	404.58
396.671	416.78
397.05	410.68
397.429	403.68
397.808	412.72
398.186	406.16
398.565	406.16
398.944	425.37
399.323	421.3
399.701	414.97
400.08	417.01
400.458	438.03
400.837	413.85
401.215	450
401.594	398.25
401.972	426.73
402.351	413.62
402.729	445.03
403.107	426.95
403.486	429.66
403.864	440.06
404.242	434.41
404.62	456.1
404.999	447.97
405.377	446.84
405.755	458.14
406.133	445.03
406.511	434.18
406.889	466.05
407.267	468.08
407.645	463.79
408.023	447.06
408.401	464.24
408.779	448.65
409.156	472.37
409.534	463.56
409.912	478.48
410.29	478.25
410.667	499.94
411.045	490.91
411.422	476.44
411.8	475.99
412.178	494.29
412.555	488.19
412.933	495.42
413.31	497.68
413.687	499.04
414.065	493.16
414.442	528.42
414.819	504.69
415.197	507.18
415.574	527.29
415.951	522.54
416.328	525.03
416.705	529.32
417.082	543.33
417.46	549.43
417.837	528.87
418.214	515.09
418.591	548.08
418.967	535.2
419.344	561.41
419.721	539.04
420.098	532.71
420.475	549.66
420.852	566.16
421.228	565.71
421.605	581.3
421.982	570.23
422.358	576.55
422.735	558.02
423.111	570
423.488	587.85
423.864	591.24
424.241	590.34
424.617	612.48
424.994	588.98
425.37	592.82
425.746	584.69
426.123	621.3
426.499	620.17
426.875	634.86
427.251	630.79
427.627	627.4
428.003	625.82
428.379	634.18
428.756	625.36
429.132	624.91
429.507	669.66
429.883	648.42
430.259	639.38
430.635	674.18
431.011	649.55
431.387	685.7
431.763	682.76
432.138	683.89
432.514	705.36
432.89	692.93
433.265	699.94
433.641	715.08
434.016	720.5
434.392	735.87
434.767	726.83
435.143	733.38
435.518	735.19
435.894	741.52
436.269	754.18
436.644	752.59
437.02	769.77
437.395	767.73
437.77	778.81
438.145	778.13
438.52	796.21
438.895	784.91
439.271	798.69
439.646	800.05
440.021	800.28
440.395	806.15
440.77	805.47
441.145	854.74
441.52	833.04
441.895	829.43
442.27	854.51
442.645	822.65
443.019	845.02
443.394	832.14
443.769	857
444.143	831.69
444.518	870.33
444.892	845.7
445.267	842.08
445.641	867.62
446.016	868.97
446.39	890.44
446.764	894.28
447.139	866.04
447.513	885.47
447.887	875.08
448.262	898.8
448.636	912.14
449.01	879.82
449.384	893.61
449.758	922.98
450.132	914.17
450.506	891.8
450.88	924.57
451.254	937.9
451.628	927.5
452.002	951.23
452.376	972.25
452.75	935.64
453.123	970.21
453.497	962.98
453.871	962.98
454.244	961.4
454.618	1000.95
454.992	1000.5
455.365	1011.12
455.739	1027.16
456.112	1034.17
456.486	1027.84
456.859	1046.6
457.232	1029.65
457.606	1041.85
457.979	1042.08
458.352	1070.1
458.725	1064.22
459.099	1075.3
459.472	1101.96
459.845	1093.15
460.218	1114.39
460.591	1119.36
460.964	1108.97
461.337	1134.28
461.71	1154.39
462.083	1152.13
462.456	1152.13
462.829	1158.68
463.201	1169.53
463.574	1184.45
463.947	1182.19
464.32	1193.71
464.692	1204.78
465.065	1226.03
465.438	1224.22
465.81	1247.27
466.183	1241.39
466.555	1258.79
466.928	1259.25
467.3	1264.22
467.672	1284.56
468.045	1279.36
468.417	1316.65
468.789	1308.06
469.161	1339.92
469.534	1370.2
469.906	1374.05
470.278	1369.07
470.65	1373.59
471.022	1405.23
471.394	1411.56
471.766	1434.16
472.138	1419.47
472.51	1444.1
472.882	1491.33
473.253	1483.2
473.625	1519.58
473.997	1513.48
474.369	1534.27
474.74	1572.01
475.112	1589.63
475.484	1623.53
475.855	1630.08
476.227	1625.79
476.598	1633.7
476.97	1681.61
477.341	1703.75
477.713	1713.92
478.084	1736.3
478.455	1779.91
478.827	1783.07
479.198	1807.71
479.569	1843.41
479.94	1854.26
480.311	1895.16
480.682	1930.64
481.053	1967.02
481.424	2011.09
481.795	1999.34
482.166	2044.08
482.537	2055.38
482.908	2070.75
483.279	2099.45
483.65	2107.59
484.021	2158.66
484.391	2212.22
484.762	2244.98
485.133	2249.28
485.503	2301.93
485.874	2295.15
486.244	2359.1
486.615	2364.3
486.985	2368.14
487.356	2441.36
487.726	2483.62
488.097	2502.15
488.467	2526.56
488.837	2570.17
489.207	2606.1
489.578	2654.92
489.948	2682.26
490.318	2719.1
490.688	2732.43
491.058	2776.27
491.428	2817.62
491.798	2873.22
492.168	2889.03
492.538	2934.68
492.908	2985.08
493.278	2991.18
493.648	2994.34
494.017	3010.39
494.387	3081.8
494.757	3117.5
495.126	3148.46
495.496	3142.81
495.866	3209.7
496.235	3229.82
496.605	3283.15
496.974	3314.79
497.344	3339.87
497.713	3400.89
498.082	3405.4
498.452	3440.66
498.821	3397.04
499.19	3484.95
499.559	3503.48
499.928	3543.03
500.298	3583.25
500.667	3608.79
501.036	3618.96
501.405	3668.45
501.774	3649.01
502.143	3762.46
502.512	3740.09
502.88	3779.41
503.249	3795.68
503.618	3833.87
503.987	3865.05
504.356	3863.25
504.724	3924.49
505.093	3910.48
505.462	3976.01
505.83	3976.01
506.199	3996.35
506.567	4086.97
506.936	4083.58
507.304	4132.17
507.672	4145.27
508.041	4190.92
508.409	4221.43
508.777	4250.13
509.145	4315.66
509.514	4283.8
509.882	4282.22
510.25	4346.62
510.618	4437.92
510.986	4373.29
511.354	4447.86
511.722	4477.69
512.09	4512.49
512.458	4518.82
512.826	4541.42
513.193	4552.72
513.561	4622.32
513.929	4601.31
514.297	4714.3
514.664	4710
515.032	4721.53
515.4	4771.02
515.767	4810.11
516.135	4810.79
516.502	4782.32
516.869	4891.47
517.237	4922.2
517.604	4942.99
517.972	5007.17
518.339	5018.24
518.706	5051.01
519.073	5070.22
519.44	5159.93
519.808	5153.61
520.175	5144.57
520.542	5200.61
520.909	5287.84
521.276	5295.98
521.643	5282.42
522.009	5373.94
522.376	5382.08
522.743	5383.21
523.11	5458.23
523.477	5475.18
523.843	5531.68
524.21	5596.31
524.577	5643.54
524.943	5663.88
525.31	5676.76
525.676	5688.06
526.043	5790.88
526.409	5769.86
526.776	5829.75
527.142	5892.35
527.508	5883.31
527.874	5932.8
528.241	5973.7
528.607	6006.47
528.973	6052.11
529.339	6091.44
529.705	6142.06
530.071	6189.74
530.437	6187.93
530.803	6246.91
531.169	6233.58
531.535	6268.61
531.901	6293.24
532.267	6301.37
532.632	6388.15
532.998	6365.1
533.364	6430.86
533.73	6433.8
534.095	6481.48
534.461	6500.92
534.826	6530.07
535.192	6595.6
535.557	6608.48
535.923	6643.74
536.288	6629.27
536.653	6684.64
537.019	6685.32
537.384	6717.18
537.749	6766.22
538.114	6757.86
538.479	6737.97
538.845	6775.26
539.21	6874.69
539.575	6863.17
539.94	6909.72
540.305	6939.78
540.67	7005.54
541.034	7055.93
541.399	7023.16
541.764	7063.16
542.129	7011.41
542.494	7160.79
542.858	7144.06
543.223	7127.11
543.587	7232.2
543.952	7207.56
544.316	7232.87
544.681	7244.17
545.045	7312.19
545.41	7335.92
545.774	7402.81
546.138	7358.97
546.503	7394.45
546.867	7444.62
547.231	7529.82
547.595	7535.92
547.959	7549.7
548.324	7618.63
548.688	7617.27
549.052	7688.91
549.416	7714.22
549.779	7753.54
550.143	7786.53
550.507	7847.1
550.871	7910.6
551.235	7884.84
551.599	8002.35
551.962	8014.32
552.326	8054.32
552.689	8148.56
553.053	8093.42
553.417	8202.57
553.78	8250.48
554.143	8194.21
554.507	8305.39
554.87	8334.31
555.234	8414.99
555.597	8405.5
555.96	8527.3
556.323	8550.35
556.686	8603.91
557.05	8716.9
557.413	8712.61
557.776	8723.46
558.139	8860.63
558.502	8817.69
558.865	8919.16
559.228	9025.37
559.59	9016.78
559.953	9159.15
560.316	9205.93
560.679	9270.79
561.041	9366.83
561.404	9366.38
561.767	9476.88
562.129	9465.36
562.492	9661.74
562.854	9699.25
563.217	9765.69
563.579	9834.39
563.941	9952.13
564.304	9996.19
564.666	10112.12
565.028	10156.19
565.39	10192.57
565.753	10383.53
566.115	10468.72
566.477	10545.33
566.839	10630.98
567.201	10812.44
567.563	10870.29
567.925	11033.23
568.287	11016.28
568.648	11124.52
569.01	11299.21
569.372	11394.8
569.734	11509.6
570.095	11655.13
570.457	11864.62
570.819	11863.04
571.18	12091.96
571.542	12180.77
571.903	12348.22
572.265	12556.35
572.626	12707.99
572.987	12767.19
573.349	12957.02
573.71	13147.3
574.071	13385.48
574.432	13579.37
574.794	13760.61
575.155	13993.37
575.516	13998.57
575.877	14299.13
576.238	14570.76
576.599	14650.98
576.96	14859.79
577.32	15099.33
577.681	15435.37
578.042	15638.08
578.403	15836.94
578.763	16050.95
579.124	16363.48
579.485	16671.27
579.845	16826.75
580.206	17195.55
580.566	17446.39
580.927	17732.71
581.287	18116.66
581.648	18332.47
582.008	18747.83
582.368	19047.48
582.728	19369.28
583.089	19592.1
583.449	19787.57
583.809	20304.62
584.169	20600.21
584.529	20904.83
584.889	21440.41
585.249	21670.01
585.609	21941.64
585.969	22485.13
586.329	22791.11
586.688	23186.58
587.048	23470.87
587.408	23829.27
587.768	24341.58
588.127	24766.65
588.487	25127.32
588.846	25678.04
589.206	25852.27
589.565	26416.1
589.925	26888.18
590.284	27133.82
590.643	27627.14
591.003	28169.95
591.362	28571.97
591.721	28868.46
592.08	29337.6
592.44	29857.59
592.799	30326.28
593.158	30711.81
593.517	31216.65
593.876	31712.23
594.235	32137.98
594.593	32514.47
594.952	33086.88
595.311	33428.57
595.67	34052.06
596.029	34501.08
596.387	34833.73
596.746	35437.1
597.104	35645.01
597.463	36170.42
597.822	36697.41
598.18	37033.22
598.538	37388.47
598.897	38085.17
599.255	38121.33
599.613	39019.61
599.972	39207.18
600.33	39574.62
600.688	39847.61
601.046	40369.18
601.404	40895.04
601.762	41172.32
602.12	41761.68
602.478	42057.27
602.836	42428.33
603.194	42697.25
603.552	43000.3
603.91	43172.95
604.268	43859.93
604.625	43854.28
604.983	44587.6
605.341	44594.6
605.698	45150.52
606.056	45461.02
606.413	45647.91
606.771	46177.39
607.128	46395.23
607.485	46499.41
607.843	46678.17
608.2	47134.2
608.557	47510.91
608.914	47491.03
609.272	48008.75
609.629	48171.23
609.986	48485.35
610.343	48488.74
610.7	48940.48
611.057	49042.62
611.414	49184.77
611.771	49416.62
612.127	49680.57
612.484	49759.67
612.841	50014.35
613.198	49964.41
613.554	50160.33
613.911	50501.79
614.267	50602.58
614.624	50661.11
614.98	50889.35
615.337	51025.85
615.693	51181.32
616.05	51220.19
616.406	51459.28
616.762	51403.92
617.118	51517.59
617.475	51659.5
617.831	51811.82
618.187	51782.44
618.543	51969.55
618.899	52281.41
619.255	52222.2
619.611	52273.05
619.967	52486.83
620.323	52562.53
620.678	52472.82
621.034	52476.2
621.39	52518.92
621.746	52527.5
622.101	52964.33
622.457	52707.61
622.812	52871.45
623.168	52995.74
623.523	52981.5
623.879	53116.64
624.234	52958
624.589	53093.82
624.945	53238.67
625.3	53264.88
625.655	53267.37
626.01	53251.33
626.365	53334.94
626.72	53302.85
627.075	53395.95
627.43	53363.64
627.785	53327.93
628.14	53364.32
628.495	53470.08
628.85	53462.62
629.205	53404.32
629.559	53509.85
629.914	53432.56
630.269	53510.53
630.623	53502.17
630.978	53484.77
631.332	53535.16
631.687	53615.84
632.041	53489.74
632.396	53609.51
632.75	53471.88
633.104	53506.23
633.459	53409.97
633.813	53471.88
634.167	53463.75
634.521	53435.05
634.875	53528.83
635.229	53506.01
635.583	53359.57
635.937	53357.99
636.291	53397.08
636.645	53380.59
636.999	53308.95
637.352	53424.88
637.706	53272.34
638.06	53345.33
638.413	53284.32
638.767	53252.46
639.121	53299.01
639.474	53139.46
639.828	53219.24
640.181	53245.22
640.534	53249.29
640.888	53170.65
641.241	53040.03
641.594	53141.95
641.947	53185.34
642.301	53101.95
642.654	53207.49
643.007	53189.63
643.36	53176.75
643.713	53180.37
644.066	53264.88
644.419	52965.91
644.771	52805.91
645.124	52536.99
645.477	52568.18
645.83	52399.14
646.182	52243.44
646.535	52204.12
646.888	52226.49
647.24	52108.53
647.593	52348.98
647.945	52228.98
648.298	52097.46
648.65	52005.48
649.002	51946.05
649.355	52104.92
649.707	51925.03
650.059	52175.65
650.411	52466.71
650.763	52486.83
651.115	52862.41
651.467	52819.7
651.819	52793.71
652.171	52730.44
652.523	52692.02
652.875	52739.47
653.227	52606.37
653.578	52819.25
653.93	52668.06
654.282	52667.61
654.633	52543.55
654.985	52526.6
655.337	52627.84
655.688	52601.17
656.039	52734.5
656.391	52434.62
656.742	52543.1
657.094	52588.52
657.445	52665.13
657.796	52647.95
658.147	52521.18
658.498	52608.63
658.849	52565.02
659.2	52504.68
659.551	52458.58
659.902	52614.05
660.253	52579.03
660.604	52566.6
660.955	52496.32
661.306	52511.68
661.656	52445.92
662.007	52475.98
662.358	52421.97
662.708	52400.27
663.059	52468.07
663.409	52207.96
663.76	52464
664.11	52405.02
664.461	52404.57
664.811	52495.19
665.161	52437.79
665.511	52236.21
665.862	52342.42
666.212	52437.34
666.562	52523.89
666.912	52376.09
667.262	52311.24
667.612	52304.68
667.962	52416.77
668.312	52270.11
668.662	52432.14
669.011	52245.7
669.361	52191.92
669.711	52290
670.06	52221.52
670.41	52206.38
670.76	52124.8
671.109	52198.92
671.459	52144.91
671.808	52103.56
672.157	52172.03
672.507	52000.29
672.856	51971.59
673.205	52072.37
673.554	52152.6
673.904	51833.51
674.253	52079.15
674.602	52001.87
674.951	51553.29
675.3	51399.62
675.649	51872.83
675.998	51751.7
676.346	51824.92
676.695	51949.44
677.044	51741.76
677.393	51714.87
677.741	51770.01
678.09	51758.48
678.438	51696.34
678.787	51741.31
679.135	51686.17
679.484	51505.83
679.832	51640.29
680.181	51419.96
680.529	51518.49
680.877	51535.44
681.225	51383.8
681.573	51527.76
681.922	51313.75
682.27	51353.3
682.618	51240.98
682.966	51168.44
683.314	51247.08
683.661	51204.37
684.009	50911.05
684.357	50946.98
684.705	50860.43
685.053	50963.25
685.4	50902.91
685.748	50667.89
686.095	50700.43
686.443	50594.45
686.79	50491.17
687.138	50644.61
687.485	50608.46
687.832	50377.73
688.18	50328.92
688.527	50254.34
688.874	50213.67
689.221	50045.31
689.568	50052.54
689.915	50004.18
690.262	49991.98
690.609	49848.7
690.956	49678.54
691.303	49510.41
691.65	49469.5
691.997	49528.49
692.344	49276.74
692.69	49239.91
693.037	49281.03
693.383	48938.22
693.73	49021.61
694.077	48954.26
694.423	48918.78
694.769	48786.13
695.116	48699.58
695.462	48624.55
695.808	48461.17
696.155	48498.23
696.501	48240.38
696.847	48317.44
697.193	47878.59
697.539	48194.51
697.885	47951.58
698.231	47783.45
698.577	47700.51
698.923	47572.61
699.269	47411.93
699.614	47207.64
699.96	47289.45
700.306	47225.72
700.651	47036.57
700.997	46938.27
701.342	46849.23
701.688	46878.61
702.033	46575.8
702.379	46573.08
702.724	46572.41
703.069	46560.88
703.415	46202.02
703.76	46115.92
704.105	46039.31
704.45	45988.24
704.795	45848.13
705.14	45684.75
705.485	45685.65
705.83	45466.45
706.175	45608.14
706.52	45345.77
706.865	45239.79
707.209	45107.59
707.554	45041.6
707.899	45073.01
708.243	44642.51
708.588	44848.83
708.932	44640.93
709.277	44494.72
709.621	44623.3
709.966	44305.57
710.31	44411.56
710.654	43922.31
710.998	44049.31
711.342	44104.9
711.687	44037.1
712.031	43696.32
712.375	43627.85
712.719	43836.66
713.063	43672.14
713.407	43861.52
713.75	43459.27
714.094	43388.53
714.438	43337.24
714.782	43160.52
715.125	43239.84
715.469	43199.16
715.812	43038.26
716.156	42878.04
716.499	42893.18
716.843	42998.94
717.186	42523.02
717.53	42776.57
717.873	42910.81
718.216	42705.61
718.559	42406.41
718.902	42284.61
719.246	42317.83
719.589	42275.8
719.932	42032.41
720.275	42090.72
720.617	42187.44
720.96	42068.79
721.303	41864.51
721.646	42041.45
721.989	41776.37
722.331	41906.54
722.674	41751.52
723.016	41862.92
723.359	41666.77
723.701	41647.34
724.044	41496.61
724.386	41351.53
724.729	41469.26
725.071	41530.96
725.413	41393.56
725.755	41263.84
726.097	41020.69
726.439	40966.23
726.782	40970.07
727.124	41257.06
727.465	40831.77
727.807	41079.22
728.149	40868.15
728.491	40696.85
728.833	40840.13
729.175	40683.52
729.516	40680.36
729.858	40628.38
730.199	40539.57
730.541	40488.95
730.882	40526.01
731.224	40575.27
731.565	40290.08
731.906	40348.39
732.248	40404.21
732.589	40203.53
732.93	40127.15
733.271	40135.06
733.612	40271.33
733.953	39950.66
734.294	39902.52
734.635	39976.65
734.976	40058.23
735.317	39741.4
735.658	39811
735.999	39760.83
736.339	39736.2
736.68	39855.75
737.021	39609.88
737.361	39501.86
737.702	39826.37
738.042	39601.74
738.383	39617.11
738.723	39652.59
739.063	39418.02
739.404	39455.08
739.744	39340.05
740.084	39201.3
740.424	39245.59
740.764	39163.79
741.104	39378.7
741.444	39138.48
741.784	39043.11
742.124	39116.56
742.464	39044.24
742.804	39008.31
743.143	38921.08
743.483	38811.03
743.823	38792.27
744.162	38534.88
744.502	38675.44
744.841	38587.53
745.181	38758.6
745.52	38566.51
745.86	38489.68
746.199	38497.14
746.538	38391.38
746.877	38566.74
747.216	38422.56
747.556	38333.07
747.895	38408.1
748.234	38122.68
748.573	38036.58
748.911	38216.24
749.25	38089.69
749.589	37992.52
749.928	37904.61
750.267	38038.17
750.605	37871.17
750.944	37941.9
751.283	37955
751.621	37818.29
751.96	37517.05
752.298	37627.33
752.636	37634.11
752.975	37484.96
753.313	37202.71
753.651	37587.78
753.989	37298.98
754.327	37124.07
754.666	37029.38
755.004	37078.64
755.342	37276.15
755.679	36975.82
756.017	36888.37
756.355	36916.16
756.693	36640.69
757.031	36764.75
757.368	36627.81
757.706	36494.7
758.044	36287.03
758.381	36367.48
758.719	36333.8
759.056	36349.62
759.394	36159.35
759.731	35941.5
760.068	35858.56
760.405	35810.43
760.743	35652.47
761.08	35749.19
761.417	35567.95
761.754	35553.26
762.091	35364.11
762.428	35378.12
762.765	35077.57
763.102	35096.1
763.438	35009.09
763.775	34835.76
764.112	34825.82
764.449	34822.66
764.785	34721.64
765.122	34564.36
765.458	34263.8
765.795	34422.89
766.131	34329.79
766.467	34177.7
766.804	34016.35
767.14	33870.59
767.476	33898.39
767.812	33674.89
768.148	33871.72
768.485	33582.24
768.821	33332.08
769.157	33236.26
769.492	33174.11
769.828	33252.3
770.164	32843.95
770.5	32858.64
770.836	32691.19
771.171	32719.89
771.507	32612.32
771.842	32317.41
772.178	32295.27
772.513	32320.58
772.849	32174.59
773.184	32063.18
773.519	31993.58
773.855	31827.93
774.19	31778.22
774.525	31705.23
774.86	31723.76
775.195	31537.32
775.53	31408.96
775.865	31177.1
776.2	30920.39
776.535	30735.76
776.87	30804.91
777.205	30718.36
777.539	30513.84
777.874	30611.47
778.209	30341.87
778.543	30261.42
778.878	30093.97
779.212	30079.51
779.547	29968.1
779.881	30030.02
780.215	29778.95
780.55	29800.87
780.884	29578.5
781.218	29547.99
781.552	29573.53
781.886	29364.95
782.22	29222.81
782.554	29185.07
782.888	28922.7
783.222	28752.76
783.556	28676.6
783.889	28715.25
784.223	28518.64
784.557	28442.94
784.89	28395.93
785.224	28280.68
785.557	28109.39
785.891	28123.62
786.224	27980.58
786.558	27905.33
786.891	27729.29
787.224	27546.01
787.557	27545.79
787.891	27501.95
788.224	27420.59
788.557	27421.5
788.89	27352.35
789.223	27177.66
789.556	26984.67
789.888	26975.63
790.221	26877.56
790.554	26686.6
790.887	26731.35
791.219	26643.21
791.552	26522.54
791.884	26417.23
792.217	26281.87
792.549	26111.47
792.882	26104.02
793.214	26009.33
793.546	26090.46
793.879	25690.24
794.211	25604.37
794.543	25814.53
794.875	25701.99
795.207	25693.18
795.539	25552.39
795.871	25461.32
796.203	25328.44
796.535	25198.05
796.867	25161.44
797.198	25105.4
797.53	25025.63
797.862	24850.04
798.193	24863.6
798.525	24678.29
798.856	24742.7
799.188	24490.05
799.519	24562.14
799.85	24413.89
800.182	24279.88
800.513	24278.53
800.844	24063.17
801.175	24189.72
801.506	24087.8
801.837	23917.18
802.168	23939.1
802.499	23893.23
802.83	23824.75
803.161	23629.73
803.491	23637.19
803.822	23623.18
804.153	23546.57
804.483	23340.02
804.814	23245.11
805.145	23317.2
805.475	23315.84
805.805	23081.05
806.136	23147.03
806.466	23148.84
806.796	23029.75
807.126	22788.17
807.457	22895.97
807.787	22902.07
808.117	22657.33
808.447	22617.78
808.777	22754.5
809.107	22489.2
809.436	22512.02
809.766	22438.35
810.096	22412.14
810.426	22338.47
810.755	22354.74
811.085	22201.29
811.414	22180.05
811.744	21991.81
812.073	22032.49
812.403	21998.14
812.732	21857.12
813.061	21799.95
813.39	21706.17
813.719	21643.8
814.049	21772.15
814.378	21611.93
814.707	21559.73
815.036	21594.98
815.365	21395.21
815.693	21249.68
816.022	21230.7
816.351	21197.93
816.68	21082.23
817.008	21103.7
817.337	20996.58
817.665	20990.03
817.994	21000.42
818.322	20943.7
818.651	20812.63
818.979	20740.09
819.307	20875.91
819.636	20827.55
819.964	20618.96
820.292	20724.05
820.62	20649.7
820.948	20621.22
821.276	20594.78
821.604	20423.49
821.932	20594.56
822.259	20563.82
822.587	20591.17
822.915	20540.32
823.243	20526.76
823.57	20535.12
823.898	20583.94
824.225	20491.96
824.553	20411.74
824.88	20535.8
825.207	20518.85
825.535	20548
825.862	20573.09
826.189	20433.21
826.516	20597.72
826.843	20613.54
827.17	20569.7
827.497	20597.72
827.824	20524.73
828.151	20444.5
828.478	20463.94
828.805	20529.25
829.131	20461.23
829.458	20419.87
829.785	20330.16
830.111	20296.71
830.438	20426.88
830.764	20300.78
831.09	20454.67
831.417	20300.78
831.743	20380.78
832.069	20364.28
832.395	20324.06
832.722	20343.04
833.048	20248.13
833.374	20305.07
833.7	20345.98
834.026	20229.14
834.351	20308.01
834.677	20253.32
835.003	20261.23
835.329	20265.07
835.654	20160.67
835.98	20065.31
836.306	20197.73
836.631	20072.76
836.956	20069.6
837.282	20100.56
837.607	20020.79
837.932	19999.77
838.258	19962.94
838.583	19902.6
838.908	19674.36
839.233	19816.72
839.558	19788.02
839.883	19772.21
840.208	19732.66
840.533	19586.67
840.858	19666.9
841.182	19644.98
841.507	19687.24
841.832	19486.79
842.156	19531.99
842.481	19475.49
842.805	19381.93
843.13	19454.47
843.454	19317.3
843.778	19247.02
844.103	19169.74
844.427	19183.52
844.751	19286.12
845.075	19111.43
845.399	19087.48
845.723	19016.97
846.047	18938.1
846.371	18762.52
846.695	18898.56
847.019	18664.44
847.343	18612.69
847.666	18537.89
847.99	18464.9
848.313	18423.32
848.637	18351.23
848.96	18346.71
849.284	18283.21
849.607	18135.64
849.931	18088.41
850.254	18049.77
850.577	17851.58
850.9	17687.29
851.223	17616.56
851.546	17609.78
851.869	17563.9
852.192	17677.57
852.515	17480.74
852.838	17385.83
853.161	17417.01
853.483	17255.44
853.806	17147.42
854.129	17232.61
854.451	17057.25
854.774	17020.41
855.096	16963.24
855.419	16847.76
855.741	16861.77
856.063	16716.47
856.385	16771.38
856.708	16685.06
857.03	16618.84
857.352	16603.93
857.674	16527.09
857.996	16512.18
858.318	16456.14
858.64	16411.62
858.961	16334.78
859.283	16374.56
859.605	16163.71
859.926	16264.28
860.248	16234.22
860.57	16170.04
860.891	16085.07
861.212	16061.34
861.534	16017.73
861.855	16004.4
862.176	15977.73
862.498	15886.21
862.819	15953.32
863.14	15856.6
863.461	15844.85
863.782	15799.66
864.103	15908.13
864.424	15787.68
864.745	15866.32
865.065	15655.48
865.386	15604.86
865.707	15575.71
866.027	15646.66
866.348	15536.84
866.668	15490.74
866.989	15504.52
867.309	15489.38
867.63	15544.29
867.95	15504.3
868.27	15392.21
868.59	15399.67
868.91	15301.36
869.23	15281.7
869.55	15090.52
869.87	15263.17
870.19	15192.21
870.51	15246.68
870.83	15288.93
871.15	15154.25
871.469	15194.25
871.789	15195.6
872.109	15089.17
872.428	15007.59
872.748	15081.03
873.067	14993.12
873.386	14998.09
873.706	15022.73
874.025	14941.15
874.344	14877.19
874.663	14892.79
874.982	14880.58
875.301	14858.21
875.62	14823.41
875.939	14765.56
876.258	14792.9
876.577	14723.53
876.896	14758.55
877.214	14671.55
877.533	14703.41
877.852	14637.65
878.17	14634.94
878.489	14621.38
878.807	14604.88
879.125	14542.74
879.444	14565.79
879.762	14514.04
880.08	14473.81
880.398	14437.88
880.716	14369.64
881.034	14452.35
881.352	14432.69
881.67	14396.98
881.988	14389.97
882.306	14306.36
882.624	14287.6
882.941	14181.84
883.259	14130.77
883.577	14118.34
883.894	14151.11
884.212	14064.33
884.529	14076.08
884.846	14119.02
885.164	14075.86
885.481	13952.25
885.798	13981.62
886.115	13824.57
886.432	13825.02
886.75	13796.09
887.067	13832.02
887.383	13735.08
887.7	13762.42
888.017	13694.63
888.334	13768.3
888.651	13623.67
888.967	13579.6
889.284	13572.14
889.6	13514.07
889.917	13384.58
890.233	13376.44
890.55	13375.09
890.866	13387.06
891.182	13270.91
891.498	13251.7
891.815	13250.57
892.131	13172.61
892.447	13100.52
892.763	13148.43
893.079	13101.87
893.395	13037.92
893.71	12983.23
894.026	12995.89
894.342	12926.96
894.657	12872.05
894.973	12796.34
895.289	12764.48
895.604	12861.88
895.92	12718.38
896.235	12681.55
896.55	12643.35
896.865	12614.43
897.181	12547.76
897.496	12543.92
897.811	12420.08
898.126	12397.94
898.441	12378.28
898.756	12336.24
899.071	12325.62
899.386	12345.06
899.7	12169.47
900.015	12133.54
900.33	12008.79
900.644	12043.14
900.959	12150.26
901.273	11957.27
901.588	11889.25
901.902	11880.44
902.216	11867.78
902.531	11741.23
902.845	11762.02
903.159	11678.86
903.473	11620.56
903.787	11584.17
904.101	11553.89
904.415	11513.21
904.729	11522.71
905.042	11466.89
905.356	11437.96
905.67	11306.44
905.984	11325.65
906.297	11318.64
906.611	11256.5
906.924	11283.16
907.237	11209.49
907.551	11139.66
907.864	11075.71
908.177	11026
908.491	10952.1
908.804	10950.97
909.117	10945.09
909.43	10851.31
909.743	10824.87
910.056	10790.52
910.368	10666.23
910.681	10675.5
910.994	10625.33
911.307	10573.8
911.619	10525.22
911.932	10528.16
912.244	10423.3
912.557	10394.37
912.869	10377.65
913.181	10337.65
913.494	10265.56
913.806	10183.08
914.118	10195.96
914.43	10167.03
914.742	10119.8
915.054	10119.35
915.366	10018.11
915.678	10010.43
915.99	9876.2
916.302	9837.78
916.613	9783.99
916.925	9837.33
917.236	9826.25
917.548	9631
917.859	9716.88
918.171	9644.11
918.482	9644.56
918.794	9606.37
919.105	9554.85
919.416	9497.22
919.727	9485.7
920.038	9433.49
920.349	9304.46
920.66	9305.59
920.971	9321.86
921.282	9298.13
921.593	9204.12
921.903	9185.82
922.214	9150.11
922.525	9158.93
922.835	9154.86
923.146	9000.29
923.456	8957.35
923.767	8934.3
924.077	8928.65
924.387	8874.87
924.697	8845.04
925.008	8809.1
925.318	8744.02
925.628	8726.17
925.938	8699.05
926.248	8598.49
926.558	8617.47
926.867	8561.65
927.177	8563.01
927.487	8492.5
927.796	8410.02
928.106	8397.82
928.416	8328.89
928.725	8348.55
929.034	8314.88
929.344	8257.25
929.653	8256.12
929.962	8165.73
930.271	8147.43
930.581	8125.28
930.89	8091.16
931.199	8008
931.508	7975.91
931.817	8005.28
932.125	7932.97
932.434	7983.36
932.743	7848.45
933.051	7879.86
933.36	7774.78
933.669	7761.9
933.977	7711.96
934.286	7712.86
934.594	7665.41
934.902	7607.1
935.21	7558.52
935.519	7503.38
935.827	7503.15
936.135	7443.04
936.443	7450.72
936.751	7465.86
937.059	7399.42
937.367	7377.05
937.674	7323.49
937.982	7283.95
938.29	7283.49
938.597	7260.22
938.905	7181.12
939.213	7156.94
939.52	7153.55
939.827	7166.44
940.135	7084.18
940.442	7048.02
940.749	7034.91
941.056	7040.11
941.363	6968.02
941.67	6966.44
941.977	6892.09
942.284	6827.46
942.591	6808.71
942.898	6765.09
943.205	6756.05
943.511	6759.21
943.818	6701.82
944.125	6665.43
944.431	6713.34
944.738	6626.79
945.044	6622.5
945.35	6604.42
945.657	6518.77
945.963	6533.46
946.269	6491.43
946.575	6483.52
946.881	6435.83
947.187	6401.26
947.493	6359.9
947.799	6406.68
948.105	6294.82
948.41	6304.99
948.716	6285.56
949.022	6254.6
949.327	6250.53
949.633	6156.52
949.938	6172.34
950.244	6157.65
950.549	6080.14
950.854	6080.81
951.16	6052.34
951.465	6034.04
951.77	6020.93
952.075	6029.97
952.38	5955.39
952.685	5933.25
952.99	5904.32
953.294	5842.4
953.599	5806.25
953.904	5827.26
954.209	5765.34
954.513	5795.62
954.818	5758.56
955.122	5757.66
955.426	5719.47
955.731	5648.51
956.035	5680.37
956.339	5644.22
956.643	5648.96
956.948	5562.86
957.252	5561.73
957.556	5531.68
957.86	5493.94
958.163	5500.26
958.467	5477.44
958.771	5420.04
959.075	5421.17
959.378	5323.09
959.682	5418.91
959.985	5333.04
960.289	5332.59
960.592	5255.07
960.896	5255.98
961.199	5245.58
961.502	5191.57
961.805	5194.74
962.108	5156.55
962.411	5095.08
962.714	5105.7
963.017	5109.99
963.32	5143.21
963.623	5063.67
963.926	5022.76
964.228	4992.03
964.531	5001.07
964.833	4971.92
965.136	4914.97
965.438	4912.48
965.741	4858.02
966.043	4888.98
966.345	4819.38
966.648	4820.96
966.95	4788.87
967.252	4806.27
967.554	4771.92
967.856	4742.09
968.158	4726.73
968.46	4681.53
968.761	4658.25
969.063	4689.66
969.365	4621.64
969.666	4576
969.968	4557.69
970.269	4541.65
970.571	4557.46
970.872	4554.98
971.174	4516.11
971.475	4500.29
971.776	4461.87
972.077	4417.81
972.378	4435.43
972.679	4400.86
972.98	4401.99
973.281	4397.92
973.582	4373.29
973.883	4336.45
974.183	4321.76
974.484	4324.93
974.785	4280.86
975.085	4272.27
975.386	4277.02
975.686	4213.97
975.986	4225.95
976.287	4204.03
976.587	4148.44
976.887	4166.97
977.187	4111.37
977.487	4143.01
977.787	4060.53
978.087	4059.17
978.387	4059.4
978.687	4050.59
978.987	4035.22
979.286	4008.33
979.586	3987.54
979.885	3987.54
980.185	3941.44
980.484	3911.61
980.784	3917.26
981.083	3870.03
981.382	3854.66
981.682	3839.07
981.981	3829.8
982.28	3813.08
982.579	3807.43
982.878	3791.61
983.177	3795.45
983.475	3787.09
983.774	3725.4
984.073	3727.2
984.372	3736.47
984.67	3689.92
984.969	3672.06
985.267	3684.27
985.566	3647.66
985.864	3606.08
986.162	3587.77
986.461	3527.66
986.759	3569.47
987.057	3512.07
987.355	3520.88
987.653	3544.16
987.951	3491.28
988.249	3458.28
988.547	3456.02
988.844	3452.86
989.142	3428
989.44	3417.38
989.737	3440.66
990.035	3405.4
990.332	3401.56
990.63	3353.88
990.927	3362.47
991.224	3311.62
991.521	3317.72
991.819	3291.28
992.116	3294.9
992.413	3211.51
992.71	3265.07
993.006	3207.67
993.303	3213.77
993.6	3197.73
993.897	3172.19
994.193	3148.24
994.49	3124.28
994.787	3123.6
995.083	3112.08
995.379	3087.22
995.676	3068.24
995.972	3086.09
996.268	3087.22
996.565	3072.76
996.861	3022.14
997.157	3047
997.453	3009.93
997.749	3006.77
998.044	2942.59
998.34	2964.96
998.636	2914.57
998.932	2915.02
999.227	2895.14
999.523	2896.94
999.818	2882.03
1000.114	2835.93
1000.409	2805.42
1000.704	2814.69
1001	2809.04
1001.295	2792.31
1001.59	2802.48
1001.885	2760
1002.18	2729.04
1002.475	2727.68
1002.77	2724.29
1003.065	2740.11
1003.359	2672.09
1003.654	2671.86
1003.949	2663.73
1004.243	2659.66
1004.538	2636.16
1004.832	2620.57
1005.127	2586.44
1005.421	2571.53
1005.715	2582.15
1006.009	2553.9
1006.304	2534.47
1006.598	2485.65
1006.892	2510.74
1007.186	2523.62
1007.48	2488.59
1007.773	2464.41
1008.067	2472.55
1008.361	2445.2
1008.655	2425.09
1008.948	2398.65
1009.242	2424.64
1009.535	2343.51
1009.829	2355.94
1010.122	2336.05
1010.415	2357.75
1010.708	2336.73
1011.001	2320.69
1011.295	2296.06
1011.588	2278.2
1011.881	2250.63
1012.173	2248.83
1012.466	2253.8
1012.759	2210.86
1013.052	2211.09
1013.344	2187.13
1013.637	2217.64
1013.93	2181.71
1014.222	2161.37
1014.514	2150.75
1014.807	2128.6
1015.099	2112.78
1015.391	2128.83
1015.683	2090.41
1015.976	2100.35
1016.268	2067.36
1016.56	2041.82
1016.851	2031.2
1017.143	2033.01
1017.435	2007.02
1017.727	1993.24
1018.018	1990.07
1018.31	1955.5
1018.602	1975.16
1018.893	1949.17
1019.185	1957.76
1019.476	1954.82
1019.767	1915.5
1020.058	1862.39
1020.35	1896.74
1020.641	1873.69
1020.932	1863.3
1021.223	1865.78
1021.514	1844.54
1021.804	1820.59
1022.095	1805.67
1022.386	1809.74
1022.677	1816.29
1022.967	1766.8
1023.258	1759.35
1023.548	1797.31
1023.839	1713.25
1024.129	1742.17
1024.419	1685.22
1024.709	1683.87
1025	1700.14
1025.29	1658.78
1025.58	1649.52
1025.87	1675.73
1026.16	1659.69
1026.449	1603.87
1026.739	1615.4
1027.029	1601.84
1027.319	1579.01
1027.608	1610.88
1027.898	1575.62
1028.187	1577.88
1028.477	1581.72
1028.766	1546.02
1029.055	1543.53
1029.344	1534.72
1029.634	1519.58
1029.923	1502.18
1030.212	1495.62
1030.501	1469.18
1030.79	1483.2
1031.078	1480.48
1031.367	1476.42
1031.656	1430.09
1031.945	1445.68
1032.233	1428.96
1032.522	1422.18
1032.81	1437.55
1033.099	1376.76
1033.387	1379.7
1033.675	1367.94
1033.963	1346.7
1034.251	1326.36
1034.54	1346.93
1034.828	1349.19
1035.116	1321.17
1035.403	1311.9
1035.691	1311.9
1035.979	1307.61
1036.267	1279.58
1036.554	1272.35
1036.842	1277.78
1037.129	1254.5
1037.417	1238.91
1037.704	1252.24
1037.992	1223.99
1038.279	1248.63
1038.566	1222.86
1038.853	1222.86
1039.14	1222.86
