Data from orange_diffuse_book_FLMS001491_00063.txt Node
Date: Wed Feb 08 15:29:53 GMT 2017
User: dcchb
Spectrometer: FLMS00149
Trigger mode: 0
Integration Time (sec): 2.000000E-2
Scans to average: 10
Electric dark correction enabled: true
Nonlinearity correction enabled: false
Boxcar width: 0
XAxis mode: Wavelengths
Number of Pixels in Spectrum: 2048
>>>>>Begin Spectral Data<<<<<
341.393	-15.96
341.776	-15.96
342.16	-15.96
342.543	-68.61
342.927	-83.53
343.31	-87.6
343.693	-57.31
344.077	-55.96
344.46	-63.64
344.843	-55.06
345.226	-36.75
345.61	-7.6
345.993	-6.69
346.376	3.02
346.759	-2.63
347.142	25.17
347.525	39.63
347.908	50.48
348.291	76.47
348.674	80.53
349.057	97.94
349.44	124.15
349.823	135.45
350.206	174.32
350.588	199.85
350.971	224.26
351.354	251.15
351.737	236.01
352.119	247.99
352.502	255.67
352.884	306.29
353.267	302.68
353.65	311.94
354.032	307.2
354.414	303.58
354.797	319.4
355.179	345.61
355.562	322.34
355.944	328.44
356.326	350.81
356.709	337.7
357.091	362.11
357.473	351.04
357.855	338.61
358.238	350.81
358.62	351.04
359.002	355.78
359.384	343.13
359.766	346.52
360.148	351.04
360.53	356.69
360.912	343.35
361.294	351.71
361.676	334.77
362.057	355.33
362.439	347.42
362.821	345.16
363.203	318.27
363.584	345.61
363.966	326.4
364.348	346.06
364.729	334.99
365.111	334.77
365.493	318.27
365.874	330.92
366.256	332.96
366.637	337.03
367.019	343.35
367.4	329.79
367.781	330.7
368.163	325.27
368.544	319.17
368.925	333.86
369.306	335.22
369.688	325.5
370.069	333.18
370.45	323.69
370.831	332.28
371.212	316.69
371.593	350.58
371.974	327.53
372.355	330.02
372.736	341.77
373.117	319.62
373.498	332.73
373.879	337.7
374.26	329.79
374.641	316.23
375.021	329.57
375.402	334.99
375.783	328.89
376.163	346.06
376.544	340.64
376.925	351.26
377.305	326.18
377.686	347.87
378.066	337.93
378.447	354.43
378.827	347.65
379.208	346.06
379.588	344.03
379.968	348.1
380.349	358.04
380.729	342.22
381.109	340.41
381.489	347.65
381.87	365.95
382.25	360.98
382.63	342.22
383.01	359.85
383.39	355.56
383.77	363.92
384.15	366.85
384.53	361.66
384.91	364.82
385.29	363.01
385.67	333.86
386.049	362.34
386.429	362.11
386.809	359.4
387.189	363.47
387.568	345.16
387.948	353.3
388.328	372.28
388.707	387.87
389.087	372.28
389.466	361.43
389.846	381.77
390.225	385.16
390.605	380.64
390.984	379.96
391.363	382
391.743	384.03
392.122	363.69
392.501	396.46
392.881	380.19
393.26	363.24
393.639	374.31
394.018	383.8
394.397	391.49
394.776	388.55
395.155	407.76
395.534	396.46
395.913	414.09
396.292	424.93
396.671	404.59
397.05	417.7
397.429	411.6
397.808	405.72
398.186	416.8
398.565	412.28
398.944	408.21
399.323	422.45
399.701	417.93
400.08	410.02
400.458	416.12
400.837	417.02
401.215	430.36
401.594	422.45
401.972	438.72
402.351	404.82
402.729	441.66
403.107	416.34
403.486	425.16
403.864	428.77
404.242	444.37
404.62	432.84
404.999	441.88
405.377	427.42
405.755	438.49
406.133	427.64
406.511	459.06
406.889	437.59
407.267	450.24
407.645	451.15
408.023	442.56
408.401	458.15
408.779	447.76
409.156	480.3
409.534	461.77
409.912	505.16
410.29	478.94
410.667	472.39
411.045	485.5
411.422	471.94
411.8	476.68
412.178	487.76
412.555	512.39
412.933	492.05
413.31	511.48
413.687	494.08
414.065	513.52
414.442	512.61
414.819	519.62
415.197	520.98
415.574	501.54
415.951	520.3
416.328	530.01
416.705	544.25
417.082	535.21
417.46	517.59
417.837	535.89
418.214	528.21
418.591	539.51
418.967	549.67
419.344	561.43
419.721	550.13
420.098	553.29
420.475	552.16
420.852	539.73
421.228	559.84
421.605	584.48
421.982	584.93
422.358	555.55
422.735	574.53
423.111	592.16
423.488	589
423.864	590.35
424.241	615.21
424.617	640.75
424.994	618.37
425.37	603.23
425.746	604.36
426.123	608.43
426.499	620.18
426.875	635.55
427.251	613.4
427.627	626.06
428.003	639.62
428.379	640.29
428.756	630.58
429.132	645.27
429.507	673.51
429.883	664.93
430.259	671.03
430.635	675.77
431.011	680.52
431.387	679.61
431.763	692.72
432.138	697.69
432.514	701.76
432.89	690.69
433.265	718.03
433.641	710.12
434.016	718.26
434.392	752.83
434.767	747.18
435.143	738.82
435.518	746.05
435.894	756
436.269	741.53
436.644	753.06
437.02	778.6
437.395	756.68
437.77	789.22
438.145	780.86
438.52	798.03
438.895	800.29
439.271	794.19
439.646	805.71
440.021	823.57
440.395	823.79
440.77	821.53
441.145	798.71
441.52	834.64
441.895	820.4
442.27	846.84
442.645	835.09
443.019	829.22
443.394	858.37
443.769	832.83
444.143	834.87
444.518	859.5
444.892	842.1
445.267	867.63
445.641	856.11
446.016	878.93
446.39	876.22
446.764	903.11
447.139	877.8
447.513	894.07
447.887	888.42
448.262	872.83
448.636	883.23
449.01	914.64
449.384	915.99
449.758	922.77
450.132	925.71
450.506	924.81
450.88	916.44
451.254	907.18
451.628	928.42
452.002	943.11
452.376	939.72
452.75	952.38
453.123	952.38
453.497	959.61
453.871	970
454.244	977.23
454.618	995.99
454.992	984.69
455.365	1023.79
455.739	1029.66
456.112	1033.28
456.486	997.8
456.859	1021.3
457.232	1023.11
457.606	1059.04
457.979	1052.26
458.352	1041.41
458.725	1087.97
459.099	1092.26
459.472	1105.82
459.845	1090.9
460.218	1100.85
460.591	1109.43
460.964	1118.02
461.337	1125.03
461.71	1154.63
462.083	1147.4
462.456	1150.11
462.829	1149.89
463.201	1156.21
463.574	1170
463.947	1193.27
464.32	1181.52
464.692	1195.99
465.065	1221.75
465.438	1229.43
465.81	1224.01
466.183	1239.37
466.555	1264.23
466.928	1281.18
467.3	1293.61
467.672	1286.38
468.045	1295.87
468.417	1318.69
468.789	1299.26
469.161	1301.52
469.534	1341.52
469.906	1342.65
470.278	1354.4
470.65	1360.95
471.022	1405.7
471.394	1370.9
471.766	1415.87
472.138	1437.56
472.51	1449.31
472.882	1459.03
473.253	1479.14
473.625	1479.14
473.997	1513.49
474.369	1501.29
474.74	1531.57
475.112	1539.93
475.484	1562.3
475.855	1590.33
476.227	1610.44
476.598	1633.94
476.97	1642.08
477.341	1655.63
477.713	1716.2
478.084	1723.2
478.455	1769.3
478.827	1729.98
479.198	1787.61
479.569	1815.63
479.94	1878.91
480.311	1882.07
480.682	1868.96
481.053	1956.19
481.424	1935.63
481.795	1979.47
482.166	1989.64
482.537	2063.08
482.908	2080.26
483.279	2091.33
483.65	2118.67
484.021	2118.22
484.391	2148.05
484.762	2190.76
485.133	2171.78
485.503	2233.02
485.874	2280.02
486.244	2300.59
486.615	2367.48
486.985	2369.74
487.356	2421.26
487.726	2406.35
488.097	2479.12
488.467	2505.56
488.837	2546.23
489.207	2590.53
489.578	2630.98
489.948	2649.96
490.318	2656.06
490.688	2697.64
491.058	2712.1
491.428	2791.65
491.798	2804.76
492.168	2866.68
492.538	2936.96
492.908	2894.92
493.278	2995.26
493.648	2974.24
494.017	3049.5
494.387	3065.09
494.757	3089.27
495.126	3169.27
495.496	3124.3
495.866	3184.86
496.235	3231.41
496.605	3256.04
496.974	3289.94
497.344	3324.74
497.713	3363.61
498.082	3369.49
498.452	3479.54
498.821	3459.88
499.19	3492.87
499.559	3508.92
499.928	3530.61
500.298	3604.28
500.667	3662.81
501.036	3601.8
501.405	3669.14
501.774	3681.8
502.143	3723.6
502.512	3755.92
502.88	3752.3
503.249	3767.9
503.618	3837.95
503.987	3818.29
504.356	3900.1
504.724	3897.84
505.093	3919.53
505.462	3922.24
505.83	3992.07
506.199	4064.38
506.567	4093.08
506.936	4107.77
507.304	4150.26
507.672	4162.91
508.041	4202.01
508.409	4192.06
508.777	4197.04
509.145	4297.82
509.514	4302.8
509.882	4305.73
510.25	4335.79
510.618	4406.52
510.986	4408.33
511.354	4431.38
511.722	4516.58
512.09	4534.43
512.458	4495.33
512.826	4565.39
513.193	4587.31
513.561	4586.86
513.929	4664.37
514.297	4666.63
514.664	4710.24
515.032	4737.36
515.4	4807.87
515.767	4788.66
516.135	4826.17
516.502	4818.04
516.869	4924.7
517.237	4925.38
517.604	4920.86
517.972	4967.64
518.339	5029.78
518.706	5037.24
519.073	5107.07
519.44	5133.96
519.808	5153.4
520.175	5160.85
520.542	5234.75
520.909	5212.38
521.276	5234.98
521.643	5361.75
522.009	5332.15
522.376	5397.91
522.743	5422.09
523.11	5489.21
523.477	5532.14
523.843	5587.73
524.21	5580.5
524.577	5591.35
524.943	5682.87
525.31	5655.53
525.676	5761.74
526.043	5779.59
526.409	5793.15
526.776	5891
527.142	5862.53
527.508	5926.71
527.874	5982.98
528.241	5990.66
528.607	6019.14
528.973	6107.04
529.339	6064.78
529.705	6139.36
530.071	6158.79
530.437	6190.2
530.803	6182.97
531.169	6268.85
531.535	6267.72
531.901	6275.63
532.267	6350.43
532.632	6349.07
532.998	6358.34
533.364	6397.88
533.73	6454.83
534.095	6475.62
534.461	6483.98
534.826	6527.14
535.192	6570.31
535.557	6618.67
535.923	6658.44
536.288	6639.01
536.653	6675.62
537.019	6639.01
537.384	6695.28
537.749	6751.77
538.114	6807.59
538.479	6794.93
538.845	6860.92
539.21	6832
539.575	6872.22
539.94	6932.11
540.305	6991.09
540.67	6956.06
541.034	6984.08
541.399	7030.63
541.764	7058.66
542.129	7071.54
542.494	7127.13
542.858	7108.37
543.223	7196.28
543.587	7225.88
543.952	7214.36
544.316	7265.2
544.681	7269.72
545.045	7289.61
545.41	7319.21
545.774	7410.06
546.138	7366.9
546.503	7433.11
546.867	7457.06
547.231	7571.64
547.595	7590.62
547.959	7597.17
548.324	7614.12
548.688	7641.47
549.052	7617.29
549.416	7735.93
549.779	7731.18
550.143	7790.61
550.507	7885.53
550.871	7904.28
551.235	7860.44
551.599	7973.21
551.962	8057.27
552.326	8153.99
552.689	8093.66
553.053	8112.41
553.417	8135.92
553.78	8307.66
554.143	8265.86
554.507	8352.18
554.87	8379.75
555.234	8500.43
555.597	8444.61
555.96	8613.42
556.323	8581.78
556.686	8670.14
557.05	8698.16
557.413	8750.59
557.776	8795.33
558.139	8919.17
558.502	8930.25
558.865	8954.2
559.228	9071.03
559.59	9098.83
559.953	9120.3
560.316	9296.11
560.679	9310.12
561.041	9332.04
561.404	9519.16
561.767	9587.63
562.129	9590.79
562.492	9687.51
562.854	9735.87
563.217	9784.46
563.579	9909.88
563.941	9964.79
564.304	10169.08
564.666	10206.6
565.028	10371.34
565.39	10418.34
565.753	10503.09
566.115	10559.13
566.477	10661.05
566.839	10769.52
567.201	10893.13
567.563	11041.38
567.925	11134.71
568.287	11250.64
568.648	11296.51
569.01	11485.43
569.372	11615.15
569.734	11648.37
570.095	11847
570.457	12034.12
570.819	12019.88
571.18	12168.35
571.542	12451.51
571.903	12642.01
572.265	12800.88
572.626	12848.11
572.987	13113.41
573.349	13259.85
573.71	13480.63
574.071	13623.23
574.432	13828.65
574.794	14133.05
575.155	14261.18
575.516	14362.64
575.877	14667.04
576.238	14861.39
576.599	15112
576.96	15261.83
577.32	15512.45
577.681	15796.28
578.042	16013
578.403	16277.4
578.763	16578.86
579.124	16843.71
579.485	17213.19
579.845	17488.89
580.206	17803.01
580.566	18021.76
580.927	18342.43
581.287	18602.08
581.648	18944.67
582.008	19384.66
582.368	19565.67
582.728	19997.75
583.089	20266.67
583.449	20625.53
583.809	21038.63
584.169	21309.58
584.529	21693.75
584.889	22290.35
585.249	22503.9
585.609	22855.3
585.969	23360.15
586.329	23754.49
586.688	24143.18
587.048	24625.65
587.408	24901.58
587.768	25413.2
588.127	25814.55
588.487	26030.81
588.846	26757.8
589.206	27069.88
589.565	27445.01
589.925	27997.77
590.284	28365.21
590.643	28987.57
591.003	29394.57
591.362	29981.44
591.721	30336.24
592.08	30813.29
592.44	31413.95
592.799	31940.49
593.158	32302.06
593.517	32639
593.876	33214.8
594.235	33586.32
594.593	34230.15
594.952	34732.05
595.311	35014.08
595.67	35496.78
596.029	36385.12
596.387	36711.89
596.746	37165.44
597.104	37482.04
597.463	37980.33
597.822	38482.69
598.18	38755
598.538	39208.32
598.897	39923.55
599.255	40025.02
599.613	41001.72
599.972	41207.81
600.33	41639.22
600.688	41777.07
601.046	42401
601.404	42854.1
601.762	43233.75
602.12	43896.33
602.478	44067.63
602.836	44518.01
603.194	44682.07
603.552	45141.04
603.91	45333.58
604.268	45930.63
604.625	46082.71
604.983	46581.23
605.341	46615.36
605.698	47246.75
606.056	47412.17
606.413	47706.63
606.771	48114.3
607.128	48390
607.485	48459.6
607.843	48784.34
608.2	49084.44
608.557	49436.07
608.914	49489.18
609.272	49809.17
609.629	50191.53
609.986	50298.42
610.343	50360.57
610.7	50712.42
611.057	50853.44
611.414	50999.2
611.771	51194.22
612.127	51442.8
612.484	51481.67
612.841	51851.38
613.198	51748.1
613.554	51914.2
613.911	52250.91
614.267	52284.81
614.624	52416.33
614.98	52497.24
615.337	52765.03
615.693	52732.26
616.05	52969.09
616.406	53144.45
616.762	53153.04
617.118	53183.77
617.475	53336.54
617.831	53381.73
618.187	53503.54
618.543	53668.28
618.899	53858.78
619.255	53861.49
619.611	53849.74
619.967	54058.55
620.323	54114.37
620.678	54016.52
621.034	54051.54
621.39	54135.84
621.746	54221.26
622.101	54465.09
622.457	54286.79
622.812	54369.5
623.168	54469.16
623.523	54534.47
623.879	54586.45
624.234	54481.82
624.589	54648.37
624.945	54671.87
625.3	54692.66
625.655	54694.92
626.01	54758.87
626.365	54885.65
626.72	54844.74
627.075	54848.13
627.43	54906.21
627.785	54828.25
628.14	54951.86
628.495	55020.33
628.85	54955.02
629.205	54975.36
629.559	55157.73
629.914	55001.8
630.269	54981.92
630.623	55033.89
630.978	54952.54
631.332	55091.74
631.687	55238.18
632.041	54994.12
632.396	55077.73
632.75	54943.5
633.104	54992.09
633.459	54929.94
633.813	54958.64
634.167	55041.12
634.521	54967.68
634.875	54955.02
635.229	55008.36
635.583	54898.53
635.937	54857.85
636.291	54949.15
636.645	54904.4
636.999	54840.45
637.352	54927.68
637.706	54800
638.06	54946.89
638.413	54769.94
638.767	54776.72
639.121	54795.71
639.474	54658.31
639.828	54746.89
640.181	54680.91
640.534	54803.39
640.888	54630.96
641.241	54595.94
641.594	54652.66
641.947	54736.27
642.301	54665.31
642.654	54747.35
643.007	54768.36
643.36	54703.05
643.713	54595.49
644.066	54744.63
644.419	54575.6
644.771	54415.38
645.124	54137.87
645.477	54066.23
645.83	53913.7
646.182	53807.71
646.535	53779.91
646.888	53811.1
647.24	53740.82
647.593	53883.64
647.945	53822.62
648.298	53645.45
648.65	53635.28
649.002	53529.75
649.355	53728.39
649.707	53667.6
650.059	53773.59
650.411	54138.32
650.763	54109.17
651.115	54480.01
651.467	54326.11
651.819	54364.76
652.171	54289.96
652.523	54276.62
652.875	54179.45
653.227	54232.11
653.578	54433.23
653.93	54251.31
654.282	54201.6
654.633	54181.03
654.985	54148.94
655.337	54169.96
655.688	54190.3
656.039	54353.68
656.391	54028.95
656.742	54139.9
657.094	54115.27
657.445	54261.71
657.796	54122.96
658.147	54104.65
658.498	54112.79
658.849	54101.04
659.2	54164.99
659.551	54014.48
659.902	54154.59
660.253	54120.24
660.604	54151.2
660.955	53953.69
661.306	54094.48
661.656	54093.8
662.007	54056.06
662.358	54099.68
662.708	54040.25
663.059	54107.81
663.409	53907.82
663.76	54034.14
664.11	54103.75
664.461	54081.37
664.811	54100.81
665.161	54045.44
665.511	54023.07
665.862	54089.96
666.212	54116.63
666.562	54070.53
666.912	54052.45
667.262	54051.09
667.612	53946.69
667.962	53998.89
668.312	53867.59
668.662	54103.07
669.011	53947.82
669.361	53890.42
669.711	53844.09
670.06	53861.27
670.41	53728.39
670.76	53742.85
671.109	53827.37
671.459	53752.8
671.808	53730.42
672.157	53823.98
672.507	53683.64
672.856	53604.78
673.205	53707.37
673.554	53725.9
673.904	53575.63
674.253	53763.87
674.602	53588.05
674.951	53287.05
675.3	53065.13
675.649	53528.62
675.998	53548.28
676.346	53479.13
676.695	53641.39
677.044	53324.78
677.393	53394.61
677.741	53473.48
678.09	53335.18
678.438	53325.01
678.787	53411.79
679.135	53424.44
679.484	53157.56
679.832	53285.92
680.181	53151.91
680.529	53232.36
680.877	53152.81
681.225	53109.65
681.573	53225.35
681.922	53027.17
682.27	53011.35
682.618	52970.9
682.966	52952.59
683.314	52990.78
683.661	52868.98
684.009	52746.04
684.357	52715.08
684.705	52490.46
685.053	52689.55
685.4	52649.1
685.748	52559.83
686.095	52487.52
686.443	52275.77
686.79	52386.96
687.138	52357.58
687.485	52339.95
687.832	52223.57
688.18	52226.51
688.527	52086.85
688.874	52053.41
689.221	51957.14
689.568	51878.72
689.915	51793.98
690.262	51781.1
690.609	51697.03
690.956	51564.83
691.303	51616.81
691.65	51422.24
691.997	51363.03
692.344	51142.24
692.69	51142.02
693.037	51249.58
693.383	50978.18
693.73	50997.39
694.077	50826.09
694.423	50805.53
694.769	50770.28
695.116	50510.17
695.462	50640.11
695.808	50524.18
696.155	50428.36
696.501	50216.62
696.847	50215.04
697.193	49996.96
697.539	50166.68
697.885	49855.95
698.231	49659.57
698.577	49649.17
698.923	49657.08
699.269	49459.35
699.614	49293.25
699.96	49293.48
700.306	49309.75
700.651	49095.52
700.997	48864.56
701.342	48937.78
701.688	48899.36
702.033	48773.72
702.379	48696.66
702.724	48583.44
703.069	48659.82
703.415	48279.95
703.76	48241.75
704.105	48228.2
704.45	48131.02
704.795	47836.57
705.14	47762.9
705.485	47723.58
705.83	47589.34
706.175	47534.88
706.52	47496.91
706.865	47345.05
707.209	47283.81
707.554	47072.29
707.899	47107.32
708.243	46924.5
708.588	46861.45
708.932	46666.65
709.277	46724.96
709.621	46709.59
709.966	46321.13
710.31	46472.31
710.654	46079.1
710.998	46205.2
711.342	46309.15
711.687	46187.12
712.031	46049.95
712.375	45845.66
712.719	45970.4
713.063	45816.73
713.407	45803.4
713.75	45669.84
714.094	45606.57
714.438	45373.81
714.782	45358.44
715.125	45235.05
715.469	45384.88
715.812	45291.32
716.156	45026.7
716.499	45082.97
716.843	45115.28
717.186	44732.24
717.53	44938.56
717.873	44933.37
718.216	44712.36
718.559	44729.3
718.902	44430.33
719.246	44598.01
719.589	44374.51
719.932	44235.31
720.275	44226.27
720.617	44198.02
720.96	44096.1
721.303	44018.59
721.646	44111.69
721.989	43900.85
722.331	43958.02
722.674	43867.63
723.016	43817.24
723.359	43629.22
723.701	43724.81
724.044	43445.04
724.386	43392.84
724.729	43555.1
725.071	43459.28
725.413	43494.53
725.755	43300.42
726.097	43202.79
726.439	43106.97
726.782	43106.52
727.124	43315.78
727.465	43046.64
727.807	42935.9
728.149	42894.32
728.491	42749.92
728.833	43022.68
729.175	42773.88
729.516	42805.06
729.858	42701.11
730.199	42839.41
730.541	42621.11
730.882	42580.66
731.224	42587.67
731.565	42465.86
731.906	42504.5
732.248	42575.69
732.589	42220.9
732.93	42251.4
733.271	42217.73
733.612	42310.38
733.953	42354.23
734.294	42125.76
734.635	41983.39
734.976	42064.97
735.317	41827.23
735.658	41943.84
735.999	41860.68
736.339	41867.68
736.68	41861.13
737.021	41777.29
737.361	41639.67
737.702	41814.35
738.042	41700.01
738.383	41492.33
738.723	41632.66
739.063	41327.36
739.404	41535.72
739.744	41456.62
740.084	41446
740.424	41460.46
740.764	41249.4
741.104	41488.94
741.444	41189.06
741.784	41140.7
742.124	41166.46
742.464	41178.44
742.804	41071.55
743.143	40970.76
743.483	40989.06
743.823	40776.87
744.162	40884.21
744.502	41029.97
744.841	40736.19
745.181	40811.67
745.52	40595.4
745.86	40676.76
746.199	40527.15
746.538	40557.66
746.877	40552.46
747.216	40530.54
747.556	40411.68
747.895	40512.47
748.234	40314.5
748.573	40294.39
748.911	40299.14
749.25	40234.96
749.589	40008.52
749.928	40090.78
750.267	40160.16
750.605	39959.03
750.944	39898.47
751.283	39760.62
751.621	39812.37
751.96	39609.44
752.298	39748.42
752.636	39566.5
752.975	39454.87
753.313	39321.99
753.651	39593.62
753.989	39307.98
754.327	39183.46
754.666	38986.18
755.004	39223.69
755.342	39134.87
755.679	39098.04
756.017	38856.46
756.355	38891.94
756.693	38753.19
757.031	38933.3
757.368	38599.07
757.706	38548.22
758.044	38452.86
758.381	38549.58
758.719	38286.31
759.056	38385.06
759.394	38124.28
759.731	37951.86
760.068	37818.07
760.405	37711.86
760.743	37670.51
761.08	37764.74
761.417	37488.14
761.754	37628.93
762.091	37479.1
762.428	37251.53
762.765	37024.65
763.102	37163.85
763.438	36842.51
763.775	36799.12
764.112	36838.21
764.449	36939
764.785	36576.52
765.122	36476.87
765.458	36245.69
765.795	36262.63
766.131	36279.36
766.467	36042.75
766.804	35885.47
767.14	35807.73
767.476	35741.52
767.812	35622.2
768.148	35639.37
768.485	35396.44
768.821	35170.01
769.157	35270.8
769.492	35108.99
769.828	35031.48
770.164	34766.4
770.5	34633.3
770.836	34731.6
771.171	34615.45
771.507	34452.51
771.842	34137.49
772.178	34235.57
772.513	34160.99
772.849	34071.73
773.184	33946.76
773.519	33763.04
773.855	33835.35
774.19	33583.38
774.525	33509.71
774.86	33431.97
775.195	33328.47
775.53	33178.42
775.865	33043.28
776.2	32708.83
776.535	32531.21
776.87	32552.68
777.205	32494.6
777.539	32360.59
777.874	32298.44
778.209	32027.27
778.543	31996.31
778.878	31809.64
779.212	31938.68
779.547	31640.38
779.881	31689.42
780.215	31486.26
780.55	31484.68
780.884	31318.13
781.218	31229.77
781.552	31329.66
781.886	30928.09
782.22	30828.2
782.554	30796.34
782.888	30526.06
783.222	30368.33
783.556	30193.87
783.889	30156.35
784.223	30139.41
784.557	30069.58
784.89	29969.47
785.224	29913.42
785.557	29700.77
785.891	29672.75
786.224	29673.43
786.558	29386.66
786.891	29150.05
787.224	29146.66
787.557	29109.6
787.891	29043.39
788.224	28985.09
788.557	29145.53
788.89	28874.58
789.223	28723.17
789.556	28581.93
789.888	28603.85
790.221	28424.2
790.554	28157.08
790.887	28191.66
791.219	28056.52
791.552	28131.77
791.884	27965.68
792.217	27917.09
792.549	27765.46
792.882	27558.46
793.214	27535.18
793.546	27553.94
793.879	27360.95
794.211	27251.8
794.543	27311.91
794.875	27216.32
795.207	27175.19
795.539	27063.78
795.871	26964.35
796.203	26751.02
796.535	26600.97
796.867	26584.47
797.198	26445.27
797.53	26422.44
797.862	26410.01
798.193	26304.7
798.525	26147.65
798.856	26106.29
799.188	25864.49
799.519	25794.66
799.85	25683.93
800.182	25649.35
800.513	25697.26
800.844	25427.44
801.175	25526.42
801.506	25506.08
801.837	25364.84
802.168	25276.03
802.499	25190.38
802.83	25059.54
803.161	25020.44
803.491	24958.98
803.822	25095.7
804.153	24843.73
804.483	24641.7
804.814	24622.49
805.145	24645.54
805.475	24558.31
805.805	24394.7
806.136	24384.75
806.466	24397.86
806.796	24360.35
807.126	24116.06
807.457	24095.04
807.787	24118.32
808.117	24025.67
808.447	23932.79
808.777	23996.52
809.107	23976.4
809.436	23841.04
809.766	23844.43
810.096	23599.46
810.426	23588.17
810.755	23667.94
811.085	23545
811.414	23489.86
811.744	23168.06
812.073	23264.33
812.403	23229.3
812.732	23149.31
813.061	23080.38
813.39	22924
813.719	22931.23
814.049	23006.71
814.378	22913.83
814.707	22698.92
815.036	22738.02
815.365	22588.19
815.693	22426.84
816.022	22496.22
816.351	22375.32
816.68	22296.22
817.008	22409.44
817.337	22246.51
817.665	22207.86
817.994	22211.48
818.322	22163.57
818.651	21973.74
818.979	21973.52
819.307	22035.44
819.636	22029.79
819.964	21812.39
820.292	21923.35
820.62	21858.04
820.948	21785.73
821.276	21772.39
821.604	21703.02
821.932	21749.34
822.259	21794.77
822.587	21687.2
822.915	21701.89
823.243	21845.61
823.57	21656.69
823.898	21670.7
824.225	21682
824.553	21572.62
824.88	21687.2
825.207	21717.25
825.535	21660.08
825.862	21801.32
826.189	21641.55
826.516	21693.07
826.843	21788.66
827.17	21764.03
827.497	21771.04
827.824	21672.51
828.151	21842.9
828.478	21616.92
828.805	21745.28
829.131	21593.64
829.458	21673.19
829.785	21526.07
830.111	21532.85
830.438	21616.24
830.764	21608.56
831.09	21731.26
831.417	21511.61
831.743	21632.28
832.069	21568.33
832.395	21424.38
832.722	21600.42
833.048	21456.24
833.374	21524.49
833.7	21439.3
834.026	21379.64
834.351	21486.3
834.677	21470.71
835.003	21438.39
835.329	21363.14
835.654	21375.57
835.98	21241.79
836.306	21384.83
836.631	21203.6
836.956	21212.86
837.282	21320.65
837.607	21139.19
837.932	21039.53
838.258	21123.82
838.583	21081.56
838.908	20851.51
839.233	20961.79
839.558	20925.41
839.883	20876.82
840.208	20817.84
840.533	20856.94
840.858	20830.27
841.182	20818.52
841.507	20791.4
841.832	20700.11
842.156	20660.11
842.481	20709.6
842.805	20573.1
843.13	20421.47
843.454	20498.3
843.778	20279.78
844.103	20387.12
844.427	20374.01
844.751	20379.21
845.075	20230.97
845.399	20160.46
845.723	20042.5
846.047	20091.53
846.371	19907.36
846.695	19903.74
847.019	19739.9
847.343	19719.79
847.666	19677.76
847.99	19519.8
848.313	19543.53
848.637	19350.31
848.96	19345.34
849.284	19384.89
849.607	19196.19
849.931	19123.42
850.254	18962.98
850.577	18879.14
850.9	18791.23
851.223	18833.26
851.546	18712.14
851.869	18598.24
852.192	18717.78
852.515	18476.89
852.838	18404.8
853.161	18415.87
853.483	18266.95
853.806	18221.3
854.129	18163
854.451	18003.91
854.774	17983.11
855.096	17858.37
855.419	17895.43
855.741	17916.9
856.063	17745.38
856.385	17690.69
856.708	17593.52
857.03	17589.9
857.352	17537.25
857.674	17500.19
857.996	17424.94
858.318	17399.18
858.64	17344.71
858.961	17252.29
859.283	17275.11
859.605	17167.99
859.926	17214.77
860.248	16985.63
860.57	17043.7
860.891	17136.13
861.212	16967.32
861.534	17044.38
861.855	16935.46
862.176	16898.4
862.498	16820.66
862.819	16909.92
863.14	16815.69
863.461	16681
863.782	16695.24
864.103	16710.38
864.424	16706.54
864.745	16763.03
865.065	16599.2
865.386	16590.38
865.707	16515.13
866.027	16514.23
866.348	16448.01
866.668	16427.9
866.989	16443.72
867.309	16330.05
867.63	16406.21
867.95	16374.12
868.27	16281.24
868.59	16419.54
868.91	16284.63
869.23	16245.08
869.55	16108.36
869.87	16161.47
870.19	16017.52
870.51	16091.64
870.83	16119.66
871.15	15996.73
871.469	16069.72
871.789	16064.07
872.109	16046.89
872.428	15918.08
872.748	15949.5
873.067	15861.59
873.386	15904.53
873.706	15900.01
874.025	15813.68
874.344	15757.18
874.663	15719.22
874.982	15703.4
875.301	15714.25
875.62	15618.21
875.939	15623.4
876.258	15603.97
876.577	15593.35
876.896	15541.37
877.214	15452.79
877.533	15490.07
877.852	15471.32
878.17	15453.01
878.489	15443.75
878.807	15401.49
879.125	15365.33
879.444	15422.5
879.762	15274.26
880.08	15252.79
880.398	15117.65
880.716	15193.36
881.034	15148.84
881.352	15260.47
881.67	15156.97
881.988	15203.98
882.306	15114.94
882.624	15048.28
882.941	14992.01
883.259	15046.24
883.577	15016.41
883.894	14865.68
884.212	14827.72
884.529	14925.79
884.846	14854.16
885.164	14795.18
885.481	14732.8
885.798	14681.73
886.115	14681.05
886.432	14654.84
886.75	14632.92
887.067	14695.52
887.383	14548.4
887.7	14549.98
888.017	14451
888.334	14428.86
888.651	14440.38
888.967	14381.85
889.284	14266.6
889.6	14259.14
889.917	14104.8
890.233	14134.18
890.55	14134.85
890.866	14165.59
891.182	14064.35
891.498	13955.88
891.815	13969.89
892.131	13963.33
892.447	13863.9
892.763	13863.22
893.079	13815.77
893.395	13848.76
893.71	13742.32
894.026	13667.3
894.342	13679.27
894.657	13545.49
894.973	13546.62
895.289	13554.53
895.604	13474.98
895.92	13420.07
896.235	13353.18
896.55	13351.82
896.865	13360.86
897.181	13286.29
897.496	13196.35
897.811	13140.08
898.126	13075.9
898.441	13028.22
898.756	12969.01
899.071	12954.77
899.386	12914.55
899.7	12866.41
900.015	12761.33
900.33	12696.7
900.644	12720.2
900.959	12625.74
901.273	12653.99
901.588	12599.98
901.902	12450.15
902.216	12451.06
902.531	12467.78
902.845	12484.05
903.159	12331.51
903.473	12270.04
903.787	12264.4
904.101	12160.44
904.415	12272.08
904.729	12150.73
905.042	12087
905.356	12094.46
905.67	11973.1
905.984	12034.8
906.297	11948.7
906.611	11842.26
906.924	11925.87
907.237	11807.46
907.551	11749.83
907.864	11704.41
908.177	11621.02
908.491	11671.42
908.804	11593
909.117	11527.24
909.43	11507.13
909.743	11363.63
910.056	11324.53
910.368	11295.61
910.681	11298.09
910.994	11252.67
911.307	11214.71
911.619	11054.26
911.932	11113.92
912.244	11043.64
912.557	10976.75
912.869	10944.43
913.181	10925.9
913.494	10861.72
913.806	10755.73
914.118	10708.05
914.43	10703.98
914.742	10642.74
915.054	10593.7
915.366	10641.16
915.678	10533.14
915.99	10455.4
916.302	10398.91
916.613	10322.07
916.925	10354.16
917.236	10350.32
917.548	10307.84
917.859	10302.86
918.171	10165.47
918.482	10146.71
918.794	10158.69
919.105	10098.8
919.416	10026.04
919.727	10021.29
920.038	9996.66
920.349	9938.35
920.66	9845.25
920.971	9793.5
921.282	9765.48
921.593	9685.48
921.903	9627.63
922.214	9662.43
922.525	9617.01
922.835	9496.56
923.146	9456.79
923.456	9464.02
923.767	9437.8
924.077	9356.67
924.387	9437.58
924.697	9299.28
925.008	9280.07
925.318	9287.07
925.628	9189.67
925.938	9127.53
926.248	9037.36
926.558	9008.89
926.867	9073.07
927.177	8990.81
927.487	8957.59
927.796	8855.9
928.106	8909.23
928.416	8802.57
928.725	8800.53
929.034	8707.43
929.344	8706.3
929.653	8729.12
929.962	8628.33
930.271	8620.88
930.581	8522.12
930.89	8507.43
931.199	8484.83
931.508	8442.8
931.817	8463.14
932.125	8399.64
932.434	8394.44
932.743	8330.71
933.051	8254.78
933.36	8274.44
933.669	8143.15
933.977	8091.85
934.286	8136.82
934.594	8088.01
934.902	8091.17
935.21	7983.83
935.519	7985.41
935.827	7988.12
936.135	7922.36
936.443	7837.39
936.751	7807.56
937.059	7777.28
937.367	7764.63
937.674	7792.87
937.982	7703.16
938.29	7633.78
938.597	7688.7
938.905	7555.14
939.213	7554.91
939.52	7520.11
939.827	7480.57
940.135	7437.63
940.442	7405.31
940.749	7443.5
941.056	7360.34
941.363	7289.16
941.67	7343.17
941.977	7213.91
942.284	7136.39
942.591	7137.3
942.898	7142.72
943.205	7118.09
943.511	7149.73
943.818	7097.53
944.125	7025.66
944.431	7020.92
944.738	7016.17
945.044	6924.65
945.35	6876.74
945.657	6799
945.963	6859.57
946.269	6787.93
946.575	6812.34
946.881	6808.49
947.187	6719.23
947.493	6728.27
947.799	6699.34
948.105	6685.78
948.41	6587.26
948.716	6648.27
949.022	6565.56
949.327	6586.58
949.633	6470.42
949.938	6474.49
950.244	6471.78
950.549	6384.78
950.854	6380.48
951.16	6318.34
951.465	6297.55
951.77	6328.51
952.075	6302.97
952.38	6235.4
952.685	6244.21
952.99	6151.79
953.294	6150.88
953.599	6121.28
953.904	6066.14
954.209	6081.05
954.513	6087.16
954.818	6032.69
955.122	6000.15
955.426	5947.72
955.731	5986.14
956.035	5928.97
956.339	5901.4
956.643	5865.24
956.948	5858.69
957.252	5834.96
957.556	5803.55
957.86	5806.94
958.163	5751.12
958.467	5742.08
958.771	5719.03
959.075	5652.82
959.378	5630.67
959.682	5612.59
959.985	5608.3
960.289	5545.48
960.592	5515.42
960.896	5471.58
961.199	5485.14
961.502	5449.21
961.805	5435.2
962.108	5424.57
962.411	5333.96
962.714	5355.88
963.017	5329.66
963.32	5384.8
963.623	5317.01
963.926	5331.24
964.228	5203.11
964.531	5243.79
964.833	5200.85
965.136	5167.63
965.438	5161.08
965.741	5161.08
966.043	5131.7
966.345	5095.09
966.648	5076.11
966.95	5073.4
967.252	4993.17
967.554	5002.44
967.856	4968.09
968.158	4890.8
968.46	4945.49
968.761	4920.86
969.063	4842.22
969.365	4837.47
969.666	4828.66
969.968	4776.91
970.269	4844.48
970.571	4766.51
970.872	4762.67
971.174	4742.78
971.475	4772.39
971.776	4713.63
972.077	4648.32
972.378	4695.33
972.679	4674.31
972.98	4660.98
973.281	4591.38
973.582	4592.28
973.883	4572.62
974.183	4549.34
974.484	4489.23
974.785	4501.21
975.085	4472.06
975.386	4446.52
975.686	4442.91
975.986	4423.25
976.287	4391.16
976.587	4319.07
976.887	4306.86
977.187	4307.32
977.487	4296.47
977.787	4306.19
978.087	4250.59
978.387	4274.32
978.687	4251.05
978.987	4270.25
979.286	4163.37
979.586	4175.12
979.885	4133.08
980.185	4137.83
980.484	4103.03
980.784	4080.2
981.083	4077.94
981.382	4030.94
981.682	4054.89
981.981	4037.94
982.28	3992.52
982.579	3936.48
982.878	3995.01
983.177	3912.52
983.475	3920.89
983.774	3893.77
984.073	3930.6
984.372	3863.03
984.67	3876.59
984.969	3854.22
985.267	3837.05
985.566	3810.61
985.864	3788.91
986.162	3780.55
986.461	3758.63
986.759	3759.53
987.057	3679.08
987.355	3692.42
987.653	3693.55
987.951	3679.54
988.249	3692.42
988.547	3618.07
988.844	3619.2
989.142	3598.41
989.44	3587.11
989.737	3591.63
990.035	3532.2
990.332	3526.55
990.63	3539.2
990.927	3499.88
991.224	3452.42
991.521	3451.52
991.819	3432.31
992.116	3449.71
992.413	3425.98
992.71	3365.19
993.006	3367
993.303	3347.57
993.6	3345.99
993.897	3300.34
994.193	3310.05
994.49	3308.7
994.787	3270.28
995.083	3236.84
995.379	3236.16
995.676	3273.45
995.972	3242.49
996.268	3188.93
996.565	3186.44
996.861	3156.39
997.157	3133.79
997.453	3090.17
997.749	3103.96
998.044	3036.62
998.34	3085.65
998.636	3081.81
998.932	3024.64
999.227	3005.66
999.523	3006.33
999.818	2997.52
1000.114	2993.45
1000.409	2973.11
1000.704	2953.91
1001	2938.76
1001.295	2924.3
1001.59	2924.08
1001.885	2882.27
1002.18	2870.29
1002.475	2833.91
1002.77	2823.06
1003.065	2822.16
1003.359	2796.4
1003.654	2793.91
1003.949	2764.53
1004.243	2740.58
1004.538	2722.95
1004.832	2708.94
1005.127	2694.93
1005.421	2700.58
1005.715	2706.68
1006.009	2657.42
1006.304	2660.13
1006.598	2619.45
1006.892	2623.29
1007.186	2606.12
1007.48	2623.07
1007.773	2563.41
1008.067	2613.58
1008.361	2537.19
1008.655	2544.65
1008.948	2522.5
1009.242	2473.92
1009.535	2473.69
1009.829	2462.17
1010.122	2459.23
1010.415	2466.91
1010.708	2409.06
1011.001	2407.93
1011.295	2376.29
1011.588	2387.14
1011.881	2358.44
1012.173	2322.96
1012.466	2351.44
1012.759	2319.57
1013.052	2350.53
1013.344	2275.28
1013.637	2296.97
1013.93	2263.75
1014.222	2271.66
1014.514	2226.92
1014.807	2204.55
1015.099	2193.47
1015.391	2200.25
1015.683	2176.98
1015.976	2172.01
1016.268	2160.93
1016.56	2134.27
1016.851	2139.46
1017.143	2124.32
1017.435	2093.59
1017.727	2105.79
1018.018	2066.47
1018.31	2060.14
1018.602	2066.25
1018.893	2025.57
1019.185	2015.62
1019.476	1964.1
1019.767	1974.27
1020.058	1960.49
1020.35	1967.26
1020.641	1950.99
1020.932	1926.14
1021.223	1960.94
1021.514	1894.05
1021.804	1898.57
1022.095	1865.57
1022.386	1868.06
1022.677	1861.96
1022.967	1838.23
1023.258	1834.39
1023.548	1843.43
1023.839	1778.34
1024.129	1791.68
1024.419	1819.02
1024.709	1750.77
1025	1762.3
1025.29	1762.3
1025.58	1705.8
1025.87	1693.83
1026.16	1689.98
1026.449	1701.96
1026.739	1649.08
1027.029	1660.15
1027.319	1657.22
1027.608	1651.79
1027.898	1628.29
1028.187	1634.62
1028.477	1622.87
1028.766	1617.67
1029.055	1606.6
1029.344	1576.09
1029.634	1590.1
1029.923	1541.51
1030.212	1541.29
1030.501	1556.2
1030.79	1538.8
1031.078	1519.37
1031.367	1504.9
1031.656	1506.94
1031.945	1486.6
1032.233	1491.12
1032.522	1445.7
1032.81	1452.7
1033.099	1429.88
1033.387	1432.59
1033.675	1426.71
1033.963	1407.73
1034.251	1403.89
1034.54	1352.59
1034.828	1398.24
1035.116	1378.13
1035.403	1350.78
1035.691	1345.13
1035.979	1333.61
1036.267	1330.45
1036.554	1301.97
1036.842	1330.9
1037.129	1307.85
1037.417	1303.55
1037.704	1279.6
1037.992	1271.92
1038.279	1285.47
1038.566	1242.09
1038.853	1242.09
1039.14	1242.09
