Data from orange_diffuse_book_FLMS001491_00089.txt Node
Date: Wed Feb 08 15:30:10 GMT 2017
User: dcchb
Spectrometer: FLMS00149
Trigger mode: 0
Integration Time (sec): 2.000000E-2
Scans to average: 10
Electric dark correction enabled: true
Nonlinearity correction enabled: false
Boxcar width: 0
XAxis mode: Wavelengths
Number of Pixels in Spectrum: 2048
>>>>>Begin Spectral Data<<<<<
341.393	-30.9
341.776	-30.9
342.16	-30.9
342.543	-53.73
342.927	-31.36
343.31	-67.06
343.693	-58.25
344.077	-72.71
344.46	-64.12
344.843	-51.47
345.226	-27.74
345.61	-32.03
345.993	-24.8
346.376	-9.43
346.759	26.27
347.142	3.9
347.525	57.23
347.908	47.51
348.291	75.31
348.674	90.22
349.057	107.17
349.44	127.28
349.823	160.05
350.206	177.45
350.588	190.79
350.971	212.48
351.354	260.61
351.737	264
352.119	253.38
352.502	274.85
352.884	274.85
353.267	299.94
353.65	299.71
354.032	291.8
354.414	308.07
354.797	309.2
355.179	335.19
355.562	329.54
355.944	346.26
356.326	349.65
356.709	359.6
357.091	362.31
357.473	342.42
357.855	366.83
358.238	350.78
358.62	315.53
359.002	342.65
359.384	351.01
359.766	367.73
360.148	335.64
360.53	372.93
360.912	345.36
361.294	355.98
361.676	349.2
362.057	327.51
362.439	342.65
362.821	335.19
363.203	340.16
363.584	341.52
363.966	324.57
364.348	346.49
364.729	343.78
365.111	342.65
365.493	334.96
365.874	343.78
366.256	320.27
366.637	337.22
367.019	313.72
367.4	325.02
367.781	319.6
368.163	339.48
368.544	322.76
368.925	298.35
369.306	327.28
369.688	333.83
370.069	321.86
370.45	334.96
370.831	328.18
371.212	323.44
371.593	327.51
371.974	318.69
372.355	329.54
372.736	313.95
373.117	334.28
373.498	319.37
373.879	317.79
374.26	322.99
374.641	319.14
375.021	318.01
375.402	328.64
375.783	335.41
376.163	330.67
376.544	350.56
376.925	323.44
377.305	351.46
377.686	329.31
378.066	337.22
378.447	339.71
378.827	342.42
379.208	345.36
379.588	354.85
379.968	353.04
380.349	342.87
380.729	357.56
381.109	346.04
381.489	359.37
381.87	361.18
382.25	336.77
382.63	355.98
383.01	344
383.39	342.19
383.77	353.49
384.15	343.78
384.53	357.79
384.91	365.24
385.29	361.63
385.67	369.99
386.049	350.1
386.429	351.69
386.809	366.37
387.189	375.41
387.568	374.51
387.948	360.27
388.328	370.22
388.707	381.52
389.087	372.25
389.466	379.71
389.846	386.94
390.225	369.09
390.605	375.64
390.984	372.02
391.363	361.85
391.743	386.26
392.122	397.79
392.501	391.01
392.881	378.8
393.26	391.68
393.639	389.2
394.018	404.79
394.397	389.2
394.776	382.65
395.155	378.58
395.534	388.07
395.913	405.47
396.292	395.98
396.671	403.21
397.05	405.02
397.429	401.85
397.808	394.85
398.186	393.49
398.565	409.76
398.944	394.85
399.323	405.7
399.701	404.34
400.08	408.63
400.458	414.73
400.837	409.99
401.215	416.32
401.594	437.56
401.972	413.38
402.351	400.5
402.729	428.07
403.107	422.64
403.486	394.4
403.864	412.7
404.242	420.84
404.62	420.38
404.999	426.71
405.377	438.24
405.755	444.11
406.133	444.34
406.511	442.53
406.889	422.64
407.267	436.43
407.645	448.63
408.023	462.64
408.401	460.61
408.779	446.37
409.156	463.77
409.534	446.37
409.912	464.68
410.29	466.03
410.667	482.53
411.045	480.27
411.422	463.77
411.8	480.5
412.178	486.15
412.555	496.09
412.933	503.55
413.31	502.87
413.687	498.12
414.065	510.78
414.442	488.41
414.819	511.68
415.197	503.09
415.574	498.12
415.951	499.03
416.328	522.08
416.705	525.24
417.082	532.7
417.46	515.3
417.837	524.34
418.214	529.76
418.591	550.32
418.967	537.22
419.344	544.67
419.721	526.82
420.098	542.42
420.475	530.44
420.852	554.62
421.228	561.17
421.605	580.15
421.982	550.55
422.358	591.91
422.735	575.63
423.111	591.91
423.488	577.44
423.864	584.45
424.241	581.96
424.617	594.17
424.994	617.22
425.37	579.02
425.746	595.07
426.123	578.8
426.499	605.69
426.875	626.03
427.251	604.33
427.627	597.33
428.003	633.03
428.379	622.41
428.756	631.9
429.132	649.53
429.507	651.34
429.883	653.37
430.259	670.55
430.635	673.71
431.011	660.6
431.387	669.42
431.763	674.16
432.138	655.86
432.514	698.12
432.89	702.18
433.265	682.07
433.641	708.29
434.016	689.53
434.392	708.06
434.767	717.55
435.143	728.62
435.518	721.85
435.894	736.76
436.269	736.76
436.644	746.48
437.02	776.53
437.395	765.69
437.77	769.08
438.145	792.8
438.52	782.41
438.895	757.55
439.271	801.62
439.646	783.76
440.021	791.67
440.395	799.13
440.77	787.38
441.145	791.67
441.52	862.18
441.895	803.2
442.27	795.29
442.645	818.57
443.019	823.99
443.394	833.03
443.769	838.9
444.143	827.61
444.518	848.62
444.892	841.16
445.267	847.72
445.641	845.01
446.016	861.73
446.39	878.9
446.764	851.33
447.139	872.35
447.513	852.46
447.887	878
448.262	865.57
448.636	889.52
449.01	900.15
449.384	896.53
449.758	894.95
450.132	904.21
450.506	880.71
450.88	922.52
451.254	917.77
451.628	918.9
452.002	932.69
452.376	918.68
452.75	932.01
453.123	925
453.497	955.06
453.871	936.76
454.244	983.08
454.618	965.68
454.992	1003.65
455.365	959.13
455.739	998.9
456.112	983.76
456.486	1025.34
456.859	1018.11
457.232	1025.79
457.606	1027.83
457.979	1047.49
458.352	1036.19
458.725	1063.31
459.099	1053.81
459.472	1065.11
459.845	1054.94
460.218	1090.2
460.591	1096.75
460.964	1086.36
461.337	1096.3
461.71	1108.28
462.083	1139.46
462.456	1146.24
462.829	1147.14
463.201	1132.91
463.574	1151.89
463.947	1193.7
464.32	1211.55
464.692	1188.27
465.065	1195.05
465.438	1224.66
465.81	1235.73
466.183	1223.3
466.555	1251.77
466.928	1245.67
467.3	1268.05
467.672	1284.77
468.045	1287.25
468.417	1275.5
468.789	1298.33
469.161	1311.66
469.534	1322.51
469.906	1343.3
470.278	1353.24
470.65	1373.13
471.022	1376.97
471.394	1412
471.766	1384.43
472.138	1398.21
472.51	1434.37
472.882	1457.19
473.253	1457.42
473.625	1487.7
473.997	1519.79
474.369	1527.7
474.74	1496.29
475.112	1543.74
475.484	1560.02
475.855	1583.97
476.227	1595.27
476.598	1661.93
476.97	1642.73
477.341	1664.42
477.713	1674.36
478.084	1706.68
478.455	1717.75
478.827	1735.83
479.198	1788.48
479.569	1800.46
479.94	1807.69
480.311	1854.25
480.682	1882.94
481.053	1879.56
481.424	1914.81
481.795	1964.52
482.166	2019.89
482.537	1986.44
482.908	2011.98
483.279	2079.32
483.65	2090.85
484.021	2138.53
484.391	2145.31
484.762	2190.73
485.133	2194.58
485.503	2229.83
485.874	2267.57
486.244	2289.71
486.615	2319.77
486.985	2372.2
487.356	2392.08
487.726	2459.43
488.097	2428.69
488.467	2503.95
488.837	2508.47
489.207	2549.82
489.578	2581.01
489.948	2615.13
490.318	2666.65
490.688	2701.91
491.058	2719.76
491.428	2743.49
491.798	2799.3
492.168	2858.51
492.538	2849.47
492.908	2892.41
493.278	2940.32
493.648	2964.27
494.017	2968.79
494.387	3051.73
494.757	3036.13
495.126	3090.6
495.496	3118.62
495.866	3150.48
496.235	3187.09
496.605	3244.72
496.974	3242.01
497.344	3298.27
497.713	3330.59
498.082	3330.82
498.452	3351.38
498.821	3399.29
499.19	3419.18
499.559	3442
499.928	3494.65
500.298	3513.86
500.667	3572.39
501.036	3527.42
501.405	3620.53
501.774	3617.36
502.143	3640.41
502.512	3683.58
502.88	3754.31
503.249	3728.32
503.618	3797.24
503.987	3805.38
504.356	3815.55
504.724	3822.1
505.093	3885.15
505.462	3895.77
505.83	3895.32
506.199	3953.4
506.567	4009.44
506.936	3987.97
507.304	4042.89
507.672	4062.32
508.041	4101.87
508.409	4125.15
508.777	4203.79
509.145	4223.22
509.514	4191.81
509.882	4248.98
510.25	4288.98
510.618	4318.14
510.986	4335.54
511.354	4391.35
511.722	4433.39
512.09	4436.32
512.458	4407.4
512.826	4463.44
513.193	4524.68
513.561	4574.4
513.929	4606.72
514.297	4662.31
514.664	4656.21
515.032	4677.67
515.4	4721.06
515.767	4732.81
516.135	4801.96
516.502	4770.33
516.869	4798.35
517.237	4877.22
517.604	4861.4
517.972	4906.82
518.339	4927.84
518.706	4964.9
519.073	4956.76
519.44	5020.49
519.808	5069.08
520.175	5117.44
520.542	5138
520.909	5230.2
521.276	5194.95
521.643	5259.58
522.009	5328.5
522.376	5293.02
522.743	5333.02
523.11	5423.87
523.477	5452.79
523.843	5428.61
524.21	5535.96
524.577	5548.16
524.943	5576.18
525.31	5637.42
525.676	5673.58
526.043	5679.68
526.409	5728.49
526.776	5797.19
527.142	5747.25
527.508	5789.51
527.874	5877.87
528.241	5941.14
528.607	5903.4
528.973	5968.71
529.339	5972.78
529.705	6011.42
530.071	6083.51
530.437	6107.24
530.803	6133.68
531.169	6205.77
531.535	6177.97
531.901	6221.36
532.267	6175.49
532.632	6246.9
532.998	6293.68
533.364	6320.79
533.73	6361.47
534.095	6404.63
534.461	6457.74
534.826	6456.84
535.192	6424.29
535.557	6489.6
535.923	6504.74
536.288	6540.68
536.653	6594.46
537.019	6580.45
537.384	6575.48
537.749	6646.89
538.114	6662.25
538.479	6700.9
538.845	6787.67
539.21	6705.42
539.575	6749.26
539.94	6789.26
540.305	6820.44
540.67	6808.01
541.034	6866.09
541.399	6903.83
541.764	6938.18
542.129	6945.86
542.494	6950.16
542.858	7000.78
543.223	7047.55
543.587	7059.76
543.952	7057.27
544.316	7139.3
544.681	7158.51
545.045	7203.03
545.41	7276.48
545.774	7267.89
546.138	7314.89
546.503	7277.15
546.867	7362.57
547.231	7386.98
547.595	7424.72
547.959	7513.98
548.324	7494.55
548.688	7567.99
549.052	7548.56
549.416	7611.16
549.779	7598.27
550.143	7693.41
550.507	7699.74
550.871	7711.04
551.235	7788.1
551.599	7815.9
551.962	7847.76
552.326	7925.95
552.689	7920.3
553.053	7935.67
553.417	7976.8
553.78	8111.26
554.143	8150.8
554.507	8157.58
554.87	8274.19
555.234	8305.37
555.597	8341.53
555.96	8354.87
556.323	8448.42
556.686	8417.24
557.05	8521.87
557.413	8593.05
557.776	8622.43
558.139	8708.08
558.502	8730.9
558.865	8788.07
559.228	8868.98
559.59	9014.73
559.953	8994.62
560.316	9138.57
560.679	9157.56
561.041	9253.15
561.404	9391.9
561.767	9459.24
562.129	9493.82
562.492	9547.6
562.854	9659.01
563.217	9617.2
563.579	9735.17
563.941	9888.61
564.304	9933.35
564.666	10016.06
565.028	10082.96
565.39	10242.27
565.753	10321.37
566.115	10400.91
566.477	10518.42
566.839	10628.03
567.201	10706.44
567.563	10757.06
567.925	10988.92
568.287	11084.51
568.648	11138.07
569.01	11285.86
569.372	11417.61
569.734	11450.15
570.095	11683.37
570.457	11782.35
570.819	11938.95
571.18	12046.97
571.542	12222.79
571.903	12370.58
572.265	12517.24
572.626	12716.11
572.987	12832.04
573.349	13054.18
573.71	13238.58
574.071	13488.52
574.432	13591.79
574.794	13942.74
575.155	14114.71
575.516	14252.11
575.877	14466.57
576.238	14642.84
576.599	14842.83
576.96	15054.8
577.32	15354.91
577.681	15578.86
578.042	15848.68
578.403	16115.56
578.763	16278.05
579.124	16604.82
579.485	17013.39
579.845	17351.69
580.206	17539.48
580.566	17777.22
580.927	18130.88
581.287	18559.34
581.648	18812.44
582.008	19123.62
582.368	19446.78
582.728	19805.86
583.089	20225.51
583.449	20464.83
583.809	20877.02
584.169	21275.43
584.529	21517.46
584.889	22130.55
585.249	22329.41
585.609	22705.9
585.969	23246
586.329	23569.83
586.688	24043.04
587.048	24373.43
587.408	24753.76
587.768	25224.25
588.127	25730.23
588.487	25957.11
588.846	26727.26
589.206	26873.47
589.565	27433.91
589.925	27971.75
590.284	28296.26
590.643	28830.26
591.003	29337.36
591.362	29873.62
591.721	30135.99
592.08	30638.12
592.44	31197.2
592.799	31706.34
593.158	32056.84
593.517	32598.07
593.876	33076.02
594.235	33456.35
594.593	34010.91
594.952	34502.65
595.311	34942.41
595.67	35419.69
596.029	36124.08
596.387	36657.17
596.746	37149.36
597.104	37279.98
597.463	37873.86
597.822	38374.19
598.18	38652.83
598.538	39128.97
598.897	39795.17
599.255	39998.78
599.613	40792.88
599.972	40938.87
600.33	41523.48
600.688	41680.77
601.046	42277.14
601.404	42922.77
601.762	43181.29
602.12	43547.39
602.478	44070.08
602.836	44424.65
603.194	44551.43
603.552	44972.66
603.91	45160.9
604.268	45756.82
604.625	46022.58
604.983	46431.38
605.341	46628.21
605.698	46978.03
606.056	47432.48
606.413	47607.62
606.771	48004.44
607.128	48272.46
607.485	48393.81
607.843	48597.65
608.2	49056.85
608.557	49361.92
608.914	49491.41
609.272	49921.68
609.629	50045.52
609.986	50288
610.343	50295.23
610.7	50808.44
611.057	50844.82
611.414	50956.68
611.771	51176.79
612.127	51421.76
612.484	51423.11
612.841	51711.47
613.198	51777.9
613.554	51891.35
613.911	52261.96
614.267	52268.74
614.624	52263.32
614.98	52494.04
615.337	52687.94
615.693	52743.08
616.05	52855.16
616.406	53142.84
616.762	53059.45
617.118	53190.07
617.475	53246.11
617.831	53422.83
618.187	53548.03
618.543	53650.85
618.899	53798.64
619.255	53879.32
619.611	53908.47
619.967	54022.59
620.323	54122.7
620.678	54030.95
621.034	53975.36
621.39	54143.49
621.746	54103.72
622.101	54538.96
622.457	54317.05
622.812	54462.35
623.168	54497.15
623.523	54498.06
623.879	54659.64
624.234	54494.44
624.589	54644.27
624.945	54718.84
625.3	54778.73
625.655	54797.94
626.01	54787.54
626.365	54914.77
626.72	54864.6
627.075	54847.2
627.43	54835
627.785	54864.15
628.14	54923.36
628.495	54970.59
628.85	54974.43
629.205	54952.96
629.559	55107.08
629.914	54930.36
630.269	55074.09
630.623	54925.62
630.978	54879.07
631.332	55046.29
631.687	55144.37
632.041	55055.56
632.396	55064.82
632.75	54995.45
633.104	54972.85
633.459	54970.14
633.813	54922.23
634.167	54926.3
634.521	55049.46
634.875	55087.2
635.229	54998.38
635.583	54792.06
635.937	54940.08
636.291	54902.34
636.645	54942.11
636.999	54840.2
637.352	54956.58
637.706	54799.52
638.06	54849.01
638.413	54851.5
638.767	54781.89
639.121	54813.08
639.474	54691.73
639.828	54694.66
640.181	54789.8
640.534	54816.69
640.888	54736.02
641.241	54582.58
641.594	54669.13
641.947	54786.19
642.301	54710.93
642.654	54756.81
643.007	54684.27
643.36	54684.27
643.713	54705.96
644.066	54797.71
644.419	54507.32
644.771	54380.77
645.124	54118.63
645.477	54082.25
645.83	53934.91
646.182	53815.59
646.535	53794.12
646.888	53798.42
647.24	53709.38
647.593	53971.29
647.945	53871.63
648.298	53694.46
648.65	53659.66
649.002	53559.33
649.355	53743.28
649.707	53643.17
650.059	53803.61
650.411	54127.67
650.763	54171.29
651.115	54441.79
651.467	54409.02
651.819	54324.73
652.171	54318.63
652.523	54255.81
652.875	54182.59
653.227	54157.28
653.578	54317.27
653.93	54235.47
654.282	54037.51
654.633	54047.67
654.985	54114.57
655.337	54180.1
655.688	54177.39
656.039	54252.42
656.391	54098.97
656.742	54092.87
657.094	54061.23
657.445	54255.81
657.796	54129.25
658.147	54125.19
658.498	54178.52
658.849	54149.37
659.2	54162.7
659.551	54049.71
659.902	54202.02
660.253	54061.69
660.604	54148.24
660.955	54044.51
661.306	54085.64
661.656	54145.75
662.007	54106.88
662.358	54058.75
662.708	54057.84
663.059	54042.03
663.409	53930.62
663.76	54089.26
664.11	54084.96
664.461	54183.72
664.811	54021.46
665.161	54046.77
665.511	53865.31
665.862	53914.57
666.212	54056.71
666.562	54095.81
666.912	54021.01
667.262	53940.56
667.612	53985.98
667.962	53940.79
668.312	53865.53
668.662	54008.13
669.011	53983.04
669.361	53904.63
669.711	53828.02
670.06	53851.75
670.41	53848.13
670.76	53752.77
671.109	53860.34
671.459	53777.17
671.808	53709.6
672.157	53794.57
672.507	53607.91
672.856	53661.02
673.205	53670.96
673.554	53792.54
673.904	53564.52
674.253	53708.7
674.602	53586.9
674.951	53171.77
675.3	53081.82
675.649	53473.9
675.998	53466.45
676.346	53498.54
676.695	53549.38
677.044	53316.62
677.393	53459.44
677.741	53401.14
678.09	53466.45
678.438	53347.81
678.787	53452.44
679.135	53398.2
679.484	53145.33
679.832	53233.46
680.181	53197.3
680.529	53167.02
680.877	53117.3
681.225	53077.08
681.573	53224.42
681.922	52971.77
682.27	52890.19
682.618	53024.88
682.966	52873.92
683.314	52948.04
683.661	52820.59
684.009	52617.2
684.357	52622.18
684.705	52550.99
685.053	52643.19
685.4	52649.75
685.748	52411.79
686.095	52416.98
686.443	52286.59
686.79	52276.42
687.138	52340.15
687.485	52299.7
687.832	52167.72
688.18	52188.29
688.527	52014.28
688.874	51908.97
689.221	51932.48
689.568	51847.51
689.915	51674.63
690.262	51708.53
690.609	51586.5
690.956	51598.47
691.303	51559.6
691.65	51289.78
691.997	51300.18
692.344	51104.7
692.69	51236.22
693.037	51156.9
693.383	50937.25
693.73	51021.09
694.077	50727.76
694.423	50838.49
694.769	50668.33
695.116	50670.59
695.462	50480.54
695.808	50473.08
696.155	50479.18
696.501	50250.49
696.847	50206.87
697.193	49944.28
697.539	50134.33
697.885	49808.01
698.231	49619.54
698.577	49640.33
698.923	49624.51
699.269	49468.13
699.614	49224.75
699.96	49181.14
700.306	49258.42
700.651	48963.06
700.997	48872.9
701.342	48904.31
701.688	48732.79
702.033	48615.28
702.379	48738.21
702.724	48463.87
703.069	48652.56
703.415	48213.25
703.76	48121.73
704.105	48123.76
704.45	48040.15
704.795	47873.15
705.14	47741.4
705.485	47769.2
705.83	47541.41
706.175	47544.34
706.52	47465.7
706.865	47284.91
707.209	47283.33
707.554	47081.53
707.899	47224.35
708.243	46949.56
708.588	46916.56
708.932	46707.08
709.277	46606.29
709.621	46649.45
709.966	46415.56
710.31	46521.09
710.654	46190.93
710.998	46223.02
711.342	46220.99
711.687	46125.17
712.031	45927.21
712.375	45767.21
712.719	45788.91
713.063	45821.68
713.407	45910.04
713.75	45679.99
714.094	45723.6
714.438	45490.39
714.782	45456.49
715.125	45250.17
715.469	45361.8
715.812	45145.08
716.156	45011.08
716.499	45112.54
716.843	45008.59
717.186	44815.83
717.53	44937.86
717.873	44816.96
718.216	44816.96
718.559	44579
718.902	44450.19
719.246	44487.93
719.589	44348.27
719.932	44311.43
720.275	44255.39
720.617	44179.23
720.96	44141.49
721.303	44094.49
721.646	44022.18
721.989	43870.54
722.331	43980.37
722.674	43775.63
723.016	43829.41
723.359	43639.81
723.701	43822.86
724.044	43475.98
724.386	43269.65
724.729	43559.82
725.071	43512.58
725.413	43278.24
725.755	43344.91
726.097	43212.25
726.439	43077.34
726.782	43029.66
727.124	43226.94
727.465	43056.33
727.807	43081.86
728.149	42871.47
728.491	42843
728.833	42854.3
729.175	42754.19
729.516	42637.13
729.858	42618.6
730.199	42729.78
730.541	42590.35
730.882	42571.59
731.224	42583.8
731.565	42388.77
731.906	42442.1
732.248	42538.82
732.589	42204.37
732.93	42088.67
733.271	42202.79
733.612	42148.55
733.953	42374.99
734.294	42055
734.635	41843.93
734.976	42128.21
735.317	41811.84
735.658	41786.08
735.999	41880.76
736.339	41768
736.68	41934.32
737.021	41805.96
737.361	41641.9
737.702	41709.47
738.042	41640.54
738.383	41464.95
738.723	41609.58
739.063	41455.92
739.404	41478.29
739.744	41398.74
740.084	41169.82
740.424	41455.01
740.764	41209.37
741.104	41347.22
741.444	41061.12
741.784	41092.54
742.124	41096.6
742.464	41071.74
742.804	40874.69
743.143	40889.6
743.483	41004.18
743.823	40704.3
744.162	40849.83
744.502	40731.64
744.841	40591.31
745.181	40864.07
745.52	40520.8
745.86	40624.53
746.199	40412.78
746.538	40583.85
746.877	40491.2
747.216	40600.12
747.556	40415.49
747.895	40361.93
748.234	40293.46
748.573	40181.15
748.911	40159.9
749.25	40138.66
749.589	39865.67
749.928	40009.85
750.267	40024.99
750.605	39980.25
750.944	39898.67
751.283	39761.04
751.621	39817.99
751.96	39453.71
752.298	39570.77
752.636	39497.32
752.975	39418.68
753.313	39198.57
753.651	39397.89
753.989	39135.3
754.327	39129.65
754.666	38919.71
755.004	38945.47
755.342	39017.11
755.679	39020.95
756.017	38701.86
756.355	38724.69
756.693	38668.42
757.031	38783.9
757.368	38453.06
757.706	38423.9
758.044	38418.48
758.381	38207.19
758.719	38129.45
759.056	38195.89
759.394	38148.21
759.731	37747.09
760.068	37779.4
760.405	37662.34
760.743	37588.67
761.08	37536.47
761.417	37327.66
761.754	37502.35
762.091	37389.58
762.428	37138.29
762.765	36943.94
763.102	37110.27
763.438	36941.23
763.775	36669.15
764.112	36838.64
764.449	36810.84
764.785	36518.19
765.122	36239.33
765.458	36162.27
765.795	36214.02
766.131	36088.6
766.467	35906.91
766.804	35885.21
767.14	35566.8
767.476	35707.59
767.812	35680.7
768.148	35557.99
768.485	35355.06
768.821	35076.65
769.157	35029.87
769.492	35065.58
769.828	35080.49
770.164	34607.96
770.5	34583.78
770.836	34683.66
771.171	34308.08
771.507	34318.93
771.842	34037.13
772.178	34033.29
772.513	34038.71
772.849	33762.56
773.184	33722.79
773.519	33723.92
773.855	33528.44
774.19	33433.3
774.525	33338.39
774.86	33290.71
775.195	33108.34
775.53	33043.26
775.865	32905.18
776.2	32676.71
776.535	32424.97
776.87	32490.5
777.205	32399.66
777.539	32166.89
777.874	32243.95
778.209	31909.5
778.543	31874.92
778.878	31756.28
779.212	31751.54
779.547	31549.28
779.881	31582.28
780.215	31470.87
780.55	31312.91
780.884	31188.39
781.218	31141.16
781.552	31211.89
781.886	30888.06
782.22	30748.4
782.554	30635.86
782.888	30472.25
783.222	30159.94
783.556	30167.17
783.889	30152.26
784.223	29702.78
784.557	29880.63
784.89	29942.55
785.224	29856.9
785.557	29645.83
785.891	29528.09
786.224	29489.68
786.558	29384.59
786.891	29079.97
787.224	29018.73
787.557	29047.2
787.891	28914.32
788.224	28860.77
788.557	28890.6
788.89	28754.1
789.223	28778.51
789.556	28385.52
789.888	28350.95
790.221	28301.01
790.554	27997.74
790.887	28072.31
791.219	27944.86
791.552	28041.35
791.884	27774.47
792.217	27719.33
792.549	27686.33
792.882	27473.23
793.214	27457.64
793.546	27388.71
793.879	27261.94
794.211	27149.17
794.543	27103.3
794.875	27032.11
795.207	27126.12
795.539	26940.37
795.871	26804.32
796.203	26618.57
796.535	26503.99
796.867	26429.19
797.198	26377.89
797.53	26382.19
797.862	26126.6
798.193	26227.62
798.525	25977
798.856	26082.08
799.188	25827.4
799.519	25744.24
799.85	25595.77
800.182	25717.8
800.513	25606.39
800.844	25320.07
801.175	25491.82
801.506	25262.22
801.837	25292.5
802.168	25266.74
802.499	25158.94
802.83	24972.96
803.161	24947.42
803.491	24990.81
803.822	25057.48
804.153	24683.48
804.483	24605.51
804.814	24629.92
805.145	24390.38
805.475	24490.26
805.805	24445.97
806.136	24403.93
806.466	24390.38
806.796	24247.33
807.126	23972.08
807.457	24073.55
807.787	23983.83
808.117	23961.23
808.447	23759.66
808.777	23858.86
809.107	23786.78
809.436	23741.58
809.766	23695.25
810.096	23621.81
810.426	23450.29
810.755	23648.02
811.085	23479.89
811.414	23414.36
811.744	23177.3
812.073	23260.24
812.403	23239.67
812.732	22999.9
813.061	22961.03
813.39	22827.25
813.719	22791.55
814.049	22950.41
814.378	22803.52
814.707	22691.21
815.036	22697.09
815.365	22540.25
815.693	22384.1
816.022	22422.52
816.351	22282.63
816.68	22302.52
817.008	22232.47
817.337	22107.72
817.665	22088.97
817.994	22093.94
818.322	22035.86
818.651	21887.39
818.979	21924.9
819.307	21958.58
819.636	21874.28
819.964	21753.61
820.292	21740.28
820.62	21733.27
820.948	21596.1
821.276	21710.67
821.604	21646.94
821.932	21679.71
822.259	21555.65
822.587	21600.39
822.915	21623.89
823.243	21639.26
823.57	21561.3
823.898	21617.57
824.225	21467.06
824.553	21577.57
824.88	21533.5
825.207	21618.02
825.535	21534.18
825.862	21598.81
826.189	21562.65
826.516	21649.88
826.843	21695.98
827.17	21591.58
827.497	21585.25
827.824	21660.28
828.151	21653.27
828.478	21563.78
828.805	21702.31
829.131	21515.2
829.458	21512.03
829.785	21383.68
830.111	21477.91
830.438	21574.4
830.764	21451.24
831.09	21548.19
831.417	21498.93
831.743	21588.87
832.069	21550.9
832.395	21351.59
832.722	21470.9
833.048	21320.17
833.374	21445.37
833.7	21295.09
834.026	21276.56
834.351	21459.61
834.677	21336.22
835.003	21388.65
835.329	21303.45
835.654	21298.48
835.98	21192.49
836.306	21266.39
836.631	21189.56
836.956	21232.72
837.282	21180.52
837.607	21074.53
837.932	20984.36
838.258	21077.02
838.583	20873.86
838.908	20954.99
839.233	20931.26
839.558	20912.73
839.883	20796.12
840.208	20789.57
840.533	20787.76
840.858	20770.36
841.182	20739.4
841.507	20592.06
841.832	20578.72
842.156	20464.83
842.481	20521.1
842.805	20432.06
843.13	20347.32
843.454	20374.89
843.778	20309.35
844.103	20245.63
844.427	20212.63
844.751	20230.94
845.075	20093.54
845.399	20088.34
845.723	20019.19
846.047	20033.65
846.371	19792.98
846.695	19865.07
847.019	19643.38
847.343	19665.98
847.666	19485.65
847.99	19327.68
848.313	19394.57
848.637	19337.63
848.96	19366.55
849.284	19284.52
849.607	19112.1
849.931	19046.34
850.254	18919.11
850.577	18871.42
850.9	18658.55
851.223	18719.79
851.546	18570.64
851.869	18519.34
852.192	18555.95
852.515	18419.23
852.838	18366.13
853.161	18384.21
853.483	18124.33
853.806	18135.85
854.129	18054.27
854.451	17971.79
854.774	17879.36
855.096	17902.86
855.419	17834.62
855.741	17804.79
856.063	17650.89
856.385	17581.52
856.708	17519.37
857.03	17540.84
857.352	17461.29
857.674	17441.41
857.996	17350.79
858.318	17287.06
858.64	17316.21
858.961	17151.47
859.283	17173.84
859.605	17077.35
859.926	17151.02
860.248	17122.54
860.57	16977.24
860.891	17025.6
861.212	16985.15
861.534	16824.92
861.855	16874.64
862.176	16832.83
862.498	16856.56
862.819	16824.25
863.14	16721.88
863.461	16604.59
863.782	16597.13
864.103	16633.74
864.424	16629
864.745	16601.65
865.065	16574.99
865.386	16503.13
865.707	16434.65
866.027	16373.64
866.348	16394.2
866.668	16260.87
866.989	16348.33
867.309	16296.58
867.63	16350.36
867.95	16369.34
868.27	16257.03
868.59	16254.32
868.91	16151.72
869.23	16083.93
869.55	16042.35
869.87	16083.25
870.19	16125.73
870.51	16062.01
870.83	16090.03
871.15	16019.75
871.469	15984.04
871.789	15932.07
872.109	15890.94
872.428	15880.77
872.748	15829.24
873.067	15812.97
873.386	15881.45
873.706	15779.08
874.025	15728.23
874.344	15696.59
874.663	15723.26
874.982	15559.87
875.301	15601.91
875.62	15621.79
875.939	15528.24
876.258	15633.77
876.577	15488.69
876.896	15538.63
877.214	15402.14
877.533	15486.2
877.852	15433.1
878.17	15395.81
878.489	15470.38
878.807	15319.43
879.125	15359.43
879.444	15309.94
879.762	15121.47
880.08	15223.16
880.398	15153.1
880.716	15171.86
881.034	15131.41
881.352	15173.22
881.67	15103.39
881.988	15092.54
882.306	15065.88
882.624	14949.72
882.941	14927.35
883.259	14838.99
883.577	14820.46
883.894	14753.34
884.212	14825.88
884.529	14824.53
884.846	14623.85
885.164	14788.59
885.481	14701.36
885.798	14780.23
886.115	14614.36
886.432	14538.66
886.75	14446.46
887.067	14556.06
887.383	14395.84
887.7	14442.61
888.017	14450.52
888.334	14413.69
888.651	14430.86
888.967	14290.98
889.284	14225.67
889.6	14305.9
889.917	14150.19
890.233	14116.97
890.55	14097.54
890.866	14011.67
891.182	14052.79
891.498	13949.29
891.815	13968.95
892.131	13849.18
892.447	13861.84
892.763	13807.38
893.079	13722.63
893.395	13758.11
893.71	13696.42
894.026	13614.39
894.342	13540.72
894.657	13480.83
894.973	13496.2
895.289	13471.79
895.604	13509.98
895.92	13386.6
896.235	13350.89
896.55	13408.07
896.865	13268.41
897.181	13187.96
897.496	13199.94
897.811	13187.96
898.126	13115.42
898.441	12965.37
898.756	12932.15
899.071	12891.02
899.386	12926.72
899.7	12818.7
900.015	12775.54
900.33	12642.44
900.644	12657.35
900.959	12659.16
901.273	12632.72
901.588	12458.26
901.902	12464.36
902.216	12415.55
902.531	12407.41
902.845	12427.3
903.159	12354.99
903.473	12237.47
903.787	12208.1
904.101	12108.66
904.415	12199.96
904.729	12163.58
905.042	11995.22
905.356	11976.01
905.67	11917.26
905.984	11893.98
906.297	11803.14
906.611	11806.07
906.924	11823.93
907.237	11777.15
907.551	11683.14
907.864	11599.3
908.177	11592.07
908.491	11591.62
908.804	11496.03
909.117	11496.25
909.43	11389.14
909.743	11353.66
910.056	11326.54
910.368	11282.7
910.681	11201.34
910.994	11184.17
911.307	11094.68
911.619	11052.42
911.932	11043.16
912.244	10967.9
912.557	10927.9
912.869	10891.3
913.181	10847.23
913.494	10863.27
913.806	10738.98
914.118	10769.04
914.43	10657.63
914.742	10651.75
915.054	10595.48
915.366	10500.57
915.678	10489.27
915.99	10491.31
916.302	10407.69
916.613	10296.06
916.925	10332.44
917.236	10290.86
917.548	10161.82
917.859	10192.1
918.171	10145.55
918.482	10139.9
918.794	10041.15
919.105	10019.68
919.416	9953.69
919.727	9996.4
920.038	9929.96
920.349	9879.8
920.66	9789.4
920.971	9775.39
921.282	9726.58
921.593	9647.03
921.903	9614.94
922.214	9640.93
922.525	9588.05
922.835	9571.78
923.146	9458.34
923.456	9412.69
923.767	9325.01
924.077	9368.4
924.387	9311.22
924.697	9277.55
925.008	9245.46
925.318	9159.59
925.628	9183.77
925.938	9087.73
926.248	9007.5
926.558	9025.13
926.867	8893.38
927.177	8929.09
927.487	8937.45
927.796	8776.55
928.106	8801.41
928.416	8734.97
928.725	8736.32
929.034	8669.66
929.344	8659.72
929.653	8668.3
929.962	8576.33
930.271	8588.98
930.581	8544.69
930.89	8508.08
931.199	8422.43
931.508	8407.75
931.817	8353.06
932.125	8356.45
932.434	8369.1
932.743	8255.43
933.051	8226.73
933.36	8201.2
933.669	8137.02
933.977	8143.57
934.286	8083.23
934.594	8038.26
934.902	8012.5
935.21	8033.52
935.519	8010.47
935.827	7935.22
936.135	7833.52
936.443	7828.1
936.751	7776.12
937.059	7744.94
937.367	7723.24
937.674	7702.23
937.982	7699.29
938.29	7615.45
938.597	7679.63
938.905	7560.76
939.213	7541.55
939.52	7504.72
939.827	7487.09
940.135	7441.22
940.442	7403.03
940.749	7436.02
941.056	7357.38
941.363	7306.53
941.67	7320.32
941.977	7194.22
942.284	7245.52
942.591	7123.71
942.898	7155.12
943.205	7097.72
943.511	7083.03
943.818	7055.92
944.125	7012.53
944.431	6994.22
944.738	7031.51
945.044	6888.46
945.35	6918.07
945.657	6857.73
945.963	6801.23
946.269	6763.49
946.575	6791.52
946.881	6741.8
947.187	6758.52
947.493	6711.52
947.799	6651.18
948.105	6638.98
948.41	6606.21
948.716	6567.79
949.022	6558.3
949.327	6554.69
949.633	6467.23
949.938	6480.56
950.244	6443.5
950.549	6392.2
950.854	6402.6
951.16	6412.09
951.465	6330.96
951.77	6277.86
952.075	6320.34
952.38	6261.59
952.685	6245.09
952.99	6176.84
953.294	6144.53
953.599	6047.81
953.904	6067.02
954.209	6081.03
954.513	6056.39
954.818	5976.85
955.122	5973.46
955.426	5943.86
955.731	5942.05
956.035	5890.3
956.339	5854.82
956.643	5856.4
956.948	5771.88
957.252	5784.09
957.556	5787.02
957.86	5795.61
958.163	5737.76
958.467	5729.4
958.771	5666.57
959.075	5674.94
959.378	5634.26
959.682	5619.34
959.985	5594.71
960.289	5543.41
960.592	5587.93
960.896	5508.61
961.199	5519.23
961.502	5414.6
961.805	5457.31
962.108	5405.34
962.411	5401.27
962.714	5374.6
963.017	5343.42
963.32	5340.48
963.623	5239.47
963.926	5297.54
964.228	5214.83
964.531	5245.12
964.833	5180.03
965.136	5187.26
965.438	5155.18
965.741	5117.44
966.043	5074.73
966.345	5105.46
966.648	5011.9
966.95	5046.48
967.252	4969.42
967.554	4970.77
967.856	4975.74
968.158	4922.86
968.46	4888.06
968.761	4900.94
969.063	4869.53
969.365	4894.62
969.666	4792.92
969.968	4768.74
970.269	4792.92
970.571	4756.99
970.872	4740.5
971.174	4663.44
971.475	4688.97
971.776	4686.71
972.077	4629.77
972.378	4681.06
972.679	4600.39
972.98	4609.88
973.281	4620.95
973.582	4572.59
973.883	4529.88
974.183	4521.29
974.484	4460.5
974.785	4439.49
975.085	4493.27
975.386	4440.17
975.686	4417.34
975.986	4400.39
976.287	4395.2
976.587	4317.46
976.887	4316.1
977.187	4333.05
977.487	4289.66
977.787	4265.71
978.087	4267.06
978.387	4241.07
978.687	4232.71
978.987	4224.58
979.286	4182.32
979.586	4118.14
979.885	4135.77
980.185	4130.12
980.484	4098.25
980.784	4059.16
981.083	4073.85
981.382	4073.4
981.682	4004.7
981.981	4053.96
982.28	4010.57
982.579	3949.78
982.878	3973.29
983.177	3945.49
983.475	3914.08
983.774	3902.33
984.073	3860.75
984.372	3847.64
984.67	3836.11
984.969	3860.75
985.267	3796.79
985.566	3765.61
985.864	3749.79
986.162	3770.8
986.461	3736.46
986.759	3726.96
987.057	3684.71
987.355	3707.08
987.653	3707.53
987.951	3636.35
988.249	3620.75
988.547	3613.75
988.844	3603.35
989.142	3632.05
989.44	3544.37
989.737	3535.56
990.035	3558.16
990.332	3489.91
990.63	3498.27
990.927	3507.53
991.224	3485.61
991.521	3423.92
991.819	3423.24
992.116	3438.38
992.413	3392.06
992.71	3398.84
993.006	3332.85
993.303	3338.27
993.6	3339.63
993.897	3344.83
994.193	3345.28
994.49	3281.1
994.787	3255.79
995.083	3241.1
995.379	3220.54
995.676	3187.09
995.972	3214.89
996.268	3164.04
996.565	3152.06
996.861	3154.78
997.157	3143.48
997.453	3142.35
997.749	3115.91
998.044	3071.16
998.34	3119.52
998.636	3081.11
998.932	3053.99
999.227	3013.54
999.523	3027.77
999.818	3013.54
1000.114	2990.94
1000.409	2928.79
1000.704	2910.26
1001	2909.81
1001.295	2908.23
1001.59	2901.22
1001.885	2892.41
1002.18	2849.93
1002.475	2873.43
1002.77	2878.85
1003.065	2790.94
1003.359	2788.91
1003.654	2806.31
1003.949	2787.78
1004.243	2761.34
1004.538	2752.75
1004.832	2711.85
1005.127	2717.5
1005.421	2667.78
1005.715	2690.16
1006.009	2661.91
1006.304	2644.05
1006.598	2605.86
1006.892	2610.38
1007.186	2589.37
1007.48	2586.2
1007.773	2588.91
1008.067	2544.85
1008.361	2503.49
1008.655	2501.46
1008.948	2501.23
1009.242	2513.21
1009.535	2472.76
1009.829	2472.08
1010.122	2425.76
1010.415	2422.37
1010.708	2429.15
1011.001	2384.17
1011.295	2368.58
1011.588	2358.64
1011.881	2348.7
1012.173	2348.7
1012.466	2343.27
1012.759	2335.36
1013.052	2309.15
1013.344	2308.02
1013.637	2274.57
1013.93	2236.83
1014.222	2249.94
1014.514	2203.84
1014.807	2210.39
1015.099	2183.5
1015.391	2189.38
1015.683	2155.48
1015.976	2155.03
1016.268	2141.92
1016.56	2148.25
1016.851	2138.31
1017.143	2114.13
1017.435	2082.94
1017.727	2079.78
1018.018	2091.98
1018.31	2051.98
1018.602	2071.64
1018.893	2030.96
1019.185	1988.7
1019.476	1982.83
1019.767	2015.14
1020.058	1971.98
1020.35	1939.21
1020.641	1955.71
1020.932	1937.18
1021.223	1916.84
1021.514	1912.55
1021.804	1851.08
1022.095	1878.43
1022.386	1856.5
1022.677	1823.96
1022.967	1833
1023.258	1819.9
1023.548	1821.03
1023.839	1813.34
1024.129	1786.22
1024.419	1768.37
1024.709	1762.72
1025	1760.69
1025.29	1727.69
1025.58	1753
1025.87	1712.1
1026.16	1668.94
1026.449	1720.92
1026.739	1685.89
1027.029	1670.52
1027.319	1672.1
1027.608	1625.78
1027.898	1628.49
1028.187	1629.84
1028.477	1587.13
1028.766	1589.85
1029.055	1565.89
1029.344	1543.52
1029.634	1551.43
1029.923	1526.34
1030.212	1565.21
1030.501	1511.88
1030.79	1500.58
1031.078	1500.81
1031.367	1541.26
1031.656	1487.25
1031.945	1458.55
1032.233	1459.91
1032.522	1445.22
1032.81	1467.81
1033.099	1447.48
1033.387	1443.18
1033.675	1405.9
1033.963	1399.57
1034.251	1419.45
1034.54	1383.97
1034.828	1379.91
1035.116	1361.83
1035.403	1365.44
1035.691	1343.3
1035.979	1324.54
1036.267	1318.89
1036.554	1331.32
1036.842	1304.43
1037.129	1326.8
1037.417	1276.86
1037.704	1266.69
1037.992	1253.81
1038.279	1252
1038.566	1237.31
1038.853	1237.31
1039.14	1237.31
